3.00117 21140
3.02128 19973
3.0414 19735
3.06151 19007
3.08162 18724
3.10174 18197
3.12185 17391
3.14197 17287
3.16208 16448
3.18219 16226
3.20231 15741
3.22242 15179
3.24253 15043
3.26265 14297
3.28276 14125
3.30288 13425
3.32299 13031
3.3431 12867
3.36322 12152
3.38333 12194
3.40344 11790
3.42356 11019
3.44367 10533
3.46379 10368
3.4839 10283
3.50401 9773
3.52413 9506
3.54424 9260
3.56435 8797
3.58447 8328
3.60458 8361
3.62469 7769
3.64481 7758
3.66492 7173
3.68504 7183
3.70515 6920
3.72526 6312
3.74538 6296
3.76549 6028
3.7856 5800
3.80572 5729
3.82583 5388
3.84595 5255
3.86606 4767
3.88617 4975
3.90629 4683
3.9264 4531
3.94651 4322
3.96663 4217
3.98674 4152
4.00686 3896
4.02697 3578
4.04708 3722
4.0672 3411
4.08731 3333
4.10742 3263
4.12754 2927
4.14765 2986
4.16776 2904
4.18788 2837
4.20799 2849
4.22811 2462
4.24822 2530
4.26833 2362
4.28845 2360
4.30856 2495
4.32867 2221
4.34879 2140
4.3689 2204
4.38902 2119
4.40913 2195
4.42924 1919
4.44936 2027
4.46947 1867
4.48958 1992
4.5097 1991
4.52981 1847
4.54992 1845
4.57004 1770
4.59015 1829
4.61027 1849
4.63038 1617
4.65049 1782
4.67061 1731
4.69072 1668
4.71083 1657
4.73095 1558
4.75106 1487
4.77118 1523
4.79129 1622
4.8114 1508
4.83152 1440
4.85163 1469
4.87174 1423
4.89186 1463
4.91197 1474
4.93209 1320
4.9522 1424
4.97231 1367
4.99243 1398
5.01254 1408
5.03265 1230
5.05277 1315
5.07288 1268
5.09299 1347
5.11311 1310
5.13322 1243
5.15334 1261
5.17345 1241
5.19356 1204
5.21368 1188
5.23379 1174
5.2539 1163
5.27402 1167
5.29413 1200
5.31425 1193
5.33436 1163
5.35447 1134
5.37459 1122
5.3947 1157
5.41481 1053
5.43493 1109
5.45504 1189
5.47516 1104
5.49527 1049
5.51538 1018
5.5355 1048
5.55561 1033
5.57572 1055
5.59584 1036
5.61595 989
5.63606 1006
5.65618 991
5.67629 919
5.69641 1015
5.71652 906
5.73663 861
5.75675 928
5.77686 967
5.79697 925
5.81709 918
5.8372 909
5.85732 897
5.87743 872
5.89754 870
5.91766 876
5.93777 923
5.95788 859
5.978 834
5.99811 858
6.01823 824
6.03834 883
6.05845 883
6.07857 845
6.09868 833
6.11879 774
6.13891 813
6.15902 784
6.17913 793
6.19925 805
6.21936 800
6.23948 776
6.25959 762
6.2797 743
6.29982 748
6.31993 735
6.34004 783
6.36016 743
6.38027 728
6.40039 756
6.4205 699
6.44061 738
6.46073 656
6.48084 691
6.50095 712
6.52107 692
6.54118 740
6.56129 678
6.58141 662
6.60152 680
6.62164 657
6.64175 619
6.66186 715
6.68198 648
6.70209 618
6.7222 646
6.74232 600
6.76243 652
6.78255 619
6.80266 635
6.82277 594
6.84289 638
6.863 610
6.88311 584
6.90323 623
6.92334 569
6.94346 542
6.96357 553
6.98368 579
7.0038 559
7.02391 531
7.04402 544
7.06414 518
7.08425 578
7.10436 534
7.12448 550
7.14459 504
7.16471 524
7.18482 551
7.20493 557
7.22505 557
7.24516 537
7.26527 540
7.28539 544
7.3055 538
7.32562 488
7.34573 465
7.36584 493
7.38596 543
7.40607 513
7.42618 565
7.4463 476
7.46641 508
7.48653 544
7.50664 505
7.52675 453
7.54687 492
7.56698 483
7.58709 440
7.60721 496
7.62732 421
7.64743 468
7.66755 480
7.68766 475
7.70778 428
7.72789 439
7.748 442
7.76812 507
7.78823 465
7.80834 463
7.82846 481
7.84857 498
7.86869 463
7.8888 403
7.90891 488
7.92903 431
7.94914 466
7.96925 410
7.98937 439
8.00948 418
8.0296 443
8.04971 429
8.06982 477
8.08994 477
8.11005 411
8.13016 445
8.15028 406
8.17039 401
8.1905 443
8.21062 431
8.23073 428
8.25085 440
8.27096 410
8.29107 435
8.31119 428
8.3313 384
8.35141 430
8.37153 405
8.39164 414
8.41176 457
8.43187 432
8.45198 392
8.4721 424
8.49221 434
8.51232 438
8.53244 432
8.55255 410
8.57266 439
8.59278 421
8.61289 402
8.63301 414
8.65312 405
8.67323 449
8.69335 428
8.71346 422
8.73357 436
8.75369 426
8.7738 402
8.79392 411
8.81403 411
8.83414 417
8.85426 410
8.87437 400
8.89448 396
8.9146 359
8.93471 360
8.95483 418
8.97494 381
8.99505 391
9.01517 425
9.03528 422
9.05539 391
9.07551 404
9.09562 367
9.11573 401
9.13585 371
9.15596 355
9.17608 389
9.19619 364
9.2163 374
9.23642 348
9.25653 381
9.27664 384
9.29676 384
9.31687 356
9.33699 378
9.3571 344
9.37721 352
9.39733 395
9.41744 395
9.43755 365
9.45767 393
9.47778 376
9.4979 399
9.51801 381
9.53812 354
9.55824 384
9.57835 333
9.59846 334
9.61858 360
9.63869 355
9.6588 373
9.67892 364
9.69903 358
9.71915 357
9.73926 324
9.75937 360
9.77949 369
9.7996 381
9.81971 331
9.83983 353
9.85994 320
9.88006 362
9.90017 346
9.92028 372
9.9404 357
9.96051 342
9.98062 336
10.00074 352
10.02085 410
10.04097 347
10.06108 371
10.08119 390
10.10131 366
10.12142 355
10.14153 346
10.16165 342
10.18176 372
10.20187 344
10.22199 401
10.2421 376
10.26222 376
10.28233 377
10.30244 351
10.32256 345
10.34267 359
10.36278 357
10.3829 376
10.40301 369
10.42313 353
10.44324 350
10.46335 328
10.48347 353
10.50358 336
10.52369 330
10.54381 346
10.56392 371
10.58403 321
10.60415 366
10.62426 368
10.64438 353
10.66449 354
10.6846 333
10.70472 326
10.72483 321
10.74494 353
10.76506 352
10.78517 355
10.80529 330
10.8254 365
10.84551 364
10.86563 362
10.88574 382
10.90585 314
10.92597 320
10.94608 349
10.9662 318
10.98631 366
11.00642 361
11.02654 383
11.04665 317
11.06676 343
11.08688 345
11.10699 370
11.1271 355
11.14722 298
11.16733 373
11.18745 346
11.20756 322
11.22767 355
11.24779 333
11.2679 344
11.28801 356
11.30813 339
11.32824 337
11.34836 334
11.36847 348
11.38858 379
11.4087 383
11.42881 307
11.44892 317
11.46904 340
11.48915 361
11.50927 345
11.52938 321
11.54949 335
11.56961 330
11.58972 358
11.60983 345
11.62995 375
11.65006 372
11.67017 305
11.69029 331
11.7104 363
11.73052 342
11.75063 328
11.77074 330
11.79086 372
11.81097 335
11.83108 310
11.8512 344
11.87131 334
11.89143 336
11.91154 320
11.93165 325
11.95177 320
11.97188 343
11.99199 337
12.01211 332
12.03222 341
12.05234 355
12.07245 349
12.09256 317
12.11268 342
12.13279 351
12.1529 331
12.17302 354
12.19313 384
12.21324 358
12.23336 355
12.25347 368
12.27359 307
12.2937 305
12.31381 333
12.33393 300
12.35404 323
12.37415 300
12.39427 302
12.41438 329
12.4345 341
12.45461 335
12.47472 342
12.49484 338
12.51495 335
12.53506 308
12.55518 327
12.57529 357
12.5954 357
12.61552 295
12.63563 342
12.65575 345
12.67586 341
12.69597 317
12.71609 314
12.7362 319
12.75631 329
12.77643 317
12.79654 328
12.81666 322
12.83677 271
12.85688 322
12.877 294
12.89711 345
12.91722 355
12.93734 289
12.95745 306
12.97757 314
12.99768 283
13.01779 314
13.03791 324
13.05802 320
13.07813 340
13.09825 273
13.11836 297
13.13847 271
13.15859 331
13.1787 314
13.19882 301
13.21893 280
13.23904 269
13.25916 335
13.27927 322
13.29938 315
13.3195 312
13.33961 299
13.35973 322
13.37984 303
13.39995 288
13.42007 321
13.44018 293
13.46029 322
13.48041 336
13.50052 284
13.52064 294
13.54075 339
13.56086 314
13.58098 364
13.60109 364
13.6212 352
13.64132 349
13.66143 338
13.68154 364
13.70166 351
13.72177 328
13.74189 329
13.762 317
13.78211 311
13.80223 355
13.82234 367
13.84245 328
13.86257 347
13.88268 333
13.9028 337
13.92291 308
13.94302 318
13.96314 321
13.98325 294
14.00336 324
14.02348 299
14.04359 305
14.06371 275
14.08382 313
14.10393 317
14.12405 277
14.14416 319
14.16427 277
14.18439 288
14.2045 284
14.22461 309
14.24473 297
14.26484 273
14.28496 306
14.30507 306
14.32518 290
14.3453 312
14.36541 297
14.38552 273
14.40564 318
14.42575 308
14.44587 292
14.46598 292
14.48609 297
14.50621 247
14.52632 316
14.54643 292
14.56655 248
14.58666 262
14.60677 296
14.62689 287
14.647 343
14.66712 306
14.68723 302
14.70734 276
14.72746 308
14.74757 318
14.76768 261
14.7878 310
14.80791 308
14.82803 315
14.84814 325
14.86825 282
14.88837 292
14.90848 334
14.92859 293
14.94871 316
14.96882 279
14.98894 312
15.00905 309
15.02916 323
15.04928 304
15.06939 343
15.0895 310
15.10962 299
15.12973 323
15.14984 346
15.16996 313
15.19007 335
15.21019 286
15.2303 296
15.25041 313
15.27053 283
15.29064 296
15.31075 290
15.33087 331
15.35098 295
15.3711 301
15.39121 321
15.41132 287
15.43144 289
15.45155 304
15.47166 295
15.49178 274
15.51189 271
15.53201 298
15.55212 252
15.57223 283
15.59235 288
15.61246 287
15.63257 282
15.65269 305
15.6728 304
15.69291 289
15.71303 301
15.73314 286
15.75326 304
15.77337 307
15.79348 315
15.8136 281
15.83371 268
15.85382 305
15.87394 336
15.89405 276
15.91417 322
15.93428 243
15.95439 282
15.97451 281
15.99462 329
16.01473 275
16.03485 266
16.05496 344
16.07508 285
16.09519 341
16.1153 291
16.13542 281
16.15553 330
16.17564 285
16.19576 295
16.21587 276
16.23598 290
16.2561 325
16.27621 280
16.29633 307
16.31644 312
16.33655 298
16.35667 305
16.37678 296
16.39689 312
16.41701 276
16.43712 268
16.45724 296
16.47735 296
16.49746 349
16.51758 309
16.53769 290
16.5578 289
16.57792 309
16.59803 271
16.61814 282
16.63826 290
16.65837 283
16.67849 286
16.6986 277
16.71871 305
16.73883 306
16.75894 296
16.77905 287
16.79917 300
16.81928 289
16.8394 259
16.85951 287
16.87962 306
16.89974 299
16.91985 298
16.93996 311
16.96008 298
16.98019 298
17.00031 302
17.02042 304
17.04053 271
17.06065 297
17.08076 344
17.10087 288
17.12099 290
17.1411 284
17.16121 322
17.18133 267
17.20144 309
17.22156 292
17.24167 329
17.26178 334
17.2819 292
17.30201 324
17.32212 312
17.34224 306
17.36235 295
17.38247 315
17.40258 293
17.42269 317
17.44281 329
17.46292 304
17.48303 330
17.50315 326
17.52326 303
17.54338 291
17.56349 338
17.5836 288
17.60372 301
17.62383 307
17.64394 308
17.66406 305
17.68417 270
17.70428 305
17.7244 315
17.74451 294
17.76463 302
17.78474 303
17.80485 321
17.82497 311
17.84508 298
17.86519 312
17.88531 316
17.90542 344
17.92554 304
17.94565 306
17.96576 292
17.98588 313
18.00599 289
18.0261 278
18.04622 270
18.06633 301
18.08645 271
18.10656 337
18.12667 316
18.14679 324
18.1669 303
18.18701 280
18.20713 301
18.22724 324
18.24735 329
18.26747 311
18.28758 297
18.3077 300
18.32781 330
18.34792 294
18.36804 342
18.38815 312
18.40826 311
18.42838 326
18.44849 320
18.46861 304
18.48872 285
18.50883 321
18.52895 317
18.54906 299
18.56917 328
18.58929 318
18.6094 272
18.62951 301
18.64963 277
18.66974 299
18.68986 329
18.70997 305
18.73008 344
18.7502 354
18.77031 285
18.79042 361
18.81054 325
18.83065 355
18.85077 272
18.87088 326
18.89099 331
18.91111 336
18.93122 308
18.95133 367
18.97145 299
18.99156 300
19.01168 317
19.03179 315
19.0519 331
19.07202 318
19.09213 350
19.11224 311
19.13236 351
19.15247 344
19.17258 351
19.1927 361
19.21281 380
19.23293 361
19.25304 327
19.27315 371
19.29327 379
19.31338 392
19.33349 380
19.35361 427
19.37372 445
19.39384 470
19.41395 471
19.43406 506
19.45418 529
19.47429 488
19.4944 570
19.51452 590
19.53463 566
19.55475 628
19.57486 591
19.59497 714
19.61509 661
19.6352 725
19.65531 703
19.67543 723
19.69554 735
19.71565 768
19.73577 786
19.75588 738
19.776 747
19.79611 748
19.81622 755
19.83634 701
19.85645 801
19.87656 735
19.89668 698
19.91679 693
19.93691 664
19.95702 650
19.97713 657
19.99725 672
20.01736 647
20.03747 672
20.05759 640
20.0777 642
20.09782 610
20.11793 665
20.13804 589
20.15816 602
20.17827 614
20.19838 582
20.2185 597
20.23861 622
20.25872 585
20.27884 621
20.29895 575
20.31907 587
20.33918 579
20.35929 569
20.37941 601
20.39952 584
20.41963 619
20.43975 605
20.45986 592
20.47998 595
20.50009 615
20.5202 643
20.54032 688
20.56043 621
20.58054 695
20.60066 754
20.62077 897
20.64088 948
20.661 1116
20.68111 1407
20.70123 1681
20.72134 2135
20.74145 2666
20.76157 3110
20.78168 3726
20.80179 4048
20.82191 4130
20.84202 3907
20.86214 3390
20.88225 2750
20.90236 2098
20.92248 1553
20.94259 1169
20.9627 904
20.98282 750
21.00293 700
21.02305 647
21.04316 696
21.06327 605
21.08339 535
21.1035 560
21.12361 569
21.14373 545
21.16384 507
21.18395 543
21.20407 552
21.22418 514
21.2443 525
21.26441 517
21.28452 529
21.30464 467
21.32475 479
21.34486 470
21.36498 502
21.38509 508
21.40521 495
21.42532 519
21.44543 507
21.46555 495
21.48566 548
21.50577 598
21.52589 545
21.546 580
21.56612 525
21.58623 582
21.60634 552
21.62646 570
21.64657 558
21.66668 513
21.6868 523
21.70691 495
21.72702 497
21.74714 480
21.76725 443
21.78737 442
21.80748 467
21.82759 505
21.84771 477
21.86782 487
21.88793 528
21.90805 477
21.92816 513
21.94828 498
21.96839 516
21.9885 536
22.00862 563
22.02873 485
22.04884 498
22.06896 484
22.08907 432
22.10919 440
22.1293 429
22.14941 445
22.16953 436
22.18964 432
22.20975 439
22.22987 417
22.24998 450
22.27009 433
22.29021 438
22.31032 423
22.33044 423
22.35055 442
22.37066 450
22.39078 436
22.41089 412
22.431 438
22.45112 418
22.47123 419
22.49135 432
22.51146 425
22.53157 445
22.55169 447
22.5718 465
22.59191 419
22.61203 418
22.63214 455
22.65225 433
22.67237 481
22.69248 411
22.7126 465
22.73271 452
22.75282 442
22.77294 442
22.79305 483
22.81316 448
22.83328 456
22.85339 448
22.87351 439
22.89362 451
22.91373 434
22.93385 441
22.95396 432
22.97407 454
22.99419 474
23.0143 463
23.03442 452
23.05453 422
23.07464 477
23.09476 439
23.11487 434
23.13498 420
23.1551 449
23.17521 406
23.19532 399
23.21544 425
23.23555 411
23.25567 414
23.27578 445
23.29589 409
23.31601 419
23.33612 412
23.35623 438
23.37635 455
23.39646 440
23.41658 441
23.43669 457
23.4568 493
23.47692 491
23.49703 478
23.51714 496
23.53726 503
23.55737 540
23.57749 533
23.5976 516
23.61771 546
23.63783 548
23.65794 502
23.67805 514
23.69817 532
23.71828 502
23.73839 532
23.75851 531
23.77862 494
23.79874 482
23.81885 505
23.83896 504
23.85908 500
23.87919 479
23.8993 457
23.91942 449
23.93953 446
23.95965 461
23.97976 490
23.99987 459
24.01999 428
24.0401 439
24.06021 463
24.08033 471
24.10044 430
24.12056 446
24.14067 429
24.16078 429
24.1809 424
24.20101 466
24.22112 447
24.24124 470
24.26135 395
24.28146 403
24.30158 429
24.32169 431
24.34181 396
24.36192 448
24.38203 387
24.40215 416
24.42226 392
24.44237 414
24.46249 426
24.4826 429
24.50272 422
24.52283 364
24.54294 464
24.56306 394
24.58317 429
24.60328 424
24.6234 402
24.64351 430
24.66362 415
24.68374 403
24.70385 423
24.72397 414
24.74408 478
24.76419 419
24.78431 450
24.80442 427
24.82453 405
24.84465 397
24.86476 434
24.88488 420
24.90499 443
24.9251 404
24.94522 390
24.96533 408
24.98544 452
25.00556 435
25.02567 412
25.04579 459
25.0659 432
25.08601 426
25.10613 436
25.12624 434
25.14635 452
25.16647 416
25.18658 389
25.20669 461
25.22681 425
25.24692 425
25.26704 419
25.28715 445
25.30726 432
25.32738 490
25.34749 461
25.3676 424
25.38772 457
25.40783 435
25.42795 462
25.44806 461
25.46817 501
25.48829 486
25.5084 478
25.52851 514
25.54863 485
25.56874 535
25.58886 476
25.60897 551
25.62908 587
25.6492 546
25.66931 543
25.68942 559
25.70954 551
25.72965 596
25.74976 568
25.76988 557
25.78999 551
25.81011 563
25.83022 605
25.85033 541
25.87045 556
25.89056 500
25.91067 537
25.93079 606
25.9509 587
25.97102 564
25.99113 582
26.01124 555
26.03136 632
26.05147 637
26.07158 637
26.0917 672
26.11181 724
26.13193 688
26.15204 742
26.17215 794
26.19227 802
26.21238 856
26.23249 918
26.25261 919
26.27272 1038
26.29283 1109
26.31295 1304
26.33306 1449
26.35318 1644
26.37329 2033
26.3934 2516
26.41352 3169
26.43363 4176
26.45374 5285
26.47386 6801
26.49397 8692
26.51409 10529
26.5342 13183
26.55431 14517
26.57443 16189
26.59454 16660
26.61465 15931
26.63477 14011
26.65488 11486
26.67499 8736
26.69511 6430
26.71522 4450
26.73534 3054
26.75545 2094
26.77556 1482
26.79568 1239
26.81579 1170
26.8359 1018
26.85602 963
26.87613 914
26.89625 894
26.91636 852
26.93647 832
26.95659 738
26.9767 751
26.99681 692
27.01693 683
27.03704 667
27.05716 655
27.07727 640
27.09738 652
27.1175 629
27.13761 581
27.15772 605
27.17784 623
27.19795 579
27.21806 607
27.23818 630
27.25829 586
27.27841 657
27.29852 679
27.31863 691
27.33875 764
27.35886 813
27.37897 838
27.39909 867
27.4192 867
27.43932 887
27.45943 841
27.47954 865
27.49966 828
27.51977 756
27.53988 736
27.56 681
27.58011 690
27.60023 680
27.62034 706
27.64045 711
27.66057 738
27.68068 783
27.70079 718
27.72091 772
27.74102 714
27.76113 676
27.78125 730
27.80136 715
27.82148 645
27.84159 744
27.8617 677
27.88182 653
27.90193 624
27.92204 626
27.94216 582
27.96227 547
27.98239 504
28.0025 487
28.02261 501
28.04273 515
28.06284 515
28.08295 501
28.10307 467
28.12318 465
28.1433 497
28.16341 460
28.18352 463
28.20364 474
28.22375 419
28.24386 412
28.26398 447
28.28409 427
28.3042 419
28.32432 444
28.34443 410
28.36455 413
28.38466 422
28.40477 415
28.42489 464
28.445 396
28.46511 458
28.48523 431
28.50534 430
28.52546 355
28.54557 381
28.56568 428
28.5858 394
28.60591 427
28.62602 388
28.64614 379
28.66625 390
28.68636 367
28.70648 400
28.72659 399
28.74671 364
28.76682 376
28.78693 372
28.80705 392
28.82716 428
28.84727 383
28.86739 401
28.8875 350
28.90762 418
28.92773 399
28.94784 365
28.96796 361
28.98807 406
29.00818 398
29.0283 388
29.04841 381
29.06853 346
29.08864 382
29.10875 399
29.12887 370
29.14898 364
29.16909 379
29.18921 379
29.20932 424
29.22943 419
29.24955 419
29.26966 386
29.28978 415
29.30989 421
29.33 382
29.35012 393
29.37023 410
29.39034 384
29.41046 445
29.43057 423
29.45069 386
29.4708 393
29.49091 385
29.51103 408
29.53114 407
29.55125 423
29.57137 395
29.59148 382
29.6116 382
29.63171 391
29.65182 404
29.67194 418
29.69205 403
29.71216 372
29.73228 396
29.75239 451
29.7725 429
29.79262 442
29.81273 395
29.83285 452
29.85296 429
29.87307 448
29.89319 430
29.9133 415
29.93341 390
29.95353 432
29.97364 413
29.99376 402
30.01387 423
30.03398 429
30.0541 441
30.07421 435
30.09432 399
30.11444 437
30.13455 456
30.15467 408
30.17478 445
30.19489 380
30.21501 394
30.23512 423
30.25523 420
30.27535 411
30.29546 417
30.31557 395
30.33569 400
30.3558 396
30.37592 416
30.39603 433
30.41614 406
30.43626 419
30.45637 403
30.47648 393
30.4966 433
30.51671 393
30.53683 401
30.55694 434
30.57705 381
30.59717 352
30.61728 454
30.63739 420
30.65751 409
30.67762 433
30.69773 398
30.71785 450
30.73796 431
30.75808 423
30.77819 410
30.7983 413
30.81842 388
30.83853 390
30.85864 437
30.87876 377
30.89887 357
30.91899 389
30.9391 382
30.95921 393
30.97933 384
30.99944 370
31.01955 355
31.03967 378
31.05978 340
31.0799 387
31.10001 371
31.12012 363
31.14024 344
31.16035 359
31.18046 352
31.20058 363
31.22069 314
31.2408 349
31.26092 356
31.28103 364
31.30115 301
31.32126 350
31.34137 362
31.36149 342
31.3816 348
31.40171 356
31.42183 354
31.44194 349
31.46206 303
31.48217 315
31.50228 306
31.5224 313
31.54251 329
31.56262 320
31.58274 346
31.60285 329
31.62297 318
31.64308 318
31.66319 331
31.68331 312
31.70342 342
31.72353 304
31.74365 357
31.76376 313
31.78387 296
31.80399 295
31.8241 351
31.84422 331
31.86433 352
31.88444 319
31.90456 353
31.92467 343
31.94478 338
31.9649 349
31.98501 331
32.00513 322
32.02524 336
32.04535 326
32.06547 367
32.08558 338
32.10569 321
32.12581 333
32.14592 350
32.16604 337
32.18615 336
32.20626 354
32.22638 357
32.24649 357
32.2666 337
32.28672 328
32.30683 341
32.32694 343
32.34706 336
32.36717 339
32.38729 369
32.4074 342
32.42751 329
32.44763 322
32.46774 328
32.48785 302
32.50797 321
32.52808 341
32.5482 346
32.56831 321
32.58842 334
32.60854 339
32.62865 330
32.64876 284
32.66888 318
32.68899 329
32.7091 316
32.72922 292
32.74933 362
32.76945 306
32.78956 344
32.80967 341
32.82979 304
32.8499 326
32.87001 319
32.89013 341
32.91024 328
32.93036 325
32.95047 282
32.97058 336
32.9907 327
33.01081 313
33.03092 346
33.05104 315
33.07115 331
33.09127 344
33.11138 314
33.13149 338
33.15161 339
33.17172 355
33.19183 340
33.21195 331
33.23206 329
33.25217 294
33.27229 311
33.2924 336
33.31252 353
33.33263 347
33.35274 293
33.37286 329
33.39297 333
33.41308 314
33.4332 311
33.45331 322
33.47343 303
33.49354 313
33.51365 329
33.53377 325
33.55388 338
33.57399 315
33.59411 312
33.61422 289
33.63434 306
33.65445 322
33.67456 314
33.69468 326
33.71479 337
33.7349 290
33.75502 276
33.77513 292
33.79524 317
33.81536 330
33.83547 340
33.85559 334
33.8757 343
33.89581 333
33.91593 344
33.93604 349
33.95615 329
33.97627 343
33.99638 337
34.0165 336
34.03661 344
34.05672 366
34.07684 365
34.09695 361
34.11706 364
34.13718 362
34.15729 377
34.17741 388
34.19752 381
34.21763 392
34.23775 398
34.25786 388
34.27797 418
34.29809 415
34.3182 403
34.33831 425
34.35843 435
34.37854 404
34.39866 428
34.41877 408
34.43888 414
34.459 449
34.47911 453
34.49922 421
34.51934 461
34.53945 431
34.55957 441
34.57968 476
34.59979 456
34.61991 468
34.64002 471
34.66013 482
34.68025 464
34.70036 493
34.72047 494
34.74059 473
34.7607 485
34.78082 533
34.80093 478
34.82104 514
34.84116 528
34.86127 537
34.88138 505
34.9015 520
34.92161 512
34.94173 516
34.96184 482
34.98195 525
35.00207 518
35.02218 525
35.04229 509
35.06241 523
35.08252 510
35.10264 500
35.12275 504
35.14286 526
35.16298 530
35.18309 520
35.2032 511
35.22332 486
35.24343 507
35.26354 425
35.28366 475
35.30377 466
35.32389 465
35.344 479
35.36411 472
35.38423 470
35.40434 477
35.42445 470
35.44457 476
35.46468 443
35.4848 477
35.50491 399
35.52502 463
35.54514 383
35.56525 423
35.58536 437
35.60548 427
35.62559 436
35.64571 462
35.66582 431
35.68593 439
35.70605 426
35.72616 451
35.74627 438
35.76639 427
35.7865 403
35.80661 414
35.82673 419
35.84684 427
35.86696 442
35.88707 404
35.90718 433
35.9273 425
35.94741 442
35.96752 418
35.98764 445
36.00775 389
36.02787 405
36.04798 389
36.06809 423
36.08821 388
36.10832 434
36.12843 429
36.14855 438
36.16866 466
36.18878 468
36.20889 491
36.229 502
36.24912 524
36.26923 536
36.28934 570
36.30946 661
36.32957 750
36.34968 854
36.3698 891
36.38991 1018
36.41003 1099
36.43014 1258
36.45025 1382
36.47037 1525
36.49048 1510
36.51059 1447
36.53071 1325
36.55082 1175
36.57094 1070
36.59105 919
36.61116 793
36.63128 737
36.65139 604
36.6715 547
36.69162 500
36.71173 505
36.73184 448
36.75196 475
36.77207 443
36.79219 429
36.8123 425
36.83241 453
36.85253 402
36.87264 438
36.89275 435
36.91287 389
36.93298 388
36.9531 416
36.97321 405
36.99332 423
37.01344 407
37.03355 414
37.05366 406
37.07378 405
37.09389 397
37.11401 416
37.13412 398
37.15423 416
37.17435 369
37.19446 425
37.21457 406
37.23469 396
37.2548 408
37.27491 416
37.29503 384
37.31514 426
37.33526 418
37.35537 415
37.37548 388
37.3956 366
37.41571 409
37.43582 377
37.45594 396
37.47605 405
37.49617 393
37.51628 382
37.53639 391
37.55651 384
37.57662 402
37.59673 369
37.61685 373
37.63696 383
37.65708 392
37.67719 395
37.6973 402
37.71742 363
37.73753 348
37.75764 330
37.77776 359
37.79787 362
37.81798 375
37.8381 391
37.85821 365
37.87833 309
37.89844 394
37.91855 351
37.93867 369
37.95878 368
37.97889 335
37.99901 376
38.01912 322
38.03924 382
38.05935 366
38.07946 341
38.09958 342
38.11969 383
38.1398 374
38.15992 352
38.18003 385
38.20015 344
38.22026 355
38.24037 358
38.26049 378
38.2806 340
38.30071 398
38.32083 360
38.34094 372
38.36105 382
38.38117 343
38.40128 398
38.4214 353
38.44151 376
38.46162 401
38.48174 358
38.50185 372
38.52196 403
38.54208 347
38.56219 356
38.58231 356
38.60242 374
38.62253 373
38.64265 382
38.66276 372
38.68287 359
38.70299 361
38.7231 389
38.74321 334
38.76333 414
38.78344 363
38.80356 384
38.82367 352
38.84378 349
38.8639 366
38.88401 359
38.90412 357
38.92424 367
38.94435 376
38.96447 365
38.98458 351
39.00469 401
39.02481 419
39.04492 374
39.06503 395
39.08515 391
39.10526 416
39.12538 422
39.14549 420
39.1656 415
39.18572 499
39.20583 492
39.22594 521
39.24606 649
39.26617 700
39.28628 823
39.3064 776
39.32651 1005
39.34663 1086
39.36674 1354
39.38685 1293
39.40697 1248
39.42708 1290
39.44719 1196
39.46731 1125
39.48742 1012
39.50754 840
39.52765 812
39.54776 693
39.56788 544
39.58799 485
39.6081 445
39.62822 438
39.64833 427
39.66845 397
39.68856 386
39.70867 388
39.72879 369
39.7489 373
39.76901 394
39.78913 348
39.80924 354
39.82935 372
39.84947 374
39.86958 363
39.8897 368
39.90981 363
39.92992 381
39.95004 371
39.97015 394
39.99026 405
40.01038 432
40.03049 438
40.05061 467
40.07072 494
40.09083 520
40.11095 572
40.13106 654
40.15117 722
40.17129 726
40.1914 740
40.21152 868
40.23163 739
40.25174 824
40.27186 744
40.29197 643
40.31208 623
40.3322 592
40.35231 543
40.37242 505
40.39254 475
40.41265 401
40.43277 404
40.45288 376
40.47299 357
40.49311 353
40.51322 354
40.53333 355
40.55345 364
40.57356 366
40.59368 366
40.61379 350
40.6339 355
40.65402 335
40.67413 329
40.69424 321
40.71436 322
40.73447 360
40.75458 360
40.7747 320
40.79481 364
40.81493 329
40.83504 342
40.85515 373
40.87527 334
40.89538 369
40.91549 358
40.93561 308
40.95572 332
40.97584 367
40.99595 346
41.01606 359
41.03618 350
41.05629 350
41.0764 313
41.09652 330
41.11663 380
41.13675 338
41.15686 315
41.17697 369
41.19709 335
41.2172 336
41.23731 340
41.25743 358
41.27754 322
41.29765 350
41.31777 322
41.33788 340
41.358 357
41.37811 316
41.39822 320
41.41834 330
41.43845 333
41.45856 367
41.47868 341
41.49879 361
41.51891 367
41.53902 339
41.55913 360
41.57925 349
41.59936 347
41.61947 376
41.63959 359
41.6597 364
41.67982 342
41.69993 336
41.72004 373
41.74016 363
41.76027 365
41.78038 365
41.8005 352
41.82061 344
41.84072 336
41.86084 343
41.88095 340
41.90107 377
41.92118 326
41.94129 332
41.96141 315
41.98152 344
42.00163 349
42.02175 357
42.04186 335
42.06198 346
42.08209 382
42.1022 343
42.12232 405
42.14243 403
42.16254 428
42.18266 443
42.20277 534
42.22289 518
42.243 551
42.26311 657
42.28323 703
42.30334 834
42.32345 817
42.34357 976
42.36368 1033
42.38379 1048
42.40391 999
42.42402 976
42.44414 909
42.46425 815
42.48436 723
42.50448 663
42.52459 603
42.5447 542
42.56482 450
42.58493 439
42.60505 403
42.62516 371
42.64527 350
42.66539 371
42.6855 321
42.70561 339
42.72573 301
42.74584 357
42.76595 307
42.78607 329
42.80618 301
42.8263 316
42.84641 339
42.86652 317
42.88664 314
42.90675 301
42.92686 359
42.94698 308
42.96709 311
42.98721 308
43.00732 325
43.02743 275
43.04755 326
43.06766 335
43.08777 311
43.10789 321
43.128 321
43.14812 320
43.16823 327
43.18834 330
43.20846 324
43.22857 301
43.24868 298
43.2688 292
43.28891 312
43.30902 286
43.32914 285
43.34925 330
43.36937 289
43.38948 278
43.40959 278
43.42971 297
43.44982 308
43.46993 293
43.49005 290
43.51016 283
43.53028 274
43.55039 293
43.5705 303
43.59062 303
43.61073 295
43.63084 282
43.65096 310
43.67107 282
43.69119 288
43.7113 308
43.73141 296
43.75153 314
43.77164 274
43.79175 309
43.81187 303
43.83198 296
43.85209 313
43.87221 296
43.89232 302
43.91244 304
43.93255 306
43.95266 304
43.97278 319
43.99289 288
44.013 287
44.03312 342
44.05323 313
44.07335 292
44.09346 300
44.11357 293
44.13369 274
44.1538 308
44.17391 316
44.19403 314
44.21414 307
44.23426 306
44.25437 313
44.27448 304
44.2946 318
44.31471 281
44.33482 319
44.35494 297
44.37505 287
44.39516 309
44.41528 294
44.43539 274
44.45551 313
44.47562 314
44.49573 336
44.51585 277
44.53596 307
44.55607 283
44.57619 301
44.5963 305
44.61642 311
44.63653 313
44.65664 294
44.67676 259
44.69687 301
44.71698 292
44.7371 311
44.75721 299
44.77732 310
44.79744 305
44.81755 289
44.83767 285
44.85778 311
44.87789 327
44.89801 309
44.91812 328
44.93823 270
44.95835 299
44.97846 287
44.99858 301
45.01869 271
45.0388 294
45.05892 294
45.07903 307
45.09914 293
45.11926 320
45.13937 298
45.15949 322
45.1796 319
45.19971 300
45.21983 306
45.23994 330
45.26005 319
45.28017 302
45.30028 333
45.32039 317
45.34051 327
45.36062 316
45.38074 329
45.40085 322
45.42096 345
45.44108 320
45.46119 352
45.4813 330
45.50142 366
45.52153 385
45.54165 398
45.56176 442
45.58187 478
45.60199 511
45.6221 569
45.64221 600
45.66233 674
45.68244 692
45.70256 693
45.72267 761
45.74278 720
45.7629 699
45.78301 646
45.80312 594
45.82324 528
45.84335 563
45.86346 470
45.88358 415
45.90369 427
45.92381 385
45.94392 362
45.96403 336
45.98415 323
46.00426 305
46.02437 321
46.04449 328
46.0646 306
46.08472 288
46.10483 306
46.12494 254
46.14506 312
46.16517 272
46.18528 322
46.2054 288
46.22551 272
46.24563 292
46.26574 295
46.28585 291
46.30597 297
46.32608 292
46.34619 266
46.36631 280
46.38642 310
46.40653 299
46.42665 278
46.44676 302
46.46688 283
46.48699 299
46.5071 312
46.52722 302
46.54733 254
46.56744 272
46.58756 266
46.60767 319
46.62779 296
46.6479 281
46.66801 327
46.68813 297
46.70824 282
46.72835 272
46.74847 308
46.76858 287
46.78869 266
46.80881 287
46.82892 270
46.84904 278
46.86915 269
46.88926 291
46.90938 304
46.92949 293
46.9496 298
46.96972 272
46.98983 279
47.00995 294
47.03006 315
47.05017 266
47.07029 258
47.0904 330
47.11051 255
47.13063 298
47.15074 296
47.17086 270
47.19097 289
47.21108 239
47.2312 248
47.25131 278
47.27142 262
47.29154 295
47.31165 264
47.33176 309
47.35188 269
47.37199 281
47.39211 271
47.41222 268
47.43233 316
47.45245 262
47.47256 297
47.49267 282
47.51279 265
47.5329 285
47.55302 268
47.57313 284
47.59324 296
47.61336 307
47.63347 312
47.65358 258
47.6737 308
47.69381 284
47.71393 283
47.73404 262
47.75415 272
47.77427 301
47.79438 292
47.81449 281
47.83461 270
47.85472 301
47.87483 277
47.89495 300
47.91506 301
47.93518 305
47.95529 289
47.9754 259
47.99552 298
48.01563 274
48.03574 292
48.05586 292
48.07597 292
48.09609 267
48.1162 260
48.13631 293
48.15643 280
48.17654 295
48.19665 274
48.21677 293
48.23688 315
48.257 301
48.27711 264
48.29722 281
48.31734 265
48.33745 281
48.35756 279
48.37768 272
48.39779 285
48.4179 314
48.43802 338
48.45813 323
48.47825 327
48.49836 304
48.51847 307
48.53859 299
48.5587 285
48.57881 299
48.59893 301
48.61904 276
48.63916 307
48.65927 268
48.67938 294
48.6995 274
48.71961 287
48.73972 304
48.75984 292
48.77995 278
48.80006 285
48.82018 271
48.84029 296
48.86041 272
48.88052 277
48.90063 279
48.92075 281
48.94086 282
48.96097 274
48.98109 284
49.0012 292
49.02132 269
49.04143 303
49.06154 276
49.08166 290
49.10177 268
49.12188 313
49.142 304
49.16211 295
49.18223 275
49.20234 287
49.22245 306
49.24257 315
49.26268 281
49.28279 275
49.30291 341
49.32302 306
49.34313 340
49.36325 301
49.38336 290
49.40348 305
49.42359 269
49.4437 278
49.46382 318
49.48393 318
49.50404 346
49.52416 331
49.54427 328
49.56439 357
49.5845 348
49.60461 315
49.62473 328
49.64484 317
49.66495 358
49.68507 381
49.70518 406
49.7253 377
49.74541 394
49.76552 445
49.78564 473
49.80575 484
49.82586 572
49.84598 580
49.86609 708
49.8862 720
49.90632 827
49.92643 984
49.94655 1090
49.96666 1247
49.98677 1383
50.00689 1574
50.027 1775
50.04711 1801
50.06723 1891
50.08734 1814
50.10746 1672
50.12757 1521
50.14768 1386
50.1678 1219
50.18791 1111
50.20802 1002
50.22814 946
50.24825 844
50.26837 656
50.28848 565
50.30859 431
50.32871 398
50.34882 383
50.36893 383
50.38905 414
50.40916 372
50.42927 351
50.44939 395
50.4695 331
50.48962 352
50.50973 367
50.52984 360
50.54996 346
50.57007 338
50.59018 346
50.6103 367
50.63041 342
50.65053 341
50.67064 368
50.69075 320
50.71087 317
50.73098 317
50.75109 336
50.77121 310
50.79132 297
50.81143 320
50.83155 339
50.85166 347
50.87178 314
50.89189 333
50.912 322
50.93212 303
50.95223 342
50.97234 294
50.99246 299
51.01257 345
51.03269 302
51.0528 328
51.07291 292
51.09303 324
51.11314 285
51.13325 318
51.15337 297
51.17348 310
51.1936 288
51.21371 240
51.23382 259
51.25394 273
51.27405 282
51.29416 278
51.31428 271
51.33439 286
51.3545 258
51.37462 268
51.39473 272
51.41485 265
51.43496 244
51.45507 252
51.47519 252
51.4953 242
51.51541 272
51.53553 270
51.55564 279
51.57576 261
51.59587 249
51.61598 246
51.6361 256
51.65621 262
51.67632 227
51.69644 250
51.71655 248
51.73667 277
51.75678 278
51.77689 249
51.79701 259
51.81712 240
51.83723 261
51.85735 286
51.87746 291
51.89757 278
51.91769 291
51.9378 286
51.95792 284
51.97803 285
51.99814 293
52.01826 269
52.03837 276
52.05848 230
52.0786 266
52.09871 286
52.11883 267
52.13894 264
52.15905 274
52.17917 285
52.19928 274
52.21939 257
52.23951 286
52.25962 275
52.27974 272
52.29985 266
52.31996 254
52.34008 279
52.36019 281
52.3803 297
52.40042 272
52.42053 283
52.44064 303
52.46076 266
52.48087 238
52.50099 255
52.5211 297
52.54121 272
52.56133 276
52.58144 272
52.60155 275
52.62167 268
52.64178 283
52.6619 288
52.68201 260
52.70212 282
52.72224 253
52.74235 281
52.76246 265
52.78258 280
52.80269 293
52.8228 284
52.84292 309
52.86303 280
52.88315 250
52.90326 268
52.92337 254
52.94349 280
52.9636 295
52.98371 287
53.00383 292
53.02394 305
53.04406 326
53.06417 306
53.08428 273
53.1044 298
53.12451 271
53.14462 299
53.16474 298
53.18485 305
53.20497 288
53.22508 291
53.24519 321
53.26531 293
53.28542 292
53.30553 321
53.32565 298
53.34576 312
53.36587 314
53.38599 303
53.4061 309
53.42622 299
53.44633 317
53.46644 305
53.48656 313
53.50667 294
53.52678 315
53.5469 285
53.56701 325
53.58713 306
53.60724 290
53.62735 311
53.64747 321
53.66758 320
53.68769 313
53.70781 303
53.72792 317
53.74804 334
53.76815 310
53.78826 297
53.80838 324
53.82849 307
53.8486 298
53.86872 289
53.88883 283
53.90894 303
53.92906 310
53.94917 315
53.96929 290
53.9894 307
54.00951 306
54.02963 330
54.04974 310
54.06985 302
54.08997 316
54.11008 325
54.1302 312
54.15031 287
54.17042 335
54.19054 323
54.21065 333
54.23076 335
54.25088 310
54.27099 318
54.29111 323
54.31122 333
54.33133 324
54.35145 346
54.37156 332
54.39167 315
54.41179 327
54.4319 327
54.45201 360
54.47213 343
54.49224 336
54.51236 357
54.53247 376
54.55258 380
54.5727 387
54.59281 402
54.61292 432
54.63304 488
54.65315 498
54.67327 567
54.69338 607
54.71349 634
54.73361 680
54.75372 725
54.77383 753
54.79395 745
54.81406 732
54.83417 685
54.85429 667
54.8744 579
54.89452 607
54.91463 614
54.93474 579
54.95486 539
54.97497 518
54.99508 497
55.0152 433
55.03531 427
55.05543 403
55.07554 401
55.09565 415
55.11577 440
55.13588 444
55.15599 459
55.17611 501
55.19622 447
55.21634 467
55.23645 514
55.25656 498
55.27668 509
55.29679 469
55.3169 488
55.33702 445
55.35713 416
55.37724 403
55.39736 417
55.41747 386
55.43759 374
55.4577 360
55.47781 356
55.49793 342
55.51804 330
55.53815 315
55.55827 276
55.57838 301
55.5985 315
55.61861 298
55.63872 323
55.65884 267
55.67895 289
55.69906 293
55.71918 297
55.73929 297
55.75941 284
55.77952 312
55.79963 283
55.81975 277
55.83986 285
55.85997 286
55.88009 278
55.9002 285
55.92031 309
55.94043 311
55.96054 276
55.98066 280
56.00077 293
56.02088 285
56.041 273
56.06111 271
56.08122 285
56.10134 285
56.12145 258
56.14157 310
56.16168 306
56.18179 291
56.20191 289
56.22202 250
56.24213 288
56.26225 272
56.28236 266
56.30248 277
56.32259 327
56.3427 271
56.36282 323
56.38293 289
56.40304 299
56.42316 263
56.44327 289
56.46338 259
56.4835 306
56.50361 286
56.52373 279
56.54384 256
56.56395 267
56.58407 313
56.60418 274
56.62429 276
56.64441 266
56.66452 286
56.68464 288
56.70475 293
56.72486 263
56.74498 275
56.76509 261
56.7852 305
56.80532 303
56.82543 292
56.84554 284
56.86566 281
56.88577 307
56.90589 256
56.926 265
56.94611 269
56.96623 307
56.98634 288
57.00645 256
57.02657 271
57.04668 274
57.0668 277
57.08691 311
57.10702 304
57.12714 312
57.14725 315
57.16736 312
57.18748 309
57.20759 281
57.22771 287
57.24782 324
57.26793 286
57.28805 280
57.30816 270
57.32827 264
57.34839 273
57.3685 290
57.38861 290
57.40873 307
57.42884 283
57.44896 268
57.46907 289
57.48918 278
57.5093 261
57.52941 262
57.54952 255
57.56964 288
57.58975 283
57.60987 238
57.62998 250
57.65009 261
57.67021 294
57.69032 323
57.71043 268
57.73055 268
57.75066 267
57.77078 279
57.79089 261
57.811 251
57.83112 276
57.85123 272
57.87134 292
57.89146 259
57.91157 267
57.93168 311
57.9518 282
57.97191 276
57.99203 285
58.01214 269
58.03225 277
58.05237 279
58.07248 264
58.09259 263
58.11271 283
58.13282 262
58.15294 271
58.17305 294
58.19316 289
58.21328 280
58.23339 276
58.2535 268
58.27362 295
58.29373 269
58.31385 312
58.33396 267
58.35407 270
58.37419 298
58.3943 294
58.41441 288
58.43453 293
58.45464 276
58.47475 277
58.49487 270
58.51498 245
58.5351 268
58.55521 276
58.57532 285
58.59544 302
58.61555 256
58.63566 276
58.65578 291
58.67589 264
58.69601 275
58.71612 253
58.73623 273
58.75635 245
58.77646 274
58.79657 291
58.81669 264
58.8368 253
58.85691 254
58.87703 278
58.89714 276
58.91726 266
58.93737 279
58.95748 293
58.9776 255
58.99771 274
59.01782 263
59.03794 261
59.05805 265
59.07817 278
59.09828 279
59.11839 282
59.13851 281
59.15862 281
59.17873 250
59.19885 292
59.21896 279
59.23908 251
59.25919 268
59.2793 293
59.29942 309
59.31953 278
59.33964 279
59.35976 300
59.37987 286
59.39998 297
59.4201 310
59.44021 315
59.46033 315
59.48044 346
59.50055 342
59.52067 351
59.54078 348
59.56089 358
59.58101 381
59.60112 417
59.62124 458
59.64135 476
59.66146 476
59.68158 550
59.70169 564
59.7218 598
59.74192 731
59.76203 817
59.78215 936
59.80226 1012
59.82237 1092
59.84249 1196
59.8626 1264
59.88271 1298
59.90283 1204
59.92294 1153
59.94305 1027
59.96317 930
59.98328 874
60.0034 878
60.02351 784
60.04362 772
60.06374 728
60.08385 605
60.10396 565
60.12408 516
60.14419 447
60.16431 368
60.18442 331
60.20453 320
60.22465 308
60.24476 332
60.26487 300
60.28499 287
60.3051 300
60.32522 290
60.34533 270
60.36544 316
60.38556 287
60.40567 296
60.42578 286
60.4459 284
60.46601 285
60.48612 304
60.50624 288
60.52635 287
60.54647 261
60.56658 258
60.58669 297
60.60681 283
60.62692 313
60.64703 297
60.66715 290
60.68726 252
60.70738 330
60.72749 300
60.7476 281
60.76772 280
60.78783 303
60.80794 311
60.82806 312
60.84817 305
60.86828 317
60.8884 300
60.90851 282
60.92863 293
60.94874 303
60.96885 309
60.98897 268
61.00908 313
61.02919 330
61.04931 317
61.06942 338
61.08954 311
61.10965 321
61.12976 316
61.14988 362
61.16999 313
61.1901 332
61.21022 359
61.23033 314
61.25045 349
61.27056 330
61.29067 329
61.31079 332
61.3309 362
61.35101 361
61.37113 352
61.39124 346
61.41135 348
61.43147 345
61.45158 345
61.4717 366
61.49181 358
61.51192 369
61.53204 330
61.55215 343
61.57226 392
61.59238 370
61.61249 379
61.63261 360
61.65272 361
61.67283 359
61.69295 351
61.71306 348
61.73317 350
61.75329 326
61.7734 358
61.79352 354
61.81363 341
61.83374 392
61.85386 349
61.87397 353
61.89408 324
61.9142 314
61.93431 321
61.95442 311
61.97454 330
61.99465 324
62.01477 319
62.03488 322
62.05499 318
62.07511 304
62.09522 364
62.11533 305
62.13545 344
62.15556 309
62.17568 318
62.19579 315
62.2159 295
62.23602 274
62.25613 335
62.27624 300
62.29636 307
62.31647 325
62.33659 312
62.3567 280
62.37681 288
62.39693 313
62.41704 286
62.43715 282
62.45727 280
62.47738 286
62.49749 289
62.51761 276
62.53772 279
62.55784 271
62.57795 299
62.59806 253
62.61818 256
62.63829 278
62.6584 283
62.67852 291
62.69863 286
62.71875 303
62.73886 252
62.75897 283
62.77909 251
62.7992 266
62.81931 301
62.83943 298
62.85954 282
62.87965 274
62.89977 273
62.91988 286
62.94 268
62.96011 269
62.98022 261
63.00034 272
63.02045 231
63.04056 279
63.06068 270
63.08079 272
63.10091 288
63.12102 260
63.14113 254
63.16125 254
63.18136 240
63.20147 242
63.22159 268
63.2417 248
63.26182 253
63.28193 253
63.30204 293
63.32216 249
63.34227 241
63.36238 263
63.3825 260
63.40261 237
63.42272 300
63.44284 271
63.46295 269
63.48307 279
63.50318 278
63.52329 296
63.54341 250
63.56352 287
63.58363 285
63.60375 282
63.62386 289
63.64398 294
63.66409 294
63.6842 282
63.70432 314
63.72443 315
63.74454 302
63.76466 284
63.78477 324
63.80489 369
63.825 349
63.84511 395
63.86523 427
63.88534 405
63.90545 413
63.92557 440
63.94568 445
63.96579 424
63.98591 426
64.00602 429
64.02614 394
64.04625 387
64.06636 354
64.08648 328
64.10659 331
64.1267 362
64.14682 347
64.16693 343
64.18705 333
64.20716 320
64.22727 317
64.24739 285
64.2675 258
64.28761 258
64.30773 236
64.32784 252
64.34796 242
64.36807 284
64.38818 281
64.4083 259
64.42841 246
64.44852 280
64.46864 269
64.48875 258
64.50886 239
64.52898 238
64.54909 258
64.56921 254
64.58932 274
64.60943 246
64.62955 264
64.64966 247
64.66977 262
64.68989 247
64.71 301
64.73012 278
64.75023 243
64.77034 231
64.79046 248
64.81057 253
64.83068 248
64.8508 267
64.87091 265
64.89102 253
64.91114 275
64.93125 272
64.95137 244
64.97148 265
64.99159 251
65.01171 275
65.03182 247
65.05193 268
65.07205 241
65.09216 221
65.11228 265
65.13239 273
65.1525 255
65.17262 264
65.19273 237
65.21284 249
65.23296 273
65.25307 255
65.27319 271
65.2933 266
65.31341 257
65.33353 238
65.35364 246
65.37375 270
65.39387 237
65.41398 250
65.43409 255
65.45421 244
65.47432 277
65.49444 276
65.51455 253
65.53466 277
65.55478 258
65.57489 270
65.595 292
65.61512 277
65.63523 268
65.65535 287
65.67546 331
65.69557 309
65.71569 282
65.7358 315
65.75591 280
65.77603 262
65.79614 287
65.81626 253
65.83637 267
65.85648 266
65.8766 294
65.89671 283
65.91682 250
65.93694 269
65.95705 256
65.97716 242
65.99728 250
66.01739 279
66.03751 262
66.05762 229
66.07773 268
66.09785 237
66.11796 274
66.13807 256
66.15819 241
66.1783 243
66.19842 249
66.21853 275
66.23864 269
66.25876 258
66.27887 261
66.29898 232
66.3191 241
66.33921 287
66.35933 272
66.37944 228
66.39955 269
66.41967 233
66.43978 288
66.45989 211
66.48001 293
66.50012 246
66.52023 269
66.54035 260
66.56046 239
66.58058 253
66.60069 239
66.6208 236
66.64092 259
66.66103 243
66.68114 263
66.70126 248
66.72137 222
66.74149 292
66.7616 267
66.78171 276
66.80183 258
66.82194 246
66.84205 247
66.86217 223
66.88228 255
66.90239 246
66.92251 245
66.94262 231
66.96274 279
66.98285 254
67.00296 259
67.02308 262
67.04319 236
67.0633 237
67.08342 278
67.10353 241
67.12365 283
67.14376 263
67.16387 278
67.18399 263
67.2041 289
67.22421 302
67.24433 298
67.26444 286
67.28456 290
67.30467 327
67.32478 322
67.3449 298
67.36501 326
67.38512 339
67.40524 360
67.42535 402
67.44546 415
67.46558 427
67.48569 477
67.50581 466
67.52592 520
67.54603 608
67.56615 695
67.58626 715
67.60637 767
67.62649 839
67.6466 868
67.66672 873
67.68683 813
67.70694 763
67.72706 754
67.74717 714
67.76728 664
67.7874 675
67.80751 697
67.82763 667
67.84774 751
67.86785 758
67.88797 720
67.90808 840
67.92819 824
67.94831 843
67.96842 885
67.98853 936
68.00865 1032
68.02876 1060
68.04888 1090
68.06899 1090
68.0891 1106
68.10922 1116
68.12933 1062
68.14944 1005
68.16956 1005
68.18967 1021
68.20979 1001
68.2299 1069
68.25001 931
68.27013 950
68.29024 864
68.31035 721
68.33047 697
68.35058 662
68.3707 539
68.39081 528
68.41092 501
68.43104 448
68.45115 445
68.47126 447
68.49138 413
68.51149 375
68.5316 336
68.55172 322
68.57183 299
68.59195 292
68.61206 307
68.63217 290
68.65229 285
68.6724 305
68.69251 271
68.71263 289
68.73274 263
68.75286 278
68.77297 270
68.79308 288
68.8132 268
68.83331 256
68.85342 253
68.87354 267
68.89365 254
68.91376 261
68.93388 273
68.95399 275
68.97411 264
68.99422 269
69.01433 280
69.03445 255
69.05456 252
69.07467 227
69.09479 252
69.1149 277
69.13502 283
69.15513 240
69.17524 248
69.19536 227
69.21547 267
69.23558 237
69.2557 245
69.27581 237
69.29593 240
69.31604 236
69.33615 232
69.35627 259
69.37638 263
69.39649 255
69.41661 255
69.43672 238
69.45683 275
69.47695 248
69.49706 277
69.51718 247
69.53729 234
69.5574 238
69.57752 241
69.59763 242
69.61774 269
69.63786 230
69.65797 238
69.67809 222
69.6982 270
69.71831 250
69.73843 248
69.75854 266
69.77865 249
69.79877 257
69.81888 233
69.839 252
69.85911 203
69.87922 246
69.89934 240
69.91945 253
69.93956 238
69.95968 257
69.97979 248
69.9999 264
70.02002 261
70.04013 234
70.06025 232
70.08036 251
70.10047 257
70.12059 233
70.1407 224
70.16081 266
70.18093 258
70.20104 253
70.22116 247
70.24127 256
70.26138 211
70.2815 261
70.30161 233
70.32172 253
70.34184 245
70.36195 251
70.38207 236
70.40218 246
70.42229 237
70.44241 195
70.46252 242
70.48263 239
70.50275 236
70.52286 231
70.54297 243
70.56309 260
70.5832 227
70.60332 246
70.62343 224
70.64354 229
70.66366 235
70.68377 216
70.70388 250
70.724 236
70.74411 223
70.76423 265
70.78434 238
70.80445 234
70.82457 246
70.84468 246
70.86479 249
70.88491 208
70.90502 239
70.92513 254
70.94525 242
70.96536 242
70.98548 239
71.00559 236
71.0257 238
71.04582 251
71.06593 247
71.08604 220
71.10616 229
71.12627 234
71.14639 236
71.1665 253
71.18661 225
71.20673 239
71.22684 234
71.24695 222
71.26707 218
71.28718 239
71.3073 242
71.32741 224
71.34752 219
71.36764 250
71.38775 253
71.40786 233
71.42798 214
71.44809 248
71.4682 266
71.48832 244
71.50843 244
71.52855 232
71.54866 224
71.56877 224
71.58889 228
71.609 242
71.62911 248
71.64923 218
71.66934 258
71.68946 246
71.70957 265
71.72968 240
71.7498 253
71.76991 247
71.79002 215
71.81014 241
71.83025 255
71.85037 258
71.87048 217
71.89059 225
71.91071 252
71.93082 229
71.95093 236
71.97105 269
71.99116 247
72.01127 268
72.03139 240
72.0515 221
72.07162 242
72.09173 267
72.11184 226
72.13196 253
72.15207 254
72.17218 231
72.1923 250
72.21241 252
72.23253 270
72.25264 243
72.27275 255
72.29287 248
72.31298 275
72.33309 275
72.35321 265
72.37332 251
72.39344 290
72.41355 263
72.43366 267
72.45378 286
72.47389 275
72.494 279
72.51412 282
72.53423 264
72.55434 318
72.57446 264
72.59457 271
72.61469 250
72.6348 281
72.65491 261
72.67503 261
72.69514 242
72.71525 261
72.73537 263
72.75548 264
72.7756 256
72.79571 260
72.81582 267
72.83594 256
72.85605 229
72.87616 295
72.89628 246
72.91639 285
72.9365 275
72.95662 277
72.97673 258
72.99685 294
73.01696 282
73.03707 278
73.05719 265
73.0773 275
73.09741 294
73.11753 311
73.13764 291
73.15776 311
73.17787 326
73.19798 331
73.2181 331
73.23821 332
73.25832 352
73.27844 363
73.29855 395
73.31867 457
73.33878 434
73.35889 463
73.37901 487
73.39912 409
73.41923 458
73.43935 438
73.45946 381
73.47957 347
73.49969 334
73.5198 332
73.53992 332
73.56003 353
73.58014 357
73.60026 334
73.62037 337
73.64048 317
73.6606 344
73.68071 327
73.70083 284
73.72094 292
73.74105 271
73.76117 275
73.78128 271
73.80139 269
73.82151 259
73.84162 244
73.86174 279
73.88185 242
73.90196 241
73.92208 262
73.94219 244
73.9623 243
73.98242 257
74.00253 254
74.02264 248
74.04276 242
74.06287 279
74.08299 274
74.1031 243
74.12321 283
74.14333 240
74.16344 284
74.18355 231
74.20367 247
74.22378 239
74.2439 248
74.26401 260
74.28412 264
74.30424 259
74.32435 292
74.34446 250
74.36458 273
74.38469 237
74.40481 238
74.42492 260
74.44503 252
74.46515 250
74.48526 247
74.50537 265
74.52549 239
74.5456 257
74.56571 249
74.58583 261
74.60594 266
74.62606 252
74.64617 246
74.66628 255
74.6864 254
74.70651 227
74.72662 257
74.74674 262
74.76685 250
74.78697 239
74.80708 244
74.82719 242
74.84731 241
74.86742 235
74.88753 259
74.90765 234
74.92776 257
74.94787 239
74.96799 258
74.9881 272
75.00822 274
