3.00117 20224
3.02128 20103
3.0414 19340
3.06151 19073
3.08162 18399
3.10174 18038
3.12185 17370
3.14197 16436
3.16208 16099
3.18219 15997
3.20231 15503
3.22242 14895
3.24253 14560
3.26265 14175
3.28276 13746
3.30288 13120
3.32299 12887
3.3431 12458
3.36322 12021
3.38333 11687
3.40344 11171
3.42356 10988
3.44367 10335
3.46379 10131
3.4839 9719
3.50401 9599
3.52413 9127
3.54424 8669
3.56435 8472
3.58447 8187
3.60458 7874
3.62469 7655
3.64481 7290
3.66492 7017
3.68504 6638
3.70515 6400
3.72526 6532
3.74538 5851
3.76549 5722
3.7856 5532
3.80572 5268
3.82583 5107
3.84595 4800
3.86606 4542
3.88617 4491
3.90629 4261
3.9264 4147
3.94651 3755
3.96663 3802
3.98674 3455
4.00686 3438
4.02697 3371
4.04708 2995
4.0672 3033
4.08731 2868
4.10742 2648
4.12754 2699
4.14765 2414
4.16776 2433
4.18788 2359
4.20799 2167
4.22811 2142
4.24822 1877
4.26833 1933
4.28845 1946
4.30856 1806
4.32867 1797
4.34879 1626
4.3689 1607
4.38902 1587
4.40913 1583
4.42924 1588
4.44936 1458
4.46947 1437
4.48958 1379
4.5097 1400
4.52981 1405
4.54992 1216
4.57004 1331
4.59015 1222
4.61027 1197
4.63038 1271
4.65049 1099
4.67061 1086
4.69072 1114
4.71083 1087
4.73095 1087
4.75106 973
4.77118 979
4.79129 955
4.8114 966
4.83152 952
4.85163 924
4.87174 879
4.89186 875
4.91197 820
4.93209 788
4.9522 813
4.97231 797
4.99243 814
5.01254 713
5.03265 760
5.05277 680
5.07288 657
5.09299 689
5.11311 667
5.13322 709
5.15334 609
5.17345 601
5.19356 608
5.21368 646
5.23379 596
5.2539 550
5.27402 529
5.29413 518
5.31425 557
5.33436 490
5.35447 519
5.37459 510
5.3947 501
5.41481 515
5.43493 473
5.45504 465
5.47516 466
5.49527 420
5.51538 449
5.5355 434
5.55561 429
5.57572 394
5.59584 438
5.61595 391
5.63606 382
5.65618 417
5.67629 358
5.69641 358
5.71652 326
5.73663 367
5.75675 349
5.77686 313
5.79697 326
5.81709 340
5.8372 320
5.85732 337
5.87743 330
5.89754 330
5.91766 303
5.93777 296
5.95788 265
5.978 288
5.99811 333
6.01823 300
6.03834 276
6.05845 303
6.07857 263
6.09868 273
6.11879 280
6.13891 292
6.15902 275
6.17913 296
6.19925 289
6.21936 256
6.23948 275
6.25959 236
6.2797 255
6.29982 252
6.31993 282
6.34004 303
6.36016 243
6.38027 245
6.40039 262
6.4205 232
6.44061 239
6.46073 248
6.48084 225
6.50095 242
6.52107 252
6.54118 251
6.56129 227
6.58141 248
6.60152 233
6.62164 233
6.64175 224
6.66186 227
6.68198 224
6.70209 249
6.7222 246
6.74232 237
6.76243 263
6.78255 238
6.80266 254
6.82277 234
6.84289 244
6.863 214
6.88311 254
6.90323 223
6.92334 242
6.94346 236
6.96357 258
6.98368 220
7.0038 232
7.02391 242
7.04402 273
7.06414 213
7.08425 258
7.10436 228
7.12448 218
7.14459 234
7.16471 218
7.18482 237
7.20493 262
7.22505 231
7.24516 233
7.26527 219
7.28539 248
7.3055 230
7.32562 253
7.34573 211
7.36584 215
7.38596 258
7.40607 234
7.42618 263
7.4463 264
7.46641 247
7.48653 260
7.50664 251
7.52675 205
7.54687 239
7.56698 254
7.58709 246
7.60721 269
7.62732 236
7.64743 244
7.66755 244
7.68766 233
7.70778 252
7.72789 233
7.748 239
7.76812 253
7.78823 267
7.80834 246
7.82846 224
7.84857 241
7.86869 247
7.8888 226
7.90891 222
7.92903 237
7.94914 235
7.96925 254
7.98937 289
8.00948 242
8.0296 253
8.04971 283
8.06982 247
8.08994 231
8.11005 248
8.13016 241
8.15028 258
8.17039 243
8.1905 246
8.21062 246
8.23073 226
8.25085 242
8.27096 260
8.29107 234
8.31119 273
8.3313 263
8.35141 252
8.37153 248
8.39164 279
8.41176 257
8.43187 254
8.45198 284
8.4721 250
8.49221 274
8.51232 272
8.53244 273
8.55255 297
8.57266 280
8.59278 263
8.61289 242
8.63301 272
8.65312 231
8.67323 258
8.69335 260
8.71346 289
8.73357 271
8.75369 248
8.7738 252
8.79392 296
8.81403 276
8.83414 283
8.85426 244
8.87437 271
8.89448 249
8.9146 254
8.93471 269
8.95483 255
8.97494 254
8.99505 300
9.01517 270
9.03528 262
9.05539 255
9.07551 287
9.09562 275
9.11573 254
9.13585 249
9.15596 293
9.17608 266
9.19619 258
9.2163 287
9.23642 266
9.25653 253
9.27664 285
9.29676 286
9.31687 261
9.33699 244
9.3571 255
9.37721 255
9.39733 251
9.41744 247
9.43755 261
9.45767 257
9.47778 272
9.4979 248
9.51801 275
9.53812 252
9.55824 240
9.57835 261
9.59846 281
9.61858 260
9.63869 259
9.6588 265
9.67892 261
9.69903 239
9.71915 270
9.73926 280
9.75937 269
9.77949 250
9.7996 230
9.81971 279
9.83983 252
9.85994 280
9.88006 264
9.90017 275
9.92028 292
9.9404 268
9.96051 266
9.98062 284
10.00074 260
10.02085 267
10.04097 241
10.06108 284
10.08119 248
10.10131 259
10.12142 257
10.14153 260
10.16165 257
10.18176 248
10.20187 245
10.22199 244
10.2421 286
10.26222 273
10.28233 249
10.30244 245
10.32256 249
10.34267 251
10.36278 228
10.3829 250
10.40301 250
10.42313 253
10.44324 260
10.46335 248
10.48347 266
10.50358 220
10.52369 255
10.54381 276
10.56392 271
10.58403 290
10.60415 298
10.62426 293
10.64438 246
10.66449 233
10.6846 235
10.70472 257
10.72483 256
10.74494 256
10.76506 268
10.78517 256
10.80529 236
10.8254 292
10.84551 280
10.86563 282
10.88574 292
10.90585 263
10.92597 249
10.94608 270
10.9662 269
10.98631 259
11.00642 272
11.02654 262
11.04665 254
11.06676 257
11.08688 251
11.10699 288
11.1271 293
11.14722 258
11.16733 239
11.18745 244
11.20756 272
11.22767 278
11.24779 263
11.2679 264
11.28801 264
11.30813 255
11.32824 268
11.34836 264
11.36847 251
11.38858 290
11.4087 269
11.42881 287
11.44892 288
11.46904 281
11.48915 266
11.50927 248
11.52938 266
11.54949 294
11.56961 270
11.58972 271
11.60983 299
11.62995 278
11.65006 285
11.67017 293
11.69029 332
11.7104 317
11.73052 295
11.75063 324
11.77074 293
11.79086 290
11.81097 274
11.83108 302
11.8512 298
11.87131 296
11.89143 291
11.91154 339
11.93165 355
11.95177 321
11.97188 325
11.99199 354
12.01211 337
12.03222 345
12.05234 324
12.07245 341
12.09256 370
12.11268 395
12.13279 391
12.1529 423
12.17302 379
12.19313 440
12.21324 448
12.23336 487
12.25347 469
12.27359 504
12.2937 498
12.31381 553
12.33393 572
12.35404 531
12.37415 527
12.39427 535
12.41438 474
12.4345 414
12.45461 377
12.47472 365
12.49484 351
12.51495 317
12.53506 350
12.55518 302
12.57529 334
12.5954 299
12.61552 293
12.63563 292
12.65575 309
12.67586 263
12.69597 255
12.71609 299
12.7362 272
12.75631 309
12.77643 248
12.79654 269
12.81666 262
12.83677 281
12.85688 270
12.877 274
12.89711 265
12.91722 236
12.93734 270
12.95745 237
12.97757 254
12.99768 263
13.01779 263
13.03791 234
13.05802 249
13.07813 227
13.09825 229
13.11836 254
13.13847 265
13.15859 234
13.1787 223
13.19882 209
13.21893 247
13.23904 236
13.25916 252
13.27927 221
13.29938 220
13.3195 284
13.33961 244
13.35973 241
13.37984 231
13.39995 223
13.42007 252
13.44018 250
13.46029 217
13.48041 217
13.50052 238
13.52064 218
13.54075 223
13.56086 240
13.58098 225
13.60109 233
13.6212 219
13.64132 225
13.66143 222
13.68154 251
13.70166 208
13.72177 207
13.74189 231
13.762 230
13.78211 237
13.80223 197
13.82234 247
13.84245 223
13.86257 244
13.88268 222
13.9028 217
13.92291 220
13.94302 219
13.96314 245
13.98325 217
14.00336 208
14.02348 203
14.04359 218
14.06371 211
14.08382 184
14.10393 221
14.12405 247
14.14416 233
14.16427 231
14.18439 206
14.2045 190
14.22461 222
14.24473 210
14.26484 219
14.28496 205
14.30507 220
14.32518 196
14.3453 209
14.36541 240
14.38552 224
14.40564 218
14.42575 206
14.44587 238
14.46598 228
14.48609 241
14.50621 214
14.52632 215
14.54643 189
14.56655 210
14.58666 222
14.60677 211
14.62689 219
14.647 224
14.66712 218
14.68723 189
14.70734 221
14.72746 227
14.74757 201
14.76768 228
14.7878 218
14.80791 209
14.82803 211
14.84814 212
14.86825 196
14.88837 233
14.90848 189
14.92859 216
14.94871 212
14.96882 194
14.98894 209
15.00905 219
15.02916 237
15.04928 214
15.06939 194
15.0895 216
15.10962 211
15.12973 205
15.14984 203
15.16996 194
15.19007 225
15.21019 217
15.2303 221
15.25041 212
15.27053 183
15.29064 222
15.31075 232
15.33087 207
15.35098 188
15.3711 199
15.39121 201
15.41132 212
15.43144 233
15.45155 191
15.47166 242
15.49178 199
15.51189 227
15.53201 201
15.55212 195
15.57223 202
15.59235 239
15.61246 206
15.63257 222
15.65269 195
15.6728 210
15.69291 180
15.71303 203
15.73314 201
15.75326 195
15.77337 193
15.79348 201
15.8136 206
15.83371 215
15.85382 178
15.87394 194
15.89405 203
15.91417 209
15.93428 195
15.95439 204
15.97451 195
15.99462 233
16.01473 194
16.03485 188
16.05496 218
16.07508 204
16.09519 185
16.1153 205
16.13542 208
16.15553 189
16.17564 206
16.19576 219
16.21587 213
16.23598 235
16.2561 197
16.27621 201
16.29633 197
16.31644 195
16.33655 195
16.35667 199
16.37678 200
16.39689 206
16.41701 207
16.43712 185
16.45724 186
16.47735 177
16.49746 225
16.51758 195
16.53769 195
16.5578 202
16.57792 197
16.59803 197
16.61814 190
16.63826 202
16.65837 187
16.67849 180
16.6986 206
16.71871 179
16.73883 179
16.75894 195
16.77905 179
16.79917 191
16.81928 199
16.8394 189
16.85951 183
16.87962 207
16.89974 213
16.91985 189
16.93996 208
16.96008 193
16.98019 192
17.00031 192
17.02042 193
17.04053 183
17.06065 208
17.08076 208
17.10087 211
17.12099 191
17.1411 197
17.16121 188
17.18133 216
17.20144 195
17.22156 203
17.24167 248
17.26178 192
17.2819 219
17.30201 192
17.32212 218
17.34224 197
17.36235 204
17.38247 181
17.40258 201
17.42269 200
17.44281 234
17.46292 205
17.48303 208
17.50315 173
17.52326 214
17.54338 192
17.56349 216
17.5836 204
17.60372 219
17.62383 209
17.64394 198
17.66406 207
17.68417 208
17.70428 187
17.7244 213
17.74451 220
17.76463 225
17.78474 206
17.80485 216
17.82497 176
17.84508 213
17.86519 195
17.88531 220
17.90542 197
17.92554 204
17.94565 215
17.96576 209
17.98588 190
18.00599 175
18.0261 173
18.04622 226
18.06633 213
18.08645 224
18.10656 198
18.12667 206
18.14679 200
18.1669 210
18.18701 217
18.20713 197
18.22724 202
18.24735 225
18.26747 207
18.28758 201
18.3077 182
18.32781 204
18.34792 180
18.36804 219
18.38815 218
18.40826 188
18.42838 199
18.44849 202
18.46861 196
18.48872 196
18.50883 220
18.52895 190
18.54906 200
18.56917 205
18.58929 232
18.6094 214
18.62951 171
18.64963 182
18.66974 204
18.68986 206
18.70997 198
18.73008 194
18.7502 229
18.77031 205
18.79042 220
18.81054 193
18.83065 183
18.85077 181
18.87088 202
18.89099 220
18.91111 218
18.93122 203
18.95133 192
18.97145 211
18.99156 210
19.01168 219
19.03179 209
19.0519 202
19.07202 184
19.09213 178
19.11224 195
19.13236 214
19.15247 193
19.17258 207
19.1927 199
19.21281 199
19.23293 237
19.25304 213
19.27315 191
19.29327 196
19.31338 235
19.33349 222
19.35361 201
19.37372 192
19.39384 211
19.41395 204
19.43406 201
19.45418 249
19.47429 214
19.4944 210
19.51452 241
19.53463 265
19.55475 228
19.57486 270
19.59497 239
19.61509 254
19.6352 244
19.65531 285
19.67543 291
19.69554 299
19.71565 366
19.73577 336
19.75588 388
19.776 397
19.79611 427
19.81622 453
19.83634 443
19.85645 430
19.87656 484
19.89668 487
19.91679 444
19.93691 474
19.95702 413
19.97713 437
19.99725 392
20.01736 457
20.03747 385
20.05759 414
20.0777 421
20.09782 405
20.11793 430
20.13804 389
20.15816 429
20.17827 424
20.19838 448
20.2185 412
20.23861 433
20.25872 454
20.27884 433
20.29895 500
20.31907 413
20.33918 426
20.35929 500
20.37941 423
20.39952 499
20.41963 454
20.43975 497
20.45986 512
20.47998 500
20.50009 515
20.5202 505
20.54032 533
20.56043 546
20.58054 565
20.60066 635
20.62077 689
20.64088 783
20.661 906
20.68111 1143
20.70123 1460
20.72134 2000
20.74145 2810
20.76157 3874
20.78168 4941
20.80179 6008
20.82191 6740
20.84202 7078
20.86214 6482
20.88225 5388
20.90236 3984
20.92248 2702
20.94259 1645
20.9627 1175
20.98282 829
21.00293 701
21.02305 580
21.04316 615
21.06327 599
21.08339 476
21.1035 510
21.12361 484
21.14373 499
21.16384 480
21.18395 424
21.20407 428
21.22418 449
21.2443 433
21.26441 423
21.28452 423
21.30464 429
21.32475 369
21.34486 457
21.36498 388
21.38509 380
21.40521 411
21.42532 430
21.44543 401
21.46555 384
21.48566 371
21.50577 413
21.52589 381
21.546 362
21.56612 372
21.58623 334
21.60634 403
21.62646 339
21.64657 350
21.66668 340
21.6868 339
21.70691 317
21.72702 344
21.74714 366
21.76725 332
21.78737 304
21.80748 325
21.82759 281
21.84771 342
21.86782 313
21.88793 321
21.90805 343
21.92816 310
21.94828 353
21.96839 311
21.9885 280
22.00862 331
22.02873 298
22.04884 284
22.06896 295
22.08907 297
22.10919 324
22.1293 317
22.14941 293
22.16953 291
22.18964 294
22.20975 286
22.22987 321
22.24998 283
22.27009 323
22.29021 284
22.31032 300
22.33044 302
22.35055 285
22.37066 265
22.39078 274
22.41089 301
22.431 305
22.45112 280
22.47123 271
22.49135 266
22.51146 251
22.53157 313
22.55169 250
22.5718 268
22.59191 263
22.61203 291
22.63214 271
22.65225 267
22.67237 282
22.69248 306
22.7126 278
22.73271 287
22.75282 288
22.77294 259
22.79305 305
22.81316 270
22.83328 251
22.85339 274
22.87351 263
22.89362 270
22.91373 266
22.93385 268
22.95396 260
22.97407 285
22.99419 233
23.0143 253
23.03442 266
23.05453 282
23.07464 233
23.09476 246
23.11487 256
23.13498 243
23.1551 237
23.17521 264
23.19532 227
23.21544 266
23.23555 277
23.25567 271
23.27578 270
23.29589 262
23.31601 287
23.33612 283
23.35623 260
23.37635 288
23.39646 273
23.41658 236
23.43669 257
23.4568 259
23.47692 254
23.49703 257
23.51714 240
23.53726 281
23.55737 259
23.57749 269
23.5976 267
23.61771 255
23.63783 226
23.65794 266
23.67805 238
23.69817 265
23.71828 250
23.73839 261
23.75851 280
23.77862 278
23.79874 272
23.81885 273
23.83896 242
23.85908 295
23.87919 290
23.8993 338
23.91942 309
23.93953 355
23.95965 334
23.97976 367
23.99987 325
24.01999 365
24.0401 339
24.06021 295
24.08033 293
24.10044 291
24.12056 296
24.14067 271
24.16078 279
24.1809 284
24.20101 305
24.22112 291
24.24124 287
24.26135 264
24.28146 283
24.30158 322
24.32169 262
24.34181 266
24.36192 283
24.38203 297
24.40215 274
24.42226 303
24.44237 295
24.46249 306
24.4826 276
24.50272 301
24.52283 309
24.54294 306
24.56306 307
24.58317 292
24.60328 339
24.6234 337
24.64351 318
24.66362 361
24.68374 365
24.70385 354
24.72397 380
24.74408 404
24.76419 415
24.78431 461
24.80442 473
24.82453 424
24.84465 479
24.86476 483
24.88488 458
24.90499 445
24.9251 421
24.94522 421
24.96533 419
24.98544 384
25.00556 350
25.02567 362
25.04579 323
25.0659 379
25.08601 310
25.10613 352
25.12624 348
25.14635 372
25.16647 340
25.18658 366
25.20669 367
25.22681 365
25.24692 422
25.26704 381
25.28715 397
25.30726 369
25.32738 333
25.34749 330
25.3676 336
25.38772 316
25.40783 321
25.42795 343
25.44806 312
25.46817 274
25.48829 307
25.5084 293
25.52851 336
25.54863 337
25.56874 296
25.58886 314
25.60897 301
25.62908 337
25.6492 344
25.66931 402
25.68942 446
25.70954 460
25.72965 440
25.74976 415
25.76988 466
25.78999 440
25.81011 453
25.83022 443
25.85033 472
25.87045 480
25.89056 493
25.91067 452
25.93079 491
25.9509 461
25.97102 465
25.99113 557
26.01124 490
26.03136 519
26.05147 578
26.07158 552
26.0917 581
26.11181 658
26.13193 642
26.15204 731
26.17215 675
26.19227 838
26.21238 821
26.23249 846
26.25261 922
26.27272 971
26.29283 1113
26.31295 1203
26.33306 1305
26.35318 1523
26.37329 1787
26.3934 2196
26.41352 2731
26.43363 3579
26.45374 4887
26.47386 6629
26.49397 9327
26.51409 12863
26.5342 17160
26.55431 21894
26.57443 26867
26.59454 30319
26.61465 31065
26.63477 28871
26.65488 24441
26.67499 18716
26.69511 13690
26.71522 9540
26.73534 6182
26.75545 3587
26.77556 2394
26.79568 1799
26.81579 1472
26.8359 1318
26.85602 1244
26.87613 1104
26.89625 966
26.91636 933
26.93647 877
26.95659 701
26.9767 664
26.99681 619
27.01693 583
27.03704 558
27.05716 553
27.07727 445
27.09738 487
27.1175 466
27.13761 459
27.15772 485
27.17784 459
27.19795 413
27.21806 414
27.23818 397
27.25829 380
27.27841 412
27.29852 429
27.31863 429
27.33875 422
27.35886 442
27.37897 425
27.39909 401
27.4192 410
27.43932 398
27.45943 392
27.47954 391
27.49966 372
27.51977 376
27.53988 361
27.56 335
27.58011 361
27.60023 338
27.62034 336
27.64045 375
27.66057 329
27.68068 343
27.70079 331
27.72091 283
27.74102 323
27.76113 293
27.78125 326
27.80136 317
27.82148 307
27.84159 301
27.8617 310
27.88182 316
27.90193 289
27.92204 310
27.94216 351
27.96227 347
27.98239 328
28.0025 324
28.02261 305
28.04273 326
28.06284 319
28.08295 328
28.10307 329
28.12318 275
28.1433 302
28.16341 269
28.18352 272
28.20364 259
28.22375 287
28.24386 317
28.26398 296
28.28409 290
28.3042 285
28.32432 283
28.34443 285
28.36455 275
28.38466 273
28.40477 295
28.42489 295
28.445 296
28.46511 264
28.48523 276
28.50534 299
28.52546 246
28.54557 281
28.56568 276
28.5858 266
28.60591 252
28.62602 274
28.64614 277
28.66625 281
28.68636 272
28.70648 262
28.72659 289
28.74671 262
28.76682 247
28.78693 256
28.80705 285
28.82716 250
28.84727 268
28.86739 258
28.8875 284
28.90762 264
28.92773 237
28.94784 235
28.96796 276
28.98807 259
29.00818 266
29.0283 277
29.04841 256
29.06853 244
29.08864 244
29.10875 230
29.12887 238
29.14898 254
29.16909 253
29.18921 237
29.20932 250
29.22943 253
29.24955 259
29.26966 258
29.28978 262
29.30989 240
29.33 261
29.35012 223
29.37023 276
29.39034 254
29.41046 217
29.43057 261
29.45069 243
29.4708 245
29.49091 247
29.51103 259
29.53114 225
29.55125 237
29.57137 254
29.59148 235
29.6116 252
29.63171 241
29.65182 251
29.67194 230
29.69205 273
29.71216 252
29.73228 249
29.75239 226
29.7725 264
29.79262 255
29.81273 227
29.83285 257
29.85296 239
29.87307 233
29.89319 200
29.9133 197
29.93341 222
29.95353 229
29.97364 241
29.99376 243
30.01387 251
30.03398 246
30.0541 261
30.07421 214
30.09432 268
30.11444 216
30.13455 244
30.15467 253
30.17478 226
30.19489 242
30.21501 240
30.23512 245
30.25523 255
30.27535 207
30.29546 240
30.31557 223
30.33569 252
30.3558 243
30.37592 240
30.39603 239
30.41614 226
30.43626 228
30.45637 226
30.47648 217
30.4966 248
30.51671 220
30.53683 229
30.55694 249
30.57705 239
30.59717 242
30.61728 243
30.63739 220
30.65751 210
30.67762 225
30.69773 224
30.71785 222
30.73796 239
30.75808 268
30.77819 248
30.7983 231
30.81842 252
30.83853 248
30.85864 213
30.87876 210
30.89887 243
30.91899 216
30.9391 216
30.95921 218
30.97933 236
30.99944 223
31.01955 204
31.03967 197
31.05978 244
31.0799 216
31.10001 225
31.12012 195
31.14024 216
31.16035 209
31.18046 211
31.20058 203
31.22069 208
31.2408 210
31.26092 205
31.28103 218
31.30115 201
31.32126 228
31.34137 232
31.36149 223
31.3816 218
31.40171 238
31.42183 200
31.44194 224
31.46206 218
31.48217 203
31.50228 212
31.5224 192
31.54251 218
31.56262 213
31.58274 228
31.60285 205
31.62297 219
31.64308 199
31.66319 207
31.68331 214
31.70342 188
31.72353 189
31.74365 181
31.76376 203
31.78387 189
31.80399 203
31.8241 224
31.84422 210
31.86433 197
31.88444 215
31.90456 205
31.92467 199
31.94478 204
31.9649 184
31.98501 224
32.00513 206
32.02524 198
32.04535 187
32.06547 186
32.08558 221
32.10569 204
32.12581 213
32.14592 194
32.16604 213
32.18615 182
32.20626 246
32.22638 212
32.24649 198
32.2666 189
32.28672 204
32.30683 192
32.32694 244
32.34706 225
32.36717 194
32.38729 203
32.4074 211
32.42751 209
32.44763 235
32.46774 209
32.48785 216
32.50797 189
32.52808 199
32.5482 195
32.56831 228
32.58842 191
32.60854 204
32.62865 201
32.64876 190
32.66888 190
32.68899 221
32.7091 205
32.72922 212
32.74933 210
32.76945 240
32.78956 219
32.80967 212
32.82979 227
32.8499 222
32.87001 196
32.89013 222
32.91024 216
32.93036 203
32.95047 214
32.97058 209
32.9907 229
33.01081 209
33.03092 202
33.05104 226
33.07115 245
33.09127 202
33.11138 223
33.13149 203
33.15161 197
33.17172 224
33.19183 235
33.21195 229
33.23206 225
33.25217 203
33.27229 230
33.2924 228
33.31252 238
33.33263 209
33.35274 233
33.37286 218
33.39297 188
33.41308 238
33.4332 223
33.45331 207
33.47343 214
33.49354 232
33.51365 218
33.53377 201
33.55388 204
33.57399 253
33.59411 228
33.61422 184
33.63434 208
33.65445 197
33.67456 206
33.69468 197
33.71479 188
33.7349 201
33.75502 178
33.77513 186
33.79524 215
33.81536 221
33.83547 181
33.85559 218
33.8757 203
33.89581 198
33.91593 164
33.93604 196
33.95615 206
33.97627 197
33.99638 204
34.0165 190
34.03661 186
34.05672 203
34.07684 173
34.09695 217
34.11706 195
34.13718 197
34.15729 199
34.17741 253
34.19752 187
34.21763 190
34.23775 180
34.25786 172
34.27797 180
34.29809 175
34.3182 172
34.33831 198
34.35843 192
34.37854 235
34.39866 213
34.41877 204
34.43888 200
34.459 220
34.47911 222
34.49922 223
34.51934 186
34.53945 214
34.55957 226
34.57968 231
34.59979 224
34.61991 216
34.64002 267
34.66013 246
34.68025 263
34.70036 289
34.72047 259
34.74059 283
34.7607 267
34.78082 284
34.80093 286
34.82104 316
34.84116 276
34.86127 332
34.88138 303
34.9015 302
34.92161 333
34.94173 323
34.96184 345
34.98195 305
35.00207 283
35.02218 315
35.04229 301
35.06241 291
35.08252 292
35.10264 234
35.12275 270
35.14286 264
35.16298 262
35.18309 279
35.2032 276
35.22332 265
35.24343 275
35.26354 254
35.28366 254
35.30377 289
35.32389 263
35.344 301
35.36411 275
35.38423 285
35.40434 299
35.42445 257
35.44457 294
35.46468 280
35.4848 309
35.50491 280
35.52502 343
35.54514 302
35.56525 270
35.58536 326
35.60548 289
35.62559 283
35.64571 296
35.66582 308
35.68593 326
35.70605 323
35.72616 302
35.74627 310
35.76639 327
35.7865 321
35.80661 302
35.82673 321
35.84684 315
35.86696 350
35.88707 325
35.90718 333
35.9273 325
35.94741 324
35.96752 311
35.98764 297
36.00775 309
36.02787 294
36.04798 290
36.06809 278
36.08821 329
36.10832 312
36.12843 293
36.14855 310
36.16866 313
36.18878 319
36.20889 327
36.229 315
36.24912 348
36.26923 393
36.28934 392
36.30946 497
36.32957 607
36.34968 689
36.3698 750
36.38991 948
36.41003 1158
36.43014 1457
36.45025 1860
36.47037 2106
36.49048 2054
36.51059 2233
36.53071 2049
36.55082 1816
36.57094 1582
36.59105 1396
36.61116 1123
36.63128 943
36.65139 686
36.6715 572
36.69162 412
36.71173 369
36.73184 357
36.75196 341
36.77207 287
36.79219 320
36.8123 296
36.83241 316
36.85253 316
36.87264 312
36.89275 278
36.91287 287
36.93298 289
36.9531 302
36.97321 287
36.99332 289
37.01344 274
37.03355 298
37.05366 252
37.07378 274
37.09389 278
37.11401 281
37.13412 251
37.15423 256
37.17435 258
37.19446 226
37.21457 275
37.23469 272
37.2548 266
37.27491 237
37.29503 271
37.31514 257
37.33526 239
37.35537 262
37.37548 241
37.3956 260
37.41571 252
37.43582 221
37.45594 260
37.47605 233
37.49617 256
37.51628 252
37.53639 270
37.55651 253
37.57662 240
37.59673 262
37.61685 297
37.63696 257
37.65708 256
37.67719 250
37.6973 246
37.71742 253
37.73753 264
37.75764 267
37.77776 271
37.79787 267
37.81798 248
37.8381 261
37.85821 220
37.87833 259
37.89844 259
37.91855 240
37.93867 259
37.95878 223
37.97889 270
37.99901 263
38.01912 257
38.03924 271
38.05935 274
38.07946 271
38.09958 286
38.11969 308
38.1398 277
38.15992 305
38.18003 286
38.20015 278
38.22026 297
38.24037 292
38.26049 299
38.2806 310
38.30071 288
38.32083 294
38.34094 308
38.36105 295
38.38117 332
38.40128 291
38.4214 308
38.44151 318
38.46162 320
38.48174 321
38.50185 324
38.52196 311
38.54208 301
38.56219 303
38.58231 293
38.60242 285
38.62253 256
38.64265 278
38.66276 275
38.68287 250
38.70299 267
38.7231 258
38.74321 271
38.76333 277
38.78344 270
38.80356 240
38.82367 256
38.84378 229
38.8639 265
38.88401 266
38.90412 291
38.92424 265
38.94435 279
38.96447 273
38.98458 287
39.00469 298
39.02481 304
39.04492 291
39.06503 297
39.08515 298
39.10526 353
39.12538 287
39.14549 355
39.1656 362
39.18572 380
39.20583 408
39.22594 413
39.24606 558
39.26617 628
39.28628 730
39.3064 863
39.32651 1083
39.34663 1340
39.36674 1647
39.38685 1822
39.40697 1972
39.42708 2026
39.44719 1991
39.46731 1862
39.48742 1459
39.50754 1320
39.52765 1168
39.54776 981
39.56788 767
39.58799 603
39.6081 481
39.62822 392
39.64833 345
39.66845 305
39.68856 290
39.70867 283
39.72879 267
39.7489 259
39.76901 298
39.78913 263
39.80924 252
39.82935 241
39.84947 239
39.86958 255
39.8897 256
39.90981 255
39.92992 252
39.95004 258
39.97015 260
39.99026 290
40.01038 301
40.03049 300
40.05061 313
40.07072 350
40.09083 384
40.11095 448
40.13106 529
40.15117 689
40.17129 730
40.1914 848
40.21152 1034
40.23163 1033
40.25174 1070
40.27186 1005
40.29197 958
40.31208 766
40.3322 718
40.35231 600
40.37242 586
40.39254 518
40.41265 414
40.43277 352
40.45288 286
40.47299 272
40.49311 263
40.51322 270
40.53333 241
40.55345 262
40.57356 277
40.59368 246
40.61379 226
40.6339 220
40.65402 227
40.67413 226
40.69424 256
40.71436 237
40.73447 217
40.75458 231
40.7747 201
40.79481 219
40.81493 212
40.83504 243
40.85515 218
40.87527 221
40.89538 209
40.91549 231
40.93561 231
40.95572 219
40.97584 210
40.99595 220
41.01606 263
41.03618 232
41.05629 222
41.0764 243
41.09652 227
41.11663 224
41.13675 229
41.15686 232
41.17697 233
41.19709 227
41.2172 222
41.23731 221
41.25743 220
41.27754 233
41.29765 222
41.31777 216
41.33788 219
41.358 226
41.37811 194
41.39822 215
41.41834 238
41.43845 206
41.45856 226
41.47868 214
41.49879 222
41.51891 225
41.53902 224
41.55913 239
41.57925 216
41.59936 209
41.61947 223
41.63959 197
41.6597 234
41.67982 246
41.69993 234
41.72004 215
41.74016 218
41.76027 201
41.78038 207
41.8005 229
41.82061 219
41.84072 256
41.86084 239
41.88095 211
41.90107 214
41.92118 202
41.94129 213
41.96141 266
41.98152 216
42.00163 251
42.02175 217
42.04186 246
42.06198 258
42.08209 240
42.1022 294
42.12232 265
42.14243 271
42.16254 320
42.18266 311
42.20277 389
42.22289 406
42.243 452
42.26311 549
42.28323 646
42.30334 747
42.32345 978
42.34357 1109
42.36368 1274
42.38379 1511
42.40391 1491
42.42402 1454
42.44414 1369
42.46425 1192
42.48436 989
42.50448 905
42.52459 849
42.5447 728
42.56482 586
42.58493 449
42.60505 332
42.62516 258
42.64527 247
42.66539 252
42.6855 235
42.70561 216
42.72573 232
42.74584 210
42.76595 215
42.78607 232
42.80618 197
42.8263 180
42.84641 189
42.86652 212
42.88664 195
42.90675 206
42.92686 190
42.94698 210
42.96709 205
42.98721 203
43.00732 186
43.02743 216
43.04755 206
43.06766 193
43.08777 198
43.10789 196
43.128 179
43.14812 197
43.16823 175
43.18834 196
43.20846 198
43.22857 196
43.24868 188
43.2688 172
43.28891 204
43.30902 198
43.32914 165
43.34925 202
43.36937 187
43.38948 200
43.40959 187
43.42971 190
43.44982 179
43.46993 195
43.49005 178
43.51016 192
43.53028 174
43.55039 186
43.5705 192
43.59062 169
43.61073 192
43.63084 225
43.65096 198
43.67107 176
43.69119 205
43.7113 185
43.73141 191
43.75153 177
43.77164 172
43.79175 191
43.81187 196
43.83198 196
43.85209 185
43.87221 204
43.89232 202
43.91244 166
43.93255 189
43.95266 211
43.97278 176
43.99289 180
44.013 185
44.03312 194
44.05323 168
44.07335 192
44.09346 193
44.11357 181
44.13369 187
44.1538 189
44.17391 210
44.19403 187
44.21414 206
44.23426 185
44.25437 174
44.27448 168
44.2946 217
44.31471 186
44.33482 187
44.35494 168
44.37505 210
44.39516 201
44.41528 167
44.43539 183
44.45551 203
44.47562 205
44.49573 193
44.51585 170
44.53596 196
44.55607 196
44.57619 199
44.5963 190
44.61642 177
44.63653 187
44.65664 197
44.67676 190
44.69687 178
44.71698 203
44.7371 183
44.75721 199
44.77732 178
44.79744 189
44.81755 184
44.83767 178
44.85778 212
44.87789 208
44.89801 188
44.91812 204
44.93823 201
44.95835 197
44.97846 202
44.99858 222
45.01869 201
45.0388 210
45.05892 205
45.07903 200
45.09914 199
45.11926 187
45.13937 189
45.15949 199
45.1796 197
45.19971 206
45.21983 229
45.23994 216
45.26005 215
45.28017 204
45.30028 220
45.32039 226
45.34051 235
45.36062 244
45.38074 256
45.40085 253
45.42096 262
45.44108 245
45.46119 259
45.4813 261
45.50142 270
45.52153 282
45.54165 349
45.56176 304
45.58187 421
45.60199 476
45.6221 494
45.64221 578
45.66233 658
45.68244 764
45.70256 929
45.72267 1003
45.74278 978
45.7629 1028
45.78301 929
45.80312 871
45.82324 740
45.84335 633
45.86346 603
45.88358 573
45.90369 453
45.92381 415
45.94392 310
45.96403 258
45.98415 248
46.00426 221
46.02437 257
46.04449 238
46.0646 201
46.08472 231
46.10483 221
46.12494 193
46.14506 211
46.16517 195
46.18528 204
46.2054 188
46.22551 199
46.24563 213
46.26574 171
46.28585 189
46.30597 178
46.32608 182
46.34619 204
46.36631 171
46.38642 204
46.40653 170
46.42665 181
46.44676 204
46.46688 184
46.48699 183
46.5071 183
46.52722 191
46.54733 205
46.56744 178
46.58756 196
46.60767 183
46.62779 182
46.6479 189
46.66801 204
46.68813 195
46.70824 177
46.72835 180
46.74847 184
46.76858 186
46.78869 182
46.80881 202
46.82892 195
46.84904 200
46.86915 196
46.88926 172
46.90938 203
46.92949 197
46.9496 176
46.96972 188
46.98983 200
47.00995 199
47.03006 187
47.05017 190
47.07029 173
47.0904 208
47.11051 169
47.13063 179
47.15074 165
47.17086 171
47.19097 195
47.21108 201
47.2312 172
47.25131 181
47.27142 180
47.29154 175
47.31165 202
47.33176 203
47.35188 186
47.37199 163
47.39211 166
47.41222 198
47.43233 183
47.45245 188
47.47256 189
47.49267 172
47.51279 161
47.5329 189
47.55302 163
47.57313 197
47.59324 189
47.61336 211
47.63347 194
47.65358 204
47.6737 185
47.69381 175
47.71393 183
47.73404 189
47.75415 194
47.77427 188
47.79438 181
47.81449 196
47.83461 225
47.85472 169
47.87483 211
47.89495 191
47.91506 197
47.93518 208
47.95529 192
47.9754 186
47.99552 178
48.01563 201
48.03574 190
48.05586 181
48.07597 206
48.09609 189
48.1162 183
48.13631 186
48.15643 169
48.17654 175
48.19665 198
48.21677 178
48.23688 173
48.257 183
48.27711 185
48.29722 185
48.31734 160
48.33745 188
48.35756 153
48.37768 188
48.39779 178
48.4179 219
48.43802 165
48.45813 177
48.47825 175
48.49836 191
48.51847 181
48.53859 185
48.5587 185
48.57881 204
48.59893 193
48.61904 194
48.63916 188
48.65927 208
48.67938 175
48.6995 198
48.71961 202
48.73972 187
48.75984 204
48.77995 197
48.80006 208
48.82018 174
48.84029 196
48.86041 212
48.88052 186
48.90063 182
48.92075 206
48.94086 190
48.96097 217
48.98109 174
49.0012 200
49.02132 181
49.04143 185
49.06154 187
49.08166 187
49.10177 198
49.12188 215
49.142 211
49.16211 197
49.18223 237
49.20234 183
49.22245 238
49.24257 205
49.26268 208
49.28279 206
49.30291 207
49.32302 198
49.34313 195
49.36325 203
49.38336 201
49.40348 244
49.42359 230
49.4437 213
49.46382 233
49.48393 215
49.50404 228
49.52416 244
49.54427 253
49.56439 231
49.5845 258
49.60461 247
49.62473 273
49.64484 250
49.66495 272
49.68507 243
49.70518 323
49.7253 296
49.74541 271
49.76552 329
49.78564 354
49.80575 417
49.82586 434
49.84598 474
49.86609 519
49.8862 661
49.90632 735
49.92643 887
49.94655 1083
49.96666 1415
49.98677 1627
50.00689 2033
50.027 2382
50.04711 2796
50.06723 3102
50.08734 3339
50.10746 3130
50.12757 2803
50.14768 2368
50.1678 2117
50.18791 1939
50.20802 1728
50.22814 1564
50.24825 1392
50.26837 1140
50.28848 870
50.30859 620
50.32871 476
50.34882 404
50.36893 336
50.38905 347
50.40916 318
50.42927 302
50.44939 289
50.4695 282
50.48962 300
50.50973 292
50.52984 275
50.54996 274
50.57007 283
50.59018 278
50.6103 304
50.63041 258
50.65053 242
50.67064 230
50.69075 234
50.71087 224
50.73098 249
50.75109 243
50.77121 240
50.79132 207
50.81143 223
50.83155 191
50.85166 199
50.87178 203
50.89189 231
50.912 203
50.93212 209
50.95223 207
50.97234 196
50.99246 219
51.01257 188
51.03269 206
51.0528 196
51.07291 202
51.09303 199
51.11314 209
51.13325 202
51.15337 175
51.17348 169
51.1936 184
51.21371 194
51.23382 218
51.25394 191
51.27405 176
51.29416 178
51.31428 194
51.33439 176
51.3545 176
51.37462 165
51.39473 160
51.41485 163
51.43496 186
51.45507 165
51.47519 186
51.4953 159
51.51541 190
51.53553 182
51.55564 169
51.57576 175
51.59587 175
51.61598 174
51.6361 179
51.65621 177
51.67632 147
51.69644 193
51.71655 167
51.73667 210
51.75678 188
51.77689 160
51.79701 174
51.81712 180
51.83723 178
51.85735 171
51.87746 184
51.89757 171
51.91769 177
51.9378 190
51.95792 169
51.97803 180
51.99814 177
52.01826 153
52.03837 190
52.05848 176
52.0786 183
52.09871 140
52.11883 152
52.13894 153
52.15905 169
52.17917 158
52.19928 167
52.21939 161
52.23951 133
52.25962 164
52.27974 148
52.29985 179
52.31996 169
52.34008 186
52.36019 177
52.3803 162
52.40042 157
52.42053 160
52.44064 183
52.46076 173
52.48087 174
52.50099 177
52.5211 187
52.54121 159
52.56133 158
52.58144 158
52.60155 185
52.62167 176
52.64178 159
52.6619 175
52.68201 157
52.70212 180
52.72224 186
52.74235 197
52.76246 183
52.78258 193
52.80269 185
52.8228 174
52.84292 199
52.86303 173
52.88315 160
52.90326 155
52.92337 168
52.94349 196
52.9636 194
52.98371 178
53.00383 173
53.02394 201
53.04406 200
53.06417 176
53.08428 189
53.1044 182
53.12451 200
53.14462 189
53.16474 171
53.18485 226
53.20497 181
53.22508 188
53.24519 188
53.26531 214
53.28542 199
53.30553 200
53.32565 189
53.34576 213
53.36587 216
53.38599 200
53.4061 228
53.42622 197
53.44633 215
53.46644 232
53.48656 222
53.50667 200
53.52678 218
53.5469 206
53.56701 233
53.58713 224
53.60724 213
53.62735 204
53.64747 194
53.66758 197
53.68769 195
53.70781 222
53.72792 203
53.74804 210
53.76815 198
53.78826 226
53.80838 195
53.82849 213
53.8486 221
53.86872 223
53.88883 210
53.90894 214
53.92906 236
53.94917 231
53.96929 216
53.9894 224
54.00951 230
54.02963 198
54.04974 227
54.06985 220
54.08997 245
54.11008 252
54.1302 255
54.15031 238
54.17042 210
54.19054 249
54.21065 248
54.23076 247
54.25088 235
54.27099 230
54.29111 245
54.31122 261
54.33133 248
54.35145 229
54.37156 235
54.39167 249
54.41179 219
54.4319 254
54.45201 230
54.47213 262
54.49224 266
54.51236 283
54.53247 271
54.55258 318
54.5727 323
54.59281 303
54.61292 368
54.63304 380
54.65315 451
54.67327 476
54.69338 543
54.71349 598
54.73361 745
54.75372 915
54.77383 918
54.79395 1014
54.81406 1021
54.83417 1081
54.85429 1019
54.8744 844
54.89452 766
54.91463 716
54.93474 677
54.95486 662
54.97497 680
54.99508 654
55.0152 516
55.03531 457
55.05543 418
55.07554 356
55.09565 352
55.11577 387
55.13588 377
55.15599 376
55.17611 422
55.19622 512
55.21634 531
55.23645 545
55.25656 577
55.27668 602
55.29679 606
55.3169 559
55.33702 490
55.35713 429
55.37724 436
55.39736 389
55.41747 403
55.43759 409
55.4577 368
55.47781 299
55.49793 297
55.51804 283
55.53815 224
55.55827 223
55.57838 250
55.5985 231
55.61861 217
55.63872 232
55.65884 232
55.67895 222
55.69906 194
55.71918 187
55.73929 229
55.75941 191
55.77952 206
55.79963 204
55.81975 214
55.83986 225
55.85997 188
55.88009 210
55.9002 195
55.92031 216
55.94043 211
55.96054 211
55.98066 208
56.00077 197
56.02088 190
56.041 202
56.06111 213
56.08122 216
56.10134 204
56.12145 207
56.14157 183
56.16168 204
56.18179 170
56.20191 204
56.22202 208
56.24213 219
56.26225 186
56.28236 173
56.30248 185
56.32259 202
56.3427 190
56.36282 219
56.38293 194
56.40304 203
56.42316 181
56.44327 189
56.46338 209
56.4835 168
56.50361 193
56.52373 190
56.54384 201
56.56395 168
56.58407 213
56.60418 173
56.62429 203
56.64441 225
56.66452 202
56.68464 198
56.70475 210
56.72486 198
56.74498 187
56.76509 193
56.7852 196
56.80532 178
56.82543 204
56.84554 188
56.86566 196
56.88577 196
56.90589 197
56.926 184
56.94611 198
56.96623 194
56.98634 192
57.00645 191
57.02657 175
57.04668 224
57.0668 196
57.08691 223
57.10702 257
57.12714 233
57.14725 223
57.16736 222
57.18748 220
57.20759 226
57.22771 253
57.24782 212
57.26793 219
57.28805 206
57.30816 225
57.32827 181
57.34839 173
57.3685 195
57.38861 217
57.40873 216
57.42884 176
57.44896 185
57.46907 191
57.48918 178
57.5093 156
57.52941 174
57.54952 167
57.56964 155
57.58975 181
57.60987 189
57.62998 151
57.65009 184
57.67021 202
57.69032 163
57.71043 194
57.73055 168
57.75066 193
57.77078 192
57.79089 187
57.811 176
57.83112 196
57.85123 190
57.87134 174
57.89146 176
57.91157 198
57.93168 187
57.9518 187
57.97191 177
57.99203 183
58.01214 183
58.03225 180
58.05237 161
58.07248 181
58.09259 206
58.11271 178
58.13282 207
58.15294 207
58.17305 189
58.19316 180
58.21328 178
58.23339 197
58.2535 175
58.27362 210
58.29373 185
58.31385 172
58.33396 166
58.35407 195
58.37419 188
58.3943 174
58.41441 190
58.43453 166
58.45464 185
58.47475 178
58.49487 174
58.51498 193
58.5351 187
58.55521 182
58.57532 172
58.59544 185
58.61555 188
58.63566 197
58.65578 165
58.67589 151
58.69601 173
58.71612 185
58.73623 164
58.75635 204
58.77646 178
58.79657 175
58.81669 187
58.8368 187
58.85691 202
58.87703 164
58.89714 220
58.91726 191
58.93737 182
58.95748 204
58.9776 210
58.99771 203
59.01782 215
59.03794 189
59.05805 203
59.07817 159
59.09828 198
59.11839 187
59.13851 209
59.15862 206
59.17873 196
59.19885 193
59.21896 213
59.23908 199
59.25919 193
59.2793 208
59.29942 203
59.31953 212
59.33964 205
59.35976 195
59.37987 223
59.39998 185
59.4201 225
59.44021 226
59.46033 241
59.48044 232
59.50055 269
59.52067 261
59.54078 271
59.56089 293
59.58101 328
59.60112 312
59.62124 391
59.64135 405
59.66146 418
59.68158 490
59.70169 526
59.7218 632
59.74192 763
59.76203 864
59.78215 1020
59.80226 1256
59.82237 1464
59.84249 1700
59.8626 1914
59.88271 2099
59.90283 2155
59.92294 2069
59.94305 1806
59.96317 1624
59.98328 1344
60.0034 1218
60.02351 1189
60.04362 1163
60.06374 1204
60.08385 1087
60.10396 1007
60.12408 732
60.14419 569
60.16431 438
60.18442 379
60.20453 308
60.22465 292
60.24476 270
60.26487 256
60.28499 252
60.3051 228
60.32522 247
60.34533 214
60.36544 225
60.38556 202
60.40567 195
60.42578 199
60.4459 201
60.46601 200
60.48612 201
60.50624 211
60.52635 186
60.54647 195
60.56658 194
60.58669 199
60.60681 216
60.62692 220
60.64703 186
60.66715 205
60.68726 175
60.70738 198
60.72749 189
60.7476 171
60.76772 163
60.78783 171
60.80794 186
60.82806 184
60.84817 188
60.86828 161
60.8884 181
60.90851 178
60.92863 178
60.94874 199
60.96885 177
60.98897 178
61.00908 158
61.02919 188
61.04931 152
61.06942 190
61.08954 179
61.10965 177
61.12976 178
61.14988 156
61.16999 184
61.1901 165
61.21022 169
61.23033 192
61.25045 193
61.27056 185
61.29067 182
61.31079 190
61.3309 180
61.35101 168
61.37113 177
61.39124 200
61.41135 204
61.43147 181
61.45158 188
61.4717 198
61.49181 190
61.51192 197
61.53204 190
61.55215 196
61.57226 198
61.59238 188
61.61249 186
61.63261 202
61.65272 198
61.67283 169
61.69295 200
61.71306 191
61.73317 188
61.75329 198
61.7734 195
61.79352 206
61.81363 220
61.83374 214
61.85386 196
61.87397 183
61.89408 217
61.9142 213
61.93431 215
61.95442 220
61.97454 218
61.99465 207
62.01477 224
62.03488 236
62.05499 215
62.07511 258
62.09522 238
62.11533 264
62.13545 270
62.15556 268
62.17568 276
62.19579 259
62.2159 281
62.23602 266
62.25613 269
62.27624 295
62.29636 271
62.31647 277
62.33659 266
62.3567 234
62.37681 236
62.39693 246
62.41704 239
62.43715 237
62.45727 233
62.47738 221
62.49749 203
62.51761 246
62.53772 223
62.55784 207
62.57795 204
62.59806 170
62.61818 205
62.63829 207
62.6584 191
62.67852 214
62.69863 184
62.71875 194
62.73886 198
62.75897 202
62.77909 215
62.7992 196
62.81931 187
62.83943 191
62.85954 203
62.87965 183
62.89977 198
62.91988 177
62.94 191
62.96011 191
62.98022 187
63.00034 199
63.02045 190
63.04056 187
63.06068 178
63.08079 177
63.10091 199
63.12102 178
63.14113 164
63.16125 174
63.18136 200
63.20147 205
63.22159 174
63.2417 177
63.26182 194
63.28193 180
63.30204 185
63.32216 180
63.34227 197
63.36238 193
63.3825 205
63.40261 199
63.42272 209
63.44284 191
63.46295 171
63.48307 187
63.50318 175
63.52329 196
63.54341 203
63.56352 186
63.58363 202
63.60375 220
63.62386 212
63.64398 185
63.66409 226
63.6842 233
63.70432 230
63.72443 207
63.74454 236
63.76466 226
63.78477 227
63.80489 272
63.825 285
63.84511 296
63.86523 331
63.88534 394
63.90545 430
63.92557 475
63.94568 505
63.96579 554
63.98591 551
64.00602 492
64.02614 449
64.04625 407
64.06636 405
64.08648 378
64.10659 369
64.1267 351
64.14682 363
64.16693 377
64.18705 355
64.20716 276
64.22727 267
64.24739 234
64.2675 234
64.28761 193
64.30773 211
64.32784 195
64.34796 211
64.36807 200
64.38818 192
64.4083 186
64.42841 184
64.44852 172
64.46864 199
64.48875 186
64.50886 173
64.52898 161
64.54909 178
64.56921 158
64.58932 178
64.60943 195
64.62955 174
64.64966 191
64.66977 166
64.68989 204
64.71 169
64.73012 167
64.75023 154
64.77034 171
64.79046 172
64.81057 178
64.83068 163
64.8508 164
64.87091 171
64.89102 148
64.91114 154
64.93125 197
64.95137 171
64.97148 159
64.99159 163
65.01171 196
65.03182 188
65.05193 155
65.07205 197
65.09216 170
65.11228 192
65.13239 171
65.1525 193
65.17262 147
65.19273 166
65.21284 186
65.23296 199
65.25307 165
65.27319 178
65.2933 180
65.31341 171
65.33353 166
65.35364 155
65.37375 152
65.39387 178
65.41398 192
65.43409 168
65.45421 179
65.47432 196
65.49444 163
65.51455 183
65.53466 208
65.55478 192
65.57489 195
65.595 214
65.61512 217
65.63523 233
65.65535 231
65.67546 246
65.69557 235
65.71569 260
65.7358 252
65.75591 267
65.77603 226
65.79614 246
65.81626 195
65.83637 221
65.85648 221
65.8766 204
65.89671 232
65.91682 218
65.93694 222
65.95705 207
65.97716 187
65.99728 195
66.01739 184
66.03751 190
66.05762 160
66.07773 179
66.09785 181
66.11796 197
66.13807 199
66.15819 177
66.1783 169
66.19842 175
66.21853 216
66.23864 198
66.25876 185
66.27887 187
66.29898 167
66.3191 179
66.33921 171
66.35933 180
66.37944 180
66.39955 170
66.41967 192
66.43978 173
66.45989 180
66.48001 186
66.50012 189
66.52023 182
66.54035 183
66.56046 160
66.58058 205
66.60069 190
66.6208 167
66.64092 193
66.66103 183
66.68114 178
66.70126 203
66.72137 171
66.74149 178
66.7616 193
66.78171 183
66.80183 175
66.82194 179
66.84205 172
66.86217 186
66.88228 188
66.90239 205
66.92251 196
66.94262 189
66.96274 206
66.98285 201
67.00296 198
67.02308 201
67.04319 201
67.0633 223
67.08342 204
67.10353 213
67.12365 186
67.14376 204
67.16387 204
67.18399 213
67.2041 212
67.22421 214
67.24433 239
67.26444 226
67.28456 254
67.30467 251
67.32478 255
67.3449 245
67.36501 280
67.38512 295
67.40524 273
67.42535 348
67.44546 355
67.46558 340
67.48569 443
67.50581 461
67.52592 518
67.54603 592
67.56615 761
67.58626 874
67.60637 1032
67.62649 1111
67.6466 1248
67.66672 1364
67.68683 1333
67.70694 1325
67.72706 1171
67.74717 1037
67.76728 887
67.7874 849
67.80751 907
67.82763 906
67.84774 939
67.86785 1003
67.88797 1011
67.90808 986
67.92819 1015
67.94831 1014
67.96842 1064
67.98853 1153
68.00865 1253
68.02876 1488
68.04888 1544
68.06899 1710
68.0891 1829
68.10922 1844
68.12933 1772
68.14944 1560
68.16956 1528
68.18967 1543
68.20979 1542
68.2299 1650
68.25001 1605
68.27013 1661
68.29024 1504
68.31035 1397
68.33047 1162
68.35058 920
68.3707 768
68.39081 744
68.41092 653
68.43104 666
68.45115 675
68.47126 592
68.49138 557
68.51149 420
68.5316 379
68.55172 321
68.57183 296
68.59195 256
68.61206 266
68.63217 233
68.65229 237
68.6724 217
68.69251 228
68.71263 246
68.73274 204
68.75286 235
68.77297 208
68.79308 193
68.8132 192
68.83331 191
68.85342 223
68.87354 198
68.89365 187
68.91376 196
68.93388 189
68.95399 190
68.97411 153
68.99422 188
69.01433 183
69.03445 184
69.05456 181
69.07467 197
69.09479 196
69.1149 164
69.13502 175
69.15513 192
69.17524 184
69.19536 192
69.21547 180
69.23558 179
69.2557 160
69.27581 184
69.29593 170
69.31604 205
69.33615 196
69.35627 175
69.37638 179
69.39649 161
69.41661 189
69.43672 180
69.45683 195
69.47695 183
69.49706 150
69.51718 169
69.53729 169
69.5574 166
69.57752 184
69.59763 169
69.61774 162
69.63786 191
69.65797 156
69.67809 152
69.6982 178
69.71831 181
69.73843 176
69.75854 157
69.77865 166
69.79877 177
69.81888 179
69.839 181
69.85911 188
69.87922 165
69.89934 181
69.91945 169
69.93956 176
69.95968 181
69.97979 162
69.9999 174
70.02002 156
70.04013 161
70.06025 150
70.08036 195
70.10047 160
70.12059 176
70.1407 178
70.16081 186
70.18093 168
70.20104 175
70.22116 175
70.24127 173
70.26138 199
70.2815 174
70.30161 148
70.32172 173
70.34184 185
70.36195 149
70.38207 189
70.40218 188
70.42229 163
70.44241 161
70.46252 173
70.48263 180
70.50275 175
70.52286 170
70.54297 161
70.56309 184
70.5832 153
70.60332 185
70.62343 169
70.64354 165
70.66366 168
70.68377 182
70.70388 163
70.724 172
70.74411 156
70.76423 154
70.78434 162
70.80445 158
70.82457 166
70.84468 161
70.86479 197
70.88491 163
70.90502 165
70.92513 171
70.94525 181
70.96536 159
70.98548 183
71.00559 150
71.0257 170
71.04582 149
71.06593 180
71.08604 153
71.10616 155
71.12627 166
71.14639 156
71.1665 172
71.18661 153
71.20673 154
71.22684 177
71.24695 159
71.26707 166
71.28718 168
71.3073 150
71.32741 169
71.34752 181
71.36764 151
71.38775 168
71.40786 160
71.42798 162
71.44809 174
71.4682 184
71.48832 166
71.50843 179
71.52855 178
71.54866 181
71.56877 154
71.58889 175
71.609 170
71.62911 176
71.64923 176
71.66934 167
71.68946 167
71.70957 159
71.72968 143
71.7498 163
71.76991 156
71.79002 173
71.81014 174
71.83025 152
71.85037 162
71.87048 160
71.89059 158
71.91071 159
71.93082 162
71.95093 152
71.97105 167
71.99116 166
72.01127 186
72.03139 163
72.0515 176
72.07162 163
72.09173 179
72.11184 168
72.13196 191
72.15207 146
72.17218 152
72.1923 193
72.21241 182
72.23253 188
72.25264 193
72.27275 172
72.29287 180
72.31298 182
72.33309 188
72.35321 174
72.37332 169
72.39344 161
72.41355 173
72.43366 178
72.45378 194
72.47389 165
72.494 159
72.51412 166
72.53423 147
72.55434 161
72.57446 176
72.59457 187
72.61469 159
72.6348 180
72.65491 170
72.67503 164
72.69514 196
72.71525 165
72.73537 167
72.75548 179
72.7756 149
72.79571 178
72.81582 196
72.83594 193
72.85605 196
72.87616 177
72.89628 173
72.91639 186
72.9365 174
72.95662 172
72.97673 165
72.99685 185
73.01696 197
73.03707 194
73.05719 191
73.0773 190
73.09741 198
73.11753 231
73.13764 189
73.15776 212
73.17787 216
73.19798 274
73.2181 244
73.23821 260
73.25832 314
73.27844 317
73.29855 382
73.31867 415
73.33878 436
73.35889 508
73.37901 564
73.39912 603
73.41923 591
73.43935 548
73.45946 511
73.47957 477
73.49969 362
73.5198 372
73.53992 329
73.56003 359
73.58014 340
73.60026 368
73.62037 355
73.64048 376
73.6606 362
73.68071 308
73.70083 276
73.72094 236
73.74105 203
73.76117 233
73.78128 188
73.80139 199
73.82151 200
73.84162 194
73.86174 165
73.88185 202
73.90196 184
73.92208 197
73.94219 199
73.9623 168
73.98242 169
74.00253 160
74.02264 187
74.04276 177
74.06287 194
74.08299 165
74.1031 165
74.12321 183
74.14333 191
74.16344 148
74.18355 189
74.20367 179
74.22378 157
74.2439 175
74.26401 161
74.28412 152
74.30424 152
74.32435 170
74.34446 179
74.36458 167
74.38469 158
74.40481 153
74.42492 175
74.44503 157
74.46515 167
74.48526 173
74.50537 174
74.52549 155
74.5456 162
74.56571 174
74.58583 185
74.60594 171
74.62606 165
74.64617 185
74.66628 167
74.6864 168
74.70651 160
74.72662 182
74.74674 180
74.76685 158
74.78697 165
74.80708 193
74.82719 144
74.84731 155
74.86742 174
74.88753 178
74.90765 194
74.92776 189
74.94787 173
74.96799 157
74.9881 189
75.00822 191
