3.00117 20162
3.02128 19630
3.0414 19065
3.06151 19200
3.08162 18025
3.10174 17775
3.12185 17337
3.14197 16804
3.16208 16520
3.18219 15588
3.20231 15831
3.22242 14866
3.24253 14425
3.26265 14112
3.28276 13633
3.30288 13422
3.32299 12772
3.3431 12442
3.36322 12115
3.38333 11370
3.40344 11333
3.42356 10742
3.44367 10596
3.46379 10312
3.4839 9631
3.50401 9515
3.52413 9082
3.54424 8771
3.56435 8683
3.58447 8014
3.60458 7876
3.62469 7506
3.64481 7440
3.66492 7078
3.68504 6585
3.70515 6514
3.72526 6040
3.74538 5827
3.76549 5853
3.7856 5304
3.80572 5340
3.82583 4934
3.84595 4747
3.86606 4718
3.88617 4315
3.90629 4190
3.9264 3903
3.94651 3820
3.96663 3713
3.98674 3411
4.00686 3432
4.02697 3200
4.04708 3066
4.0672 3030
4.08731 2677
4.10742 2628
4.12754 2522
4.14765 2266
4.16776 2320
4.18788 2109
4.20799 2090
4.22811 1951
4.24822 1985
4.26833 1964
4.28845 1665
4.30856 1683
4.32867 1678
4.34879 1602
4.3689 1571
4.38902 1365
4.40913 1389
4.42924 1375
4.44936 1381
4.46947 1368
4.48958 1208
4.5097 1251
4.52981 1215
4.54992 1227
4.57004 1290
4.59015 1060
4.61027 1131
4.63038 1088
4.65049 999
4.67061 1099
4.69072 965
4.71083 1005
4.73095 976
4.75106 928
4.77118 947
4.79129 799
4.8114 812
4.83152 827
4.85163 807
4.87174 801
4.89186 743
4.91197 720
4.93209 762
4.9522 695
4.97231 692
4.99243 620
5.01254 650
5.03265 636
5.05277 592
5.07288 652
5.09299 577
5.11311 596
5.13322 558
5.15334 548
5.17345 534
5.19356 524
5.21368 542
5.23379 507
5.2539 473
5.27402 520
5.29413 448
5.31425 411
5.33436 421
5.35447 434
5.37459 420
5.3947 396
5.41481 399
5.43493 442
5.45504 412
5.47516 356
5.49527 384
5.51538 350
5.5355 367
5.55561 351
5.57572 311
5.59584 326
5.61595 320
5.63606 271
5.65618 336
5.67629 255
5.69641 280
5.71652 293
5.73663 260
5.75675 256
5.77686 248
5.79697 266
5.81709 228
5.8372 237
5.85732 244
5.87743 258
5.89754 220
5.91766 214
5.93777 203
5.95788 209
5.978 206
5.99811 198
6.01823 221
6.03834 198
6.05845 200
6.07857 202
6.09868 245
6.11879 217
6.13891 219
6.15902 214
6.17913 198
6.19925 179
6.21936 193
6.23948 182
6.25959 202
6.2797 181
6.29982 197
6.31993 202
6.34004 183
6.36016 154
6.38027 169
6.40039 173
6.4205 160
6.44061 170
6.46073 163
6.48084 176
6.50095 174
6.52107 164
6.54118 197
6.56129 179
6.58141 184
6.60152 184
6.62164 188
6.64175 151
6.66186 156
6.68198 188
6.70209 196
6.7222 182
6.74232 209
6.76243 176
6.78255 200
6.80266 174
6.82277 184
6.84289 162
6.863 158
6.88311 173
6.90323 177
6.92334 165
6.94346 158
6.96357 154
6.98368 206
7.0038 183
7.02391 182
7.04402 156
7.06414 176
7.08425 159
7.10436 187
7.12448 161
7.14459 160
7.16471 169
7.18482 170
7.20493 158
7.22505 180
7.24516 205
7.26527 166
7.28539 181
7.3055 197
7.32562 175
7.34573 177
7.36584 166
7.38596 174
7.40607 187
7.42618 167
7.4463 167
7.46641 212
7.48653 187
7.50664 197
7.52675 206
7.54687 210
7.56698 198
7.58709 182
7.60721 185
7.62732 188
7.64743 184
7.66755 200
7.68766 184
7.70778 185
7.72789 188
7.748 199
7.76812 189
7.78823 195
7.80834 181
7.82846 192
7.84857 181
7.86869 202
7.8888 192
7.90891 183
7.92903 175
7.94914 211
7.96925 177
7.98937 207
8.00948 183
8.0296 205
8.04971 193
8.06982 201
8.08994 164
8.11005 219
8.13016 205
8.15028 199
8.17039 190
8.1905 207
8.21062 205
8.23073 204
8.25085 198
8.27096 235
8.29107 185
8.31119 192
8.3313 209
8.35141 222
8.37153 196
8.39164 214
8.41176 192
8.43187 219
8.45198 208
8.4721 190
8.49221 195
8.51232 215
8.53244 232
8.55255 204
8.57266 200
8.59278 221
8.61289 209
8.63301 201
8.65312 195
8.67323 207
8.69335 191
8.71346 217
8.73357 198
8.75369 237
8.7738 215
8.79392 181
8.81403 218
8.83414 211
8.85426 203
8.87437 253
8.89448 190
8.9146 200
8.93471 205
8.95483 221
8.97494 214
8.99505 216
9.01517 214
9.03528 211
9.05539 216
9.07551 207
9.09562 202
9.11573 209
9.13585 206
9.15596 216
9.17608 241
9.19619 235
9.2163 233
9.23642 208
9.25653 221
9.27664 227
9.29676 222
9.31687 227
9.33699 228
9.3571 216
9.37721 225
9.39733 191
9.41744 206
9.43755 226
9.45767 200
9.47778 200
9.4979 209
9.51801 209
9.53812 200
9.55824 191
9.57835 225
9.59846 215
9.61858 217
9.63869 203
9.6588 231
9.67892 198
9.69903 223
9.71915 206
9.73926 228
9.75937 237
9.77949 206
9.7996 209
9.81971 201
9.83983 231
9.85994 251
9.88006 212
9.90017 222
9.92028 228
9.9404 203
9.96051 213
9.98062 177
10.00074 221
10.02085 233
10.04097 238
10.06108 211
10.08119 219
10.10131 236
10.12142 203
10.14153 233
10.16165 177
10.18176 204
10.20187 221
10.22199 215
10.2421 187
10.26222 238
10.28233 206
10.30244 219
10.32256 214
10.34267 196
10.36278 214
10.3829 219
10.40301 219
10.42313 216
10.44324 215
10.46335 207
10.48347 196
10.50358 232
10.52369 215
10.54381 190
10.56392 226
10.58403 218
10.60415 203
10.62426 223
10.64438 217
10.66449 232
10.6846 225
10.70472 213
10.72483 204
10.74494 200
10.76506 229
10.78517 198
10.80529 238
10.8254 208
10.84551 214
10.86563 218
10.88574 209
10.90585 219
10.92597 203
10.94608 199
10.9662 205
10.98631 223
11.00642 208
11.02654 215
11.04665 207
11.06676 186
11.08688 174
11.10699 202
11.1271 214
11.14722 192
11.16733 220
11.18745 219
11.20756 232
11.22767 226
11.24779 228
11.2679 196
11.28801 227
11.30813 200
11.32824 174
11.34836 194
11.36847 222
11.38858 240
11.4087 221
11.42881 229
11.44892 193
11.46904 200
11.48915 199
11.50927 236
11.52938 235
11.54949 202
11.56961 235
11.58972 198
11.60983 228
11.62995 199
11.65006 235
11.67017 240
11.69029 189
11.7104 230
11.73052 198
11.75063 227
11.77074 225
11.79086 248
11.81097 192
11.83108 224
11.8512 237
11.87131 202
11.89143 238
11.91154 227
11.93165 223
11.95177 216
11.97188 209
11.99199 199
12.01211 228
12.03222 216
12.05234 198
12.07245 216
12.09256 211
12.11268 223
12.13279 208
12.1529 228
12.17302 230
12.19313 251
12.21324 228
12.23336 229
12.25347 258
12.27359 245
12.2937 254
12.31381 252
12.33393 280
12.35404 253
12.37415 257
12.39427 236
12.41438 255
12.4345 227
12.45461 228
12.47472 234
12.49484 205
12.51495 215
12.53506 216
12.55518 229
12.57529 208
12.5954 206
12.61552 201
12.63563 196
12.65575 208
12.67586 222
12.69597 213
12.71609 224
12.7362 197
12.75631 214
12.77643 169
12.79654 225
12.81666 199
12.83677 218
12.85688 180
12.877 209
12.89711 206
12.91722 239
12.93734 191
12.95745 188
12.97757 184
12.99768 207
13.01779 231
13.03791 194
13.05802 194
13.07813 216
13.09825 229
13.11836 212
13.13847 259
13.15859 243
13.1787 219
13.19882 254
13.21893 230
13.23904 207
13.25916 183
13.27927 210
13.29938 210
13.3195 183
13.33961 208
13.35973 228
13.37984 248
13.39995 200
13.42007 207
13.44018 209
13.46029 202
13.48041 190
13.50052 205
13.52064 216
13.54075 170
13.56086 201
13.58098 244
13.60109 265
13.6212 271
13.64132 251
13.66143 283
13.68154 274
13.70166 243
13.72177 264
13.74189 210
13.762 224
13.78211 206
13.80223 194
13.82234 190
13.84245 213
13.86257 175
13.88268 172
13.9028 188
13.92291 195
13.94302 200
13.96314 205
13.98325 191
14.00336 197
14.02348 202
14.04359 182
14.06371 195
14.08382 154
14.10393 170
14.12405 170
14.14416 205
14.16427 196
14.18439 171
14.2045 174
14.22461 176
14.24473 163
14.26484 179
14.28496 197
14.30507 180
14.32518 181
14.3453 168
14.36541 182
14.38552 196
14.40564 173
14.42575 168
14.44587 202
14.46598 160
14.48609 172
14.50621 164
14.52632 187
14.54643 191
14.56655 189
14.58666 178
14.60677 181
14.62689 188
14.647 182
14.66712 177
14.68723 180
14.70734 176
14.72746 211
14.74757 190
14.76768 159
14.7878 200
14.80791 189
14.82803 221
14.84814 163
14.86825 192
14.88837 190
14.90848 226
14.92859 193
14.94871 215
14.96882 220
14.98894 210
15.00905 163
15.02916 190
15.04928 186
15.06939 205
15.0895 172
15.10962 181
15.12973 188
15.14984 167
15.16996 173
15.19007 219
15.21019 206
15.2303 194
15.25041 178
15.27053 202
15.29064 192
15.31075 192
15.33087 159
15.35098 172
15.3711 188
15.39121 172
15.41132 185
15.43144 158
15.45155 187
15.47166 158
15.49178 150
15.51189 201
15.53201 172
15.55212 165
15.57223 193
15.59235 187
15.61246 161
15.63257 159
15.65269 153
15.6728 178
15.69291 164
15.71303 178
15.73314 180
15.75326 183
15.77337 156
15.79348 178
15.8136 170
15.83371 170
15.85382 167
15.87394 167
15.89405 153
15.91417 143
15.93428 164
15.95439 175
15.97451 153
15.99462 176
16.01473 193
16.03485 166
16.05496 183
16.07508 165
16.09519 151
16.1153 150
16.13542 166
16.15553 167
16.17564 164
16.19576 164
16.21587 148
16.23598 161
16.2561 143
16.27621 149
16.29633 155
16.31644 147
16.33655 153
16.35667 188
16.37678 159
16.39689 156
16.41701 161
16.43712 150
16.45724 144
16.47735 167
16.49746 148
16.51758 186
16.53769 139
16.5578 170
16.57792 173
16.59803 129
16.61814 181
16.63826 178
16.65837 157
16.67849 159
16.6986 167
16.71871 164
16.73883 166
16.75894 182
16.77905 152
16.79917 177
16.81928 154
16.8394 164
16.85951 163
16.87962 160
16.89974 159
16.91985 151
16.93996 169
16.96008 154
16.98019 166
17.00031 164
17.02042 175
17.04053 144
17.06065 137
17.08076 161
17.10087 137
17.12099 169
17.1411 137
17.16121 155
17.18133 159
17.20144 148
17.22156 164
17.24167 151
17.26178 148
17.2819 156
17.30201 160
17.32212 171
17.34224 151
17.36235 157
17.38247 153
17.40258 173
17.42269 165
17.44281 165
17.46292 162
17.48303 184
17.50315 153
17.52326 160
17.54338 156
17.56349 142
17.5836 162
17.60372 151
17.62383 153
17.64394 150
17.66406 159
17.68417 169
17.70428 152
17.7244 164
17.74451 149
17.76463 161
17.78474 155
17.80485 169
17.82497 157
17.84508 185
17.86519 162
17.88531 156
17.90542 163
17.92554 171
17.94565 179
17.96576 147
17.98588 147
18.00599 179
18.0261 150
18.04622 171
18.06633 164
18.08645 143
18.10656 148
18.12667 155
18.14679 158
18.1669 161
18.18701 153
18.20713 148
18.22724 158
18.24735 152
18.26747 151
18.28758 162
18.3077 177
18.32781 176
18.34792 182
18.36804 170
18.38815 161
18.40826 157
18.42838 176
18.44849 168
18.46861 156
18.48872 181
18.50883 140
18.52895 147
18.54906 142
18.56917 145
18.58929 146
18.6094 158
18.62951 137
18.64963 168
18.66974 168
18.68986 183
18.70997 150
18.73008 158
18.7502 179
18.77031 181
18.79042 171
18.81054 184
18.83065 173
18.85077 154
18.87088 153
18.89099 158
18.91111 154
18.93122 149
18.95133 167
18.97145 171
18.99156 157
19.01168 171
19.03179 149
19.0519 179
19.07202 160
19.09213 148
19.11224 165
19.13236 163
19.15247 169
19.17258 177
19.1927 159
19.21281 161
19.23293 175
19.25304 184
19.27315 194
19.29327 195
19.31338 178
19.33349 173
19.35361 192
19.37372 188
19.39384 181
19.41395 189
19.43406 164
19.45418 168
19.47429 175
19.4944 168
19.51452 150
19.53463 164
19.55475 180
19.57486 172
19.59497 185
19.61509 191
19.6352 173
19.65531 204
19.67543 184
19.69554 183
19.71565 197
19.73577 177
19.75588 189
19.776 185
19.79611 237
19.81622 253
19.83634 230
19.85645 226
19.87656 271
19.89668 237
19.91679 209
19.93691 209
19.95702 226
19.97713 238
19.99725 243
20.01736 221
20.03747 223
20.05759 212
20.0777 204
20.09782 226
20.11793 212
20.13804 217
20.15816 270
20.17827 247
20.19838 263
20.2185 281
20.23861 257
20.25872 276
20.27884 275
20.29895 241
20.31907 270
20.33918 307
20.35929 294
20.37941 303
20.39952 317
20.41963 300
20.43975 294
20.45986 306
20.47998 327
20.50009 329
20.5202 318
20.54032 328
20.56043 362
20.58054 368
20.60066 386
20.62077 421
20.64088 454
20.661 539
20.68111 573
20.70123 700
20.72134 1003
20.74145 1342
20.76157 2067
20.78168 2848
20.80179 4342
20.82191 6415
20.84202 8109
20.86214 9159
20.88225 8284
20.90236 6685
20.92248 4697
20.94259 3207
20.9627 1939
20.98282 1271
21.00293 1005
21.02305 943
21.04316 899
21.06327 856
21.08339 731
21.1035 630
21.12361 496
21.14373 450
21.16384 403
21.18395 386
21.20407 349
21.22418 313
21.2443 321
21.26441 304
21.28452 299
21.30464 281
21.32475 275
21.34486 290
21.36498 244
21.38509 263
21.40521 273
21.42532 240
21.44543 253
21.46555 237
21.48566 246
21.50577 248
21.52589 256
21.546 262
21.56612 231
21.58623 251
21.60634 234
21.62646 233
21.64657 240
21.66668 205
21.6868 202
21.70691 213
21.72702 203
21.74714 211
21.76725 230
21.78737 198
21.80748 209
21.82759 191
21.84771 238
21.86782 217
21.88793 182
21.90805 226
21.92816 199
21.94828 216
21.96839 232
21.9885 222
22.00862 254
22.02873 229
22.04884 235
22.06896 250
22.08907 210
22.10919 220
22.1293 225
22.14941 222
22.16953 239
22.18964 239
22.20975 232
22.22987 247
22.24998 244
22.27009 273
22.29021 316
22.31032 312
22.33044 296
22.35055 339
22.37066 291
22.39078 260
22.41089 292
22.431 263
22.45112 258
22.47123 266
22.49135 285
22.51146 277
22.53157 282
22.55169 258
22.5718 293
22.59191 246
22.61203 256
22.63214 263
22.65225 252
22.67237 231
22.69248 210
22.7126 224
22.73271 225
22.75282 240
22.77294 219
22.79305 203
22.81316 240
22.83328 202
22.85339 187
22.87351 245
22.89362 217
22.91373 204
22.93385 205
22.95396 245
22.97407 210
22.99419 205
23.0143 252
23.03442 267
23.05453 246
23.07464 293
23.09476 284
23.11487 309
23.13498 309
23.1551 368
23.17521 361
23.19532 377
23.21544 339
23.23555 365
23.25567 312
23.27578 313
23.29589 298
23.31601 272
23.33612 285
23.35623 263
23.37635 273
23.39646 262
23.41658 286
23.43669 290
23.4568 289
23.47692 305
23.49703 303
23.51714 335
23.53726 306
23.55737 340
23.57749 335
23.5976 320
23.61771 273
23.63783 289
23.65794 287
23.67805 286
23.69817 243
23.71828 305
23.73839 302
23.75851 275
23.77862 295
23.79874 268
23.81885 285
23.83896 303
23.85908 289
23.87919 298
23.8993 314
23.91942 289
23.93953 371
23.95965 336
23.97976 416
23.99987 432
24.01999 435
24.0401 370
24.06021 334
24.08033 291
24.10044 274
24.12056 254
24.14067 225
24.16078 237
24.1809 234
24.20101 233
24.22112 227
24.24124 237
24.26135 248
24.28146 242
24.30158 291
24.32169 245
24.34181 273
24.36192 285
24.38203 244
24.40215 259
24.42226 231
24.44237 254
24.46249 234
24.4826 225
24.50272 247
24.52283 230
24.54294 239
24.56306 251
24.58317 259
24.60328 236
24.6234 232
24.64351 266
24.66362 239
24.68374 273
24.70385 246
24.72397 241
24.74408 313
24.76419 278
24.78431 248
24.80442 284
24.82453 258
24.84465 260
24.86476 295
24.88488 276
24.90499 271
24.9251 284
24.94522 265
24.96533 254
24.98544 282
25.00556 267
25.02567 202
25.04579 180
25.0659 213
25.08601 199
25.10613 227
25.12624 191
25.14635 239
25.16647 250
25.18658 237
25.20669 230
25.22681 248
25.24692 284
25.26704 258
25.28715 312
25.30726 283
25.32738 272
25.34749 262
25.3676 271
25.38772 298
25.40783 264
25.42795 300
25.44806 338
25.46817 369
25.48829 419
25.5084 437
25.52851 506
25.54863 505
25.56874 554
25.58886 547
25.60897 602
25.62908 602
25.6492 619
25.66931 579
25.68942 618
25.70954 556
25.72965 505
25.74976 499
25.76988 473
25.78999 479
25.81011 449
25.83022 416
25.85033 402
25.87045 467
25.89056 436
25.91067 407
25.93079 438
25.9509 447
25.97102 429
25.99113 445
26.01124 457
26.03136 467
26.05147 487
26.07158 535
26.0917 494
26.11181 512
26.13193 552
26.15204 596
26.17215 582
26.19227 708
26.21238 709
26.23249 749
26.25261 831
26.27272 872
26.29283 961
26.31295 1026
26.33306 1072
26.35318 1190
26.37329 1374
26.3934 1540
26.41352 1810
26.43363 2124
26.45374 2729
26.47386 3388
26.49397 4612
26.51409 6471
26.5342 9106
26.55431 13652
26.57443 20168
26.59454 27933
26.61465 34999
26.63477 38823
26.65488 36633
26.67499 29369
26.69511 22971
26.71522 17627
26.73534 11744
26.75545 6456
26.77556 3544
26.79568 2429
26.81579 1930
26.8359 1657
26.85602 1538
26.87613 1398
26.89625 1297
26.91636 1265
26.93647 1165
26.95659 1072
26.9767 986
26.99681 998
27.01693 982
27.03704 1031
27.05716 1069
27.07727 976
27.09738 923
27.1175 918
27.13761 809
27.15772 739
27.17784 661
27.19795 604
27.21806 568
27.23818 582
27.25829 547
27.27841 612
27.29852 590
27.31863 655
27.33875 668
27.35886 776
27.37897 882
27.39909 988
27.4192 1143
27.43932 1300
27.45943 1379
27.47954 1367
27.49966 1305
27.51977 1137
27.53988 985
27.56 834
27.58011 709
27.60023 539
27.62034 454
27.64045 433
27.66057 396
27.68068 365
27.70079 335
27.72091 361
27.74102 328
27.76113 351
27.78125 375
27.80136 331
27.82148 339
27.84159 351
27.8617 331
27.88182 336
27.90193 329
27.92204 334
27.94216 296
27.96227 325
27.98239 283
28.0025 290
28.02261 264
28.04273 261
28.06284 287
28.08295 266
28.10307 274
28.12318 260
28.1433 280
28.16341 264
28.18352 265
28.20364 258
28.22375 286
28.24386 286
28.26398 262
28.28409 257
28.3042 276
28.32432 270
28.34443 250
28.36455 248
28.38466 254
28.40477 225
28.42489 228
28.445 228
28.46511 231
28.48523 248
28.50534 264
28.52546 255
28.54557 241
28.56568 245
28.5858 236
28.60591 212
28.62602 242
28.64614 228
28.66625 228
28.68636 229
28.70648 271
28.72659 229
28.74671 274
28.76682 238
28.78693 236
28.80705 201
28.82716 231
28.84727 256
28.86739 244
28.8875 224
28.90762 232
28.92773 220
28.94784 222
28.96796 220
28.98807 196
29.00818 207
29.0283 207
29.04841 220
29.06853 239
29.08864 222
29.10875 202
29.12887 197
29.14898 213
29.16909 221
29.18921 210
29.20932 212
29.22943 215
29.24955 219
29.26966 216
29.28978 252
29.30989 240
29.33 247
29.35012 271
29.37023 277
29.39034 289
29.41046 314
29.43057 320
29.45069 322
29.4708 311
29.49091 288
29.51103 315
29.53114 305
29.55125 309
29.57137 243
29.59148 296
29.6116 255
29.63171 274
29.65182 252
29.67194 242
29.69205 271
29.71216 288
29.73228 261
29.75239 277
29.7725 258
29.79262 312
29.81273 273
29.83285 290
29.85296 308
29.87307 293
29.89319 345
29.9133 286
29.93341 303
29.95353 270
29.97364 284
29.99376 305
30.01387 308
30.03398 290
30.0541 270
30.07421 273
30.09432 283
30.11444 303
30.13455 362
30.15467 347
30.17478 359
30.19489 349
30.21501 383
30.23512 331
30.25523 336
30.27535 326
30.29546 318
30.31557 279
30.33569 239
30.3558 223
30.37592 230
30.39603 223
30.41614 242
30.43626 216
30.45637 226
30.47648 223
30.4966 211
30.51671 237
30.53683 209
30.55694 225
30.57705 228
30.59717 226
30.61728 225
30.63739 238
30.65751 251
30.67762 297
30.69773 352
30.71785 324
30.73796 378
30.75808 359
30.77819 462
30.7983 411
30.81842 418
30.83853 401
30.85864 360
30.87876 384
30.89887 334
30.91899 313
30.9391 300
30.95921 284
30.97933 244
30.99944 221
31.01955 232
31.03967 192
31.05978 192
31.0799 205
31.10001 203
31.12012 166
31.14024 189
31.16035 200
31.18046 196
31.20058 194
31.22069 183
31.2408 193
31.26092 174
31.28103 150
31.30115 188
31.32126 190
31.34137 174
31.36149 170
31.3816 195
31.40171 168
31.42183 181
31.44194 168
31.46206 179
31.48217 179
31.50228 165
31.5224 180
31.54251 180
31.56262 176
31.58274 172
31.60285 183
31.62297 163
31.64308 168
31.66319 181
31.68331 161
31.70342 120
31.72353 146
31.74365 146
31.76376 172
31.78387 144
31.80399 170
31.8241 143
31.84422 205
31.86433 155
31.88444 157
31.90456 163
31.92467 139
31.94478 152
31.9649 188
31.98501 186
32.00513 151
32.02524 182
32.04535 187
32.06547 184
32.08558 194
32.10569 183
32.12581 202
32.14592 186
32.16604 202
32.18615 223
32.20626 217
32.22638 218
32.24649 230
32.2666 234
32.28672 240
32.30683 207
32.32694 248
32.34706 207
32.36717 236
32.38729 248
32.4074 251
32.42751 243
32.44763 215
32.46774 221
32.48785 259
32.50797 184
32.52808 207
32.5482 171
32.56831 192
32.58842 168
32.60854 171
32.62865 164
32.64876 189
32.66888 150
32.68899 168
32.7091 175
32.72922 203
32.74933 163
32.76945 169
32.78956 176
32.80967 150
32.82979 148
32.8499 158
32.87001 148
32.89013 164
32.91024 184
32.93036 163
32.95047 142
32.97058 159
32.9907 135
33.01081 169
33.03092 130
33.05104 141
33.07115 133
33.09127 153
33.11138 177
33.13149 159
33.15161 168
33.17172 144
33.19183 178
33.21195 160
33.23206 171
33.25217 155
33.27229 155
33.2924 171
33.31252 169
33.33263 167
33.35274 123
33.37286 157
33.39297 159
33.41308 147
33.4332 158
33.45331 148
33.47343 134
33.49354 143
33.51365 149
33.53377 154
33.55388 158
33.57399 153
33.59411 155
33.61422 135
33.63434 136
33.65445 146
33.67456 145
33.69468 146
33.71479 152
33.7349 157
33.75502 136
33.77513 170
33.79524 168
33.81536 130
33.83547 146
33.85559 168
33.8757 166
33.89581 153
33.91593 180
33.93604 166
33.95615 146
33.97627 178
33.99638 158
34.0165 150
34.03661 171
34.05672 177
34.07684 146
34.09695 199
34.11706 185
34.13718 202
34.15729 238
34.17741 241
34.19752 247
34.21763 228
34.23775 231
34.25786 255
34.27797 224
34.29809 243
34.3182 201
34.33831 226
34.35843 219
34.37854 185
34.39866 242
34.41877 207
34.43888 208
34.459 215
34.47911 209
34.49922 219
34.51934 211
34.53945 187
34.55957 219
34.57968 229
34.59979 233
34.61991 213
34.64002 240
34.66013 220
34.68025 252
34.70036 222
34.72047 224
34.74059 234
34.7607 224
34.78082 237
34.80093 252
34.82104 216
34.84116 251
34.86127 278
34.88138 252
34.9015 264
34.92161 298
34.94173 267
34.96184 248
34.98195 271
35.00207 237
35.02218 261
35.04229 237
35.06241 283
35.08252 266
35.10264 250
35.12275 237
35.14286 250
35.16298 252
35.18309 201
35.2032 226
35.22332 219
35.24343 211
35.26354 228
35.28366 222
35.30377 196
35.32389 229
35.344 230
35.36411 228
35.38423 216
35.40434 246
35.42445 199
35.44457 221
35.46468 209
35.4848 239
35.50491 282
35.52502 270
35.54514 271
35.56525 292
35.58536 259
35.60548 225
35.62559 245
35.64571 222
35.66582 225
35.68593 226
35.70605 236
35.72616 228
35.74627 218
35.76639 203
35.7865 219
35.80661 193
35.82673 205
35.84684 199
35.86696 218
35.88707 209
35.90718 235
35.9273 211
35.94741 218
35.96752 212
35.98764 222
36.00775 216
36.02787 214
36.04798 196
36.06809 193
36.08821 188
36.10832 204
36.12843 197
36.14855 201
36.16866 243
36.18878 236
36.20889 243
36.229 242
36.24912 261
36.26923 252
36.28934 260
36.30946 283
36.32957 380
36.34968 412
36.3698 456
36.38991 537
36.41003 656
36.43014 877
36.45025 1185
36.47037 1519
36.49048 1980
36.51059 2356
36.53071 2694
36.55082 2423
36.57094 1998
36.59105 1624
36.61116 1394
36.63128 1275
36.65139 1099
36.6715 774
36.69162 472
36.71173 369
36.73184 295
36.75196 286
36.77207 274
36.79219 234
36.8123 251
36.83241 246
36.85253 225
36.87264 193
36.89275 226
36.91287 252
36.93298 245
36.9531 251
36.97321 280
36.99332 249
37.01344 231
37.03355 247
37.05366 222
37.07378 237
37.09389 231
37.11401 217
37.13412 212
37.15423 206
37.17435 187
37.19446 184
37.21457 211
37.23469 191
37.2548 197
37.27491 164
37.29503 154
37.31514 190
37.33526 159
37.35537 188
37.37548 168
37.3956 175
37.41571 181
37.43582 184
37.45594 176
37.47605 149
37.49617 165
37.51628 155
37.53639 177
37.55651 169
37.57662 163
37.59673 185
37.61685 196
37.63696 179
37.65708 193
37.67719 165
37.6973 180
37.71742 197
37.73753 194
37.75764 179
37.77776 169
37.79787 199
37.81798 183
37.8381 159
37.85821 154
37.87833 173
37.89844 169
37.91855 159
37.93867 147
37.95878 176
37.97889 173
37.99901 185
38.01912 185
38.03924 174
38.05935 168
38.07946 162
38.09958 182
38.11969 157
38.1398 202
38.15992 184
38.18003 178
38.20015 179
38.22026 189
38.24037 167
38.26049 183
38.2806 186
38.30071 194
38.32083 179
38.34094 207
38.36105 198
38.38117 191
38.40128 216
38.4214 203
38.44151 211
38.46162 205
38.48174 216
38.50185 253
38.52196 232
38.54208 232
38.56219 231
38.58231 234
38.60242 229
38.62253 215
38.64265 225
38.66276 198
38.68287 200
38.70299 179
38.7231 204
38.74321 165
38.76333 178
38.78344 175
38.80356 182
38.82367 161
38.84378 159
38.8639 168
38.88401 182
38.90412 183
38.92424 200
38.94435 184
38.96447 194
38.98458 176
39.00469 202
39.02481 189
39.04492 196
39.06503 180
39.08515 197
39.10526 231
39.12538 226
39.14549 240
39.1656 251
39.18572 270
39.20583 281
39.22594 267
39.24606 339
39.26617 366
39.28628 427
39.3064 491
39.32651 619
39.34663 766
39.36674 1026
39.38685 1255
39.40697 1661
39.42708 2048
39.44719 2423
39.46731 2342
39.48742 1851
39.50754 1513
39.52765 1327
39.54776 1275
39.56788 1116
39.58799 886
39.6081 629
39.62822 364
39.64833 308
39.66845 264
39.68856 253
39.70867 204
39.72879 247
39.7489 205
39.76901 197
39.78913 197
39.80924 196
39.82935 202
39.84947 206
39.86958 186
39.8897 197
39.90981 186
39.92992 193
39.95004 173
39.97015 224
39.99026 210
40.01038 248
40.03049 215
40.05061 233
40.07072 244
40.09083 263
40.11095 344
40.13106 298
40.15117 375
40.17129 542
40.1914 627
40.21152 732
40.23163 954
40.25174 1154
40.27186 1220
40.29197 1222
40.31208 1007
40.3322 796
40.35231 763
40.37242 709
40.39254 700
40.41265 559
40.43277 413
40.45288 307
40.47299 264
40.49311 236
40.51322 208
40.53333 210
40.55345 187
40.57356 180
40.59368 174
40.61379 190
40.6339 195
40.65402 161
40.67413 182
40.69424 186
40.71436 169
40.73447 171
40.75458 144
40.7747 187
40.79481 170
40.81493 166
40.83504 159
40.85515 151
40.87527 151
40.89538 125
40.91549 152
40.93561 173
40.95572 162
40.97584 157
40.99595 197
41.01606 184
41.03618 147
41.05629 168
41.0764 168
41.09652 181
41.11663 191
41.13675 154
41.15686 173
41.17697 159
41.19709 159
41.2172 183
41.23731 151
41.25743 193
41.27754 160
41.29765 178
41.31777 152
41.33788 181
41.358 169
41.37811 165
41.39822 165
41.41834 176
41.43845 177
41.45856 185
41.47868 154
41.49879 162
41.51891 177
41.53902 187
41.55913 198
41.57925 180
41.59936 202
41.61947 207
41.63959 223
41.6597 245
41.67982 282
41.69993 309
41.72004 322
41.74016 340
41.76027 321
41.78038 337
41.8005 352
41.82061 327
41.84072 298
41.86084 291
41.88095 266
41.90107 271
41.92118 227
41.94129 197
41.96141 201
41.98152 222
42.00163 175
42.02175 198
42.04186 194
42.06198 201
42.08209 221
42.1022 193
42.12232 221
42.14243 229
42.16254 221
42.18266 225
42.20277 275
42.22289 300
42.243 319
42.26311 374
42.28323 401
42.30334 542
42.32345 601
42.34357 785
42.36368 1016
42.38379 1300
42.40391 1542
42.42402 1886
42.44414 1762
42.46425 1597
42.48436 1244
42.50448 1069
42.52459 963
42.5447 1006
42.56482 898
42.58493 636
42.60505 487
42.62516 328
42.64527 277
42.66539 245
42.6855 273
42.70561 233
42.72573 229
42.74584 239
42.76595 217
42.78607 221
42.80618 213
42.8263 186
42.84641 184
42.86652 200
42.88664 175
42.90675 174
42.92686 194
42.94698 170
42.96709 178
42.98721 186
43.00732 159
43.02743 149
43.04755 196
43.06766 154
43.08777 160
43.10789 165
43.128 173
43.14812 157
43.16823 160
43.18834 168
43.20846 147
43.22857 153
43.24868 152
43.2688 155
43.28891 151
43.30902 169
43.32914 166
43.34925 165
43.36937 148
43.38948 149
43.40959 176
43.42971 141
43.44982 163
43.46993 149
43.49005 159
43.51016 175
43.53028 169
43.55039 146
43.5705 176
43.59062 150
43.61073 166
43.63084 144
43.65096 159
43.67107 171
43.69119 147
43.7113 142
43.73141 151
43.75153 165
43.77164 135
43.79175 165
43.81187 142
43.83198 160
43.85209 136
43.87221 134
43.89232 153
43.91244 149
43.93255 156
43.95266 151
43.97278 182
43.99289 156
44.013 164
44.03312 172
44.05323 172
44.07335 156
44.09346 166
44.11357 184
44.13369 148
44.1538 129
44.17391 156
44.19403 170
44.21414 170
44.23426 172
44.25437 142
44.27448 175
44.2946 181
44.31471 149
44.33482 147
44.35494 165
44.37505 151
44.39516 131
44.41528 141
44.43539 152
44.45551 172
44.47562 128
44.49573 156
44.51585 141
44.53596 150
44.55607 137
44.57619 162
44.5963 152
44.61642 169
44.63653 157
44.65664 143
44.67676 181
44.69687 143
44.71698 151
44.7371 145
44.75721 167
44.77732 179
44.79744 126
44.81755 128
44.83767 149
44.85778 168
44.87789 174
44.89801 153
44.91812 177
44.93823 151
44.95835 172
44.97846 173
44.99858 164
45.01869 167
45.0388 165
45.05892 156
45.07903 175
45.09914 159
45.11926 169
45.13937 170
45.15949 165
45.1796 154
45.19971 153
45.21983 156
45.23994 152
45.26005 146
45.28017 172
45.30028 207
45.32039 179
45.34051 184
45.36062 191
45.38074 175
45.40085 194
45.42096 209
45.44108 226
45.46119 215
45.4813 237
45.50142 232
45.52153 262
45.54165 287
45.56176 241
45.58187 302
45.60199 326
45.6221 340
45.64221 406
45.66233 469
45.68244 608
45.70256 688
45.72267 835
45.74278 1034
45.7629 1204
45.78301 1228
45.80312 1065
45.82324 857
45.84335 743
45.86346 704
45.88358 707
45.90369 643
45.92381 595
45.94392 436
45.96403 338
45.98415 242
46.00426 213
46.02437 209
46.04449 204
46.0646 235
46.08472 195
46.10483 186
46.12494 195
46.14506 188
46.16517 176
46.18528 197
46.2054 172
46.22551 207
46.24563 179
46.26574 174
46.28585 167
46.30597 144
46.32608 145
46.34619 138
46.36631 153
46.38642 167
46.40653 171
46.42665 152
46.44676 143
46.46688 154
46.48699 145
46.5071 144
46.52722 145
46.54733 163
46.56744 163
46.58756 132
46.60767 162
46.62779 146
46.6479 145
46.66801 144
46.68813 114
46.70824 150
46.72835 127
46.74847 133
46.76858 143
46.78869 127
46.80881 148
46.82892 125
46.84904 135
46.86915 143
46.88926 136
46.90938 147
46.92949 153
46.9496 133
46.96972 154
46.98983 147
47.00995 156
47.03006 166
47.05017 162
47.07029 179
47.0904 186
47.11051 179
47.13063 187
47.15074 176
47.17086 179
47.19097 193
47.21108 194
47.2312 187
47.25131 169
47.27142 182
47.29154 175
47.31165 156
47.33176 171
47.35188 152
47.37199 155
47.39211 164
47.41222 184
47.43233 173
47.45245 166
47.47256 169
47.49267 198
47.51279 190
47.5329 153
47.55302 163
47.57313 166
47.59324 179
47.61336 130
47.63347 134
47.65358 147
47.6737 134
47.69381 155
47.71393 144
47.73404 132
47.75415 140
47.77427 145
47.79438 142
47.81449 134
47.83461 168
47.85472 157
47.87483 132
47.89495 137
47.91506 134
47.93518 136
47.95529 154
47.9754 150
47.99552 147
48.01563 134
48.03574 145
48.05586 154
48.07597 154
48.09609 147
48.1162 160
48.13631 142
48.15643 129
48.17654 133
48.19665 148
48.21677 158
48.23688 143
48.257 126
48.27711 140
48.29722 143
48.31734 125
48.33745 157
48.35756 152
48.37768 149
48.39779 142
48.4179 128
48.43802 159
48.45813 143
48.47825 147
48.49836 161
48.51847 141
48.53859 140
48.5587 166
48.57881 155
48.59893 164
48.61904 151
48.63916 162
48.65927 189
48.67938 151
48.6995 155
48.71961 161
48.73972 155
48.75984 184
48.77995 178
48.80006 170
48.82018 179
48.84029 176
48.86041 189
48.88052 189
48.90063 216
48.92075 198
48.94086 188
48.96097 196
48.98109 187
49.0012 209
49.02132 211
49.04143 229
49.06154 211
49.08166 186
49.10177 180
49.12188 203
49.142 170
49.16211 193
49.18223 181
49.20234 167
49.22245 163
49.24257 165
49.26268 165
49.28279 176
49.30291 173
49.32302 170
49.34313 161
49.36325 148
49.38336 150
49.40348 128
49.42359 151
49.4437 162
49.46382 181
49.48393 173
49.50404 185
49.52416 155
49.54427 180
49.56439 176
49.5845 182
49.60461 173
49.62473 218
49.64484 187
49.66495 224
49.68507 224
49.70518 247
49.7253 233
49.74541 222
49.76552 235
49.78564 287
49.80575 272
49.82586 314
49.84598 364
49.86609 398
49.8862 403
49.90632 486
49.92643 557
49.94655 655
49.96666 798
49.98677 995
50.00689 1269
50.027 1598
50.04711 2191
50.06723 2565
50.08734 3203
50.10746 3718
50.12757 3830
50.14768 3302
50.1678 2621
50.18791 1964
50.20802 1884
50.22814 1892
50.24825 1985
50.26837 1802
50.28848 1394
50.30859 974
50.32871 656
50.34882 495
50.36893 364
50.38905 335
50.40916 295
50.42927 339
50.44939 320
50.4695 351
50.48962 387
50.50973 385
50.52984 417
50.54996 413
50.57007 411
50.59018 440
50.6103 385
50.63041 403
50.65053 355
50.67064 325
50.69075 310
50.71087 331
50.73098 320
50.75109 285
50.77121 258
50.79132 282
50.81143 220
50.83155 237
50.85166 249
50.87178 228
50.89189 202
50.912 220
50.93212 192
50.95223 191
50.97234 183
50.99246 188
51.01257 180
51.03269 185
51.0528 170
51.07291 164
51.09303 166
51.11314 169
51.13325 160
51.15337 193
51.17348 171
51.1936 153
51.21371 147
51.23382 166
51.25394 124
51.27405 151
51.29416 145
51.31428 147
51.33439 163
51.3545 140
51.37462 154
51.39473 143
51.41485 129
51.43496 148
51.45507 136
51.47519 151
51.4953 167
51.51541 134
51.53553 126
51.55564 141
51.57576 141
51.59587 141
51.61598 132
51.6361 134
51.65621 138
51.67632 152
51.69644 136
51.71655 129
51.73667 158
51.75678 140
51.77689 134
51.79701 139
51.81712 137
51.83723 138
51.85735 162
51.87746 136
51.89757 135
51.91769 141
51.9378 143
51.95792 128
51.97803 134
51.99814 126
52.01826 133
52.03837 118
52.05848 139
52.0786 135
52.09871 120
52.11883 150
52.13894 134
52.15905 146
52.17917 151
52.19928 137
52.21939 139
52.23951 131
52.25962 141
52.27974 134
52.29985 139
52.31996 125
52.34008 147
52.36019 151
52.3803 158
52.40042 134
52.42053 126
52.44064 136
52.46076 128
52.48087 120
52.50099 161
52.5211 129
52.54121 140
52.56133 142
52.58144 149
52.60155 107
52.62167 123
52.64178 140
52.6619 140
52.68201 145
52.70212 142
52.72224 139
52.74235 149
52.76246 144
52.78258 143
52.80269 150
52.8228 129
52.84292 136
52.86303 153
52.88315 139
52.90326 140
52.92337 146
52.94349 157
52.9636 172
52.98371 134
53.00383 157
53.02394 132
53.04406 147
53.06417 163
53.08428 133
53.1044 171
53.12451 154
53.14462 133
53.16474 160
53.18485 167
53.20497 132
53.22508 177
53.24519 137
53.26531 138
53.28542 152
53.30553 138
53.32565 156
53.34576 158
53.36587 164
53.38599 154
53.4061 163
53.42622 162
53.44633 166
53.46644 155
53.48656 171
53.50667 147
53.52678 161
53.5469 157
53.56701 153
53.58713 154
53.60724 148
53.62735 145
53.64747 146
53.66758 137
53.68769 152
53.70781 132
53.72792 139
53.74804 129
53.76815 152
53.78826 145
53.80838 144
53.82849 158
53.8486 154
53.86872 151
53.88883 171
53.90894 144
53.92906 154
53.94917 143
53.96929 137
53.9894 153
54.00951 151
54.02963 161
54.04974 146
54.06985 175
54.08997 136
54.11008 175
54.1302 133
54.15031 143
54.17042 138
54.19054 163
54.21065 158
54.23076 145
54.25088 161
54.27099 170
54.29111 166
54.31122 179
54.33133 175
54.35145 148
54.37156 187
54.39167 157
54.41179 186
54.4319 196
54.45201 170
54.47213 193
54.49224 204
54.51236 158
54.53247 184
54.55258 193
54.5727 219
54.59281 219
54.61292 222
54.63304 237
54.65315 292
54.67327 309
54.69338 336
54.71349 413
54.73361 472
54.75372 580
54.77383 737
54.79395 895
54.81406 1040
54.83417 1168
54.85429 1237
54.8744 1083
54.89452 860
54.91463 703
54.93474 666
54.95486 623
54.97497 723
54.99508 678
55.0152 670
55.03531 528
55.05543 404
55.07554 325
55.09565 314
55.11577 262
55.13588 294
55.15599 283
55.17611 278
55.19622 322
55.21634 391
55.23645 430
55.25656 493
55.27668 573
55.29679 582
55.3169 602
55.33702 501
55.35713 411
55.37724 378
55.39736 371
55.41747 330
55.43759 359
55.4577 396
55.47781 348
55.49793 301
55.51804 235
55.53815 202
55.55827 186
55.57838 183
55.5985 185
55.61861 184
55.63872 188
55.65884 159
55.67895 177
55.69906 163
55.71918 163
55.73929 146
55.75941 133
55.77952 160
55.79963 154
55.81975 160
55.83986 159
55.85997 139
55.88009 152
55.9002 136
55.92031 144
55.94043 161
55.96054 136
55.98066 132
56.00077 135
56.02088 152
56.041 145
56.06111 157
56.08122 130
56.10134 143
56.12145 125
56.14157 129
56.16168 130
56.18179 142
56.20191 149
56.22202 150
56.24213 155
56.26225 122
56.28236 120
56.30248 113
56.32259 142
56.3427 130
56.36282 126
56.38293 146
56.40304 134
56.42316 136
56.44327 130
56.46338 141
56.4835 136
56.50361 156
56.52373 122
56.54384 161
56.56395 159
56.58407 150
56.60418 148
56.62429 142
56.64441 134
56.66452 128
56.68464 171
56.70475 172
56.72486 160
56.74498 164
56.76509 145
56.7852 140
56.80532 145
56.82543 143
56.84554 146
56.86566 166
56.88577 149
56.90589 146
56.926 139
56.94611 143
56.96623 115
56.98634 133
57.00645 163
57.02657 129
57.04668 150
57.0668 156
57.08691 128
57.10702 159
57.12714 153
57.14725 172
57.16736 179
57.18748 165
57.20759 211
57.22771 197
57.24782 187
57.26793 161
57.28805 167
57.30816 182
57.32827 193
57.34839 179
57.3685 183
57.38861 151
57.40873 139
57.42884 161
57.44896 151
57.46907 159
57.48918 142
57.5093 128
57.52941 121
57.54952 138
57.56964 130
57.58975 135
57.60987 138
57.62998 127
57.65009 129
57.67021 136
57.69032 140
57.71043 127
57.73055 145
57.75066 137
57.77078 132
57.79089 148
57.811 156
57.83112 138
57.85123 134
57.87134 147
57.89146 150
57.91157 143
57.93168 141
57.9518 132
57.97191 153
57.99203 147
58.01214 118
58.03225 138
58.05237 135
58.07248 140
58.09259 147
58.11271 147
58.13282 146
58.15294 136
58.17305 140
58.19316 145
58.21328 128
58.23339 154
58.2535 123
58.27362 145
58.29373 138
58.31385 133
58.33396 139
58.35407 130
58.37419 119
58.3943 138
58.41441 137
58.43453 141
58.45464 158
58.47475 158
58.49487 158
58.51498 146
58.5351 158
58.55521 156
58.57532 161
58.59544 149
58.61555 144
58.63566 155
58.65578 172
58.67589 157
58.69601 151
58.71612 139
58.73623 178
58.75635 152
58.77646 152
58.79657 138
58.81669 150
58.8368 150
58.85691 146
58.87703 141
58.89714 153
58.91726 141
58.93737 164
58.95748 157
58.9776 155
58.99771 148
59.01782 137
59.03794 143
59.05805 139
59.07817 162
59.09828 156
59.11839 141
59.13851 152
59.15862 131
59.17873 129
59.19885 144
59.21896 126
59.23908 154
59.25919 140
59.2793 131
59.29942 166
59.31953 161
59.33964 156
59.35976 164
59.37987 160
59.39998 170
59.4201 168
59.44021 173
59.46033 190
59.48044 200
59.50055 196
59.52067 198
59.54078 204
59.56089 224
59.58101 243
59.60112 221
59.62124 249
59.64135 254
59.66146 278
59.68158 319
59.70169 353
59.7218 450
59.74192 461
59.76203 558
59.78215 675
59.80226 835
59.82237 975
59.84249 1264
59.8626 1514
59.88271 1877
59.90283 2152
59.92294 2374
59.94305 2317
59.96317 2099
59.98328 1645
60.0034 1261
60.02351 1112
60.04362 1053
60.06374 1175
60.08385 1255
60.10396 1275
60.12408 1057
60.14419 806
60.16431 553
60.18442 401
60.20453 306
60.22465 279
60.24476 229
60.26487 224
60.28499 200
60.3051 201
60.32522 178
60.34533 194
60.36544 192
60.38556 194
60.40567 188
60.42578 185
60.4459 157
60.46601 177
60.48612 172
60.50624 171
60.52635 158
60.54647 167
60.56658 175
60.58669 160
60.60681 166
60.62692 159
60.64703 159
60.66715 143
60.68726 150
60.70738 152
60.72749 153
60.7476 166
60.76772 144
60.78783 142
60.80794 162
60.82806 164
60.84817 147
60.86828 140
60.8884 152
60.90851 156
60.92863 161
60.94874 149
60.96885 174
60.98897 155
61.00908 161
61.02919 146
61.04931 167
61.06942 165
61.08954 158
61.10965 175
61.12976 191
61.14988 176
61.16999 173
61.1901 165
61.21022 136
61.23033 157
61.25045 173
61.27056 170
61.29067 169
61.31079 158
61.3309 158
61.35101 141
61.37113 178
61.39124 165
61.41135 133
61.43147 131
61.45158 141
61.4717 141
61.49181 127
61.51192 139
61.53204 120
61.55215 121
61.57226 139
61.59238 144
61.61249 125
61.63261 175
61.65272 157
61.67283 134
61.69295 152
61.71306 152
61.73317 138
61.75329 165
61.7734 145
61.79352 141
61.81363 133
61.83374 156
61.85386 141
61.87397 140
61.89408 128
61.9142 171
61.93431 147
61.95442 146
61.97454 171
61.99465 167
62.01477 141
62.03488 135
62.05499 161
62.07511 176
62.09522 165
62.11533 157
62.13545 156
62.15556 183
62.17568 166
62.19579 169
62.2159 148
62.23602 146
62.25613 171
62.27624 136
62.29636 142
62.31647 150
62.33659 167
62.3567 130
62.37681 170
62.39693 155
62.41704 136
62.43715 138
62.45727 152
62.47738 160
62.49749 149
62.51761 164
62.53772 160
62.55784 150
62.57795 153
62.59806 158
62.61818 139
62.63829 149
62.6584 131
62.67852 152
62.69863 159
62.71875 182
62.73886 163
62.75897 142
62.77909 125
62.7992 143
62.81931 147
62.83943 131
62.85954 153
62.87965 139
62.89977 148
62.91988 163
62.94 146
62.96011 160
62.98022 147
63.00034 171
63.02045 168
63.04056 154
63.06068 138
63.08079 165
63.10091 133
63.12102 195
63.14113 156
63.16125 147
63.18136 151
63.20147 159
63.22159 161
63.2417 150
63.26182 159
63.28193 155
63.30204 156
63.32216 132
63.34227 138
63.36238 152
63.3825 133
63.40261 149
63.42272 118
63.44284 153
63.46295 150
63.48307 165
63.50318 135
63.52329 142
63.54341 126
63.56352 141
63.58363 136
63.60375 152
63.62386 157
63.64398 170
63.66409 161
63.6842 176
63.70432 179
63.72443 198
63.74454 181
63.76466 179
63.78477 176
63.80489 200
63.825 209
63.84511 283
63.86523 289
63.88534 299
63.90545 319
63.92557 389
63.94568 417
63.96579 476
63.98591 587
64.00602 539
64.02614 512
64.04625 498
64.06636 368
64.08648 331
64.10659 310
64.1267 313
64.14682 343
64.16693 369
64.18705 323
64.20716 326
64.22727 294
64.24739 244
64.2675 205
64.28761 162
64.30773 169
64.32784 136
64.34796 158
64.36807 140
64.38818 181
64.4083 134
64.42841 129
64.44852 153
64.46864 134
64.48875 150
64.50886 147
64.52898 120
64.54909 105
64.56921 131
64.58932 149
64.60943 129
64.62955 128
64.64966 158
64.66977 148
64.68989 132
64.71 144
64.73012 151
64.75023 130
64.77034 138
64.79046 132
64.81057 125
64.83068 138
64.8508 129
64.87091 136
64.89102 142
64.91114 146
64.93125 130
64.95137 153
64.97148 133
64.99159 147
65.01171 143
65.03182 153
65.05193 156
65.07205 135
65.09216 135
65.11228 156
65.13239 161
65.1525 152
65.17262 128
65.19273 148
65.21284 160
65.23296 151
65.25307 152
65.27319 168
65.2933 155
65.31341 154
65.33353 155
65.35364 194
65.37375 146
65.39387 176
65.41398 151
65.43409 150
65.45421 154
65.47432 154
65.49444 136
65.51455 136
65.53466 153
65.55478 170
65.57489 143
65.595 159
65.61512 164
65.63523 193
65.65535 193
65.67546 199
65.69557 209
65.71569 220
65.7358 236
65.75591 244
65.77603 236
65.79614 223
65.81626 199
65.83637 177
65.85648 171
65.8766 184
65.89671 173
65.91682 171
65.93694 181
65.95705 193
65.97716 161
65.99728 151
66.01739 155
66.03751 167
66.05762 163
66.07773 131
66.09785 142
66.11796 137
66.13807 148
66.15819 133
66.1783 175
66.19842 156
66.21853 146
66.23864 180
66.25876 161
66.27887 164
66.29898 151
66.3191 156
66.33921 154
66.35933 158
66.37944 178
66.39955 162
66.41967 168
66.43978 155
66.45989 142
66.48001 176
66.50012 152
66.52023 137
66.54035 163
66.56046 170
66.58058 136
66.60069 142
66.6208 142
66.64092 143
66.66103 142
66.68114 135
66.70126 153
66.72137 150
66.74149 148
66.7616 144
66.78171 129
66.80183 154
66.82194 139
66.84205 149
66.86217 141
66.88228 156
66.90239 130
66.92251 155
66.94262 159
66.96274 136
66.98285 134
67.00296 137
67.02308 150
67.04319 139
67.0633 147
67.08342 157
67.10353 162
67.12365 167
67.14376 167
67.16387 170
67.18399 172
67.2041 149
67.22421 158
67.24433 172
67.26444 187
67.28456 177
67.30467 209
67.32478 227
67.3449 203
67.36501 191
67.38512 208
67.40524 237
67.42535 263
67.44546 257
67.46558 279
67.48569 295
67.50581 345
67.52592 384
67.54603 425
67.56615 499
67.58626 591
67.60637 685
67.62649 832
67.6466 958
67.66672 1201
67.68683 1281
67.70694 1460
67.72706 1469
67.74717 1299
67.76728 1117
67.7874 837
67.80751 745
67.82763 788
67.84774 798
67.86785 883
67.88797 937
67.90808 1024
67.92819 1048
67.94831 910
67.96842 890
67.98853 895
68.00865 918
68.02876 1135
68.04888 1265
68.06899 1506
68.0891 1670
68.10922 1842
68.12933 1921
68.14944 1727
68.16956 1416
68.18967 1255
68.20979 1281
68.2299 1392
68.25001 1513
68.27013 1699
68.29024 1726
68.31035 1638
68.33047 1386
68.35058 1123
68.3707 817
68.39081 717
68.41092 622
68.43104 652
68.45115 706
68.47126 617
68.49138 598
68.51149 510
68.5316 404
68.55172 355
68.57183 293
68.59195 231
68.61206 229
68.63217 192
68.65229 184
68.6724 190
68.69251 168
68.71263 185
68.73274 176
68.75286 187
68.77297 150
68.79308 171
68.8132 157
68.83331 150
68.85342 137
68.87354 163
68.89365 165
68.91376 158
68.93388 145
68.95399 134
68.97411 142
68.99422 158
69.01433 160
69.03445 144
69.05456 138
69.07467 166
69.09479 146
69.1149 147
69.13502 135
69.15513 133
69.17524 124
69.19536 122
69.21547 119
69.23558 147
69.2557 148
69.27581 136
69.29593 142
69.31604 120
69.33615 134
69.35627 143
69.37638 126
69.39649 111
69.41661 129
69.43672 141
69.45683 134
69.47695 121
69.49706 159
69.51718 132
69.53729 135
69.5574 129
69.57752 132
69.59763 143
69.61774 127
69.63786 103
69.65797 109
69.67809 134
69.6982 133
69.71831 118
69.73843 122
69.75854 117
69.77865 122
69.79877 134
69.81888 115
69.839 128
69.85911 122
69.87922 137
69.89934 126
69.91945 140
69.93956 149
69.95968 112
69.97979 109
69.9999 134
70.02002 131
70.04013 129
70.06025 140
70.08036 126
70.10047 126
70.12059 137
70.1407 129
70.16081 129
70.18093 147
70.20104 129
70.22116 157
70.24127 129
70.26138 135
70.2815 144
70.30161 121
70.32172 134
70.34184 124
70.36195 144
70.38207 139
70.40218 130
70.42229 107
70.44241 125
70.46252 135
70.48263 112
70.50275 136
70.52286 115
70.54297 110
70.56309 120
70.5832 117
70.60332 134
70.62343 124
70.64354 138
70.66366 124
70.68377 117
70.70388 113
70.724 127
70.74411 142
70.76423 113
70.78434 129
70.80445 145
70.82457 137
70.84468 95
70.86479 136
70.88491 125
70.90502 129
70.92513 135
70.94525 119
70.96536 116
70.98548 116
71.00559 127
71.0257 131
71.04582 117
71.06593 137
71.08604 132
71.10616 124
71.12627 141
71.14639 129
71.1665 136
71.18661 136
71.20673 114
71.22684 127
71.24695 133
71.26707 119
71.28718 112
71.3073 123
71.32741 94
71.34752 123
71.36764 135
71.38775 126
71.40786 142
71.42798 136
71.44809 118
71.4682 135
71.48832 127
71.50843 145
71.52855 150
71.54866 139
71.56877 140
71.58889 177
71.609 132
71.62911 151
71.64923 148
71.66934 150
71.68946 152
71.70957 159
71.72968 135
71.7498 137
71.76991 136
71.79002 146
71.81014 138
71.83025 147
71.85037 145
71.87048 123
71.89059 140
71.91071 159
71.93082 140
71.95093 136
71.97105 158
71.99116 127
72.01127 135
72.03139 143
72.0515 143
72.07162 145
72.09173 141
72.11184 155
72.13196 159
72.15207 138
72.17218 136
72.1923 158
72.21241 145
72.23253 143
72.25264 164
72.27275 147
72.29287 128
72.31298 136
72.33309 153
72.35321 118
72.37332 111
72.39344 129
72.41355 120
72.43366 135
72.45378 142
72.47389 140
72.494 138
72.51412 137
72.53423 132
72.55434 117
72.57446 123
72.59457 154
72.61469 137
72.6348 131
72.65491 147
72.67503 143
72.69514 137
72.71525 143
72.73537 130
72.75548 136
72.7756 139
72.79571 135
72.81582 148
72.83594 151
72.85605 139
72.87616 149
72.89628 147
72.91639 139
72.9365 142
72.95662 147
72.97673 129
72.99685 135
73.01696 168
73.03707 161
73.05719 148
73.0773 161
73.09741 153
73.11753 158
73.13764 178
73.15776 179
73.17787 182
73.19798 194
73.2181 195
73.23821 213
73.25832 231
73.27844 237
73.29855 274
73.31867 303
73.33878 329
73.35889 392
73.37901 467
73.39912 511
73.41923 554
73.43935 575
73.45946 593
73.47957 398
73.49969 390
73.5198 311
73.53992 303
73.56003 285
73.58014 275
73.60026 329
73.62037 324
73.64048 365
73.6606 336
73.68071 326
73.70083 268
73.72094 239
73.74105 180
73.76117 170
73.78128 160
73.80139 154
73.82151 150
73.84162 150
73.86174 161
73.88185 138
73.90196 141
73.92208 175
73.94219 159
73.9623 157
73.98242 158
74.00253 139
74.02264 146
74.04276 128
74.06287 116
74.08299 134
74.1031 143
74.12321 136
74.14333 117
74.16344 136
74.18355 148
74.20367 121
74.22378 147
74.2439 149
74.26401 124
74.28412 143
74.30424 134
74.32435 130
74.34446 139
74.36458 137
74.38469 133
74.40481 127
74.42492 141
74.44503 150
74.46515 129
74.48526 143
74.50537 128
74.52549 127
74.5456 119
74.56571 142
74.58583 139
74.60594 143
74.62606 127
74.64617 132
74.66628 138
74.6864 131
74.70651 147
74.72662 128
74.74674 131
74.76685 125
74.78697 128
74.80708 117
74.82719 133
74.84731 121
74.86742 154
74.88753 136
74.90765 151
74.92776 154
74.94787 134
74.96799 122
74.9881 137
75.00822 130
