3.00117 23432
3.02128 23062
3.0414 21941
3.06151 21796
3.08162 20788
3.10174 20276
3.12185 19741
3.14197 19046
3.16208 18656
3.18219 18181
3.20231 17235
3.22242 17202
3.24253 16317
3.26265 16203
3.28276 15426
3.30288 15062
3.32299 14582
3.3431 14028
3.36322 13765
3.38333 13244
3.40344 12765
3.42356 12414
3.44367 11649
3.46379 11792
3.4839 10896
3.50401 10906
3.52413 10500
3.54424 9860
3.56435 9690
3.58447 9184
3.60458 9024
3.62469 8410
3.64481 8182
3.66492 8125
3.68504 7589
3.70515 7508
3.72526 7015
3.74538 6565
3.76549 6764
3.7856 6355
3.80572 5915
3.82583 5652
3.84595 5433
3.86606 5299
3.88617 5115
3.90629 4822
3.9264 4602
3.94651 4452
3.96663 4382
3.98674 4037
4.00686 3863
4.02697 3658
4.04708 3476
4.0672 3449
4.08731 3194
4.10742 2956
4.12754 2978
4.14765 2825
4.16776 2835
4.18788 2742
4.20799 2470
4.22811 2376
4.24822 2284
4.26833 2386
4.28845 2131
4.30856 1983
4.32867 2018
4.34879 2003
4.3689 1974
4.38902 1916
4.40913 1752
4.42924 1760
4.44936 1664
4.46947 1764
4.48958 1665
4.5097 1468
4.52981 1467
4.54992 1450
4.57004 1425
4.59015 1489
4.61027 1366
4.63038 1295
4.65049 1376
4.67061 1314
4.69072 1265
4.71083 1130
4.73095 1188
4.75106 1130
4.77118 1123
4.79129 1104
4.8114 1067
4.83152 1055
4.85163 1097
4.87174 1076
4.89186 1056
4.91197 909
4.93209 934
4.9522 946
4.97231 933
4.99243 887
5.01254 822
5.03265 871
5.05277 911
5.07288 813
5.09299 870
5.11311 758
5.13322 763
5.15334 742
5.17345 768
5.19356 725
5.21368 726
5.23379 713
5.2539 700
5.27402 688
5.29413 657
5.31425 629
5.33436 602
5.35447 656
5.37459 643
5.3947 618
5.41481 537
5.43493 603
5.45504 608
5.47516 502
5.49527 547
5.51538 501
5.5355 525
5.55561 552
5.57572 510
5.59584 529
5.61595 481
5.63606 484
5.65618 485
5.67629 482
5.69641 471
5.71652 457
5.73663 415
5.75675 472
5.77686 484
5.79697 439
5.81709 410
5.8372 407
5.85732 438
5.87743 439
5.89754 425
5.91766 418
5.93777 438
5.95788 454
5.978 416
5.99811 425
6.01823 413
6.03834 428
6.05845 437
6.07857 410
6.09868 376
6.11879 391
6.13891 393
6.15902 384
6.17913 405
6.19925 374
6.21936 398
6.23948 394
6.25959 385
6.2797 386
6.29982 371
6.31993 361
6.34004 398
6.36016 420
6.38027 372
6.40039 393
6.4205 382
6.44061 387
6.46073 364
6.48084 381
6.50095 374
6.52107 373
6.54118 360
6.56129 336
6.58141 366
6.60152 360
6.62164 342
6.64175 364
6.66186 361
6.68198 344
6.70209 373
6.7222 380
6.74232 353
6.76243 345
6.78255 336
6.80266 371
6.82277 365
6.84289 330
6.863 330
6.88311 366
6.90323 298
6.92334 342
6.94346 333
6.96357 331
6.98368 386
7.0038 324
7.02391 376
7.04402 294
7.06414 328
7.08425 379
7.10436 322
7.12448 293
7.14459 363
7.16471 328
7.18482 362
7.20493 308
7.22505 339
7.24516 354
7.26527 347
7.28539 322
7.3055 307
7.32562 372
7.34573 353
7.36584 331
7.38596 397
7.40607 328
7.42618 369
7.4463 347
7.46641 291
7.48653 359
7.50664 348
7.52675 323
7.54687 330
7.56698 340
7.58709 318
7.60721 356
7.62732 320
7.64743 337
7.66755 385
7.68766 356
7.70778 373
7.72789 386
7.748 365
7.76812 317
7.78823 344
7.80834 322
7.82846 344
7.84857 349
7.86869 389
7.8888 359
7.90891 367
7.92903 336
7.94914 329
7.96925 341
7.98937 313
8.00948 337
8.0296 374
8.04971 402
8.06982 343
8.08994 374
8.11005 340
8.13016 338
8.15028 368
8.17039 331
8.1905 357
8.21062 353
8.23073 351
8.25085 388
8.27096 333
8.29107 385
8.31119 369
8.3313 338
8.35141 341
8.37153 354
8.39164 370
8.41176 351
8.43187 351
8.45198 393
8.4721 384
8.49221 404
8.51232 389
8.53244 367
8.55255 360
8.57266 386
8.59278 362
8.61289 358
8.63301 374
8.65312 365
8.67323 419
8.69335 367
8.71346 406
8.73357 398
8.75369 414
8.7738 422
8.79392 407
8.81403 422
8.83414 409
8.85426 440
8.87437 383
8.89448 411
8.9146 419
8.93471 435
8.95483 365
8.97494 368
8.99505 358
9.01517 334
9.03528 335
9.05539 323
9.07551 342
9.09562 377
9.11573 355
9.13585 338
9.15596 362
9.17608 354
9.19619 294
9.2163 365
9.23642 361
9.25653 354
9.27664 291
9.29676 350
9.31687 317
9.33699 339
9.3571 340
9.37721 304
9.39733 342
9.41744 341
9.43755 323
9.45767 315
9.47778 288
9.4979 317
9.51801 285
9.53812 311
9.55824 313
9.57835 349
9.59846 303
9.61858 283
9.63869 317
9.6588 341
9.67892 321
9.69903 328
9.71915 339
9.73926 360
9.75937 320
9.77949 349
9.7996 343
9.81971 301
9.83983 322
9.85994 278
9.88006 310
9.90017 336
9.92028 303
9.9404 299
9.96051 309
9.98062 318
10.00074 298
10.02085 323
10.04097 293
10.06108 304
10.08119 336
10.10131 306
10.12142 326
10.14153 292
10.16165 306
10.18176 315
10.20187 290
10.22199 313
10.2421 309
10.26222 311
10.28233 285
10.30244 317
10.32256 310
10.34267 328
10.36278 366
10.3829 354
10.40301 343
10.42313 360
10.44324 351
10.46335 364
10.48347 397
10.50358 363
10.52369 371
10.54381 358
10.56392 349
10.58403 321
10.60415 349
10.62426 328
10.64438 316
10.66449 282
10.6846 285
10.70472 308
10.72483 304
10.74494 328
10.76506 296
10.78517 315
10.80529 289
10.8254 329
10.84551 306
10.86563 304
10.88574 342
10.90585 332
10.92597 302
10.94608 293
10.9662 304
10.98631 318
11.00642 304
11.02654 293
11.04665 310
11.06676 299
11.08688 313
11.10699 282
11.1271 288
11.14722 294
11.16733 323
11.18745 325
11.20756 326
11.22767 302
11.24779 308
11.2679 298
11.28801 314
11.30813 317
11.32824 280
11.34836 287
11.36847 289
11.38858 279
11.4087 333
11.42881 316
11.44892 329
11.46904 326
11.48915 329
11.50927 269
11.52938 288
11.54949 317
11.56961 298
11.58972 302
11.60983 289
11.62995 299
11.65006 274
11.67017 256
11.69029 286
11.7104 321
11.73052 317
11.75063 311
11.77074 293
11.79086 291
11.81097 294
11.83108 316
11.8512 297
11.87131 324
11.89143 297
11.91154 315
11.93165 318
11.95177 319
11.97188 311
11.99199 333
12.01211 337
12.03222 307
12.05234 323
12.07245 307
12.09256 318
12.11268 314
12.13279 306
12.1529 312
12.17302 332
12.19313 267
12.21324 313
12.23336 305
12.25347 288
12.27359 300
12.2937 292
12.31381 321
12.33393 291
12.35404 306
12.37415 343
12.39427 294
12.41438 364
12.4345 308
12.45461 319
12.47472 333
12.49484 323
12.51495 312
12.53506 314
12.55518 352
12.57529 322
12.5954 327
12.61552 305
12.63563 281
12.65575 329
12.67586 339
12.69597 290
12.71609 301
12.7362 287
12.75631 301
12.77643 301
12.79654 336
12.81666 296
12.83677 295
12.85688 274
12.877 301
12.89711 283
12.91722 323
12.93734 324
12.95745 311
12.97757 281
12.99768 288
13.01779 318
13.03791 353
13.05802 314
13.07813 322
13.09825 284
13.11836 310
13.13847 326
13.15859 326
13.1787 289
13.19882 336
13.21893 301
13.23904 285
13.25916 313
13.27927 309
13.29938 279
13.3195 298
13.33961 285
13.35973 291
13.37984 308
13.39995 281
13.42007 265
13.44018 322
13.46029 297
13.48041 314
13.50052 333
13.52064 295
13.54075 288
13.56086 323
13.58098 376
13.60109 369
13.6212 326
13.64132 305
13.66143 329
13.68154 351
13.70166 384
13.72177 331
13.74189 315
13.762 371
13.78211 373
13.80223 363
13.82234 380
13.84245 400
13.86257 401
13.88268 370
13.9028 401
13.92291 376
13.94302 313
13.96314 372
13.98325 326
14.00336 322
14.02348 313
14.04359 293
14.06371 305
14.08382 305
14.10393 310
14.12405 280
14.14416 332
14.16427 275
14.18439 309
14.2045 284
14.22461 282
14.24473 247
14.26484 323
14.28496 302
14.30507 269
14.32518 293
14.3453 315
14.36541 271
14.38552 282
14.40564 291
14.42575 298
14.44587 282
14.46598 294
14.48609 268
14.50621 305
14.52632 304
14.54643 322
14.56655 275
14.58666 281
14.60677 314
14.62689 295
14.647 287
14.66712 270
14.68723 309
14.70734 289
14.72746 301
14.74757 306
14.76768 265
14.7878 301
14.80791 292
14.82803 304
14.84814 300
14.86825 320
14.88837 283
14.90848 334
14.92859 318
14.94871 333
14.96882 306
14.98894 330
15.00905 331
15.02916 341
15.04928 338
15.06939 324
15.0895 308
15.10962 324
15.12973 288
15.14984 294
15.16996 297
15.19007 294
15.21019 330
15.2303 303
15.25041 284
15.27053 276
15.29064 308
15.31075 275
15.33087 280
15.35098 271
15.3711 270
15.39121 285
15.41132 291
15.43144 295
15.45155 288
15.47166 289
15.49178 307
15.51189 272
15.53201 284
15.55212 296
15.57223 259
15.59235 259
15.61246 271
15.63257 272
15.65269 276
15.6728 290
15.69291 290
15.71303 293
15.73314 313
15.75326 326
15.77337 294
15.79348 276
15.8136 349
15.83371 273
15.85382 269
15.87394 262
15.89405 299
15.91417 319
15.93428 285
15.95439 300
15.97451 295
15.99462 311
16.01473 277
16.03485 309
16.05496 283
16.07508 259
16.09519 285
16.1153 284
16.13542 272
16.15553 284
16.17564 288
16.19576 270
16.21587 262
16.23598 261
16.2561 256
16.27621 275
16.29633 282
16.31644 280
16.33655 279
16.35667 281
16.37678 278
16.39689 239
16.41701 240
16.43712 265
16.45724 285
16.47735 267
16.49746 287
16.51758 276
16.53769 295
16.5578 300
16.57792 274
16.59803 298
16.61814 312
16.63826 268
16.65837 285
16.67849 284
16.6986 275
16.71871 272
16.73883 284
16.75894 303
16.77905 263
16.79917 282
16.81928 274
16.8394 283
16.85951 259
16.87962 271
16.89974 301
16.91985 263
16.93996 307
16.96008 263
16.98019 290
17.00031 275
17.02042 261
17.04053 266
17.06065 284
17.08076 303
17.10087 258
17.12099 299
17.1411 263
17.16121 264
17.18133 307
17.20144 263
17.22156 285
17.24167 244
17.26178 268
17.2819 276
17.30201 280
17.32212 284
17.34224 273
17.36235 290
17.38247 280
17.40258 291
17.42269 323
17.44281 303
17.46292 299
17.48303 249
17.50315 274
17.52326 307
17.54338 323
17.56349 328
17.5836 308
17.60372 320
17.62383 270
17.64394 313
17.66406 294
17.68417 315
17.70428 308
17.7244 320
17.74451 299
17.76463 294
17.78474 303
17.80485 271
17.82497 288
17.84508 298
17.86519 316
17.88531 306
17.90542 331
17.92554 297
17.94565 280
17.96576 280
17.98588 298
18.00599 300
18.0261 266
18.04622 295
18.06633 293
18.08645 297
18.10656 300
18.12667 306
18.14679 287
18.1669 285
18.18701 299
18.20713 270
18.22724 275
18.24735 324
18.26747 279
18.28758 289
18.3077 316
18.32781 288
18.34792 344
18.36804 316
18.38815 290
18.40826 316
18.42838 315
18.44849 308
18.46861 291
18.48872 313
18.50883 273
18.52895 311
18.54906 280
18.56917 303
18.58929 301
18.6094 299
18.62951 295
18.64963 276
18.66974 316
18.68986 292
18.70997 305
18.73008 284
18.7502 291
18.77031 294
18.79042 320
18.81054 336
18.83065 336
18.85077 318
18.87088 313
18.89099 315
18.91111 304
18.93122 302
18.95133 293
18.97145 319
18.99156 335
19.01168 310
19.03179 317
19.0519 293
19.07202 310
19.09213 322
19.11224 327
19.13236 287
19.15247 309
19.17258 295
19.1927 322
19.21281 329
19.23293 300
19.25304 382
19.27315 343
19.29327 342
19.31338 377
19.33349 369
19.35361 348
19.37372 338
19.39384 327
19.41395 326
19.43406 363
19.45418 361
19.47429 346
19.4944 370
19.51452 366
19.53463 385
19.55475 430
19.57486 418
19.59497 413
19.61509 464
19.6352 450
19.65531 465
19.67543 477
19.69554 466
19.71565 496
19.73577 500
19.75588 513
19.776 482
19.79611 505
19.81622 504
19.83634 483
19.85645 500
19.87656 508
19.89668 488
19.91679 469
19.93691 492
19.95702 426
19.97713 467
19.99725 469
20.01736 448
20.03747 451
20.05759 423
20.0777 444
20.09782 430
20.11793 470
20.13804 431
20.15816 428
20.17827 460
20.19838 455
20.2185 424
20.23861 460
20.25872 408
20.27884 438
20.29895 422
20.31907 483
20.33918 418
20.35929 446
20.37941 445
20.39952 427
20.41963 435
20.43975 444
20.45986 476
20.47998 442
20.50009 486
20.5202 531
20.54032 505
20.56043 478
20.58054 544
20.60066 587
20.62077 611
20.64088 712
20.661 859
20.68111 1054
20.70123 1265
20.72134 1724
20.74145 2098
20.76157 2595
20.78168 2986
20.80179 3507
20.82191 3582
20.84202 3519
20.86214 3328
20.88225 2840
20.90236 2235
20.92248 1660
20.94259 1342
20.9627 1028
20.98282 881
21.00293 714
21.02305 702
21.04316 677
21.06327 590
21.08339 552
21.1035 534
21.12361 540
21.14373 457
21.16384 470
21.18395 470
21.20407 443
21.22418 431
21.2443 456
21.26441 411
21.28452 416
21.30464 403
21.32475 406
21.34486 417
21.36498 413
21.38509 389
21.40521 425
21.42532 385
21.44543 379
21.46555 412
21.48566 368
21.50577 401
21.52589 399
21.546 379
21.56612 412
21.58623 395
21.60634 365
21.62646 401
21.64657 411
21.66668 403
21.6868 382
21.70691 400
21.72702 400
21.74714 411
21.76725 428
21.78737 435
21.80748 409
21.82759 432
21.84771 504
21.86782 581
21.88793 630
21.90805 659
21.92816 752
21.94828 798
21.96839 892
21.9885 870
22.00862 828
22.02873 813
22.04884 748
22.06896 661
22.08907 643
22.10919 488
22.1293 512
22.14941 488
22.16953 462
22.18964 405
22.20975 455
22.22987 447
22.24998 438
22.27009 403
22.29021 406
22.31032 421
22.33044 395
22.35055 412
22.37066 412
22.39078 383
22.41089 424
22.431 403
22.45112 403
22.47123 410
22.49135 399
22.51146 397
22.53157 410
22.55169 404
22.5718 372
22.59191 400
22.61203 392
22.63214 374
22.65225 392
22.67237 374
22.69248 375
22.7126 392
22.73271 378
22.75282 409
22.77294 409
22.79305 393
22.81316 431
22.83328 422
22.85339 421
22.87351 459
22.89362 433
22.91373 428
22.93385 452
22.95396 451
22.97407 472
22.99419 486
23.0143 433
23.03442 457
23.05453 453
23.07464 429
23.09476 452
23.11487 452
23.13498 472
23.1551 462
23.17521 418
23.19532 434
23.21544 459
23.23555 423
23.25567 384
23.27578 409
23.29589 374
23.31601 358
23.33612 428
23.35623 449
23.37635 429
23.39646 519
23.41658 496
23.43669 559
23.4568 572
23.47692 563
23.49703 609
23.51714 614
23.53726 710
23.55737 601
23.57749 676
23.5976 567
23.61771 565
23.63783 522
23.65794 549
23.67805 555
23.69817 480
23.71828 471
23.73839 526
23.75851 474
23.77862 511
23.79874 481
23.81885 531
23.83896 523
23.85908 492
23.87919 521
23.8993 522
23.91942 538
23.93953 563
23.95965 578
23.97976 557
23.99987 529
24.01999 579
24.0401 533
24.06021 574
24.08033 588
24.10044 604
24.12056 607
24.14067 641
24.16078 647
24.1809 661
24.20101 703
24.22112 681
24.24124 664
24.26135 704
24.28146 654
24.30158 607
24.32169 629
24.34181 622
24.36192 540
24.38203 460
24.40215 447
24.42226 424
24.44237 424
24.46249 432
24.4826 397
24.50272 442
24.52283 397
24.54294 418
24.56306 422
24.58317 410
24.60328 404
24.6234 407
24.64351 415
24.66362 390
24.68374 414
24.70385 408
24.72397 410
24.74408 402
24.76419 361
24.78431 384
24.80442 399
24.82453 392
24.84465 369
24.86476 380
24.88488 386
24.90499 379
24.9251 378
24.94522 419
24.96533 412
24.98544 376
25.00556 380
25.02567 393
25.04579 399
25.0659 386
25.08601 406
25.10613 396
25.12624 401
25.14635 416
25.16647 402
25.18658 393
25.20669 421
25.22681 415
25.24692 432
25.26704 461
25.28715 444
25.30726 520
25.32738 462
25.34749 526
25.3676 512
25.38772 542
25.40783 545
25.42795 537
25.44806 547
25.46817 517
25.48829 635
25.5084 566
25.52851 597
25.54863 605
25.56874 619
25.58886 636
25.60897 553
25.62908 579
25.6492 570
25.66931 583
25.68942 615
25.70954 524
25.72965 551
25.74976 538
25.76988 482
25.78999 540
25.81011 485
25.83022 505
25.85033 509
25.87045 510
25.89056 497
25.91067 517
25.93079 544
25.9509 490
25.97102 533
25.99113 507
26.01124 529
26.03136 614
26.05147 556
26.07158 598
26.0917 650
26.11181 630
26.13193 675
26.15204 701
26.17215 720
26.19227 771
26.21238 859
26.23249 898
26.25261 949
26.27272 1047
26.29283 1060
26.31295 1219
26.33306 1441
26.35318 1673
26.37329 1824
26.3934 2276
26.41352 2751
26.43363 3576
26.45374 4516
26.47386 6038
26.49397 7557
26.51409 9796
26.5342 11993
26.55431 13994
26.57443 15223
26.59454 16015
26.61465 15533
26.63477 13964
26.65488 11914
26.67499 9202
26.69511 6873
26.71522 4956
26.73534 3550
26.75545 2451
26.77556 1634
26.79568 1402
26.81579 1189
26.8359 1087
26.85602 1042
26.87613 1034
26.89625 952
26.91636 924
26.93647 889
26.95659 831
26.9767 855
26.99681 876
27.01693 821
27.03704 773
27.05716 814
27.07727 760
27.09738 696
27.1175 689
27.13761 664
27.15772 652
27.17784 630
27.19795 623
27.21806 634
27.23818 618
27.25829 703
27.27841 684
27.29852 695
27.31863 768
27.33875 784
27.35886 839
27.37897 801
27.39909 885
27.4192 947
27.43932 970
27.45943 910
27.47954 911
27.49966 866
27.51977 917
27.53988 751
27.56 827
27.58011 810
27.60023 859
27.62034 932
27.64045 965
27.66057 992
27.68068 1020
27.70079 1144
27.72091 1159
27.74102 1173
27.76113 1203
27.78125 1310
27.80136 1269
27.82148 1387
27.84159 1372
27.8617 1379
27.88182 1437
27.90193 1401
27.92204 1311
27.94216 1275
27.96227 1131
27.98239 1034
28.0025 1020
28.02261 857
28.04273 850
28.06284 771
28.08295 782
28.10307 729
28.12318 645
28.1433 663
28.16341 639
28.18352 696
28.20364 695
28.22375 663
28.24386 608
28.26398 619
28.28409 582
28.3042 495
28.32432 549
28.34443 526
28.36455 481
28.38466 489
28.40477 494
28.42489 467
28.445 454
28.46511 457
28.48523 433
28.50534 436
28.52546 444
28.54557 428
28.56568 417
28.5858 414
28.60591 421
28.62602 424
28.64614 366
28.66625 412
28.68636 409
28.70648 408
28.72659 379
28.74671 370
28.76682 395
28.78693 427
28.80705 402
28.82716 368
28.84727 399
28.86739 388
28.8875 350
28.90762 362
28.92773 370
28.94784 367
28.96796 414
28.98807 397
29.00818 391
29.0283 333
29.04841 370
29.06853 392
29.08864 412
29.10875 365
29.12887 355
29.14898 375
29.16909 366
29.18921 388
29.20932 373
29.22943 372
29.24955 374
29.26966 398
29.28978 347
29.30989 470
29.33 448
29.35012 424
29.37023 402
29.39034 459
29.41046 473
29.43057 475
29.45069 442
29.4708 406
29.49091 441
29.51103 424
29.53114 398
29.55125 443
29.57137 424
29.59148 430
29.6116 433
29.63171 418
29.65182 430
29.67194 445
29.69205 441
29.71216 486
29.73228 451
29.75239 444
29.7725 519
29.79262 501
29.81273 446
29.83285 488
29.85296 472
29.87307 456
29.89319 429
29.9133 458
29.93341 454
29.95353 501
29.97364 498
29.99376 483
30.01387 524
30.03398 510
30.0541 536
30.07421 568
30.09432 540
30.11444 550
30.13455 604
30.15467 577
30.17478 558
30.19489 536
30.21501 537
30.23512 534
30.25523 568
30.27535 546
30.29546 525
30.31557 511
30.33569 546
30.3558 537
30.37592 554
30.39603 551
30.41614 501
30.43626 536
30.45637 541
30.47648 513
30.4966 513
30.51671 469
30.53683 489
30.55694 462
30.57705 417
30.59717 471
30.61728 477
30.63739 486
30.65751 477
30.67762 484
30.69773 466
30.71785 486
30.73796 488
30.75808 515
30.77819 477
30.7983 532
30.81842 558
30.83853 529
30.85864 544
30.87876 520
30.89887 482
30.91899 467
30.9391 479
30.95921 455
30.97933 442
30.99944 452
31.01955 373
31.03967 401
31.05978 413
31.0799 401
31.10001 370
31.12012 392
31.14024 376
31.16035 410
31.18046 428
31.20058 413
31.22069 422
31.2408 383
31.26092 393
31.28103 366
31.30115 362
31.32126 416
31.34137 382
31.36149 396
31.3816 382
31.40171 395
31.42183 393
31.44194 371
31.46206 372
31.48217 405
31.50228 383
31.5224 350
31.54251 370
31.56262 333
31.58274 344
31.60285 321
31.62297 359
31.64308 338
31.66319 351
31.68331 357
31.70342 359
31.72353 336
31.74365 346
31.76376 337
31.78387 340
31.80399 361
31.8241 322
31.84422 342
31.86433 337
31.88444 327
31.90456 341
31.92467 359
31.94478 357
31.9649 327
31.98501 377
32.00513 346
32.02524 360
32.04535 403
32.06547 379
32.08558 346
32.10569 355
32.12581 348
32.14592 370
32.16604 365
32.18615 314
32.20626 377
32.22638 325
32.24649 367
32.2666 364
32.28672 354
32.30683 369
32.32694 371
32.34706 366
32.36717 397
32.38729 372
32.4074 387
32.42751 384
32.44763 429
32.46774 443
32.48785 416
32.50797 404
32.52808 397
32.5482 399
32.56831 371
32.58842 386
32.60854 383
32.62865 385
32.64876 391
32.66888 408
32.68899 389
32.7091 384
32.72922 356
32.74933 347
32.76945 327
32.78956 358
32.80967 362
32.82979 414
32.8499 361
32.87001 386
32.89013 403
32.91024 393
32.93036 422
32.95047 429
32.97058 363
32.9907 423
33.01081 412
33.03092 429
33.05104 392
33.07115 392
33.09127 404
33.11138 399
33.13149 319
33.15161 380
33.17172 386
33.19183 369
33.21195 401
33.23206 390
33.25217 362
33.27229 352
33.2924 357
33.31252 373
33.33263 369
33.35274 325
33.37286 371
33.39297 321
33.41308 336
33.4332 342
33.45331 352
33.47343 338
33.49354 325
33.51365 341
33.53377 327
33.55388 312
33.57399 343
33.59411 335
33.61422 352
33.63434 366
33.65445 325
33.67456 345
33.69468 332
33.71479 366
33.7349 357
33.75502 369
33.77513 387
33.79524 402
33.81536 417
33.83547 363
33.85559 380
33.8757 392
33.89581 382
33.91593 372
33.93604 370
33.95615 355
33.97627 393
33.99638 375
34.0165 367
34.03661 388
34.05672 374
34.07684 375
34.09695 392
34.11706 393
34.13718 400
34.15729 414
34.17741 426
34.19752 393
34.21763 415
34.23775 421
34.25786 391
34.27797 447
34.29809 458
34.3182 475
34.33831 476
34.35843 454
34.37854 490
34.39866 515
34.41877 525
34.43888 549
34.459 568
34.47911 547
34.49922 565
34.51934 566
34.53945 601
34.55957 631
34.57968 686
34.59979 708
34.61991 706
34.64002 762
34.66013 744
34.68025 723
34.70036 690
34.72047 679
34.74059 678
34.7607 690
34.78082 609
34.80093 601
34.82104 641
34.84116 530
34.86127 613
34.88138 624
34.9015 589
34.92161 522
34.94173 612
34.96184 582
34.98195 609
35.00207 557
35.02218 521
35.04229 554
35.06241 532
35.08252 544
35.10264 547
35.12275 515
35.14286 494
35.16298 501
35.18309 499
35.2032 517
35.22332 516
35.24343 503
35.26354 510
35.28366 522
35.30377 508
35.32389 536
35.344 516
35.36411 511
35.38423 485
35.40434 525
35.42445 549
35.44457 514
35.46468 519
35.4848 552
35.50491 548
35.52502 559
35.54514 521
35.56525 520
35.58536 494
35.60548 519
35.62559 512
35.64571 483
35.66582 438
35.68593 479
35.70605 474
35.72616 407
35.74627 473
35.76639 420
35.7865 438
35.80661 420
35.82673 416
35.84684 393
35.86696 436
35.88707 351
35.90718 429
35.9273 413
35.94741 378
35.96752 409
35.98764 412
36.00775 400
36.02787 381
36.04798 379
36.06809 410
36.08821 384
36.10832 399
36.12843 365
36.14855 397
36.16866 401
36.18878 450
36.20889 435
36.229 455
36.24912 456
36.26923 446
36.28934 517
36.30946 543
36.32957 620
36.34968 732
36.3698 828
36.38991 894
36.41003 1106
36.43014 1199
36.45025 1279
36.47037 1319
36.49048 1425
36.51059 1331
36.53071 1257
36.55082 1160
36.57094 1066
36.59105 954
36.61116 812
36.63128 651
36.65139 639
36.6715 614
36.69162 499
36.71173 459
36.73184 444
36.75196 506
36.77207 466
36.79219 435
36.8123 418
36.83241 441
36.85253 417
36.87264 440
36.89275 450
36.91287 460
36.93298 454
36.9531 437
36.97321 401
36.99332 452
37.01344 397
37.03355 412
37.05366 401
37.07378 402
37.09389 365
37.11401 387
37.13412 385
37.15423 389
37.17435 369
37.19446 404
37.21457 383
37.23469 358
37.2548 394
37.27491 394
37.29503 406
37.31514 392
37.33526 393
37.35537 363
37.37548 399
37.3956 391
37.41571 414
37.43582 393
37.45594 408
37.47605 387
37.49617 398
37.51628 378
37.53639 389
37.55651 401
37.57662 410
37.59673 413
37.61685 454
37.63696 415
37.65708 416
37.67719 402
37.6973 376
37.71742 377
37.73753 366
37.75764 382
37.77776 416
37.79787 358
37.81798 347
37.8381 343
37.85821 353
37.87833 337
37.89844 372
37.91855 331
37.93867 372
37.95878 398
37.97889 369
37.99901 362
38.01912 374
38.03924 416
38.05935 355
38.07946 391
38.09958 356
38.11969 381
38.1398 388
38.15992 366
38.18003 422
38.20015 361
38.22026 350
38.24037 360
38.26049 342
38.2806 366
38.30071 352
38.32083 364
38.34094 324
38.36105 347
38.38117 346
38.40128 377
38.4214 350
38.44151 350
38.46162 384
38.48174 381
38.50185 371
38.52196 358
38.54208 339
38.56219 359
38.58231 385
38.60242 344
38.62253 361
38.64265 328
38.66276 359
38.68287 359
38.70299 342
38.7231 365
38.74321 338
38.76333 348
38.78344 370
38.80356 366
38.82367 349
38.84378 358
38.8639 356
38.88401 372
38.90412 376
38.92424 335
38.94435 366
38.96447 328
38.98458 384
39.00469 340
39.02481 368
39.04492 360
39.06503 363
39.08515 396
39.10526 384
39.12538 375
39.14549 401
39.1656 408
39.18572 476
39.20583 455
39.22594 551
39.24606 552
39.26617 668
39.28628 751
39.3064 826
39.32651 929
39.34663 1095
39.36674 1165
39.38685 1170
39.40697 1301
39.42708 1252
39.44719 1187
39.46731 1067
39.48742 1003
39.50754 890
39.52765 769
39.54776 683
39.56788 629
39.58799 591
39.6081 492
39.62822 457
39.64833 411
39.66845 410
39.68856 423
39.70867 381
39.72879 373
39.7489 411
39.76901 373
39.78913 358
39.80924 377
39.82935 381
39.84947 405
39.86958 373
39.8897 395
39.90981 397
39.92992 386
39.95004 358
39.97015 376
39.99026 407
40.01038 403
40.03049 390
40.05061 422
40.07072 480
40.09083 492
40.11095 560
40.13106 562
40.15117 673
40.17129 716
40.1914 781
40.21152 759
40.23163 822
40.25174 757
40.27186 736
40.29197 718
40.31208 654
40.3322 605
40.35231 570
40.37242 539
40.39254 490
40.41265 454
40.43277 390
40.45288 405
40.47299 378
40.49311 357
40.51322 348
40.53333 370
40.55345 341
40.57356 310
40.59368 336
40.61379 362
40.6339 322
40.65402 349
40.67413 361
40.69424 312
40.71436 342
40.73447 346
40.75458 307
40.7747 337
40.79481 343
40.81493 327
40.83504 318
40.85515 368
40.87527 320
40.89538 328
40.91549 310
40.93561 361
40.95572 366
40.97584 337
40.99595 333
41.01606 339
41.03618 364
41.05629 361
41.0764 358
41.09652 362
41.11663 390
41.13675 366
41.15686 351
41.17697 310
41.19709 380
41.2172 343
41.23731 362
41.25743 353
41.27754 368
41.29765 352
41.31777 343
41.33788 320
41.358 356
41.37811 329
41.39822 361
41.41834 356
41.43845 352
41.45856 360
41.47868 364
41.49879 333
41.51891 363
41.53902 359
41.55913 388
41.57925 365
41.59936 395
41.61947 394
41.63959 418
41.6597 427
41.67982 435
41.69993 414
41.72004 398
41.74016 421
41.76027 403
41.78038 436
41.8005 413
41.82061 383
41.84072 396
41.86084 383
41.88095 372
41.90107 378
41.92118 383
41.94129 324
41.96141 341
41.98152 352
42.00163 356
42.02175 346
42.04186 396
42.06198 394
42.08209 377
42.1022 390
42.12232 388
42.14243 388
42.16254 432
42.18266 469
42.20277 511
42.22289 518
42.243 563
42.26311 671
42.28323 705
42.30334 762
42.32345 859
42.34357 915
42.36368 1015
42.38379 974
42.40391 1046
42.42402 971
42.44414 949
42.46425 848
42.48436 755
42.50448 700
42.52459 615
42.5447 592
42.56482 524
42.58493 473
42.60505 431
42.62516 414
42.64527 436
42.66539 424
42.6855 399
42.70561 391
42.72573 442
42.74584 389
42.76595 377
42.78607 409
42.80618 367
42.8263 372
42.84641 383
42.86652 352
42.88664 366
42.90675 330
42.92686 384
42.94698 332
42.96709 352
42.98721 323
43.00732 293
43.02743 340
43.04755 299
43.06766 329
43.08777 321
43.10789 304
43.128 319
43.14812 351
43.16823 314
43.18834 336
43.20846 318
43.22857 308
43.24868 333
43.2688 332
43.28891 322
43.30902 318
43.32914 323
43.34925 351
43.36937 309
43.38948 314
43.40959 284
43.42971 355
43.44982 306
43.46993 312
43.49005 320
43.51016 313
43.53028 295
43.55039 300
43.5705 311
43.59062 330
43.61073 309
43.63084 316
43.65096 321
43.67107 318
43.69119 292
43.7113 298
43.73141 300
43.75153 303
43.77164 283
43.79175 287
43.81187 317
43.83198 316
43.85209 311
43.87221 297
43.89232 326
43.91244 301
43.93255 294
43.95266 303
43.97278 280
43.99289 323
44.013 298
44.03312 338
44.05323 291
44.07335 320
44.09346 318
44.11357 272
44.13369 302
44.1538 311
44.17391 323
44.19403 306
44.21414 328
44.23426 344
44.25437 322
44.27448 313
44.2946 300
44.31471 299
44.33482 280
44.35494 325
44.37505 309
44.39516 301
44.41528 300
44.43539 313
44.45551 289
44.47562 312
44.49573 285
44.51585 319
44.53596 312
44.55607 307
44.57619 306
44.5963 327
44.61642 293
44.63653 326
44.65664 335
44.67676 317
44.69687 339
44.71698 327
44.7371 296
44.75721 313
44.77732 322
44.79744 338
44.81755 333
44.83767 316
44.85778 298
44.87789 310
44.89801 315
44.91812 371
44.93823 318
44.95835 305
44.97846 309
44.99858 328
45.01869 324
45.0388 316
45.05892 357
45.07903 313
45.09914 340
45.11926 322
45.13937 342
45.15949 346
45.1796 321
45.19971 321
45.21983 322
45.23994 328
45.26005 324
45.28017 366
45.30028 341
45.32039 354
45.34051 339
45.36062 368
45.38074 331
45.40085 361
45.42096 357
45.44108 353
45.46119 389
45.4813 400
45.50142 390
45.52153 410
45.54165 465
45.56176 432
45.58187 484
45.60199 545
45.6221 572
45.64221 652
45.66233 665
45.68244 732
45.70256 740
45.72267 781
45.74278 736
45.7629 713
45.78301 693
45.80312 637
45.82324 621
45.84335 547
45.86346 525
45.88358 476
45.90369 465
45.92381 427
45.94392 398
45.96403 362
45.98415 339
46.00426 344
46.02437 339
46.04449 330
46.0646 311
46.08472 335
46.10483 320
46.12494 305
46.14506 326
46.16517 311
46.18528 334
46.2054 307
46.22551 311
46.24563 290
46.26574 299
46.28585 290
46.30597 315
46.32608 309
46.34619 311
46.36631 299
46.38642 292
46.40653 337
46.42665 261
46.44676 321
46.46688 314
46.48699 290
46.5071 293
46.52722 289
46.54733 325
46.56744 284
46.58756 281
46.60767 321
46.62779 287
46.6479 307
46.66801 314
46.68813 287
46.70824 331
46.72835 260
46.74847 291
46.76858 300
46.78869 299
46.80881 295
46.82892 300
46.84904 289
46.86915 333
46.88926 340
46.90938 328
46.92949 344
46.9496 332
46.96972 280
46.98983 334
47.00995 317
47.03006 318
47.05017 320
47.07029 337
47.0904 284
47.11051 336
47.13063 349
47.15074 309
47.17086 287
47.19097 292
47.21108 308
47.2312 304
47.25131 304
47.27142 314
47.29154 291
47.31165 307
47.33176 289
47.35188 292
47.37199 342
47.39211 342
47.41222 272
47.43233 268
47.45245 309
47.47256 253
47.49267 332
47.51279 306
47.5329 313
47.55302 306
47.57313 283
47.59324 295
47.61336 326
47.63347 320
47.65358 304
47.6737 319
47.69381 291
47.71393 299
47.73404 267
47.75415 301
47.77427 339
47.79438 298
47.81449 315
47.83461 329
47.85472 340
47.87483 293
47.89495 315
47.91506 343
47.93518 335
47.95529 322
47.9754 315
47.99552 340
48.01563 325
48.03574 335
48.05586 321
48.07597 341
48.09609 355
48.1162 342
48.13631 317
48.15643 322
48.17654 331
48.19665 279
48.21677 338
48.23688 359
48.257 368
48.27711 346
48.29722 366
48.31734 334
48.33745 348
48.35756 382
48.37768 349
48.39779 345
48.4179 347
48.43802 344
48.45813 385
48.47825 374
48.49836 395
48.51847 364
48.53859 382
48.5587 341
48.57881 366
48.59893 351
48.61904 350
48.63916 373
48.65927 335
48.67938 344
48.6995 329
48.71961 327
48.73972 326
48.75984 338
48.77995 348
48.80006 328
48.82018 357
48.84029 350
48.86041 338
48.88052 360
48.90063 330
48.92075 348
48.94086 363
48.96097 326
48.98109 340
49.0012 321
49.02132 375
49.04143 327
49.06154 369
49.08166 386
49.10177 360
49.12188 396
49.142 375
49.16211 336
49.18223 376
49.20234 375
49.22245 341
49.24257 359
49.26268 367
49.28279 353
49.30291 375
49.32302 340
49.34313 340
49.36325 380
49.38336 352
49.40348 372
49.42359 356
49.4437 365
49.46382 371
49.48393 355
49.50404 359
49.52416 380
49.54427 399
49.56439 328
49.5845 380
49.60461 392
49.62473 409
49.64484 363
49.66495 441
49.68507 449
49.70518 432
49.7253 458
49.74541 483
49.76552 482
49.78564 491
49.80575 588
49.82586 585
49.84598 653
49.86609 698
49.8862 738
49.90632 810
49.92643 934
49.94655 1051
49.96666 1225
49.98677 1404
50.00689 1641
50.027 1783
50.04711 1825
50.06723 1926
50.08734 1883
50.10746 1795
50.12757 1634
50.14768 1500
50.1678 1234
50.18791 1164
50.20802 1083
50.22814 972
50.24825 873
50.26837 738
50.28848 627
50.30859 537
50.32871 492
50.34882 436
50.36893 462
50.38905 443
50.40916 420
50.42927 424
50.44939 442
50.4695 426
50.48962 478
50.50973 453
50.52984 436
50.54996 487
50.57007 461
50.59018 465
50.6103 452
50.63041 429
50.65053 433
50.67064 417
50.69075 382
50.71087 352
50.73098 400
50.75109 345
50.77121 375
50.79132 322
50.81143 365
50.83155 374
50.85166 328
50.87178 320
50.89189 307
50.912 342
50.93212 348
50.95223 338
50.97234 359
50.99246 319
51.01257 317
51.03269 354
51.0528 358
51.07291 343
51.09303 361
51.11314 340
51.13325 365
51.15337 328
51.17348 332
51.1936 334
51.21371 327
51.23382 333
51.25394 361
51.27405 338
51.29416 339
51.31428 314
51.33439 325
51.3545 334
51.37462 306
51.39473 303
51.41485 298
51.43496 259
51.45507 308
51.47519 289
51.4953 290
51.51541 278
51.53553 325
51.55564 307
51.57576 329
51.59587 308
51.61598 304
51.6361 288
51.65621 308
51.67632 301
51.69644 267
51.71655 303
51.73667 276
51.75678 296
51.77689 298
51.79701 268
51.81712 296
51.83723 279
51.85735 291
51.87746 287
51.89757 305
51.91769 268
51.9378 299
51.95792 301
51.97803 301
51.99814 269
52.01826 293
52.03837 326
52.05848 294
52.0786 280
52.09871 283
52.11883 287
52.13894 314
52.15905 281
52.17917 350
52.19928 313
52.21939 307
52.23951 316
52.25962 288
52.27974 306
52.29985 297
52.31996 295
52.34008 301
52.36019 321
52.3803 298
52.40042 299
52.42053 337
52.44064 332
52.46076 303
52.48087 285
52.50099 314
52.5211 301
52.54121 317
52.56133 311
52.58144 313
52.60155 355
52.62167 320
52.64178 293
52.6619 305
52.68201 308
52.70212 319
52.72224 348
52.74235 303
52.76246 330
52.78258 323
52.80269 325
52.8228 290
52.84292 308
52.86303 322
52.88315 308
52.90326 351
52.92337 315
52.94349 318
52.9636 312
52.98371 328
53.00383 354
53.02394 322
53.04406 359
53.06417 374
53.08428 350
53.1044 381
53.12451 398
53.14462 354
53.16474 343
53.18485 359
53.20497 362
53.22508 340
53.24519 347
53.26531 347
53.28542 336
53.30553 332
53.32565 366
53.34576 325
53.36587 322
53.38599 340
53.4061 325
53.42622 337
53.44633 291
53.46644 336
53.48656 311
53.50667 331
53.52678 299
53.5469 286
53.56701 330
53.58713 293
53.60724 302
53.62735 315
53.64747 337
53.66758 353
53.68769 317
53.70781 322
53.72792 335
53.74804 334
53.76815 331
53.78826 332
53.80838 318
53.82849 330
53.8486 328
53.86872 324
53.88883 357
53.90894 312
53.92906 328
53.94917 326
53.96929 365
53.9894 357
54.00951 332
54.02963 341
54.04974 343
54.06985 387
54.08997 328
54.11008 313
54.1302 369
54.15031 349
54.17042 351
54.19054 384
54.21065 368
54.23076 344
54.25088 330
54.27099 362
54.29111 322
54.31122 364
54.33133 344
54.35145 349
54.37156 339
54.39167 350
54.41179 355
54.4319 360
54.45201 374
54.47213 370
54.49224 369
54.51236 370
54.53247 355
54.55258 381
54.5727 399
54.59281 433
54.61292 441
54.63304 430
54.65315 473
54.67327 520
54.69338 591
54.71349 627
54.73361 688
54.75372 739
54.77383 761
54.79395 758
54.81406 784
54.83417 710
54.85429 775
54.8744 730
54.89452 684
54.91463 606
54.93474 583
54.95486 573
54.97497 552
54.99508 544
55.0152 484
55.03531 521
55.05543 449
55.07554 409
55.09565 448
55.11577 452
55.13588 469
55.15599 482
55.17611 473
55.19622 504
55.21634 524
55.23645 494
55.25656 519
55.27668 498
55.29679 498
55.3169 451
55.33702 459
55.35713 448
55.37724 436
55.39736 365
55.41747 412
55.43759 390
55.4577 372
55.47781 368
55.49793 384
55.51804 318
55.53815 370
55.55827 328
55.57838 363
55.5985 334
55.61861 329
55.63872 315
55.65884 305
55.67895 327
55.69906 316
55.71918 316
55.73929 311
55.75941 333
55.77952 356
55.79963 318
55.81975 297
55.83986 296
55.85997 312
55.88009 302
55.9002 314
55.92031 306
55.94043 285
55.96054 306
55.98066 319
56.00077 312
56.02088 326
56.041 284
56.06111 312
56.08122 308
56.10134 303
56.12145 341
56.14157 312
56.16168 318
56.18179 298
56.20191 292
56.22202 310
56.24213 328
56.26225 328
56.28236 308
56.30248 289
56.32259 316
56.3427 321
56.36282 336
56.38293 328
56.40304 275
56.42316 302
56.44327 296
56.46338 309
56.4835 321
56.50361 296
56.52373 332
56.54384 299
56.56395 301
56.58407 289
56.60418 322
56.62429 324
56.64441 324
56.66452 315
56.68464 312
56.70475 314
56.72486 336
56.74498 323
56.76509 328
56.7852 335
56.80532 292
56.82543 315
56.84554 305
56.86566 302
56.88577 311
56.90589 333
56.926 297
56.94611 313
56.96623 324
56.98634 277
57.00645 319
57.02657 323
57.04668 303
57.0668 315
57.08691 331
57.10702 359
57.12714 306
57.14725 340
57.16736 375
57.18748 353
57.20759 335
57.22771 334
57.24782 356
57.26793 358
57.28805 355
57.30816 360
57.32827 361
57.34839 372
57.3685 336
57.38861 386
57.40873 355
57.42884 380
57.44896 365
57.46907 345
57.48918 344
57.5093 334
57.52941 354
57.54952 329
57.56964 339
57.58975 353
57.60987 317
57.62998 305
57.65009 330
57.67021 295
57.69032 350
57.71043 297
57.73055 303
57.75066 325
57.77078 291
57.79089 316
57.811 313
57.83112 303
57.85123 339
57.87134 300
57.89146 317
57.91157 313
57.93168 284
57.9518 321
57.97191 331
57.99203 325
58.01214 310
58.03225 322
58.05237 289
58.07248 329
58.09259 281
58.11271 326
58.13282 307
58.15294 313
58.17305 311
58.19316 290
58.21328 291
58.23339 316
58.2535 323
58.27362 290
58.29373 321
58.31385 303
58.33396 363
58.35407 321
58.37419 301
58.3943 319
58.41441 319
58.43453 316
58.45464 306
58.47475 311
58.49487 303
58.51498 307
58.5351 320
58.55521 327
58.57532 297
58.59544 308
58.61555 315
58.63566 340
58.65578 344
58.67589 323
58.69601 322
58.71612 333
58.73623 328
58.75635 325
58.77646 316
58.79657 300
58.81669 310
58.8368 320
58.85691 332
58.87703 307
58.89714 316
58.91726 330
58.93737 299
58.95748 323
58.9776 295
58.99771 284
59.01782 303
59.03794 315
59.05805 325
59.07817 287
59.09828 311
59.11839 342
59.13851 319
59.15862 303
59.17873 322
59.19885 350
59.21896 336
59.23908 315
59.25919 336
59.2793 331
59.29942 320
59.31953 341
59.33964 323
59.35976 329
59.37987 332
59.39998 380
59.4201 333
59.44021 370
59.46033 364
59.48044 391
59.50055 347
59.52067 370
59.54078 394
59.56089 380
59.58101 405
59.60112 442
59.62124 455
59.64135 457
59.66146 530
59.68158 551
59.70169 631
59.7218 718
59.74192 775
59.76203 914
59.78215 1003
59.80226 1104
59.82237 1215
59.84249 1260
59.8626 1432
59.88271 1327
59.90283 1356
59.92294 1241
59.94305 1165
59.96317 967
59.98328 955
60.0034 880
60.02351 864
60.04362 878
60.06374 813
60.08385 676
60.10396 661
60.12408 546
60.14419 493
60.16431 413
60.18442 378
60.20453 391
60.22465 363
60.24476 363
60.26487 360
60.28499 357
60.3051 354
60.32522 335
60.34533 356
60.36544 351
60.38556 326
60.40567 333
60.42578 341
60.4459 365
60.46601 327
60.48612 330
60.50624 338
60.52635 300
60.54647 333
60.56658 327
60.58669 332
60.60681 340
60.62692 343
60.64703 338
60.66715 295
60.68726 321
60.70738 356
60.72749 295
60.7476 326
60.76772 338
60.78783 343
60.80794 329
60.82806 318
60.84817 281
60.86828 290
60.8884 326
60.90851 341
60.92863 316
60.94874 282
60.96885 285
60.98897 333
61.00908 311
61.02919 319
61.04931 343
61.06942 336
61.08954 339
61.10965 354
61.12976 311
61.14988 318
61.16999 337
61.1901 316
61.21022 349
61.23033 346
61.25045 382
61.27056 373
61.29067 359
61.31079 372
61.3309 375
61.35101 378
61.37113 324
61.39124 353
61.41135 390
61.43147 381
61.45158 364
61.4717 382
61.49181 358
61.51192 378
61.53204 383
61.55215 357
61.57226 372
61.59238 380
61.61249 389
61.63261 362
61.65272 364
61.67283 402
61.69295 325
61.71306 357
61.73317 352
61.75329 345
61.7734 337
61.79352 334
61.81363 379
61.83374 381
61.85386 344
61.87397 390
61.89408 338
61.9142 338
61.93431 345
61.95442 329
61.97454 364
61.99465 334
62.01477 340
62.03488 346
62.05499 335
62.07511 343
62.09522 310
62.11533 351
62.13545 326
62.15556 335
62.17568 335
62.19579 350
62.2159 335
62.23602 363
62.25613 328
62.27624 324
62.29636 328
62.31647 328
62.33659 317
62.3567 336
62.37681 318
62.39693 341
62.41704 313
62.43715 303
62.45727 369
62.47738 327
62.49749 323
62.51761 324
62.53772 315
62.55784 312
62.57795 347
62.59806 319
62.61818 293
62.63829 307
62.6584 320
62.67852 319
62.69863 309
62.71875 290
62.73886 295
62.75897 345
62.77909 298
62.7992 322
62.81931 319
62.83943 305
62.85954 330
62.87965 296
62.89977 323
62.91988 323
62.94 317
62.96011 310
62.98022 328
63.00034 306
63.02045 315
63.04056 300
63.06068 297
63.08079 331
63.10091 312
63.12102 286
63.14113 345
63.16125 336
63.18136 316
63.20147 334
63.22159 321
63.2417 319
63.26182 340
63.28193 295
63.30204 284
63.32216 312
63.34227 324
63.36238 366
63.3825 336
63.40261 340
63.42272 344
63.44284 333
63.46295 351
63.48307 345
63.50318 331
63.52329 329
63.54341 329
63.56352 335
63.58363 361
63.60375 340
63.62386 375
63.64398 359
63.66409 353
63.6842 390
63.70432 380
63.72443 367
63.74454 371
63.76466 393
63.78477 429
63.80489 427
63.825 406
63.84511 452
63.86523 450
63.88534 467
63.90545 499
63.92557 510
63.94568 479
63.96579 535
63.98591 504
64.00602 486
64.02614 430
64.04625 434
64.06636 435
64.08648 387
64.10659 424
64.1267 392
64.14682 381
64.16693 424
64.18705 359
64.20716 370
64.22727 335
64.24739 350
64.2675 309
64.28761 318
64.30773 320
64.32784 335
64.34796 292
64.36807 312
64.38818 295
64.4083 332
64.42841 305
64.44852 310
64.46864 308
64.48875 306
64.50886 335
64.52898 279
64.54909 298
64.56921 302
64.58932 304
64.60943 319
64.62955 327
64.64966 343
64.66977 305
64.68989 298
64.71 300
64.73012 317
64.75023 312
64.77034 328
64.79046 300
64.81057 313
64.83068 295
64.8508 296
64.87091 310
64.89102 317
64.91114 280
64.93125 317
64.95137 314
64.97148 295
64.99159 331
65.01171 332
65.03182 296
65.05193 299
65.07205 301
65.09216 329
65.11228 323
65.13239 329
65.1525 320
65.17262 324
65.19273 291
65.21284 302
65.23296 313
65.25307 325
65.27319 314
65.2933 314
65.31341 312
65.33353 299
65.35364 352
65.37375 316
65.39387 310
65.41398 332
65.43409 308
65.45421 315
65.47432 308
65.49444 311
65.51455 302
65.53466 320
65.55478 330
65.57489 330
65.595 319
65.61512 323
65.63523 308
65.65535 338
65.67546 335
65.69557 308
65.71569 332
65.7358 332
65.75591 314
65.77603 333
65.79614 323
65.81626 307
65.83637 310
65.85648 322
65.8766 318
65.89671 354
65.91682 331
65.93694 268
65.95705 290
65.97716 291
65.99728 279
66.01739 309
66.03751 328
66.05762 305
66.07773 324
66.09785 289
66.11796 272
66.13807 328
66.15819 317
66.1783 287
66.19842 300
66.21853 282
66.23864 282
66.25876 308
66.27887 286
66.29898 319
66.3191 299
66.33921 278
66.35933 301
66.37944 277
66.39955 299
66.41967 241
66.43978 291
66.45989 266
66.48001 306
66.50012 289
66.52023 277
66.54035 312
66.56046 270
66.58058 284
66.60069 295
66.6208 275
66.64092 294
66.66103 286
66.68114 268
66.70126 288
66.72137 287
66.74149 258
66.7616 289
66.78171 292
66.80183 278
66.82194 283
66.84205 293
66.86217 275
66.88228 271
66.90239 271
66.92251 312
66.94262 292
66.96274 309
66.98285 309
67.00296 324
67.02308 333
67.04319 310
67.0633 281
67.08342 311
67.10353 313
67.12365 325
67.14376 318
67.16387 300
67.18399 295
67.2041 355
67.22421 333
67.24433 350
67.26444 336
67.28456 344
67.30467 319
67.32478 356
67.3449 321
67.36501 369
67.38512 357
67.40524 359
67.42535 408
67.44546 446
67.46558 425
67.48569 516
67.50581 477
67.52592 582
67.54603 607
67.56615 643
67.58626 763
67.60637 759
67.62649 820
67.6466 868
67.66672 864
67.68683 850
67.70694 832
67.72706 766
67.74717 760
67.76728 667
67.7874 708
67.80751 692
67.82763 681
67.84774 735
67.86785 732
67.88797 795
67.90808 762
67.92819 817
67.94831 781
67.96842 884
67.98853 973
68.00865 1091
68.02876 1000
68.04888 1210
68.06899 1133
68.0891 1082
68.10922 1097
68.12933 1059
68.14944 1055
68.16956 1045
68.18967 1065
68.20979 1010
68.2299 1104
68.25001 999
68.27013 959
68.29024 928
68.31035 796
68.33047 746
68.35058 624
68.3707 662
68.39081 562
68.41092 585
68.43104 551
68.45115 512
68.47126 458
68.49138 450
68.51149 407
68.5316 394
68.55172 342
68.57183 339
68.59195 317
68.61206 338
68.63217 336
68.65229 319
68.6724 313
68.69251 298
68.71263 295
68.73274 315
68.75286 273
68.77297 265
68.79308 309
68.8132 307
68.83331 315
68.85342 312
68.87354 285
68.89365 284
68.91376 285
68.93388 326
68.95399 284
68.97411 292
68.99422 291
69.01433 320
69.03445 309
69.05456 285
69.07467 284
69.09479 315
69.1149 320
69.13502 297
69.15513 309
69.17524 339
69.19536 326
69.21547 320
69.23558 311
69.2557 312
69.27581 309
69.29593 288
69.31604 311
69.33615 346
69.35627 310
69.37638 326
69.39649 319
69.41661 341
69.43672 298
69.45683 326
69.47695 344
69.49706 329
69.51718 325
69.53729 317
69.5574 281
69.57752 319
69.59763 311
69.61774 317
69.63786 305
69.65797 299
69.67809 295
69.6982 322
69.71831 315
69.73843 281
69.75854 277
69.77865 294
69.79877 295
69.81888 316
69.839 322
69.85911 292
69.87922 285
69.89934 324
69.91945 305
69.93956 279
69.95968 297
69.97979 316
69.9999 295
70.02002 300
70.04013 298
70.06025 302
70.08036 292
70.10047 292
70.12059 325
70.1407 294
70.16081 284
70.18093 285
70.20104 284
70.22116 272
70.24127 268
70.26138 293
70.2815 279
70.30161 276
70.32172 256
70.34184 277
70.36195 254
70.38207 267
70.40218 297
70.42229 283
70.44241 278
70.46252 281
70.48263 272
70.50275 306
70.52286 279
70.54297 274
70.56309 280
70.5832 268
70.60332 308
70.62343 274
70.64354 296
70.66366 267
70.68377 277
70.70388 287
70.724 286
70.74411 281
70.76423 256
70.78434 298
70.80445 244
70.82457 278
70.84468 265
70.86479 244
70.88491 286
70.90502 288
70.92513 294
70.94525 293
70.96536 246
70.98548 301
71.00559 257
71.0257 282
71.04582 288
71.06593 267
71.08604 290
71.10616 248
71.12627 284
71.14639 280
71.1665 277
71.18661 248
71.20673 299
71.22684 285
71.24695 290
71.26707 264
71.28718 271
71.3073 277
71.32741 289
71.34752 283
71.36764 283
71.38775 276
71.40786 292
71.42798 303
71.44809 276
71.4682 307
71.48832 294
71.50843 268
71.52855 297
71.54866 297
71.56877 266
71.58889 275
71.609 292
71.62911 289
71.64923 296
71.66934 261
71.68946 324
71.70957 268
71.72968 304
71.7498 262
71.76991 275
71.79002 309
71.81014 286
71.83025 261
71.85037 301
71.87048 272
71.89059 279
71.91071 298
71.93082 267
71.95093 300
71.97105 296
71.99116 263
72.01127 276
72.03139 281
72.0515 295
72.07162 298
72.09173 307
72.11184 291
72.13196 286
72.15207 300
72.17218 279
72.1923 293
72.21241 281
72.23253 319
72.25264 265
72.27275 262
72.29287 291
72.31298 314
72.33309 285
72.35321 310
72.37332 278
72.39344 263
72.41355 303
72.43366 293
72.45378 279
72.47389 278
72.494 311
72.51412 284
72.53423 288
72.55434 279
72.57446 304
72.59457 305
72.61469 296
72.6348 291
72.65491 291
72.67503 231
72.69514 293
72.71525 315
72.73537 308
72.75548 295
72.7756 328
72.79571 291
72.81582 314
72.83594 290
72.85605 305
72.87616 295
72.89628 304
72.91639 290
72.9365 317
72.95662 324
72.97673 319
72.99685 281
73.01696 338
73.03707 332
73.05719 342
73.0773 307
73.09741 345
73.11753 322
73.13764 355
73.15776 341
73.17787 335
73.19798 376
73.2181 341
73.23821 392
73.25832 389
73.27844 436
73.29855 445
73.31867 478
73.33878 506
73.35889 506
73.37901 479
73.39912 515
73.41923 457
73.43935 490
73.45946 433
73.47957 414
73.49969 369
73.5198 389
73.53992 387
73.56003 384
73.58014 344
73.60026 380
73.62037 396
73.64048 390
73.6606 363
73.68071 341
73.70083 326
73.72094 302
73.74105 324
73.76117 285
73.78128 277
73.80139 294
73.82151 280
73.84162 314
73.86174 263
73.88185 302
73.90196 268
73.92208 283
73.94219 295
73.9623 272
73.98242 267
74.00253 285
74.02264 290
74.04276 267
74.06287 292
74.08299 302
74.1031 292
74.12321 279
74.14333 297
74.16344 285
74.18355 288
74.20367 279
74.22378 275
74.2439 288
74.26401 293
74.28412 257
74.30424 291
74.32435 278
74.34446 291
74.36458 299
74.38469 300
74.40481 291
74.42492 262
74.44503 285
74.46515 298
74.48526 277
74.50537 278
74.52549 302
74.5456 285
74.56571 300
74.58583 289
74.60594 297
74.62606 275
74.64617 309
74.66628 283
74.6864 272
74.70651 315
74.72662 285
74.74674 274
74.76685 292
74.78697 292
74.80708 322
74.82719 330
74.84731 265
74.86742 306
74.88753 305
74.90765 309
74.92776 255
74.94787 286
74.96799 291
74.9881 287
75.00822 319
