3.00117 21118
3.02128 20903
3.0414 19961
3.06151 19738
3.08162 19001
3.10174 18301
3.12185 17554
3.14197 17175
3.16208 16733
3.18219 16446
3.20231 16136
3.22242 15679
3.24253 14750
3.26265 14627
3.28276 14364
3.30288 13471
3.32299 13348
3.3431 12863
3.36322 12489
3.38333 12179
3.40344 11545
3.42356 11230
3.44367 10771
3.46379 10533
3.4839 10139
3.50401 9601
3.52413 9557
3.54424 9166
3.56435 8840
3.58447 8563
3.60458 8063
3.62469 7829
3.64481 7564
3.66492 7418
3.68504 6872
3.70515 6690
3.72526 6553
3.74538 6132
3.76549 6001
3.7856 5817
3.80572 5376
3.82583 5377
3.84595 5113
3.86606 4999
3.88617 4700
3.90629 4307
3.9264 4304
3.94651 4109
3.96663 3831
3.98674 3728
4.00686 3629
4.02697 3559
4.04708 3345
4.0672 3078
4.08731 2978
4.10742 2916
4.12754 2790
4.14765 2644
4.16776 2508
4.18788 2391
4.20799 2327
4.22811 2312
4.24822 2222
4.26833 2062
4.28845 2007
4.30856 1946
4.32867 1974
4.34879 1911
4.3689 1785
4.38902 1716
4.40913 1641
4.42924 1677
4.44936 1674
4.46947 1568
4.48958 1527
4.5097 1515
4.52981 1440
4.54992 1499
4.57004 1313
4.59015 1318
4.61027 1250
4.63038 1299
4.65049 1276
4.67061 1259
4.69072 1136
4.71083 1122
4.73095 1105
4.75106 1149
4.77118 1053
4.79129 1004
4.8114 964
4.83152 986
4.85163 1090
4.87174 944
4.89186 975
4.91197 967
4.93209 859
4.9522 900
4.97231 916
4.99243 899
5.01254 880
5.03265 848
5.05277 878
5.07288 745
5.09299 818
5.11311 769
5.13322 747
5.15334 772
5.17345 678
5.19356 717
5.21368 697
5.23379 695
5.2539 724
5.27402 638
5.29413 688
5.31425 647
5.33436 592
5.35447 615
5.37459 578
5.3947 582
5.41481 562
5.43493 585
5.45504 585
5.47516 533
5.49527 438
5.51538 511
5.5355 521
5.55561 525
5.57572 485
5.59584 521
5.61595 510
5.63606 506
5.65618 450
5.67629 456
5.69641 447
5.71652 452
5.73663 434
5.75675 402
5.77686 433
5.79697 437
5.81709 390
5.8372 397
5.85732 382
5.87743 427
5.89754 408
5.91766 395
5.93777 392
5.95788 384
5.978 345
5.99811 372
6.01823 353
6.03834 371
6.05845 373
6.07857 355
6.09868 399
6.11879 362
6.13891 392
6.15902 366
6.17913 362
6.19925 337
6.21936 354
6.23948 343
6.25959 354
6.2797 337
6.29982 359
6.31993 343
6.34004 349
6.36016 356
6.38027 312
6.40039 372
6.4205 355
6.44061 348
6.46073 355
6.48084 346
6.50095 329
6.52107 284
6.54118 297
6.56129 344
6.58141 350
6.60152 350
6.62164 370
6.64175 355
6.66186 328
6.68198 320
6.70209 361
6.7222 337
6.74232 351
6.76243 333
6.78255 281
6.80266 335
6.82277 318
6.84289 323
6.863 341
6.88311 320
6.90323 316
6.92334 317
6.94346 340
6.96357 307
6.98368 358
7.0038 315
7.02391 316
7.04402 331
7.06414 323
7.08425 342
7.10436 337
7.12448 367
7.14459 308
7.16471 335
7.18482 358
7.20493 312
7.22505 381
7.24516 286
7.26527 292
7.28539 316
7.3055 334
7.32562 361
7.34573 332
7.36584 349
7.38596 307
7.40607 316
7.42618 345
7.4463 310
7.46641 332
7.48653 346
7.50664 398
7.52675 346
7.54687 362
7.56698 362
7.58709 325
7.60721 334
7.62732 355
7.64743 306
7.66755 328
7.68766 264
7.70778 321
7.72789 352
7.748 350
7.76812 359
7.78823 324
7.80834 328
7.82846 360
7.84857 321
7.86869 312
7.8888 352
7.90891 352
7.92903 274
7.94914 351
7.96925 337
7.98937 315
8.00948 312
8.0296 336
8.04971 310
8.06982 376
8.08994 322
8.11005 311
8.13016 311
8.15028 355
8.17039 318
8.1905 363
8.21062 314
8.23073 299
8.25085 290
8.27096 355
8.29107 367
8.31119 326
8.3313 336
8.35141 301
8.37153 328
8.39164 317
8.41176 380
8.43187 322
8.45198 318
8.4721 332
8.49221 315
8.51232 372
8.53244 328
8.55255 349
8.57266 340
8.59278 356
8.61289 323
8.63301 326
8.65312 349
8.67323 326
8.69335 337
8.71346 364
8.73357 359
8.75369 346
8.7738 358
8.79392 379
8.81403 361
8.83414 355
8.85426 376
8.87437 356
8.89448 331
8.9146 331
8.93471 351
8.95483 312
8.97494 350
8.99505 346
9.01517 340
9.03528 334
9.05539 299
9.07551 323
9.09562 347
9.11573 311
9.13585 298
9.15596 314
9.17608 326
9.19619 318
9.2163 304
9.23642 322
9.25653 345
9.27664 291
9.29676 345
9.31687 351
9.33699 298
9.3571 325
9.37721 310
9.39733 369
9.41744 348
9.43755 312
9.45767 310
9.47778 346
9.4979 293
9.51801 314
9.53812 338
9.55824 313
9.57835 288
9.59846 330
9.61858 321
9.63869 326
9.6588 293
9.67892 306
9.69903 317
9.71915 315
9.73926 278
9.75937 310
9.77949 320
9.7996 373
9.81971 317
9.83983 304
9.85994 333
9.88006 273
9.90017 317
9.92028 337
9.9404 334
9.96051 313
9.98062 335
10.00074 305
10.02085 325
10.04097 345
10.06108 309
10.08119 333
10.10131 316
10.12142 318
10.14153 323
10.16165 311
10.18176 312
10.20187 312
10.22199 352
10.2421 291
10.26222 334
10.28233 328
10.30244 332
10.32256 353
10.34267 316
10.36278 346
10.3829 325
10.40301 334
10.42313 328
10.44324 334
10.46335 313
10.48347 303
10.50358 304
10.52369 325
10.54381 346
10.56392 323
10.58403 309
10.60415 298
10.62426 317
10.64438 315
10.66449 350
10.6846 331
10.70472 313
10.72483 309
10.74494 302
10.76506 287
10.78517 312
10.80529 304
10.8254 312
10.84551 290
10.86563 303
10.88574 312
10.90585 310
10.92597 270
10.94608 331
10.9662 260
10.98631 304
11.00642 316
11.02654 323
11.04665 307
11.06676 341
11.08688 315
11.10699 298
11.1271 308
11.14722 297
11.16733 308
11.18745 295
11.20756 317
11.22767 339
11.24779 312
11.2679 304
11.28801 317
11.30813 311
11.32824 281
11.34836 322
11.36847 302
11.38858 317
11.4087 361
11.42881 324
11.44892 341
11.46904 312
11.48915 363
11.50927 308
11.52938 331
11.54949 343
11.56961 350
11.58972 349
11.60983 322
11.62995 310
11.65006 320
11.67017 292
11.69029 321
11.7104 309
11.73052 298
11.75063 346
11.77074 336
11.79086 336
11.81097 329
11.83108 315
11.8512 344
11.87131 313
11.89143 334
11.91154 333
11.93165 346
11.95177 318
11.97188 342
11.99199 342
12.01211 339
12.03222 315
12.05234 318
12.07245 328
12.09256 323
12.11268 367
12.13279 318
12.1529 342
12.17302 349
12.19313 346
12.21324 362
12.23336 341
12.25347 311
12.27359 360
12.2937 341
12.31381 376
12.33393 377
12.35404 339
12.37415 379
12.39427 323
12.41438 355
12.4345 325
12.45461 350
12.47472 286
12.49484 297
12.51495 274
12.53506 317
12.55518 336
12.57529 308
12.5954 321
12.61552 288
12.63563 333
12.65575 323
12.67586 345
12.69597 322
12.71609 275
12.7362 313
12.75631 284
12.77643 286
12.79654 276
12.81666 306
12.83677 289
12.85688 288
12.877 297
12.89711 316
12.91722 283
12.93734 311
12.95745 300
12.97757 333
12.99768 292
13.01779 319
13.03791 332
13.05802 321
13.07813 266
13.09825 304
13.11836 338
13.13847 317
13.15859 343
13.1787 303
13.19882 296
13.21893 304
13.23904 308
13.25916 303
13.27927 319
13.29938 338
13.3195 262
13.33961 286
13.35973 281
13.37984 291
13.39995 276
13.42007 310
13.44018 265
13.46029 276
13.48041 293
13.50052 292
13.52064 313
13.54075 321
13.56086 337
13.58098 334
13.60109 371
13.6212 363
13.64132 381
13.66143 375
13.68154 339
13.70166 347
13.72177 304
13.74189 318
13.762 308
13.78211 300
13.80223 285
13.82234 353
13.84245 367
13.86257 339
13.88268 302
13.9028 345
13.92291 332
13.94302 301
13.96314 276
13.98325 290
14.00336 311
14.02348 279
14.04359 324
14.06371 318
14.08382 249
14.10393 300
14.12405 304
14.14416 260
14.16427 252
14.18439 279
14.2045 285
14.22461 255
14.24473 300
14.26484 276
14.28496 282
14.30507 267
14.32518 282
14.3453 279
14.36541 261
14.38552 267
14.40564 273
14.42575 247
14.44587 266
14.46598 276
14.48609 244
14.50621 281
14.52632 264
14.54643 277
14.56655 262
14.58666 249
14.60677 264
14.62689 260
14.647 291
14.66712 269
14.68723 265
14.70734 242
14.72746 287
14.74757 273
14.76768 267
14.7878 278
14.80791 291
14.82803 263
14.84814 285
14.86825 272
14.88837 301
14.90848 295
14.92859 319
14.94871 327
14.96882 314
14.98894 302
15.00905 295
15.02916 298
15.04928 301
15.06939 318
15.0895 303
15.10962 284
15.12973 303
15.14984 302
15.16996 303
15.19007 313
15.21019 297
15.2303 292
15.25041 290
15.27053 261
15.29064 296
15.31075 255
15.33087 281
15.35098 295
15.3711 260
15.39121 264
15.41132 269
15.43144 293
15.45155 271
15.47166 299
15.49178 278
15.51189 285
15.53201 253
15.55212 269
15.57223 261
15.59235 263
15.61246 295
15.63257 237
15.65269 278
15.6728 254
15.69291 287
15.71303 267
15.73314 258
15.75326 240
15.77337 264
15.79348 272
15.8136 279
15.83371 259
15.85382 269
15.87394 286
15.89405 262
15.91417 284
15.93428 282
15.95439 252
15.97451 273
15.99462 240
16.01473 235
16.03485 266
16.05496 250
16.07508 278
16.09519 290
16.1153 241
16.13542 288
16.15553 276
16.17564 250
16.19576 254
16.21587 260
16.23598 271
16.2561 285
16.27621 241
16.29633 258
16.31644 256
16.33655 221
16.35667 263
16.37678 274
16.39689 252
16.41701 252
16.43712 272
16.45724 260
16.47735 284
16.49746 272
16.51758 257
16.53769 221
16.5578 243
16.57792 253
16.59803 254
16.61814 285
16.63826 257
16.65837 239
16.67849 223
16.6986 255
16.71871 270
16.73883 262
16.75894 297
16.77905 267
16.79917 273
16.81928 246
16.8394 260
16.85951 260
16.87962 244
16.89974 226
16.91985 270
16.93996 249
16.96008 256
16.98019 240
17.00031 250
17.02042 254
17.04053 205
17.06065 252
17.08076 289
17.10087 245
17.12099 305
17.1411 274
17.16121 254
17.18133 252
17.20144 264
17.22156 275
17.24167 258
17.26178 240
17.2819 251
17.30201 280
17.32212 241
17.34224 260
17.36235 246
17.38247 280
17.40258 261
17.42269 279
17.44281 257
17.46292 265
17.48303 275
17.50315 295
17.52326 290
17.54338 278
17.56349 245
17.5836 252
17.60372 265
17.62383 265
17.64394 272
17.66406 279
17.68417 289
17.70428 293
17.7244 295
17.74451 291
17.76463 253
17.78474 283
17.80485 272
17.82497 305
17.84508 266
17.86519 275
17.88531 269
17.90542 277
17.92554 248
17.94565 270
17.96576 259
17.98588 244
18.00599 229
18.0261 270
18.04622 290
18.06633 291
18.08645 257
18.10656 265
18.12667 289
18.14679 300
18.1669 293
18.18701 251
18.20713 268
18.22724 269
18.24735 271
18.26747 264
18.28758 256
18.3077 294
18.32781 258
18.34792 272
18.36804 266
18.38815 257
18.40826 234
18.42838 241
18.44849 284
18.46861 288
18.48872 244
18.50883 253
18.52895 243
18.54906 277
18.56917 253
18.58929 279
18.6094 270
18.62951 258
18.64963 283
18.66974 261
18.68986 249
18.70997 242
18.73008 268
18.7502 251
18.77031 267
18.79042 268
18.81054 246
18.83065 271
18.85077 265
18.87088 261
18.89099 272
18.91111 235
18.93122 295
18.95133 280
18.97145 279
18.99156 263
19.01168 262
19.03179 244
19.0519 276
19.07202 261
19.09213 299
19.11224 270
19.13236 270
19.15247 250
19.17258 276
19.1927 279
19.21281 327
19.23293 287
19.25304 320
19.27315 300
19.29327 307
19.31338 348
19.33349 308
19.35361 317
19.37372 284
19.39384 327
19.41395 323
19.43406 339
19.45418 338
19.47429 260
19.4944 291
19.51452 324
19.53463 312
19.55475 362
19.57486 333
19.59497 366
19.61509 373
19.6352 370
19.65531 392
19.67543 417
19.69554 456
19.71565 446
19.73577 455
19.75588 487
19.776 520
19.79611 533
19.81622 488
19.83634 526
19.85645 533
19.87656 513
19.89668 560
19.91679 507
19.93691 539
19.95702 518
19.97713 499
19.99725 488
20.01736 460
20.03747 460
20.05759 471
20.0777 441
20.09782 474
20.11793 488
20.13804 445
20.15816 413
20.17827 452
20.19838 509
20.2185 470
20.23861 460
20.25872 431
20.27884 476
20.29895 443
20.31907 469
20.33918 484
20.35929 501
20.37941 522
20.39952 442
20.41963 441
20.43975 514
20.45986 471
20.47998 554
20.50009 510
20.5202 510
20.54032 476
20.56043 480
20.58054 556
20.60066 540
20.62077 550
20.64088 656
20.661 723
20.68111 806
20.70123 942
20.72134 1194
20.74145 1692
20.76157 2295
20.78168 3025
20.80179 4003
20.82191 4715
20.84202 4723
20.86214 4615
20.88225 3890
20.90236 2903
20.92248 2163
20.94259 1590
20.9627 1222
20.98282 1056
21.00293 1083
21.02305 993
21.04316 1002
21.06327 902
21.08339 814
21.1035 690
21.12361 711
21.14373 605
21.16384 517
21.18395 538
21.20407 509
21.22418 452
21.2443 461
21.26441 460
21.28452 456
21.30464 445
21.32475 431
21.34486 468
21.36498 441
21.38509 441
21.40521 444
21.42532 440
21.44543 431
21.46555 400
21.48566 385
21.50577 395
21.52589 373
21.546 447
21.56612 411
21.58623 392
21.60634 374
21.62646 424
21.64657 401
21.66668 414
21.6868 355
21.70691 377
21.72702 384
21.74714 392
21.76725 378
21.78737 363
21.80748 385
21.82759 373
21.84771 392
21.86782 436
21.88793 423
21.90805 507
21.92816 489
21.94828 527
21.96839 554
21.9885 634
22.00862 613
22.02873 570
22.04884 517
22.06896 510
22.08907 473
22.10919 448
22.1293 393
22.14941 384
22.16953 359
22.18964 379
22.20975 403
22.22987 384
22.24998 429
22.27009 441
22.29021 451
22.31032 433
22.33044 430
22.35055 449
22.37066 435
22.39078 398
22.41089 428
22.431 408
22.45112 388
22.47123 415
22.49135 447
22.51146 417
22.53157 395
22.55169 450
22.5718 430
22.59191 413
22.61203 376
22.63214 365
22.65225 412
22.67237 376
22.69248 394
22.7126 385
22.73271 371
22.75282 358
22.77294 361
22.79305 382
22.81316 351
22.83328 392
22.85339 322
22.87351 376
22.89362 379
22.91373 403
22.93385 378
22.95396 436
22.97407 435
22.99419 468
23.0143 448
23.03442 420
23.05453 463
23.07464 448
23.09476 474
23.11487 461
23.13498 476
23.1551 475
23.17521 530
23.19532 559
23.21544 541
23.23555 447
23.25567 478
23.27578 475
23.29589 445
23.31601 489
23.33612 455
23.35623 427
23.37635 467
23.39646 444
23.41658 469
23.43669 475
23.4568 521
23.47692 526
23.49703 588
23.51714 588
23.53726 618
23.55737 582
23.57749 618
23.5976 554
23.61771 571
23.63783 509
23.65794 543
23.67805 458
23.69817 488
23.71828 494
23.73839 453
23.75851 480
23.77862 461
23.79874 420
23.81885 405
23.83896 485
23.85908 469
23.87919 501
23.8993 513
23.91942 543
23.93953 533
23.95965 580
23.97976 595
23.99987 530
24.01999 551
24.0401 562
24.06021 479
24.08033 472
24.10044 544
24.12056 435
24.14067 515
24.16078 476
24.1809 503
24.20101 507
24.22112 546
24.24124 523
24.26135 497
24.28146 505
24.30158 560
24.32169 524
24.34181 500
24.36192 486
24.38203 451
24.40215 410
24.42226 455
24.44237 409
24.46249 399
24.4826 457
24.50272 388
24.52283 391
24.54294 402
24.56306 452
24.58317 432
24.60328 427
24.6234 438
24.64351 459
24.66362 429
24.68374 427
24.70385 439
24.72397 410
24.74408 451
24.76419 443
24.78431 413
24.80442 409
24.82453 404
24.84465 406
24.86476 440
24.88488 434
24.90499 415
24.9251 420
24.94522 454
24.96533 375
24.98544 375
25.00556 405
25.02567 417
25.04579 377
25.0659 371
25.08601 406
25.10613 401
25.12624 390
25.14635 422
25.16647 426
25.18658 421
25.20669 450
25.22681 417
25.24692 466
25.26704 484
25.28715 493
25.30726 451
25.32738 498
25.34749 475
25.3676 470
25.38772 469
25.40783 498
25.42795 568
25.44806 549
25.46817 601
25.48829 641
25.5084 668
25.52851 744
25.54863 692
25.56874 756
25.58886 731
25.60897 724
25.62908 683
25.6492 653
25.66931 629
25.68942 671
25.70954 609
25.72965 614
25.74976 537
25.76988 503
25.78999 512
25.81011 505
25.83022 524
25.85033 494
25.87045 459
25.89056 532
25.91067 494
25.93079 491
25.9509 547
25.97102 531
25.99113 523
26.01124 499
26.03136 490
26.05147 535
26.07158 545
26.0917 573
26.11181 611
26.13193 606
26.15204 623
26.17215 645
26.19227 647
26.21238 707
26.23249 755
26.25261 773
26.27272 887
26.29283 906
26.31295 1030
26.33306 1153
26.35318 1227
26.37329 1414
26.3934 1652
26.41352 1876
26.43363 2265
26.45374 2863
26.47386 3620
26.49397 4880
26.51409 6892
26.5342 9460
26.55431 13012
26.57443 16949
26.59454 20158
26.61465 20669
26.63477 19518
26.65488 16332
26.67499 12901
26.69511 9684
26.71522 6471
26.73534 4007
26.75545 2515
26.77556 1777
26.79568 1389
26.81579 1274
26.8359 1186
26.85602 1078
26.87613 1078
26.89625 958
26.91636 1064
26.93647 951
26.95659 991
26.9767 1014
26.99681 1103
27.01693 1062
27.03704 1093
27.05716 1057
27.07727 1037
27.09738 971
27.1175 872
27.13761 821
27.15772 784
27.17784 718
27.19795 718
27.21806 645
27.23818 674
27.25829 713
27.27841 723
27.29852 787
27.31863 874
27.33875 935
27.35886 1023
27.37897 1217
27.39909 1242
27.4192 1380
27.43932 1573
27.45943 1513
27.47954 1396
27.49966 1366
27.51977 1222
27.53988 1084
27.56 862
27.58011 820
27.60023 747
27.62034 668
27.64045 687
27.66057 665
27.68068 713
27.70079 702
27.72091 742
27.74102 755
27.76113 713
27.78125 694
27.80136 767
27.82148 770
27.84159 748
27.8617 780
27.88182 821
27.90193 867
27.92204 775
27.94216 810
27.96227 765
27.98239 676
28.0025 631
28.02261 602
28.04273 547
28.06284 505
28.08295 493
28.10307 499
28.12318 463
28.1433 494
28.16341 433
28.18352 484
28.20364 448
28.22375 452
28.24386 417
28.26398 446
28.28409 436
28.3042 401
28.32432 377
28.34443 376
28.36455 387
28.38466 351
28.40477 375
28.42489 346
28.445 372
28.46511 349
28.48523 342
28.50534 325
28.52546 401
28.54557 355
28.56568 350
28.5858 351
28.60591 323
28.62602 351
28.64614 335
28.66625 344
28.68636 317
28.70648 365
28.72659 336
28.74671 321
28.76682 335
28.78693 374
28.80705 357
28.82716 334
28.84727 339
28.86739 299
28.8875 331
28.90762 306
28.92773 337
28.94784 327
28.96796 347
28.98807 360
29.00818 302
29.0283 343
29.04841 313
29.06853 297
29.08864 348
29.10875 311
29.12887 328
29.14898 330
29.16909 320
29.18921 342
29.20932 325
29.22943 323
29.24955 332
29.26966 370
29.28978 335
29.30989 369
29.33 375
29.35012 418
29.37023 406
29.39034 437
29.41046 450
29.43057 442
29.45069 432
29.4708 443
29.49091 419
29.51103 384
29.53114 376
29.55125 369
29.57137 415
29.59148 382
29.6116 438
29.63171 363
29.65182 437
29.67194 405
29.69205 424
29.71216 431
29.73228 410
29.75239 427
29.7725 470
29.79262 463
29.81273 461
29.83285 419
29.85296 425
29.87307 439
29.89319 456
29.9133 447
29.93341 416
29.95353 420
29.97364 450
29.99376 503
30.01387 452
30.03398 439
30.0541 437
30.07421 437
30.09432 455
30.11444 456
30.13455 511
30.15467 455
30.17478 513
30.19489 503
30.21501 497
30.23512 484
30.25523 463
30.27535 471
30.29546 441
30.31557 427
30.33569 410
30.3558 417
30.37592 396
30.39603 403
30.41614 378
30.43626 439
30.45637 404
30.47648 380
30.4966 384
30.51671 398
30.53683 397
30.55694 419
30.57705 383
30.59717 370
30.61728 358
30.63739 422
30.65751 423
30.67762 446
30.69773 493
30.71785 484
30.73796 509
30.75808 551
30.77819 571
30.7983 538
30.81842 516
30.83853 457
30.85864 510
30.87876 487
30.89887 418
30.91899 411
30.9391 382
30.95921 353
30.97933 375
30.99944 364
31.01955 315
31.03967 312
31.05978 309
31.0799 325
31.10001 315
31.12012 293
31.14024 306
31.16035 348
31.18046 310
31.20058 328
31.22069 325
31.2408 313
31.26092 316
31.28103 335
31.30115 347
31.32126 341
31.34137 324
31.36149 305
31.3816 316
31.40171 321
31.42183 301
31.44194 304
31.46206 299
31.48217 310
31.50228 242
31.5224 315
31.54251 307
31.56262 313
31.58274 302
31.60285 298
31.62297 287
31.64308 304
31.66319 292
31.68331 282
31.70342 318
31.72353 284
31.74365 296
31.76376 292
31.78387 310
31.80399 267
31.8241 287
31.84422 301
31.86433 292
31.88444 255
31.90456 278
31.92467 262
31.94478 298
31.9649 299
31.98501 291
32.00513 280
32.02524 300
32.04535 306
32.06547 328
32.08558 300
32.10569 331
32.12581 319
32.14592 357
32.16604 322
32.18615 337
32.20626 319
32.22638 354
32.24649 343
32.2666 403
32.28672 369
32.30683 364
32.32694 381
32.34706 409
32.36717 449
32.38729 379
32.4074 346
32.42751 359
32.44763 367
32.46774 328
32.48785 365
32.50797 355
32.52808 289
32.5482 321
32.56831 323
32.58842 307
32.60854 344
32.62865 331
32.64876 301
32.66888 267
32.68899 327
32.7091 318
32.72922 308
32.74933 307
32.76945 298
32.78956 272
32.80967 295
32.82979 318
32.8499 336
32.87001 315
32.89013 312
32.91024 275
32.93036 269
32.95047 322
32.97058 274
32.9907 309
33.01081 324
33.03092 298
33.05104 337
33.07115 340
33.09127 288
33.11138 311
33.13149 314
33.15161 313
33.17172 302
33.19183 326
33.21195 316
33.23206 296
33.25217 326
33.27229 319
33.2924 313
33.31252 330
33.33263 316
33.35274 304
33.37286 283
33.39297 295
33.41308 321
33.4332 307
33.45331 316
33.47343 317
33.49354 286
33.51365 294
33.53377 293
33.55388 289
33.57399 287
33.59411 250
33.61422 283
33.63434 295
33.65445 299
33.67456 313
33.69468 307
33.71479 284
33.7349 306
33.75502 314
33.77513 302
33.79524 284
33.81536 329
33.83547 317
33.85559 278
33.8757 289
33.89581 304
33.91593 309
33.93604 335
33.95615 329
33.97627 321
33.99638 309
34.0165 322
34.03661 361
34.05672 292
34.07684 330
34.09695 352
34.11706 347
34.13718 385
34.15729 393
34.17741 418
34.19752 429
34.21763 412
34.23775 398
34.25786 419
34.27797 395
34.29809 356
34.3182 386
34.33831 382
34.35843 374
34.37854 368
34.39866 404
34.41877 396
34.43888 405
34.459 405
34.47911 391
34.49922 381
34.51934 414
34.53945 394
34.55957 382
34.57968 438
34.59979 390
34.61991 432
34.64002 471
34.66013 418
34.68025 443
34.70036 429
34.72047 443
34.74059 453
34.7607 448
34.78082 483
34.80093 483
34.82104 484
34.84116 517
34.86127 504
34.88138 518
34.9015 509
34.92161 528
34.94173 526
34.96184 531
34.98195 557
35.00207 521
35.02218 512
35.04229 457
35.06241 502
35.08252 477
35.10264 480
35.12275 503
35.14286 507
35.16298 498
35.18309 459
35.2032 443
35.22332 437
35.24343 455
35.26354 468
35.28366 494
35.30377 468
35.32389 420
35.344 416
35.36411 456
35.38423 421
35.40434 445
35.42445 471
35.44457 473
35.46468 469
35.4848 482
35.50491 465
35.52502 513
35.54514 489
35.56525 441
35.58536 436
35.60548 474
35.62559 461
35.64571 488
35.66582 420
35.68593 446
35.70605 421
35.72616 418
35.74627 416
35.76639 430
35.7865 389
35.80661 388
35.82673 428
35.84684 395
35.86696 411
35.88707 414
35.90718 413
35.9273 405
35.94741 381
35.96752 373
35.98764 372
36.00775 426
36.02787 380
36.04798 382
36.06809 392
36.08821 380
36.10832 394
36.12843 393
36.14855 428
36.16866 371
36.18878 366
36.20889 393
36.229 405
36.24912 394
36.26923 417
36.28934 454
36.30946 467
36.32957 453
36.34968 514
36.3698 575
36.38991 723
36.41003 792
36.43014 979
36.45025 1212
36.47037 1411
36.49048 1553
36.51059 1632
36.53071 1476
36.55082 1321
36.57094 1135
36.59105 1065
36.61116 962
36.63128 808
36.65139 648
36.6715 497
36.69162 490
36.71173 408
36.73184 408
36.75196 381
36.77207 390
36.79219 401
36.8123 428
36.83241 391
36.85253 391
36.87264 393
36.89275 400
36.91287 433
36.93298 422
36.9531 406
36.97321 424
36.99332 422
37.01344 396
37.03355 392
37.05366 405
37.07378 396
37.09389 402
37.11401 379
37.13412 404
37.15423 336
37.17435 350
37.19446 373
37.21457 384
37.23469 321
37.2548 380
37.27491 359
37.29503 335
37.31514 355
37.33526 341
37.35537 366
37.37548 308
37.3956 345
37.41571 345
37.43582 334
37.45594 357
37.47605 339
37.49617 349
37.51628 348
37.53639 347
37.55651 356
37.57662 346
37.59673 321
37.61685 337
37.63696 336
37.65708 357
37.67719 318
37.6973 353
37.71742 358
37.73753 379
37.75764 332
37.77776 341
37.79787 343
37.81798 329
37.8381 361
37.85821 365
37.87833 319
37.89844 324
37.91855 323
37.93867 321
37.95878 334
37.97889 321
37.99901 347
38.01912 306
38.03924 314
38.05935 327
38.07946 325
38.09958 330
38.11969 340
38.1398 324
38.15992 298
38.18003 319
38.20015 289
38.22026 329
38.24037 283
38.26049 320
38.2806 288
38.30071 317
38.32083 310
38.34094 294
38.36105 362
38.38117 352
38.40128 334
38.4214 354
38.44151 376
38.46162 359
38.48174 370
38.50185 383
38.52196 332
38.54208 371
38.56219 390
38.58231 349
38.60242 361
38.62253 338
38.64265 326
38.66276 348
38.68287 336
38.70299 330
38.7231 345
38.74321 324
38.76333 320
38.78344 342
38.80356 340
38.82367 332
38.84378 306
38.8639 316
38.88401 311
38.90412 315
38.92424 323
38.94435 332
38.96447 320
38.98458 327
39.00469 307
39.02481 337
39.04492 321
39.06503 320
39.08515 334
39.10526 327
39.12538 342
39.14549 356
39.1656 384
39.18572 395
39.20583 405
39.22594 388
39.24606 435
39.26617 494
39.28628 513
39.3064 592
39.32651 724
39.34663 803
39.36674 996
39.38685 1174
39.40697 1369
39.42708 1354
39.44719 1361
39.46731 1234
39.48742 1030
39.50754 916
39.52765 896
39.54776 753
39.56788 617
39.58799 499
39.6081 416
39.62822 359
39.64833 338
39.66845 345
39.68856 341
39.70867 305
39.72879 303
39.7489 289
39.76901 285
39.78913 311
39.80924 319
39.82935 291
39.84947 271
39.86958 313
39.8897 338
39.90981 302
39.92992 294
39.95004 279
39.97015 307
39.99026 337
40.01038 344
40.03049 338
40.05061 346
40.07072 373
40.09083 381
40.11095 433
40.13106 456
40.15117 523
40.17129 612
40.1914 621
40.21152 779
40.23163 850
40.25174 888
40.27186 820
40.29197 755
40.31208 658
40.3322 582
40.35231 617
40.37242 563
40.39254 486
40.41265 396
40.43277 358
40.45288 319
40.47299 340
40.49311 328
40.51322 308
40.53333 343
40.55345 332
40.57356 314
40.59368 327
40.61379 281
40.6339 292
40.65402 290
40.67413 296
40.69424 265
40.71436 305
40.73447 286
40.75458 306
40.7747 287
40.79481 297
40.81493 309
40.83504 318
40.85515 320
40.87527 286
40.89538 318
40.91549 328
40.93561 302
40.95572 326
40.97584 287
40.99595 306
41.01606 282
41.03618 295
41.05629 330
41.0764 305
41.09652 329
41.11663 297
41.13675 285
41.15686 322
41.17697 310
41.19709 328
41.2172 329
41.23731 294
41.25743 282
41.27754 304
41.29765 296
41.31777 327
41.33788 291
41.358 293
41.37811 294
41.39822 347
41.41834 295
41.43845 316
41.45856 289
41.47868 286
41.49879 311
41.51891 308
41.53902 322
41.55913 307
41.57925 332
41.59936 322
41.61947 355
41.63959 372
41.6597 409
41.67982 443
41.69993 471
41.72004 457
41.74016 478
41.76027 510
41.78038 481
41.8005 480
41.82061 391
41.84072 429
41.86084 358
41.88095 394
41.90107 320
41.92118 342
41.94129 346
41.96141 345
41.98152 345
42.00163 315
42.02175 301
42.04186 324
42.06198 316
42.08209 321
42.1022 334
42.12232 333
42.14243 375
42.16254 342
42.18266 321
42.20277 359
42.22289 376
42.243 405
42.26311 498
42.28323 540
42.30334 583
42.32345 677
42.34357 816
42.36368 1000
42.38379 1127
42.40391 1202
42.42402 1140
42.44414 1063
42.46425 940
42.48436 821
42.50448 739
42.52459 731
42.5447 665
42.56482 530
42.58493 433
42.60505 389
42.62516 364
42.64527 320
42.66539 323
42.6855 328
42.70561 353
42.72573 328
42.74584 361
42.76595 343
42.78607 306
42.80618 308
42.8263 313
42.84641 287
42.86652 345
42.88664 291
42.90675 310
42.92686 324
42.94698 283
42.96709 284
42.98721 280
43.00732 270
43.02743 274
43.04755 285
43.06766 262
43.08777 287
43.10789 246
43.128 270
43.14812 277
43.16823 249
43.18834 287
43.20846 285
43.22857 255
43.24868 279
43.2688 265
43.28891 264
43.30902 283
43.32914 282
43.34925 262
43.36937 255
43.38948 243
43.40959 295
43.42971 262
43.44982 272
43.46993 261
43.49005 306
43.51016 285
43.53028 279
43.55039 275
43.5705 282
43.59062 288
43.61073 260
43.63084 282
43.65096 260
43.67107 282
43.69119 291
43.7113 264
43.73141 255
43.75153 258
43.77164 289
43.79175 284
43.81187 262
43.83198 270
43.85209 251
43.87221 299
43.89232 260
43.91244 290
43.93255 256
43.95266 250
43.97278 259
43.99289 262
44.013 262
44.03312 268
44.05323 276
44.07335 317
44.09346 286
44.11357 299
44.13369 278
44.1538 301
44.17391 273
44.19403 289
44.21414 295
44.23426 257
44.25437 236
44.27448 285
44.2946 239
44.31471 263
44.33482 258
44.35494 232
44.37505 250
44.39516 296
44.41528 263
44.43539 265
44.45551 262
44.47562 240
44.49573 296
44.51585 265
44.53596 238
44.55607 279
44.57619 264
44.5963 282
44.61642 281
44.63653 272
44.65664 271
44.67676 279
44.69687 247
44.71698 252
44.7371 286
44.75721 266
44.77732 261
44.79744 275
44.81755 266
44.83767 245
44.85778 280
44.87789 253
44.89801 250
44.91812 250
44.93823 282
44.95835 276
44.97846 274
44.99858 267
45.01869 276
45.0388 263
45.05892 280
45.07903 291
45.09914 282
45.11926 257
45.13937 298
45.15949 311
45.1796 283
45.19971 270
45.21983 284
45.23994 272
45.26005 277
45.28017 310
45.30028 288
45.32039 300
45.34051 303
45.36062 300
45.38074 286
45.40085 290
45.42096 324
45.44108 323
45.46119 346
45.4813 324
45.50142 356
45.52153 374
45.54165 358
45.56176 390
45.58187 354
45.60199 473
45.6221 481
45.64221 529
45.66233 579
45.68244 671
45.70256 760
45.72267 857
45.74278 868
45.7629 812
45.78301 788
45.80312 677
45.82324 594
45.84335 565
45.86346 532
45.88358 550
45.90369 492
45.92381 433
45.94392 345
45.96403 333
45.98415 352
46.00426 308
46.02437 305
46.04449 311
46.0646 269
46.08472 306
46.10483 332
46.12494 275
46.14506 276
46.16517 291
46.18528 257
46.2054 287
46.22551 289
46.24563 281
46.26574 276
46.28585 260
46.30597 289
46.32608 279
46.34619 249
46.36631 267
46.38642 271
46.40653 279
46.42665 265
46.44676 247
46.46688 227
46.48699 222
46.5071 274
46.52722 248
46.54733 268
46.56744 276
46.58756 259
46.60767 269
46.62779 244
46.6479 268
46.66801 265
46.68813 265
46.70824 244
46.72835 263
46.74847 264
46.76858 251
46.78869 297
46.80881 277
46.82892 266
46.84904 268
46.86915 306
46.88926 274
46.90938 261
46.92949 279
46.9496 263
46.96972 295
46.98983 271
47.00995 302
47.03006 304
47.05017 315
47.07029 283
47.0904 280
47.11051 294
47.13063 310
47.15074 297
47.17086 284
47.19097 305
47.21108 294
47.2312 284
47.25131 278
47.27142 310
47.29154 246
47.31165 276
47.33176 271
47.35188 279
47.37199 304
47.39211 299
47.41222 295
47.43233 273
47.45245 301
47.47256 286
47.49267 318
47.51279 283
47.5329 277
47.55302 298
47.57313 278
47.59324 276
47.61336 272
47.63347 247
47.65358 279
47.6737 271
47.69381 267
47.71393 260
47.73404 242
47.75415 277
47.77427 262
47.79438 273
47.81449 290
47.83461 283
47.85472 288
47.87483 267
47.89495 263
47.91506 276
47.93518 262
47.95529 308
47.9754 270
47.99552 272
48.01563 261
48.03574 292
48.05586 300
48.07597 271
48.09609 270
48.1162 244
48.13631 220
48.15643 260
48.17654 248
48.19665 268
48.21677 283
48.23688 254
48.257 277
48.27711 278
48.29722 280
48.31734 267
48.33745 217
48.35756 256
48.37768 273
48.39779 262
48.4179 259
48.43802 261
48.45813 224
48.47825 260
48.49836 244
48.51847 255
48.53859 266
48.5587 270
48.57881 288
48.59893 254
48.61904 272
48.63916 276
48.65927 258
48.67938 297
48.6995 292
48.71961 290
48.73972 315
48.75984 271
48.77995 293
48.80006 285
48.82018 300
48.84029 300
48.86041 303
48.88052 321
48.90063 306
48.92075 301
48.94086 295
48.96097 309
48.98109 310
49.0012 299
49.02132 287
49.04143 291
49.06154 299
49.08166 287
49.10177 291
49.12188 329
49.142 306
49.16211 306
49.18223 310
49.20234 307
49.22245 299
49.24257 292
49.26268 282
49.28279 296
49.30291 272
49.32302 263
49.34313 284
49.36325 281
49.38336 273
49.40348 292
49.42359 301
49.4437 287
49.46382 280
49.48393 319
49.50404 294
49.52416 277
49.54427 309
49.56439 308
49.5845 282
49.60461 298
49.62473 317
49.64484 341
49.66495 317
49.68507 317
49.70518 336
49.7253 391
49.74541 385
49.76552 365
49.78564 384
49.80575 409
49.82586 480
49.84598 445
49.86609 476
49.8862 530
49.90632 585
49.92643 697
49.94655 800
49.96666 895
49.98677 1013
50.00689 1235
50.027 1538
50.04711 1832
50.06723 2072
50.08734 2224
50.10746 2192
50.12757 1933
50.14768 1559
50.1678 1405
50.18791 1256
50.20802 1263
50.22814 1257
50.24825 1042
50.26837 837
50.28848 667
50.30859 509
50.32871 468
50.34882 383
50.36893 399
50.38905 378
50.40916 397
50.42927 415
50.44939 480
50.4695 468
50.48962 506
50.50973 548
50.52984 549
50.54996 468
50.57007 503
50.59018 495
50.6103 488
50.63041 487
50.65053 494
50.67064 489
50.69075 422
50.71087 431
50.73098 409
50.75109 431
50.77121 349
50.79132 366
50.81143 361
50.83155 360
50.85166 357
50.87178 350
50.89189 335
50.912 313
50.93212 305
50.95223 314
50.97234 282
50.99246 282
51.01257 287
51.03269 287
51.0528 271
51.07291 283
51.09303 270
51.11314 287
51.13325 283
51.15337 277
51.17348 274
51.1936 274
51.21371 262
51.23382 274
51.25394 261
51.27405 270
51.29416 247
51.31428 252
51.33439 261
51.3545 258
51.37462 262
51.39473 261
51.41485 258
51.43496 257
51.45507 243
51.47519 259
51.4953 226
51.51541 243
51.53553 249
51.55564 283
51.57576 251
51.59587 267
51.61598 250
51.6361 248
51.65621 237
51.67632 280
51.69644 269
51.71655 231
51.73667 274
51.75678 253
51.77689 237
51.79701 257
51.81712 245
51.83723 245
51.85735 235
51.87746 251
51.89757 252
51.91769 214
51.9378 261
51.95792 249
51.97803 248
51.99814 248
52.01826 248
52.03837 236
52.05848 250
52.0786 259
52.09871 281
52.11883 261
52.13894 236
52.15905 298
52.17917 243
52.19928 252
52.21939 263
52.23951 239
52.25962 226
52.27974 251
52.29985 234
52.31996 251
52.34008 232
52.36019 219
52.3803 283
52.40042 262
52.42053 260
52.44064 259
52.46076 241
52.48087 245
52.50099 270
52.5211 259
52.54121 254
52.56133 218
52.58144 253
52.60155 288
52.62167 274
52.64178 268
52.6619 278
52.68201 248
52.70212 279
52.72224 279
52.74235 288
52.76246 275
52.78258 264
52.80269 285
52.8228 255
52.84292 255
52.86303 248
52.88315 269
52.90326 271
52.92337 261
52.94349 282
52.9636 264
52.98371 269
53.00383 268
53.02394 274
53.04406 263
53.06417 259
53.08428 246
53.1044 286
53.12451 278
53.14462 304
53.16474 274
53.18485 287
53.20497 291
53.22508 284
53.24519 287
53.26531 264
53.28542 265
53.30553 293
53.32565 292
53.34576 291
53.36587 286
53.38599 246
53.4061 284
53.42622 268
53.44633 252
53.46644 266
53.48656 292
53.50667 252
53.52678 276
53.5469 287
53.56701 292
53.58713 262
53.60724 314
53.62735 290
53.64747 272
53.66758 280
53.68769 275
53.70781 268
53.72792 277
53.74804 333
53.76815 299
53.78826 329
53.80838 322
53.82849 276
53.8486 301
53.86872 323
53.88883 306
53.90894 292
53.92906 338
53.94917 269
53.96929 290
53.9894 274
54.00951 279
54.02963 320
54.04974 305
54.06985 307
54.08997 331
54.11008 275
54.1302 289
54.15031 288
54.17042 305
54.19054 334
54.21065 276
54.23076 306
54.25088 311
54.27099 301
54.29111 303
54.31122 310
54.33133 281
54.35145 298
54.37156 323
54.39167 323
54.41179 311
54.4319 326
54.45201 294
54.47213 297
54.49224 319
54.51236 345
54.53247 322
54.55258 373
54.5727 348
54.59281 364
54.61292 350
54.63304 403
54.65315 411
54.67327 413
54.69338 441
54.71349 457
54.73361 562
54.75372 589
54.77383 696
54.79395 796
54.81406 903
54.83417 843
54.85429 810
54.8744 694
54.89452 611
54.91463 519
54.93474 557
54.95486 594
54.97497 618
54.99508 563
55.0152 477
55.03531 400
55.05543 390
55.07554 388
55.09565 370
55.11577 376
55.13588 344
55.15599 387
55.17611 431
55.19622 388
55.21634 450
55.23645 497
55.25656 518
55.27668 566
55.29679 494
55.3169 461
55.33702 425
55.35713 387
55.37724 445
55.39736 414
55.41747 409
55.43759 434
55.4577 359
55.47781 344
55.49793 350
55.51804 340
55.53815 299
55.55827 275
55.57838 280
55.5985 263
55.61861 296
55.63872 288
55.65884 291
55.67895 265
55.69906 277
55.71918 281
55.73929 294
55.75941 284
55.77952 273
55.79963 276
55.81975 282
55.83986 304
55.85997 266
55.88009 264
55.9002 291
55.92031 241
55.94043 263
55.96054 242
55.98066 274
56.00077 287
56.02088 270
56.041 274
56.06111 250
56.08122 294
56.10134 256
56.12145 245
56.14157 253
56.16168 243
56.18179 249
56.20191 267
56.22202 250
56.24213 255
56.26225 281
56.28236 279
56.30248 269
56.32259 305
56.3427 238
56.36282 309
56.38293 273
56.40304 286
56.42316 267
56.44327 241
56.46338 246
56.4835 245
56.50361 254
56.52373 259
56.54384 254
56.56395 282
56.58407 231
56.60418 273
56.62429 273
56.64441 268
56.66452 270
56.68464 268
56.70475 281
56.72486 260
56.74498 283
56.76509 265
56.7852 262
56.80532 259
56.82543 256
56.84554 270
56.86566 246
56.88577 276
56.90589 288
56.926 227
56.94611 252
56.96623 280
56.98634 271
57.00645 246
57.02657 246
57.04668 242
57.0668 268
57.08691 254
57.10702 277
57.12714 267
57.14725 268
57.16736 261
57.18748 317
57.20759 279
57.22771 270
57.24782 274
57.26793 278
57.28805 302
57.30816 246
57.32827 278
57.34839 314
57.3685 292
57.38861 267
57.40873 245
57.42884 258
57.44896 249
57.46907 295
57.48918 252
57.5093 273
57.52941 246
57.54952 269
57.56964 282
57.58975 246
57.60987 258
57.62998 267
57.65009 269
57.67021 271
57.69032 232
57.71043 247
57.73055 258
57.75066 262
57.77078 239
57.79089 238
57.811 249
57.83112 268
57.85123 236
57.87134 265
57.89146 225
57.91157 243
57.93168 240
57.9518 268
57.97191 263
57.99203 245
58.01214 268
58.03225 237
58.05237 250
58.07248 270
58.09259 215
58.11271 254
58.13282 230
58.15294 241
58.17305 251
58.19316 260
58.21328 256
58.23339 246
58.2535 240
58.27362 242
58.29373 281
58.31385 262
58.33396 268
58.35407 274
58.37419 264
58.3943 256
58.41441 239
58.43453 260
58.45464 254
58.47475 258
58.49487 270
58.51498 259
58.5351 297
58.55521 280
58.57532 314
58.59544 277
58.61555 299
58.63566 275
58.65578 293
58.67589 267
58.69601 291
58.71612 265
58.73623 281
58.75635 255
58.77646 291
58.79657 286
58.81669 259
58.8368 249
58.85691 276
58.87703 249
58.89714 245
58.91726 256
58.93737 245
58.95748 228
58.9776 266
58.99771 277
59.01782 243
59.03794 232
59.05805 271
59.07817 251
59.09828 240
59.11839 250
59.13851 224
59.15862 273
59.17873 243
59.19885 234
59.21896 287
59.23908 269
59.25919 273
59.2793 272
59.29942 262
59.31953 258
59.33964 254
59.35976 272
59.37987 253
59.39998 267
59.4201 289
59.44021 300
59.46033 277
59.48044 277
59.50055 321
59.52067 323
59.54078 311
59.56089 320
59.58101 324
59.60112 354
59.62124 364
59.64135 359
59.66146 408
59.68158 413
59.70169 455
59.7218 511
59.74192 549
59.76203 629
59.78215 676
59.80226 806
59.82237 985
59.84249 1103
59.8626 1251
59.88271 1515
59.90283 1483
59.92294 1455
59.94305 1272
59.96317 1097
59.98328 899
60.0034 836
60.02351 879
60.04362 887
60.06374 876
60.08385 832
60.10396 711
60.12408 599
60.14419 473
60.16431 393
60.18442 361
60.20453 330
60.22465 341
60.24476 273
60.26487 308
60.28499 314
60.3051 274
60.32522 336
60.34533 266
60.36544 307
60.38556 296
60.40567 275
60.42578 257
60.4459 262
60.46601 282
60.48612 271
60.50624 270
60.52635 272
60.54647 247
60.56658 289
60.58669 297
60.60681 279
60.62692 245
60.64703 270
60.66715 285
60.68726 280
60.70738 264
60.72749 309
60.7476 272
60.76772 276
60.78783 265
60.80794 260
60.82806 266
60.84817 269
60.86828 266
60.8884 269
60.90851 280
60.92863 263
60.94874 242
60.96885 263
60.98897 278
61.00908 272
61.02919 267
61.04931 287
61.06942 294
61.08954 271
61.10965 269
61.12976 243
61.14988 272
61.16999 324
61.1901 288
61.21022 298
61.23033 278
61.25045 276
61.27056 296
61.29067 259
61.31079 274
61.3309 293
61.35101 256
61.37113 289
61.39124 267
61.41135 239
61.43147 293
61.45158 315
61.4717 293
61.49181 251
61.51192 277
61.53204 290
61.55215 287
61.57226 266
61.59238 277
61.61249 303
61.63261 309
61.65272 319
61.67283 314
61.69295 312
61.71306 284
61.73317 300
61.75329 287
61.7734 329
61.79352 325
61.81363 330
61.83374 318
61.85386 336
61.87397 321
61.89408 313
61.9142 340
61.93431 324
61.95442 303
61.97454 339
61.99465 336
62.01477 327
62.03488 335
62.05499 314
62.07511 302
62.09522 280
62.11533 334
62.13545 321
62.15556 330
62.17568 298
62.19579 344
62.2159 312
62.23602 317
62.25613 326
62.27624 309
62.29636 304
62.31647 304
62.33659 335
62.3567 300
62.37681 326
62.39693 288
62.41704 291
62.43715 305
62.45727 287
62.47738 297
62.49749 313
62.51761 317
62.53772 312
62.55784 293
62.57795 289
62.59806 284
62.61818 283
62.63829 283
62.6584 272
62.67852 287
62.69863 297
62.71875 298
62.73886 276
62.75897 252
62.77909 268
62.7992 289
62.81931 313
62.83943 296
62.85954 284
62.87965 258
62.89977 269
62.91988 279
62.94 296
62.96011 252
62.98022 291
63.00034 309
63.02045 280
63.04056 316
63.06068 279
63.08079 291
63.10091 270
63.12102 272
63.14113 271
63.16125 310
63.18136 297
63.20147 270
63.22159 276
63.2417 271
63.26182 277
63.28193 261
63.30204 281
63.32216 259
63.34227 270
63.36238 296
63.3825 254
63.40261 283
63.42272 298
63.44284 280
63.46295 279
63.48307 281
63.50318 276
63.52329 247
63.54341 289
63.56352 300
63.58363 295
63.60375 271
63.62386 274
63.64398 307
63.66409 298
63.6842 325
63.70432 316
63.72443 329
63.74454 326
63.76466 315
63.78477 347
63.80489 358
63.825 372
63.84511 390
63.86523 377
63.88534 412
63.90545 423
63.92557 509
63.94568 468
63.96579 523
63.98591 532
64.00602 516
64.02614 480
64.04625 416
64.06636 394
64.08648 387
64.10659 344
64.1267 391
64.14682 412
64.16693 381
64.18705 347
64.20716 359
64.22727 343
64.24739 325
64.2675 292
64.28761 295
64.30773 270
64.32784 280
64.34796 273
64.36807 224
64.38818 248
64.4083 267
64.42841 239
64.44852 249
64.46864 267
64.48875 232
64.50886 239
64.52898 261
64.54909 262
64.56921 241
64.58932 271
64.60943 234
64.62955 241
64.64966 269
64.66977 237
64.68989 246
64.71 250
64.73012 249
64.75023 290
64.77034 229
64.79046 251
64.81057 244
64.83068 270
64.8508 202
64.87091 269
64.89102 258
64.91114 266
64.93125 239
64.95137 251
64.97148 249
64.99159 226
65.01171 255
65.03182 251
65.05193 258
65.07205 284
65.09216 249
65.11228 271
65.13239 242
65.1525 292
65.17262 268
65.19273 253
65.21284 251
65.23296 247
65.25307 256
65.27319 267
65.2933 280
65.31341 300
65.33353 253
65.35364 252
65.37375 292
65.39387 262
65.41398 256
65.43409 253
65.45421 268
65.47432 258
65.49444 254
65.51455 253
65.53466 260
65.55478 246
65.57489 274
65.595 277
65.61512 273
65.63523 280
65.65535 255
65.67546 287
65.69557 282
65.71569 297
65.7358 286
65.75591 304
65.77603 267
65.79614 260
65.81626 258
65.83637 268
65.85648 257
65.8766 246
65.89671 273
65.91682 292
65.93694 275
65.95705 260
65.97716 277
65.99728 235
66.01739 255
66.03751 251
66.05762 252
66.07773 250
66.09785 258
66.11796 264
66.13807 252
66.15819 235
66.1783 245
66.19842 266
66.21853 269
66.23864 255
66.25876 252
66.27887 275
66.29898 265
66.3191 248
66.33921 271
66.35933 289
66.37944 288
66.39955 306
66.41967 257
66.43978 257
66.45989 255
66.48001 248
66.50012 248
66.52023 244
66.54035 250
66.56046 258
66.58058 245
66.60069 232
66.6208 246
66.64092 256
66.66103 240
66.68114 276
66.70126 230
66.72137 245
66.74149 246
66.7616 232
66.78171 230
66.80183 227
66.82194 255
66.84205 231
66.86217 245
66.88228 251
66.90239 271
66.92251 247
66.94262 252
66.96274 250
66.98285 259
67.00296 268
67.02308 262
67.04319 286
67.0633 241
67.08342 242
67.10353 276
67.12365 258
67.14376 264
67.16387 291
67.18399 262
67.2041 259
67.22421 263
67.24433 271
67.26444 294
67.28456 269
67.30467 274
67.32478 274
67.3449 338
67.36501 280
67.38512 308
67.40524 277
67.42535 311
67.44546 316
67.46558 356
67.48569 361
67.50581 390
67.52592 439
67.54603 436
67.56615 518
67.58626 601
67.60637 682
67.62649 733
67.6466 945
67.66672 923
67.68683 1022
67.70694 992
67.72706 944
67.74717 783
67.76728 677
67.7874 624
67.80751 641
67.82763 686
67.84774 700
67.86785 783
67.88797 756
67.90808 803
67.92819 769
67.94831 759
67.96842 705
67.98853 826
68.00865 846
68.02876 939
68.04888 1082
68.06899 1202
68.0891 1222
68.10922 1257
68.12933 1114
68.14944 1012
68.16956 940
68.18967 996
68.20979 959
68.2299 1002
68.25001 1157
68.27013 1111
68.29024 1129
68.31035 972
68.33047 760
68.35058 715
68.3707 595
68.39081 561
68.41092 512
68.43104 520
68.45115 522
68.47126 494
68.49138 483
68.51149 403
68.5316 345
68.55172 316
68.57183 332
68.59195 292
68.61206 286
68.63217 295
68.65229 282
68.6724 275
68.69251 281
68.71263 255
68.73274 268
68.75286 266
68.77297 286
68.79308 255
68.8132 239
68.83331 241
68.85342 265
68.87354 275
68.89365 232
68.91376 236
68.93388 248
68.95399 259
68.97411 261
68.99422 263
69.01433 266
69.03445 274
69.05456 228
69.07467 242
69.09479 245
69.1149 278
69.13502 216
69.15513 224
69.17524 233
69.19536 264
69.21547 243
69.23558 232
69.2557 209
69.27581 258
69.29593 266
69.31604 254
69.33615 254
69.35627 235
69.37638 254
69.39649 271
69.41661 253
69.43672 242
69.45683 242
69.47695 239
69.49706 248
69.51718 249
69.53729 249
69.5574 238
69.57752 241
69.59763 226
69.61774 242
69.63786 215
69.65797 247
69.67809 247
69.6982 254
69.71831 242
69.73843 284
69.75854 238
69.77865 248
69.79877 248
69.81888 224
69.839 263
69.85911 260
69.87922 227
69.89934 253
69.91945 233
69.93956 262
69.95968 241
69.97979 260
69.9999 243
70.02002 244
70.04013 231
70.06025 241
70.08036 249
70.10047 244
70.12059 245
70.1407 249
70.16081 232
70.18093 217
70.20104 218
70.22116 231
70.24127 237
70.26138 253
70.2815 236
70.30161 249
70.32172 250
70.34184 230
70.36195 227
70.38207 211
70.40218 213
70.42229 237
70.44241 220
70.46252 240
70.48263 232
70.50275 221
70.52286 249
70.54297 240
70.56309 258
70.5832 257
70.60332 244
70.62343 236
70.64354 230
70.66366 234
70.68377 223
70.70388 246
70.724 228
70.74411 240
70.76423 245
70.78434 256
70.80445 262
70.82457 247
70.84468 223
70.86479 244
70.88491 233
70.90502 251
70.92513 201
70.94525 224
70.96536 223
70.98548 226
71.00559 210
71.0257 254
71.04582 239
71.06593 246
71.08604 233
71.10616 240
71.12627 232
71.14639 225
71.1665 225
71.18661 219
71.20673 217
71.22684 210
71.24695 235
71.26707 230
71.28718 236
71.3073 261
71.32741 244
71.34752 240
71.36764 264
71.38775 217
71.40786 235
71.42798 246
71.44809 260
71.4682 265
71.48832 260
71.50843 286
71.52855 240
71.54866 261
71.56877 249
71.58889 258
71.609 241
71.62911 256
71.64923 285
71.66934 238
71.68946 255
71.70957 254
71.72968 242
71.7498 247
71.76991 235
71.79002 221
71.81014 234
71.83025 240
71.85037 256
71.87048 247
71.89059 241
71.91071 237
71.93082 233
71.95093 226
71.97105 237
71.99116 247
72.01127 239
72.03139 239
72.0515 242
72.07162 244
72.09173 249
72.11184 261
72.13196 247
72.15207 253
72.17218 225
72.1923 242
72.21241 234
72.23253 233
72.25264 248
72.27275 261
72.29287 254
72.31298 251
72.33309 244
72.35321 280
72.37332 249
72.39344 230
72.41355 247
72.43366 238
72.45378 255
72.47389 229
72.494 269
72.51412 254
72.53423 207
72.55434 235
72.57446 240
72.59457 244
72.61469 244
72.6348 259
72.65491 222
72.67503 245
72.69514 270
72.71525 252
72.73537 270
72.75548 235
72.7756 251
72.79571 245
72.81582 276
72.83594 221
72.85605 263
72.87616 258
72.89628 236
72.91639 253
72.9365 257
72.95662 266
72.97673 256
72.99685 235
73.01696 253
73.03707 276
73.05719 273
73.0773 297
73.09741 280
73.11753 269
73.13764 282
73.15776 279
73.17787 255
73.19798 297
73.2181 290
73.23821 322
73.25832 320
73.27844 353
73.29855 385
73.31867 414
73.33878 402
73.35889 455
73.37901 471
73.39912 522
73.41923 508
73.43935 533
73.45946 465
73.47957 415
73.49969 333
73.5198 337
73.53992 342
73.56003 353
73.58014 343
73.60026 365
73.62037 379
73.64048 365
73.6606 365
73.68071 312
73.70083 279
73.72094 309
73.74105 252
73.76117 248
73.78128 272
73.80139 281
73.82151 243
73.84162 251
73.86174 276
73.88185 241
73.90196 256
73.92208 223
73.94219 274
73.9623 245
73.98242 276
74.00253 242
74.02264 273
74.04276 249
74.06287 256
74.08299 233
74.1031 246
74.12321 254
74.14333 241
74.16344 219
74.18355 253
74.20367 232
74.22378 252
74.2439 243
74.26401 253
74.28412 256
74.30424 269
74.32435 255
74.34446 235
74.36458 241
74.38469 246
74.40481 222
74.42492 246
74.44503 256
74.46515 248
74.48526 252
74.50537 237
74.52549 266
74.5456 247
74.56571 266
74.58583 242
74.60594 248
74.62606 254
74.64617 259
74.66628 256
74.6864 260
74.70651 257
74.72662 242
74.74674 274
74.76685 254
74.78697 253
74.80708 251
74.82719 257
74.84731 232
74.86742 253
74.88753 262
74.90765 267
74.92776 251
74.94787 266
74.96799 246
74.9881 244
75.00822 269
