3.00117 21146
3.02128 20984
3.0414 20296
3.06151 19464
3.08162 19415
3.10174 18586
3.12185 18049
3.14197 17546
3.16208 16979
3.18219 16627
3.20231 15770
3.22242 15754
3.24253 15454
3.26265 14623
3.28276 14351
3.30288 13754
3.32299 13421
3.3431 13054
3.36322 12441
3.38333 12260
3.40344 11615
3.42356 11319
3.44367 11001
3.46379 10870
3.4839 10544
3.50401 9976
3.52413 9445
3.54424 9204
3.56435 8970
3.58447 8791
3.60458 8344
3.62469 8066
3.64481 7773
3.66492 7459
3.68504 7369
3.70515 6807
3.72526 6777
3.74538 6394
3.76549 6112
3.7856 6071
3.80572 5667
3.82583 5420
3.84595 5313
3.86606 4977
3.88617 5039
3.90629 4386
3.9264 4426
3.94651 4280
3.96663 4115
3.98674 3905
4.00686 3585
4.02697 3545
4.04708 3549
4.0672 3350
4.08731 3203
4.10742 2887
4.12754 2929
4.14765 2799
4.16776 2670
4.18788 2677
4.20799 2473
4.22811 2305
4.24822 2204
4.26833 2196
4.28845 2163
4.30856 1947
4.32867 1982
4.34879 1927
4.3689 1915
4.38902 1843
4.40913 1672
4.42924 1835
4.44936 1745
4.46947 1771
4.48958 1678
4.5097 1503
4.52981 1466
4.54992 1585
4.57004 1538
4.59015 1480
4.61027 1405
4.63038 1384
4.65049 1421
4.67061 1458
4.69072 1306
4.71083 1239
4.73095 1210
4.75106 1246
4.77118 1263
4.79129 1115
4.8114 1070
4.83152 1052
4.85163 1109
4.87174 1115
4.89186 1104
4.91197 1039
4.93209 1002
4.9522 1046
4.97231 1036
4.99243 948
5.01254 949
5.03265 923
5.05277 910
5.07288 887
5.09299 881
5.11311 873
5.13322 833
5.15334 827
5.17345 828
5.19356 862
5.21368 827
5.23379 793
5.2539 785
5.27402 738
5.29413 742
5.31425 755
5.33436 763
5.35447 689
5.37459 703
5.3947 667
5.41481 700
5.43493 663
5.45504 657
5.47516 657
5.49527 658
5.51538 582
5.5355 599
5.55561 601
5.57572 629
5.59584 580
5.61595 593
5.63606 608
5.65618 556
5.67629 552
5.69641 559
5.71652 553
5.73663 589
5.75675 544
5.77686 539
5.79697 542
5.81709 527
5.8372 500
5.85732 536
5.87743 563
5.89754 549
5.91766 554
5.93777 505
5.95788 475
5.978 518
5.99811 492
6.01823 462
6.03834 484
6.05845 467
6.07857 530
6.09868 462
6.11879 510
6.13891 500
6.15902 486
6.17913 505
6.19925 470
6.21936 477
6.23948 470
6.25959 457
6.2797 479
6.29982 476
6.31993 469
6.34004 477
6.36016 474
6.38027 496
6.40039 469
6.4205 503
6.44061 480
6.46073 475
6.48084 462
6.50095 460
6.52107 436
6.54118 429
6.56129 410
6.58141 462
6.60152 486
6.62164 444
6.64175 495
6.66186 434
6.68198 462
6.70209 422
6.7222 449
6.74232 385
6.76243 456
6.78255 414
6.80266 426
6.82277 419
6.84289 436
6.863 455
6.88311 434
6.90323 480
6.92334 445
6.94346 461
6.96357 451
6.98368 451
7.0038 406
7.02391 437
7.04402 419
7.06414 406
7.08425 453
7.10436 402
7.12448 419
7.14459 448
7.16471 447
7.18482 444
7.20493 445
7.22505 407
7.24516 448
7.26527 421
7.28539 449
7.3055 483
7.32562 428
7.34573 456
7.36584 425
7.38596 426
7.40607 474
7.42618 466
7.4463 403
7.46641 397
7.48653 417
7.50664 433
7.52675 425
7.54687 383
7.56698 404
7.58709 392
7.60721 502
7.62732 414
7.64743 436
7.66755 397
7.68766 429
7.70778 453
7.72789 415
7.748 431
7.76812 412
7.78823 378
7.80834 412
7.82846 404
7.84857 453
7.86869 393
7.8888 491
7.90891 438
7.92903 419
7.94914 475
7.96925 418
7.98937 466
8.00948 429
8.0296 421
8.04971 431
8.06982 451
8.08994 405
8.11005 399
8.13016 439
8.15028 441
8.17039 434
8.1905 414
8.21062 465
8.23073 422
8.25085 413
8.27096 382
8.29107 406
8.31119 408
8.3313 442
8.35141 432
8.37153 429
8.39164 439
8.41176 446
8.43187 417
8.45198 429
8.4721 417
8.49221 428
8.51232 474
8.53244 409
8.55255 484
8.57266 461
8.59278 440
8.61289 459
8.63301 455
8.65312 437
8.67323 469
8.69335 450
8.71346 454
8.73357 478
8.75369 373
8.7738 447
8.79392 418
8.81403 458
8.83414 439
8.85426 427
8.87437 417
8.89448 447
8.9146 449
8.93471 386
8.95483 466
8.97494 426
8.99505 396
9.01517 439
9.03528 470
9.05539 426
9.07551 429
9.09562 403
9.11573 439
9.13585 429
9.15596 364
9.17608 439
9.19619 393
9.2163 378
9.23642 399
9.25653 436
9.27664 418
9.29676 447
9.31687 415
9.33699 412
9.3571 431
9.37721 422
9.39733 440
9.41744 409
9.43755 404
9.45767 417
9.47778 465
9.4979 462
9.51801 495
9.53812 423
9.55824 399
9.57835 410
9.59846 392
9.61858 400
9.63869 452
9.6588 432
9.67892 401
9.69903 406
9.71915 457
9.73926 405
9.75937 438
9.77949 453
9.7996 370
9.81971 447
9.83983 448
9.85994 455
9.88006 403
9.90017 426
9.92028 461
9.9404 434
9.96051 380
9.98062 430
10.00074 417
10.02085 444
10.04097 445
10.06108 409
10.08119 414
10.10131 431
10.12142 387
10.14153 389
10.16165 425
10.18176 459
10.20187 431
10.22199 443
10.2421 452
10.26222 446
10.28233 404
10.30244 431
10.32256 386
10.34267 461
10.36278 430
10.3829 454
10.40301 453
10.42313 433
10.44324 397
10.46335 441
10.48347 447
10.50358 433
10.52369 441
10.54381 465
10.56392 431
10.58403 473
10.60415 445
10.62426 431
10.64438 464
10.66449 434
10.6846 479
10.70472 439
10.72483 455
10.74494 472
10.76506 461
10.78517 482
10.80529 439
10.8254 440
10.84551 475
10.86563 425
10.88574 441
10.90585 467
10.92597 468
10.94608 426
10.9662 503
10.98631 415
11.00642 468
11.02654 461
11.04665 477
11.06676 506
11.08688 511
11.10699 511
11.1271 427
11.14722 546
11.16733 503
11.18745 528
11.20756 501
11.22767 511
11.24779 493
11.2679 555
11.28801 507
11.30813 519
11.32824 559
11.34836 515
11.36847 534
11.38858 544
11.4087 558
11.42881 546
11.44892 576
11.46904 543
11.48915 558
11.50927 607
11.52938 582
11.54949 542
11.56961 581
11.58972 611
11.60983 604
11.62995 609
11.65006 616
11.67017 679
11.69029 642
11.7104 643
11.73052 635
11.75063 673
11.77074 655
11.79086 749
11.81097 731
11.83108 679
11.8512 721
11.87131 763
11.89143 808
11.91154 783
11.93165 778
11.95177 755
11.97188 767
11.99199 846
12.01211 855
12.03222 922
12.05234 844
12.07245 917
12.09256 835
12.11268 847
12.13279 875
12.1529 918
12.17302 821
12.19313 889
12.21324 889
12.23336 849
12.25347 852
12.27359 791
12.2937 804
12.31381 773
12.33393 794
12.35404 688
12.37415 689
12.39427 696
12.41438 690
12.4345 693
12.45461 640
12.47472 646
12.49484 567
12.51495 583
12.53506 606
12.55518 582
12.57529 573
12.5954 537
12.61552 520
12.63563 520
12.65575 571
12.67586 478
12.69597 509
12.71609 510
12.7362 518
12.75631 475
12.77643 473
12.79654 469
12.81666 455
12.83677 486
12.85688 489
12.877 441
12.89711 464
12.91722 483
12.93734 471
12.95745 470
12.97757 465
12.99768 505
13.01779 496
13.03791 435
13.05802 493
13.07813 434
13.09825 414
13.11836 467
13.13847 469
13.15859 427
13.1787 456
13.19882 459
13.21893 400
13.23904 434
13.25916 426
13.27927 423
13.29938 435
13.3195 408
13.33961 416
13.35973 381
13.37984 352
13.39995 406
13.42007 433
13.44018 418
13.46029 403
13.48041 407
13.50052 449
13.52064 449
13.54075 430
13.56086 432
13.58098 440
13.60109 435
13.6212 419
13.64132 407
13.66143 405
13.68154 461
13.70166 364
13.72177 374
13.74189 355
13.762 381
13.78211 371
13.80223 400
13.82234 367
13.84245 417
13.86257 395
13.88268 389
13.9028 411
13.92291 414
13.94302 354
13.96314 373
13.98325 390
14.00336 390
14.02348 375
14.04359 399
14.06371 360
14.08382 413
14.10393 384
14.12405 406
14.14416 367
14.16427 403
14.18439 369
14.2045 366
14.22461 390
14.24473 361
14.26484 380
14.28496 361
14.30507 420
14.32518 353
14.3453 354
14.36541 372
14.38552 376
14.40564 390
14.42575 409
14.44587 378
14.46598 364
14.48609 352
14.50621 356
14.52632 402
14.54643 351
14.56655 354
14.58666 350
14.60677 390
14.62689 340
14.647 373
14.66712 385
14.68723 371
14.70734 422
14.72746 413
14.74757 372
14.76768 415
14.7878 360
14.80791 404
14.82803 395
14.84814 391
14.86825 406
14.88837 351
14.90848 386
14.92859 402
14.94871 372
14.96882 388
14.98894 351
15.00905 381
15.02916 412
15.04928 394
15.06939 365
15.0895 417
15.10962 375
15.12973 377
15.14984 358
15.16996 374
15.19007 347
15.21019 384
15.2303 368
15.25041 390
15.27053 397
15.29064 375
15.31075 342
15.33087 401
15.35098 366
15.3711 354
15.39121 369
15.41132 356
15.43144 372
15.45155 375
15.47166 398
15.49178 392
15.51189 368
15.53201 362
15.55212 334
15.57223 347
15.59235 387
15.61246 367
15.63257 345
15.65269 351
15.6728 357
15.69291 328
15.71303 386
15.73314 353
15.75326 293
15.77337 375
15.79348 359
15.8136 349
15.83371 385
15.85382 335
15.87394 352
15.89405 359
15.91417 341
15.93428 372
15.95439 352
15.97451 382
15.99462 358
16.01473 331
16.03485 364
16.05496 353
16.07508 376
16.09519 366
16.1153 357
16.13542 392
16.15553 366
16.17564 371
16.19576 360
16.21587 336
16.23598 379
16.2561 378
16.27621 353
16.29633 345
16.31644 318
16.33655 368
16.35667 327
16.37678 366
16.39689 316
16.41701 328
16.43712 347
16.45724 339
16.47735 373
16.49746 355
16.51758 382
16.53769 384
16.5578 358
16.57792 360
16.59803 377
16.61814 416
16.63826 385
16.65837 353
16.67849 378
16.6986 354
16.71871 367
16.73883 396
16.75894 349
16.77905 380
16.79917 316
16.81928 346
16.8394 363
16.85951 351
16.87962 393
16.89974 377
16.91985 369
16.93996 367
16.96008 387
16.98019 353
17.00031 366
17.02042 338
17.04053 357
17.06065 342
17.08076 342
17.10087 384
17.12099 372
17.1411 374
17.16121 388
17.18133 363
17.20144 369
17.22156 378
17.24167 393
17.26178 344
17.2819 403
17.30201 393
17.32212 365
17.34224 392
17.36235 385
17.38247 374
17.40258 416
17.42269 364
17.44281 393
17.46292 344
17.48303 401
17.50315 381
17.52326 343
17.54338 377
17.56349 377
17.5836 395
17.60372 409
17.62383 387
17.64394 401
17.66406 406
17.68417 390
17.70428 388
17.7244 402
17.74451 434
17.76463 390
17.78474 378
17.80485 399
17.82497 439
17.84508 393
17.86519 372
17.88531 385
17.90542 376
17.92554 426
17.94565 393
17.96576 427
17.98588 372
18.00599 416
18.0261 426
18.04622 393
18.06633 442
18.08645 512
18.10656 445
18.12667 502
18.14679 582
18.1669 572
18.18701 578
18.20713 605
18.22724 559
18.24735 578
18.26747 498
18.28758 498
18.3077 463
18.32781 415
18.34792 411
18.36804 435
18.38815 393
18.40826 419
18.42838 375
18.44849 398
18.46861 382
18.48872 383
18.50883 358
18.52895 371
18.54906 399
18.56917 393
18.58929 417
18.6094 403
18.62951 395
18.64963 406
18.66974 419
18.68986 415
18.70997 352
18.73008 367
18.7502 382
18.77031 378
18.79042 387
18.81054 384
18.83065 377
18.85077 375
18.87088 378
18.89099 339
18.91111 396
18.93122 379
18.95133 447
18.97145 370
18.99156 402
19.01168 407
19.03179 414
19.0519 412
19.07202 383
19.09213 434
19.11224 400
19.13236 422
19.15247 450
19.17258 450
19.1927 394
19.21281 410
19.23293 447
19.25304 392
19.27315 449
19.29327 433
19.31338 440
19.33349 451
19.35361 429
19.37372 450
19.39384 450
19.41395 442
19.43406 469
19.45418 487
19.47429 482
19.4944 452
19.51452 495
19.53463 579
19.55475 561
19.57486 578
19.59497 571
19.61509 618
19.6352 647
19.65531 652
19.67543 702
19.69554 759
19.71565 808
19.73577 858
19.75588 866
19.776 874
19.79611 849
19.81622 911
19.83634 881
19.85645 975
19.87656 837
19.89668 907
19.91679 911
19.93691 850
19.95702 807
19.97713 843
19.99725 722
20.01736 774
20.03747 773
20.05759 820
20.0777 803
20.09782 804
20.11793 828
20.13804 846
20.15816 834
20.17827 890
20.19838 914
20.2185 882
20.23861 867
20.25872 860
20.27884 865
20.29895 858
20.31907 832
20.33918 860
20.35929 890
20.37941 871
20.39952 878
20.41963 861
20.43975 869
20.45986 858
20.47998 862
20.50009 831
20.5202 897
20.54032 854
20.56043 887
20.58054 941
20.60066 1031
20.62077 1109
20.64088 1286
20.661 1498
20.68111 1738
20.70123 2063
20.72134 2324
20.74145 2652
20.76157 2788
20.78168 2633
20.80179 2333
20.82191 1991
20.84202 1733
20.86214 1546
20.88225 1373
20.90236 1239
20.92248 1236
20.94259 1201
20.9627 1060
20.98282 1042
21.00293 970
21.02305 968
21.04316 950
21.06327 869
21.08339 815
21.1035 849
21.12361 808
21.14373 833
21.16384 813
21.18395 853
21.20407 830
21.22418 869
21.2443 771
21.26441 745
21.28452 820
21.30464 787
21.32475 781
21.34486 767
21.36498 774
21.38509 776
21.40521 701
21.42532 739
21.44543 792
21.46555 703
21.48566 759
21.50577 705
21.52589 684
21.546 774
21.56612 691
21.58623 735
21.60634 668
21.62646 659
21.64657 693
21.66668 687
21.6868 684
21.70691 648
21.72702 645
21.74714 638
21.76725 653
21.78737 655
21.80748 604
21.82759 673
21.84771 640
21.86782 610
21.88793 632
21.90805 680
21.92816 665
21.94828 614
21.96839 677
21.9885 588
22.00862 588
22.02873 625
22.04884 626
22.06896 658
22.08907 638
22.10919 621
22.1293 669
22.14941 620
22.16953 584
22.18964 633
22.20975 710
22.22987 673
22.24998 735
22.27009 641
22.29021 654
22.31032 693
22.33044 658
22.35055 596
22.37066 656
22.39078 586
22.41089 599
22.431 598
22.45112 628
22.47123 638
22.49135 652
22.51146 576
22.53157 644
22.55169 596
22.5718 626
22.59191 588
22.61203 565
22.63214 601
22.65225 557
22.67237 527
22.69248 580
22.7126 572
22.73271 586
22.75282 605
22.77294 577
22.79305 540
22.81316 597
22.83328 578
22.85339 639
22.87351 609
22.89362 596
22.91373 593
22.93385 634
22.95396 619
22.97407 583
22.99419 644
23.0143 622
23.03442 701
23.05453 644
23.07464 696
23.09476 719
23.11487 661
23.13498 683
23.1551 702
23.17521 649
23.19532 654
23.21544 626
23.23555 613
23.25567 612
23.27578 591
23.29589 619
23.31601 573
23.33612 618
23.35623 585
23.37635 576
23.39646 578
23.41658 611
23.43669 641
23.4568 615
23.47692 600
23.49703 595
23.51714 613
23.53726 583
23.55737 568
23.57749 580
23.5976 578
23.61771 582
23.63783 570
23.65794 616
23.67805 642
23.69817 648
23.71828 636
23.73839 669
23.75851 615
23.77862 625
23.79874 659
23.81885 674
23.83896 679
23.85908 667
23.87919 687
23.8993 725
23.91942 723
23.93953 671
23.95965 674
23.97976 717
23.99987 621
24.01999 649
24.0401 635
24.06021 628
24.08033 612
24.10044 651
24.12056 636
24.14067 616
24.16078 648
24.1809 678
24.20101 695
24.22112 681
24.24124 732
24.26135 662
24.28146 724
24.30158 697
24.32169 725
24.34181 713
24.36192 678
24.38203 683
24.40215 693
24.42226 722
24.44237 695
24.46249 706
24.4826 737
24.50272 780
24.52283 745
24.54294 797
24.56306 831
24.58317 781
24.60328 885
24.6234 853
24.64351 912
24.66362 856
24.68374 818
24.70385 922
24.72397 907
24.74408 929
24.76419 955
24.78431 901
24.80442 915
24.82453 940
24.84465 929
24.86476 824
24.88488 895
24.90499 926
24.9251 885
24.94522 860
24.96533 865
24.98544 907
25.00556 883
25.02567 874
25.04579 824
25.0659 820
25.08601 842
25.10613 808
25.12624 855
25.14635 888
25.16647 755
25.18658 711
25.20669 781
25.22681 773
25.24692 765
25.26704 766
25.28715 749
25.30726 737
25.32738 822
25.34749 791
25.3676 759
25.38772 892
25.40783 813
25.42795 857
25.44806 847
25.46817 920
25.48829 880
25.5084 925
25.52851 905
25.54863 879
25.56874 830
25.58886 755
25.60897 829
25.62908 698
25.6492 700
25.66931 699
25.68942 627
25.70954 650
25.72965 632
25.74976 585
25.76988 627
25.78999 638
25.81011 599
25.83022 599
25.85033 597
25.87045 611
25.89056 656
25.91067 619
25.93079 646
25.9509 611
25.97102 682
25.99113 639
26.01124 711
26.03136 674
26.05147 668
26.07158 695
26.0917 733
26.11181 775
26.13193 791
26.15204 810
26.17215 813
26.19227 847
26.21238 879
26.23249 969
26.25261 1048
26.27272 1167
26.29283 1218
26.31295 1389
26.33306 1563
26.35318 1741
26.37329 2099
26.3934 2598
26.41352 3160
26.43363 3954
26.45374 5211
26.47386 6390
26.49397 7831
26.51409 8998
26.5342 9373
26.55431 9107
26.57443 7893
26.59454 6631
26.61465 5388
26.63477 4235
26.65488 3094
26.67499 2228
26.69511 1710
26.71522 1452
26.73534 1252
26.75545 1075
26.77556 1024
26.79568 942
26.81579 894
26.8359 944
26.85602 935
26.87613 965
26.89625 928
26.91636 920
26.93647 951
26.95659 1051
26.9767 966
26.99681 896
27.01693 880
27.03704 859
27.05716 818
27.07727 767
27.09738 699
27.1175 751
27.13761 682
27.15772 737
27.17784 808
27.19795 761
27.21806 845
27.23818 948
27.25829 980
27.27841 1028
27.29852 1157
27.31863 1151
27.33875 1228
27.35886 1291
27.37897 1265
27.39909 1244
27.4192 1128
27.43932 1066
27.45943 890
27.47954 881
27.49966 772
27.51977 659
27.53988 642
27.56 600
27.58011 558
27.60023 570
27.62034 552
27.64045 517
27.66057 536
27.68068 500
27.70079 507
27.72091 546
27.74102 551
27.76113 526
27.78125 507
27.80136 541
27.82148 526
27.84159 513
27.8617 548
27.88182 547
27.90193 520
27.92204 527
27.94216 496
27.96227 465
27.98239 505
28.0025 471
28.02261 489
28.04273 456
28.06284 536
28.08295 474
28.10307 470
28.12318 474
28.1433 476
28.16341 474
28.18352 489
28.20364 476
28.22375 453
28.24386 461
28.26398 479
28.28409 501
28.3042 416
28.32432 442
28.34443 455
28.36455 441
28.38466 444
28.40477 426
28.42489 489
28.445 464
28.46511 456
28.48523 438
28.50534 474
28.52546 455
28.54557 509
28.56568 464
28.5858 443
28.60591 452
28.62602 440
28.64614 442
28.66625 441
28.68636 442
28.70648 449
28.72659 482
28.74671 467
28.76682 425
28.78693 489
28.80705 420
28.82716 439
28.84727 430
28.86739 456
28.8875 474
28.90762 445
28.92773 461
28.94784 458
28.96796 474
28.98807 460
29.00818 441
29.0283 458
29.04841 438
29.06853 447
29.08864 420
29.10875 477
29.12887 453
29.14898 456
29.16909 441
29.18921 459
29.20932 474
29.22943 464
29.24955 470
29.26966 514
29.28978 460
29.30989 503
29.33 529
29.35012 536
29.37023 512
29.39034 496
29.41046 557
29.43057 469
29.45069 470
29.4708 521
29.49091 453
29.51103 491
29.53114 493
29.55125 462
29.57137 495
29.59148 496
29.6116 489
29.63171 496
29.65182 465
29.67194 477
29.69205 467
29.71216 456
29.73228 490
29.75239 447
29.7725 519
29.79262 495
29.81273 413
29.83285 480
29.85296 479
29.87307 457
29.89319 538
29.9133 513
29.93341 507
29.95353 547
29.97364 512
29.99376 562
30.01387 480
30.03398 509
30.0541 556
30.07421 591
30.09432 556
30.11444 519
30.13455 601
30.15467 529
30.17478 517
30.19489 507
30.21501 502
30.23512 521
30.25523 459
30.27535 491
30.29546 442
30.31557 454
30.33569 447
30.3558 444
30.37592 451
30.39603 461
30.41614 457
30.43626 452
30.45637 431
30.47648 458
30.4966 432
30.51671 469
30.53683 491
30.55694 510
30.57705 521
30.59717 494
30.61728 559
30.63739 559
30.65751 563
30.67762 601
30.69773 534
30.71785 568
30.73796 569
30.75808 545
30.77819 513
30.7983 496
30.81842 531
30.83853 501
30.85864 464
30.87876 475
30.89887 455
30.91899 458
30.9391 398
30.95921 405
30.97933 414
30.99944 417
31.01955 434
31.03967 404
31.05978 409
31.0799 407
31.10001 399
31.12012 429
31.14024 409
31.16035 415
31.18046 368
31.20058 414
31.22069 380
31.2408 416
31.26092 421
31.28103 397
31.30115 435
31.32126 416
31.34137 425
31.36149 423
31.3816 389
31.40171 418
31.42183 436
31.44194 417
31.46206 367
31.48217 421
31.50228 410
31.5224 425
31.54251 416
31.56262 381
31.58274 393
31.60285 382
31.62297 422
31.64308 379
31.66319 455
31.68331 417
31.70342 436
31.72353 439
31.74365 394
31.76376 414
31.78387 409
31.80399 407
31.8241 419
31.84422 444
31.86433 416
31.88444 430
31.90456 415
31.92467 413
31.94478 430
31.9649 414
31.98501 453
32.00513 454
32.02524 468
32.04535 480
32.06547 440
32.08558 417
32.10569 467
32.12581 451
32.14592 426
32.16604 444
32.18615 409
32.20626 389
32.22638 462
32.24649 481
32.2666 440
32.28672 477
32.30683 421
32.32694 506
32.34706 465
32.36717 473
32.38729 488
32.4074 432
32.42751 441
32.44763 452
32.46774 439
32.48785 464
32.50797 444
32.52808 433
32.5482 382
32.56831 396
32.58842 447
32.60854 437
32.62865 377
32.64876 427
32.66888 400
32.68899 438
32.7091 402
32.72922 386
32.74933 399
32.76945 425
32.78956 419
32.80967 443
32.82979 470
32.8499 417
32.87001 420
32.89013 442
32.91024 437
32.93036 487
32.95047 440
32.97058 484
32.9907 447
33.01081 446
33.03092 478
33.05104 468
33.07115 458
33.09127 456
33.11138 453
33.13149 501
33.15161 493
33.17172 433
33.19183 441
33.21195 440
33.23206 459
33.25217 468
33.27229 447
33.2924 444
33.31252 415
33.33263 475
33.35274 446
33.37286 434
33.39297 470
33.41308 452
33.4332 447
33.45331 434
33.47343 438
33.49354 421
33.51365 484
33.53377 397
33.55388 460
33.57399 407
33.59411 466
33.61422 466
33.63434 458
33.65445 421
33.67456 438
33.69468 472
33.71479 434
33.7349 414
33.75502 458
33.77513 439
33.79524 407
33.81536 445
33.83547 432
33.85559 435
33.8757 427
33.89581 435
33.91593 412
33.93604 433
33.95615 476
33.97627 464
33.99638 519
34.0165 484
34.03661 516
34.05672 549
34.07684 535
34.09695 531
34.11706 498
34.13718 519
34.15729 496
34.17741 507
34.19752 547
34.21763 476
34.23775 491
34.25786 515
34.27797 490
34.29809 488
34.3182 543
34.33831 447
34.35843 459
34.37854 473
34.39866 491
34.41877 528
34.43888 528
34.459 530
34.47911 529
34.49922 544
34.51934 535
34.53945 568
34.55957 575
34.57968 552
34.59979 554
34.61991 574
34.64002 645
34.66013 605
34.68025 623
34.70036 618
34.72047 655
34.74059 712
34.7607 668
34.78082 721
34.80093 727
34.82104 765
34.84116 732
34.86127 714
34.88138 763
34.9015 760
34.92161 772
34.94173 736
34.96184 715
34.98195 750
35.00207 687
35.02218 671
35.04229 713
35.06241 689
35.08252 630
35.10264 614
35.12275 672
35.14286 690
35.16298 659
35.18309 663
35.2032 619
35.22332 670
35.24343 616
35.26354 701
35.28366 662
35.30377 641
35.32389 660
35.344 704
35.36411 686
35.38423 679
35.40434 713
35.42445 688
35.44457 656
35.46468 743
35.4848 711
35.50491 719
35.52502 711
35.54514 633
35.56525 694
35.58536 689
35.60548 701
35.62559 702
35.64571 692
35.66582 667
35.68593 692
35.70605 687
35.72616 703
35.74627 677
35.76639 708
35.7865 677
35.80661 689
35.82673 711
35.84684 659
35.86696 621
35.88707 625
35.90718 641
35.9273 620
35.94741 621
35.96752 568
35.98764 610
36.00775 604
36.02787 590
36.04798 611
36.06809 595
36.08821 557
36.10832 583
36.12843 537
36.14855 592
36.16866 598
36.18878 573
36.20889 595
36.229 626
36.24912 616
36.26923 625
36.28934 720
36.30946 721
36.32957 799
36.34968 847
36.3698 913
36.38991 954
36.41003 1117
36.43014 1113
36.45025 1130
36.47037 1077
36.49048 992
36.51059 913
36.53071 831
36.55082 790
36.57094 744
36.59105 667
36.61116 651
36.63128 643
36.65139 566
36.6715 643
36.69162 591
36.71173 585
36.73184 601
36.75196 563
36.77207 630
36.79219 583
36.8123 615
36.83241 601
36.85253 626
36.87264 601
36.89275 636
36.91287 596
36.93298 605
36.9531 597
36.97321 563
36.99332 607
37.01344 579
37.03355 567
37.05366 567
37.07378 563
37.09389 574
37.11401 549
37.13412 533
37.15423 585
37.17435 586
37.19446 520
37.21457 526
37.23469 577
37.2548 541
37.27491 520
37.29503 573
37.31514 512
37.33526 527
37.35537 585
37.37548 536
37.3956 561
37.41571 513
37.43582 554
37.45594 590
37.47605 575
37.49617 563
37.51628 582
37.53639 571
37.55651 592
37.57662 566
37.59673 585
37.61685 557
37.63696 567
37.65708 625
37.67719 549
37.6973 555
37.71742 592
37.73753 629
37.75764 615
37.77776 570
37.79787 571
37.81798 540
37.8381 550
37.85821 570
37.87833 581
37.89844 606
37.91855 564
37.93867 563
37.95878 590
37.97889 606
37.99901 555
38.01912 573
38.03924 650
38.05935 597
38.07946 615
38.09958 610
38.11969 630
38.1398 647
38.15992 651
38.18003 656
38.20015 610
38.22026 693
38.24037 680
38.26049 647
38.2806 662
38.30071 657
38.32083 724
38.34094 660
38.36105 634
38.38117 631
38.40128 653
38.4214 669
38.44151 638
38.46162 689
38.48174 670
38.50185 641
38.52196 587
38.54208 593
38.56219 609
38.58231 596
38.60242 603
38.62253 573
38.64265 556
38.66276 577
38.68287 577
38.70299 604
38.7231 552
38.74321 568
38.76333 594
38.78344 572
38.80356 510
38.82367 565
38.84378 546
38.8639 562
38.88401 564
38.90412 608
38.92424 588
38.94435 587
38.96447 573
38.98458 547
39.00469 560
39.02481 566
39.04492 539
39.06503 583
39.08515 498
39.10526 610
39.12538 594
39.14549 561
39.1656 594
39.18572 625
39.20583 655
39.22594 710
39.24606 680
39.26617 749
39.28628 809
39.3064 870
39.32651 1001
39.34663 986
39.36674 995
39.38685 981
39.40697 890
39.42708 806
39.44719 811
39.46731 775
39.48742 683
39.50754 595
39.52765 616
39.54776 532
39.56788 534
39.58799 473
39.6081 465
39.62822 472
39.64833 444
39.66845 467
39.68856 481
39.70867 471
39.72879 454
39.7489 440
39.76901 449
39.78913 460
39.80924 492
39.82935 461
39.84947 466
39.86958 485
39.8897 453
39.90981 481
39.92992 516
39.95004 489
39.97015 495
39.99026 499
40.01038 503
40.03049 576
40.05061 514
40.07072 581
40.09083 565
40.11095 625
40.13106 675
40.15117 719
40.17129 667
40.1914 748
40.21152 659
40.23163 691
40.25174 594
40.27186 595
40.29197 564
40.31208 554
40.3322 557
40.35231 492
40.37242 512
40.39254 472
40.41265 488
40.43277 490
40.45288 451
40.47299 466
40.49311 443
40.51322 478
40.53333 475
40.55345 432
40.57356 452
40.59368 480
40.61379 435
40.6339 477
40.65402 460
40.67413 471
40.69424 463
40.71436 460
40.73447 452
40.75458 487
40.7747 440
40.79481 450
40.81493 447
40.83504 471
40.85515 469
40.87527 426
40.89538 477
40.91549 445
40.93561 440
40.95572 425
40.97584 436
40.99595 448
41.01606 440
41.03618 445
41.05629 449
41.0764 432
41.09652 441
41.11663 430
41.13675 425
41.15686 469
41.17697 438
41.19709 492
41.2172 413
41.23731 400
41.25743 417
41.27754 446
41.29765 415
41.31777 460
41.33788 466
41.358 467
41.37811 451
41.39822 461
41.41834 477
41.43845 449
41.45856 472
41.47868 461
41.49879 473
41.51891 444
41.53902 475
41.55913 520
41.57925 509
41.59936 554
41.61947 516
41.63959 565
41.6597 562
41.67982 554
41.69993 556
41.72004 584
41.74016 551
41.76027 527
41.78038 475
41.8005 478
41.82061 458
41.84072 472
41.86084 449
41.88095 401
41.90107 441
41.92118 414
41.94129 447
41.96141 439
41.98152 446
42.00163 443
42.02175 467
42.04186 427
42.06198 459
42.08209 443
42.1022 425
42.12232 450
42.14243 454
42.16254 467
42.18266 482
42.20277 503
42.22289 552
42.243 600
42.26311 609
42.28323 689
42.30334 749
42.32345 764
42.34357 699
42.36368 777
42.38379 680
42.40391 649
42.42402 637
42.44414 626
42.46425 582
42.48436 560
42.50448 518
42.52459 484
42.5447 485
42.56482 452
42.58493 401
42.60505 444
42.62516 440
42.64527 404
42.66539 426
42.6855 408
42.70561 409
42.72573 394
42.74584 402
42.76595 428
42.78607 412
42.80618 402
42.8263 417
42.84641 398
42.86652 410
42.88664 438
42.90675 389
42.92686 419
42.94698 385
42.96709 385
42.98721 406
43.00732 371
43.02743 379
43.04755 400
43.06766 389
43.08777 403
43.10789 371
43.128 380
43.14812 387
43.16823 380
43.18834 387
43.20846 418
43.22857 379
43.24868 359
43.2688 370
43.28891 357
43.30902 408
43.32914 380
43.34925 373
43.36937 403
43.38948 399
43.40959 377
43.42971 348
43.44982 426
43.46993 404
43.49005 378
43.51016 403
43.53028 392
43.55039 416
43.5705 380
43.59062 385
43.61073 360
43.63084 362
43.65096 354
43.67107 374
43.69119 396
43.7113 368
43.73141 398
43.75153 399
43.77164 404
43.79175 392
43.81187 352
43.83198 367
43.85209 387
43.87221 385
43.89232 387
43.91244 410
43.93255 433
43.95266 402
43.97278 404
43.99289 424
44.013 416
44.03312 447
44.05323 368
44.07335 446
44.09346 415
44.11357 420
44.13369 416
44.1538 399
44.17391 430
44.19403 401
44.21414 423
44.23426 425
44.25437 427
44.27448 407
44.2946 395
44.31471 369
44.33482 383
44.35494 414
44.37505 382
44.39516 375
44.41528 395
44.43539 405
44.45551 378
44.47562 377
44.49573 378
44.51585 388
44.53596 420
44.55607 410
44.57619 378
44.5963 370
44.61642 397
44.63653 378
44.65664 413
44.67676 411
44.69687 384
44.71698 379
44.7371 388
44.75721 393
44.77732 404
44.79744 410
44.81755 391
44.83767 412
44.85778 419
44.87789 434
44.89801 412
44.91812 412
44.93823 388
44.95835 413
44.97846 446
44.99858 443
45.01869 451
45.0388 409
45.05892 424
45.07903 410
45.09914 409
45.11926 446
45.13937 491
45.15949 459
45.1796 481
45.19971 430
45.21983 473
45.23994 476
45.26005 469
45.28017 425
45.30028 434
45.32039 484
45.34051 474
45.36062 475
45.38074 487
45.40085 497
45.42096 496
45.44108 511
45.46119 532
45.4813 493
45.50142 519
45.52153 536
45.54165 509
45.56176 507
45.58187 580
45.60199 586
45.6221 624
45.64221 607
45.66233 686
45.68244 684
45.70256 689
45.72267 621
45.74278 592
45.7629 622
45.78301 577
45.80312 566
45.82324 565
45.84335 472
45.86346 459
45.88358 420
45.90369 451
45.92381 451
45.94392 413
45.96403 447
45.98415 438
46.00426 456
46.02437 447
46.04449 424
46.0646 437
46.08472 444
46.10483 461
46.12494 411
46.14506 388
46.16517 442
46.18528 405
46.2054 397
46.22551 431
46.24563 427
46.26574 426
46.28585 367
46.30597 445
46.32608 426
46.34619 398
46.36631 404
46.38642 411
46.40653 389
46.42665 390
46.44676 385
46.46688 400
46.48699 424
46.5071 417
46.52722 390
46.54733 442
46.56744 423
46.58756 413
46.60767 420
46.62779 411
46.6479 435
46.66801 362
46.68813 421
46.70824 356
46.72835 410
46.74847 405
46.76858 382
46.78869 370
46.80881 406
46.82892 395
46.84904 425
46.86915 475
46.88926 410
46.90938 429
46.92949 401
46.9496 464
46.96972 444
46.98983 425
47.00995 447
47.03006 467
47.05017 434
47.07029 471
47.0904 466
47.11051 461
47.13063 439
47.15074 460
47.17086 433
47.19097 426
47.21108 415
47.2312 452
47.25131 422
47.27142 428
47.29154 406
47.31165 414
47.33176 406
47.35188 418
47.37199 442
47.39211 394
47.41222 397
47.43233 435
47.45245 415
47.47256 460
47.49267 420
47.51279 387
47.5329 402
47.55302 421
47.57313 413
47.59324 400
47.61336 392
47.63347 430
47.65358 367
47.6737 399
47.69381 402
47.71393 408
47.73404 417
47.75415 411
47.77427 410
47.79438 412
47.81449 427
47.83461 405
47.85472 410
47.87483 411
47.89495 389
47.91506 431
47.93518 398
47.95529 366
47.9754 389
47.99552 445
48.01563 411
48.03574 401
48.05586 420
48.07597 400
48.09609 391
48.1162 380
48.13631 386
48.15643 356
48.17654 400
48.19665 368
48.21677 391
48.23688 377
48.257 392
48.27711 354
48.29722 372
48.31734 394
48.33745 403
48.35756 370
48.37768 358
48.39779 353
48.4179 390
48.43802 433
48.45813 404
48.47825 373
48.49836 432
48.51847 364
48.53859 410
48.5587 396
48.57881 370
48.59893 410
48.61904 405
48.63916 441
48.65927 372
48.67938 395
48.6995 385
48.71961 430
48.73972 401
48.75984 398
48.77995 416
48.80006 420
48.82018 409
48.84029 437
48.86041 435
48.88052 395
48.90063 430
48.92075 443
48.94086 419
48.96097 388
48.98109 391
49.0012 388
49.02132 418
49.04143 404
49.06154 413
49.08166 423
49.10177 386
49.12188 426
49.142 377
49.16211 359
49.18223 369
49.20234 391
49.22245 393
49.24257 407
49.26268 365
49.28279 383
49.30291 449
49.32302 386
49.34313 398
49.36325 407
49.38336 377
49.40348 414
49.42359 366
49.4437 401
49.46382 441
49.48393 415
49.50404 411
49.52416 369
49.54427 435
49.56439 405
49.5845 426
49.60461 428
49.62473 401
49.64484 430
49.66495 438
49.68507 446
49.70518 500
49.7253 482
49.74541 440
49.76552 508
49.78564 465
49.80575 493
49.82586 542
49.84598 578
49.86609 567
49.8862 628
49.90632 754
49.92643 819
49.94655 937
49.96666 1060
49.98677 1189
50.00689 1205
50.027 1299
50.04711 1297
50.06723 1037
50.08734 980
50.10746 937
50.12757 877
50.14768 908
50.1678 837
50.18791 708
50.20802 673
50.22814 590
50.24825 533
50.26837 508
50.28848 521
50.30859 474
50.32871 489
50.34882 532
50.36893 511
50.38905 549
50.40916 553
50.42927 554
50.44939 566
50.4695 563
50.48962 530
50.50973 506
50.52984 554
50.54996 492
50.57007 522
50.59018 525
50.6103 495
50.63041 498
50.65053 502
50.67064 506
50.69075 467
50.71087 448
50.73098 457
50.75109 425
50.77121 419
50.79132 417
50.81143 418
50.83155 387
50.85166 409
50.87178 431
50.89189 400
50.912 419
50.93212 385
50.95223 426
50.97234 378
50.99246 389
51.01257 393
51.03269 363
51.0528 367
51.07291 358
51.09303 393
51.11314 375
51.13325 375
51.15337 346
51.17348 372
51.1936 360
51.21371 376
51.23382 374
51.25394 368
51.27405 366
51.29416 377
51.31428 346
51.33439 373
51.3545 383
51.37462 345
51.39473 355
51.41485 372
51.43496 338
51.45507 371
51.47519 374
51.4953 361
51.51541 345
51.53553 331
51.55564 364
51.57576 353
51.59587 344
51.61598 348
51.6361 360
51.65621 370
51.67632 370
51.69644 383
51.71655 356
51.73667 354
51.75678 356
51.77689 365
51.79701 362
51.81712 393
51.83723 404
51.85735 384
51.87746 386
51.89757 346
51.91769 353
51.9378 346
51.95792 358
51.97803 335
51.99814 371
52.01826 341
52.03837 363
52.05848 398
52.0786 360
52.09871 363
52.11883 354
52.13894 381
52.15905 400
52.17917 369
52.19928 395
52.21939 369
52.23951 386
52.25962 386
52.27974 391
52.29985 359
52.31996 334
52.34008 343
52.36019 378
52.3803 397
52.40042 364
52.42053 413
52.44064 367
52.46076 347
52.48087 358
52.50099 377
52.5211 347
52.54121 375
52.56133 397
52.58144 392
52.60155 379
52.62167 375
52.64178 372
52.6619 408
52.68201 385
52.70212 358
52.72224 370
52.74235 371
52.76246 366
52.78258 407
52.80269 359
52.8228 363
52.84292 390
52.86303 397
52.88315 356
52.90326 363
52.92337 347
52.94349 393
52.9636 374
52.98371 364
53.00383 373
53.02394 404
53.04406 411
53.06417 369
53.08428 405
53.1044 375
53.12451 389
53.14462 375
53.16474 402
53.18485 416
53.20497 401
53.22508 383
53.24519 408
53.26531 412
53.28542 439
53.30553 418
53.32565 360
53.34576 424
53.36587 404
53.38599 440
53.4061 418
53.42622 429
53.44633 413
53.46644 416
53.48656 424
53.50667 449
53.52678 435
53.5469 474
53.56701 452
53.58713 422
53.60724 416
53.62735 438
53.64747 462
53.66758 398
53.68769 444
53.70781 409
53.72792 456
53.74804 460
53.76815 423
53.78826 480
53.80838 447
53.82849 418
53.8486 459
53.86872 463
53.88883 455
53.90894 462
53.92906 459
53.94917 476
53.96929 481
53.9894 470
54.00951 469
54.02963 456
54.04974 499
54.06985 467
54.08997 428
54.11008 488
54.1302 462
54.15031 498
54.17042 467
54.19054 496
54.21065 479
54.23076 484
54.25088 472
54.27099 492
54.29111 519
54.31122 528
54.33133 499
54.35145 503
54.37156 501
54.39167 482
54.41179 519
54.4319 504
54.45201 487
54.47213 450
54.49224 490
54.51236 516
54.53247 501
54.55258 500
54.5727 557
54.59281 555
54.61292 543
54.63304 537
54.65315 614
54.67327 618
54.69338 664
54.71349 677
54.73361 685
54.75372 731
54.77383 712
54.79395 667
54.81406 664
54.83417 656
54.85429 674
54.8744 623
54.89452 571
54.91463 658
54.93474 569
54.95486 581
54.97497 554
54.99508 546
55.0152 507
55.03531 532
55.05543 520
55.07554 501
55.09565 511
55.11577 550
55.13588 562
55.15599 563
55.17611 558
55.19622 573
55.21634 599
55.23645 551
55.25656 563
55.27668 580
55.29679 505
55.3169 554
55.33702 546
55.35713 535
55.37724 514
55.39736 539
55.41747 506
55.43759 498
55.4577 460
55.47781 437
55.49793 453
55.51804 453
55.53815 444
55.55827 449
55.57838 491
55.5985 444
55.61861 495
55.63872 467
55.65884 428
55.67895 396
55.69906 416
55.71918 426
55.73929 430
55.75941 402
55.77952 422
55.79963 457
55.81975 394
55.83986 453
55.85997 397
55.88009 380
55.9002 405
55.92031 433
55.94043 403
55.96054 428
55.98066 412
56.00077 414
56.02088 423
56.041 416
56.06111 439
56.08122 376
56.10134 434
56.12145 423
56.14157 370
56.16168 425
56.18179 394
56.20191 389
56.22202 413
56.24213 437
56.26225 417
56.28236 410
56.30248 429
56.32259 395
56.3427 441
56.36282 400
56.38293 420
56.40304 419
56.42316 426
56.44327 404
56.46338 430
56.4835 411
56.50361 438
56.52373 402
56.54384 406
56.56395 407
56.58407 426
56.60418 412
56.62429 375
56.64441 446
56.66452 425
56.68464 364
56.70475 445
56.72486 421
56.74498 416
56.76509 384
56.7852 394
56.80532 387
56.82543 384
56.84554 403
56.86566 407
56.88577 373
56.90589 413
56.926 391
56.94611 417
56.96623 423
56.98634 412
57.00645 394
57.02657 429
57.04668 410
57.0668 417
57.08691 382
57.10702 428
57.12714 405
57.14725 385
57.16736 377
57.18748 380
57.20759 389
57.22771 400
57.24782 387
57.26793 417
57.28805 381
57.30816 407
57.32827 376
57.34839 384
57.3685 412
57.38861 409
57.40873 417
57.42884 389
57.44896 360
57.46907 416
57.48918 406
57.5093 378
57.52941 386
57.54952 409
57.56964 416
57.58975 392
57.60987 409
57.62998 399
57.65009 386
57.67021 382
57.69032 387
57.71043 393
57.73055 402
57.75066 377
57.77078 373
57.79089 392
57.811 357
57.83112 396
57.85123 381
57.87134 380
57.89146 379
57.91157 438
57.93168 379
57.9518 387
57.97191 370
57.99203 371
58.01214 406
58.03225 419
58.05237 383
58.07248 406
58.09259 409
58.11271 405
58.13282 381
58.15294 395
58.17305 391
58.19316 384
58.21328 412
58.23339 420
58.2535 389
58.27362 392
58.29373 366
58.31385 365
58.33396 418
58.35407 371
58.37419 391
58.3943 374
58.41441 378
58.43453 375
58.45464 395
58.47475 404
58.49487 381
58.51498 372
58.5351 368
58.55521 434
58.57532 384
58.59544 410
58.61555 416
58.63566 352
58.65578 360
58.67589 386
58.69601 391
58.71612 399
58.73623 378
58.75635 363
58.77646 360
58.79657 417
58.81669 359
58.8368 376
58.85691 376
58.87703 368
58.89714 375
58.91726 362
58.93737 354
58.95748 388
58.9776 367
58.99771 389
59.01782 375
59.03794 350
59.05805 389
59.07817 384
59.09828 394
59.11839 402
59.13851 400
59.15862 366
59.17873 379
59.19885 409
59.21896 371
59.23908 412
59.25919 422
59.2793 391
59.29942 397
59.31953 389
59.33964 414
59.35976 404
59.37987 445
59.39998 427
59.4201 444
59.44021 427
59.46033 413
59.48044 462
59.50055 403
59.52067 425
59.54078 469
59.56089 441
59.58101 471
59.60112 431
59.62124 496
59.64135 526
59.66146 527
59.68158 583
59.70169 598
59.7218 660
59.74192 713
59.76203 741
59.78215 778
59.80226 900
59.82237 897
59.84249 969
59.8626 941
59.88271 896
59.90283 747
59.92294 717
59.94305 704
59.96317 705
59.98328 668
60.0034 677
60.02351 701
60.04362 638
60.06374 589
60.08385 507
60.10396 432
60.12408 494
60.14419 441
60.16431 433
60.18442 428
60.20453 418
60.22465 429
60.24476 426
60.26487 404
60.28499 408
60.3051 422
60.32522 419
60.34533 399
60.36544 397
60.38556 393
60.40567 388
60.42578 409
60.4459 388
60.46601 350
60.48612 416
60.50624 371
60.52635 386
60.54647 388
60.56658 379
60.58669 356
60.60681 411
60.62692 394
60.64703 388
60.66715 417
60.68726 393
60.70738 381
60.72749 381
60.7476 377
60.76772 396
60.78783 371
60.80794 393
60.82806 412
60.84817 397
60.86828 368
60.8884 408
60.90851 391
60.92863 408
60.94874 401
60.96885 411
60.98897 392
61.00908 426
61.02919 404
61.04931 394
61.06942 422
61.08954 393
61.10965 404
61.12976 385
61.14988 396
61.16999 381
61.1901 440
61.21022 371
61.23033 403
61.25045 393
61.27056 423
61.29067 446
61.31079 416
61.3309 413
61.35101 399
61.37113 398
61.39124 442
61.41135 397
61.43147 364
61.45158 365
61.4717 399
61.49181 393
61.51192 395
61.53204 402
61.55215 370
61.57226 400
61.59238 395
61.61249 389
61.63261 408
61.65272 444
61.67283 448
61.69295 417
61.71306 438
61.73317 423
61.75329 436
61.7734 437
61.79352 452
61.81363 407
61.83374 466
61.85386 444
61.87397 490
61.89408 483
61.9142 476
61.93431 491
61.95442 533
61.97454 528
61.99465 498
62.01477 489
62.03488 534
62.05499 523
62.07511 566
62.09522 556
62.11533 527
62.13545 546
62.15556 571
62.17568 571
62.19579 557
62.2159 550
62.23602 589
62.25613 553
62.27624 539
62.29636 519
62.31647 548
62.33659 543
62.3567 517
62.37681 495
62.39693 507
62.41704 536
62.43715 513
62.45727 479
62.47738 461
62.49749 476
62.51761 446
62.53772 467
62.55784 467
62.57795 454
62.59806 439
62.61818 457
62.63829 456
62.6584 469
62.67852 485
62.69863 418
62.71875 391
62.73886 437
62.75897 438
62.77909 410
62.7992 418
62.81931 434
62.83943 402
62.85954 418
62.87965 420
62.89977 432
62.91988 435
62.94 429
62.96011 397
62.98022 408
63.00034 442
63.02045 384
63.04056 416
63.06068 411
63.08079 390
63.10091 420
63.12102 397
63.14113 408
63.16125 395
63.18136 422
63.20147 405
63.22159 379
63.2417 404
63.26182 414
63.28193 419
63.30204 428
63.32216 405
63.34227 392
63.36238 398
63.3825 429
63.40261 387
63.42272 402
63.44284 350
63.46295 372
63.48307 392
63.50318 432
63.52329 401
63.54341 406
63.56352 419
63.58363 416
63.60375 465
63.62386 433
63.64398 419
63.66409 501
63.6842 440
63.70432 474
63.72443 456
63.74454 460
63.76466 457
63.78477 515
63.80489 496
63.825 499
63.84511 442
63.86523 512
63.88534 519
63.90545 546
63.92557 509
63.94568 542
63.96579 518
63.98591 470
64.00602 460
64.02614 460
64.04625 463
64.06636 471
64.08648 439
64.10659 474
64.1267 466
64.14682 437
64.16693 465
64.18705 452
64.20716 404
64.22727 421
64.24739 360
64.2675 388
64.28761 396
64.30773 386
64.32784 409
64.34796 388
64.36807 438
64.38818 422
64.4083 365
64.42841 390
64.44852 399
64.46864 407
64.48875 413
64.50886 413
64.52898 373
64.54909 381
64.56921 373
64.58932 400
64.60943 392
64.62955 357
64.64966 408
64.66977 356
64.68989 380
64.71 386
64.73012 379
64.75023 377
64.77034 363
64.79046 339
64.81057 362
64.83068 394
64.8508 382
64.87091 374
64.89102 390
64.91114 382
64.93125 398
64.95137 374
64.97148 380
64.99159 385
65.01171 396
65.03182 387
65.05193 377
65.07205 381
65.09216 378
65.11228 371
65.13239 388
65.1525 405
65.17262 394
65.19273 357
65.21284 367
65.23296 390
65.25307 394
65.27319 369
65.2933 390
65.31341 374
65.33353 375
65.35364 367
65.37375 377
65.39387 403
65.41398 341
65.43409 364
65.45421 356
65.47432 403
65.49444 347
65.51455 408
65.53466 358
65.55478 362
65.57489 378
65.595 396
65.61512 345
65.63523 368
65.65535 364
65.67546 359
65.69557 374
65.71569 372
65.7358 327
65.75591 402
65.77603 379
65.79614 368
65.81626 373
65.83637 371
65.85648 390
65.8766 383
65.89671 373
65.91682 380
65.93694 354
65.95705 336
65.97716 354
65.99728 386
66.01739 396
66.03751 375
66.05762 378
66.07773 371
66.09785 363
66.11796 359
66.13807 358
66.15819 392
66.1783 397
66.19842 420
66.21853 386
66.23864 391
66.25876 424
66.27887 375
66.29898 381
66.3191 373
66.33921 385
66.35933 356
66.37944 361
66.39955 381
66.41967 380
66.43978 352
66.45989 408
66.48001 374
66.50012 340
66.52023 388
66.54035 377
66.56046 378
66.58058 393
66.60069 430
66.6208 349
66.64092 363
66.66103 375
66.68114 365
66.70126 354
66.72137 384
66.74149 348
66.7616 385
66.78171 373
66.80183 337
66.82194 360
66.84205 366
66.86217 367
66.88228 358
66.90239 351
66.92251 359
66.94262 375
66.96274 383
66.98285 378
67.00296 412
67.02308 381
67.04319 379
67.0633 370
67.08342 331
67.10353 387
67.12365 379
67.14376 376
67.16387 372
67.18399 384
67.2041 410
67.22421 383
67.24433 366
67.26444 408
67.28456 388
67.30467 412
67.32478 423
67.3449 411
67.36501 373
67.38512 421
67.40524 369
67.42535 462
67.44546 454
67.46558 456
67.48569 477
67.50581 507
67.52592 509
67.54603 573
67.56615 628
67.58626 628
67.60637 720
67.62649 711
67.6466 759
67.66672 645
67.68683 590
67.70694 610
67.72706 533
67.74717 546
67.76728 592
67.7874 592
67.80751 611
67.82763 600
67.84774 683
67.86785 586
67.88797 573
67.90808 616
67.92819 629
67.94831 620
67.96842 748
67.98853 772
68.00865 819
68.02876 781
68.04888 815
68.06899 799
68.0891 712
68.10922 705
68.12933 680
68.14944 706
68.16956 750
68.18967 764
68.20979 753
68.2299 730
68.25001 698
68.27013 604
68.29024 583
68.31035 521
68.33047 502
68.35058 482
68.3707 522
68.39081 501
68.41092 479
68.43104 417
68.45115 396
68.47126 420
68.49138 383
68.51149 376
68.5316 397
68.55172 377
68.57183 367
68.59195 380
68.61206 366
68.63217 350
68.65229 398
68.6724 356
68.69251 366
68.71263 360
68.73274 334
68.75286 394
68.77297 353
68.79308 358
68.8132 352
68.83331 378
68.85342 375
68.87354 369
68.89365 353
68.91376 367
68.93388 371
68.95399 333
68.97411 358
68.99422 366
69.01433 339
69.03445 345
69.05456 361
69.07467 351
69.09479 337
69.1149 378
69.13502 376
69.15513 352
69.17524 348
69.19536 359
69.21547 359
69.23558 376
69.2557 361
69.27581 345
69.29593 334
69.31604 365
69.33615 339
69.35627 366
69.37638 343
69.39649 352
69.41661 326
69.43672 350
69.45683 352
69.47695 343
69.49706 340
69.51718 333
69.53729 336
69.5574 335
69.57752 362
69.59763 388
69.61774 329
69.63786 346
69.65797 370
69.67809 342
69.6982 339
69.71831 335
69.73843 354
69.75854 355
69.77865 348
69.79877 332
69.81888 345
69.839 357
69.85911 348
69.87922 344
69.89934 337
69.91945 354
69.93956 354
69.95968 352
69.97979 343
69.9999 370
70.02002 324
70.04013 331
70.06025 364
70.08036 358
70.10047 342
70.12059 320
70.1407 333
70.16081 380
70.18093 363
70.20104 357
70.22116 293
70.24127 361
70.26138 318
70.2815 312
70.30161 335
70.32172 379
70.34184 373
70.36195 366
70.38207 347
70.40218 355
70.42229 335
70.44241 344
70.46252 340
70.48263 381
70.50275 348
70.52286 350
70.54297 342
70.56309 343
70.5832 327
70.60332 339
70.62343 376
70.64354 338
70.66366 318
70.68377 337
70.70388 348
70.724 356
70.74411 360
70.76423 350
70.78434 351
70.80445 326
70.82457 348
70.84468 354
70.86479 336
70.88491 352
70.90502 335
70.92513 353
70.94525 333
70.96536 326
70.98548 329
71.00559 354
71.0257 337
71.04582 374
71.06593 334
71.08604 337
71.10616 330
71.12627 326
71.14639 332
71.1665 346
71.18661 363
71.20673 385
71.22684 321
71.24695 348
71.26707 353
71.28718 348
71.3073 335
71.32741 352
71.34752 318
71.36764 335
71.38775 358
71.40786 364
71.42798 362
71.44809 394
71.4682 374
71.48832 331
71.50843 356
71.52855 368
71.54866 351
71.56877 345
71.58889 369
71.609 382
71.62911 353
71.64923 363
71.66934 402
71.68946 370
71.70957 369
71.72968 323
71.7498 319
71.76991 408
71.79002 368
71.81014 360
71.83025 331
71.85037 335
71.87048 342
71.89059 385
71.91071 349
71.93082 382
71.95093 372
71.97105 351
71.99116 378
72.01127 327
72.03139 343
72.0515 376
72.07162 421
72.09173 349
72.11184 366
72.13196 356
72.15207 351
72.17218 378
72.1923 385
72.21241 343
72.23253 365
72.25264 365
72.27275 356
72.29287 358
72.31298 410
72.33309 322
72.35321 355
72.37332 385
72.39344 377
72.41355 377
72.43366 336
72.45378 365
72.47389 334
72.494 320
72.51412 337
72.53423 350
72.55434 356
72.57446 338
72.59457 358
72.61469 329
72.6348 342
72.65491 339
72.67503 356
72.69514 337
72.71525 365
72.73537 337
72.75548 367
72.7756 367
72.79571 372
72.81582 347
72.83594 352
72.85605 343
72.87616 340
72.89628 361
72.91639 352
72.9365 385
72.95662 388
72.97673 384
72.99685 377
73.01696 348
73.03707 381
73.05719 396
73.0773 373
73.09741 402
73.11753 383
73.13764 380
73.15776 390
73.17787 405
73.19798 414
73.2181 415
73.23821 417
73.25832 430
73.27844 445
73.29855 457
73.31867 471
73.33878 502
73.35889 450
73.37901 463
73.39912 463
73.41923 431
73.43935 429
73.45946 421
73.47957 374
73.49969 401
73.5198 424
73.53992 411
73.56003 441
73.58014 420
73.60026 426
73.62037 406
73.64048 380
73.6606 394
73.68071 369
73.70083 412
73.72094 395
73.74105 365
73.76117 376
73.78128 384
73.80139 359
73.82151 388
73.84162 380
73.86174 325
73.88185 392
73.90196 349
73.92208 362
73.94219 376
73.9623 337
73.98242 362
74.00253 354
74.02264 369
74.04276 339
74.06287 326
74.08299 371
74.1031 323
74.12321 335
74.14333 347
74.16344 356
74.18355 360
74.20367 369
74.22378 347
74.2439 363
74.26401 366
74.28412 359
74.30424 336
74.32435 342
74.34446 349
74.36458 397
74.38469 356
74.40481 365
74.42492 344
74.44503 318
74.46515 330
74.48526 332
74.50537 372
74.52549 328
74.5456 370
74.56571 352
74.58583 363
74.60594 339
74.62606 298
74.64617 335
74.66628 367
74.6864 337
74.70651 350
74.72662 346
74.74674 366
74.76685 338
74.78697 374
74.80708 369
74.82719 362
74.84731 376
74.86742 386
74.88753 314
74.90765 342
74.92776 380
74.94787 326
74.96799 355
74.9881 365
75.00822 342
