3.00117 20159
3.02128 19545
3.0414 18969
3.06151 18725
3.08162 17835
3.10174 17517
3.12185 17101
3.14197 16538
3.16208 16139
3.18219 15788
3.20231 15635
3.22242 14698
3.24253 14536
3.26265 13835
3.28276 13576
3.30288 13046
3.32299 12567
3.3431 12652
3.36322 12007
3.38333 11416
3.40344 11287
3.42356 10747
3.44367 10550
3.46379 9981
3.4839 9862
3.50401 9303
3.52413 8867
3.54424 8687
3.56435 8314
3.58447 8271
3.60458 7772
3.62469 7437
3.64481 7403
3.66492 7093
3.68504 6885
3.70515 6341
3.72526 5989
3.74538 6243
3.76549 5610
3.7856 5406
3.80572 5016
3.82583 5017
3.84595 4842
3.86606 4624
3.88617 4526
3.90629 4327
3.9264 3993
3.94651 4029
3.96663 3797
3.98674 3586
4.00686 3396
4.02697 3229
4.04708 3223
4.0672 3072
4.08731 2941
4.10742 2792
4.12754 2638
4.14765 2613
4.16776 2529
4.18788 2314
4.20799 2259
4.22811 2126
4.24822 2170
4.26833 2093
4.28845 1951
4.30856 1823
4.32867 1778
4.34879 1815
4.3689 1797
4.38902 1700
4.40913 1652
4.42924 1587
4.44936 1626
4.46947 1602
4.48958 1511
4.5097 1429
4.52981 1406
4.54992 1411
4.57004 1455
4.59015 1332
4.61027 1289
4.63038 1262
4.65049 1242
4.67061 1282
4.69072 1186
4.71083 1218
4.73095 1162
4.75106 1058
4.77118 1157
4.79129 1054
4.8114 1072
4.83152 1022
4.85163 985
4.87174 969
4.89186 985
4.91197 1032
4.93209 884
4.9522 909
4.97231 957
4.99243 836
5.01254 841
5.03265 816
5.05277 854
5.07288 812
5.09299 712
5.11311 751
5.13322 714
5.15334 716
5.17345 728
5.19356 687
5.21368 615
5.23379 652
5.2539 634
5.27402 685
5.29413 611
5.31425 604
5.33436 573
5.35447 652
5.37459 603
5.3947 532
5.41481 564
5.43493 567
5.45504 521
5.47516 497
5.49527 499
5.51538 506
5.5355 535
5.55561 486
5.57572 506
5.59584 475
5.61595 483
5.63606 494
5.65618 470
5.67629 490
5.69641 458
5.71652 458
5.73663 462
5.75675 448
5.77686 429
5.79697 435
5.81709 422
5.8372 400
5.85732 435
5.87743 365
5.89754 415
5.91766 430
5.93777 420
5.95788 393
5.978 385
5.99811 410
6.01823 381
6.03834 368
6.05845 388
6.07857 404
6.09868 383
6.11879 400
6.13891 401
6.15902 416
6.17913 405
6.19925 379
6.21936 364
6.23948 383
6.25959 348
6.2797 390
6.29982 380
6.31993 347
6.34004 380
6.36016 347
6.38027 352
6.40039 350
6.4205 338
6.44061 360
6.46073 317
6.48084 355
6.50095 340
6.52107 330
6.54118 347
6.56129 294
6.58141 346
6.60152 344
6.62164 336
6.64175 326
6.66186 355
6.68198 335
6.70209 348
6.7222 364
6.74232 324
6.76243 310
6.78255 312
6.80266 338
6.82277 316
6.84289 321
6.863 317
6.88311 342
6.90323 356
6.92334 341
6.94346 306
6.96357 269
6.98368 323
7.0038 352
7.02391 335
7.04402 319
7.06414 309
7.08425 349
7.10436 311
7.12448 311
7.14459 335
7.16471 342
7.18482 310
7.20493 353
7.22505 299
7.24516 303
7.26527 321
7.28539 327
7.3055 338
7.32562 303
7.34573 306
7.36584 334
7.38596 327
7.40607 317
7.42618 387
7.4463 343
7.46641 353
7.48653 331
7.50664 333
7.52675 332
7.54687 321
7.56698 329
7.58709 334
7.60721 345
7.62732 302
7.64743 335
7.66755 334
7.68766 334
7.70778 339
7.72789 304
7.748 346
7.76812 301
7.78823 361
7.80834 331
7.82846 319
7.84857 317
7.86869 293
7.8888 316
7.90891 316
7.92903 307
7.94914 277
7.96925 347
7.98937 337
8.00948 354
8.0296 359
8.04971 296
8.06982 314
8.08994 312
8.11005 321
8.13016 291
8.15028 306
8.17039 293
8.1905 289
8.21062 330
8.23073 318
8.25085 279
8.27096 334
8.29107 315
8.31119 337
8.3313 303
8.35141 312
8.37153 355
8.39164 314
8.41176 305
8.43187 359
8.45198 336
8.4721 341
8.49221 308
8.51232 327
8.53244 321
8.55255 328
8.57266 342
8.59278 337
8.61289 318
8.63301 318
8.65312 328
8.67323 308
8.69335 319
8.71346 327
8.73357 327
8.75369 305
8.7738 285
8.79392 355
8.81403 330
8.83414 340
8.85426 368
8.87437 303
8.89448 343
8.9146 323
8.93471 313
8.95483 302
8.97494 330
8.99505 330
9.01517 363
9.03528 341
9.05539 327
9.07551 310
9.09562 309
9.11573 259
9.13585 327
9.15596 344
9.17608 332
9.19619 340
9.2163 354
9.23642 312
9.25653 329
9.27664 350
9.29676 304
9.31687 337
9.33699 314
9.3571 319
9.37721 356
9.39733 328
9.41744 334
9.43755 351
9.45767 341
9.47778 332
9.4979 311
9.51801 346
9.53812 353
9.55824 336
9.57835 343
9.59846 334
9.61858 299
9.63869 321
9.6588 327
9.67892 330
9.69903 346
9.71915 326
9.73926 311
9.75937 352
9.77949 351
9.7996 311
9.81971 327
9.83983 337
9.85994 307
9.88006 336
9.90017 298
9.92028 286
9.9404 328
9.96051 329
9.98062 318
10.00074 337
10.02085 363
10.04097 303
10.06108 331
10.08119 317
10.10131 357
10.12142 280
10.14153 303
10.16165 302
10.18176 301
10.20187 366
10.22199 299
10.2421 357
10.26222 351
10.28233 310
10.30244 337
10.32256 324
10.34267 313
10.36278 345
10.3829 348
10.40301 328
10.42313 341
10.44324 322
10.46335 350
10.48347 314
10.50358 324
10.52369 289
10.54381 357
10.56392 337
10.58403 320
10.60415 316
10.62426 335
10.64438 357
10.66449 322
10.6846 328
10.70472 328
10.72483 330
10.74494 351
10.76506 345
10.78517 329
10.80529 340
10.8254 355
10.84551 308
10.86563 335
10.88574 334
10.90585 316
10.92597 321
10.94608 318
10.9662 325
10.98631 313
11.00642 311
11.02654 338
11.04665 318
11.06676 353
11.08688 311
11.10699 337
11.1271 296
11.14722 331
11.16733 357
11.18745 301
11.20756 318
11.22767 359
11.24779 321
11.2679 356
11.28801 322
11.30813 366
11.32824 301
11.34836 345
11.36847 361
11.38858 350
11.4087 339
11.42881 318
11.44892 321
11.46904 306
11.48915 334
11.50927 366
11.52938 373
11.54949 371
11.56961 341
11.58972 391
11.60983 375
11.62995 359
11.65006 374
11.67017 345
11.69029 388
11.7104 361
11.73052 363
11.75063 410
11.77074 408
11.79086 426
11.81097 411
11.83108 389
11.8512 435
11.87131 424
11.89143 450
11.91154 449
11.93165 424
11.95177 446
11.97188 487
11.99199 514
12.01211 544
12.03222 524
12.05234 521
12.07245 551
12.09256 598
12.11268 624
12.13279 670
12.1529 678
12.17302 685
12.19313 663
12.21324 675
12.23336 675
12.25347 736
12.27359 720
12.2937 750
12.31381 757
12.33393 727
12.35404 633
12.37415 671
12.39427 627
12.41438 644
12.4345 586
12.45461 587
12.47472 540
12.49484 514
12.51495 509
12.53506 442
12.55518 496
12.57529 429
12.5954 444
12.61552 459
12.63563 408
12.65575 396
12.67586 346
12.69597 379
12.71609 398
12.7362 362
12.75631 395
12.77643 345
12.79654 335
12.81666 371
12.83677 332
12.85688 308
12.877 328
12.89711 358
12.91722 322
12.93734 371
12.95745 342
12.97757 298
12.99768 361
13.01779 305
13.03791 314
13.05802 363
13.07813 320
13.09825 331
13.11836 327
13.13847 297
13.15859 321
13.1787 313
13.19882 300
13.21893 305
13.23904 285
13.25916 297
13.27927 307
13.29938 292
13.3195 274
13.33961 297
13.35973 318
13.37984 355
13.39995 274
13.42007 292
13.44018 313
13.46029 292
13.48041 280
13.50052 334
13.52064 259
13.54075 282
13.56086 281
13.58098 305
13.60109 302
13.6212 290
13.64132 276
13.66143 300
13.68154 322
13.70166 308
13.72177 292
13.74189 299
13.762 282
13.78211 315
13.80223 295
13.82234 286
13.84245 283
13.86257 313
13.88268 278
13.9028 276
13.92291 306
13.94302 288
13.96314 281
13.98325 307
14.00336 320
14.02348 277
14.04359 281
14.06371 258
14.08382 273
14.10393 299
14.12405 278
14.14416 263
14.16427 289
14.18439 285
14.2045 271
14.22461 263
14.24473 311
14.26484 290
14.28496 292
14.30507 299
14.32518 276
14.3453 286
14.36541 265
14.38552 299
14.40564 266
14.42575 275
14.44587 270
14.46598 274
14.48609 263
14.50621 264
14.52632 265
14.54643 261
14.56655 290
14.58666 306
14.60677 313
14.62689 286
14.647 273
14.66712 261
14.68723 274
14.70734 251
14.72746 277
14.74757 273
14.76768 313
14.7878 282
14.80791 318
14.82803 289
14.84814 275
14.86825 271
14.88837 271
14.90848 300
14.92859 281
14.94871 263
14.96882 277
14.98894 303
15.00905 293
15.02916 304
15.04928 309
15.06939 237
15.0895 273
15.10962 258
15.12973 271
15.14984 291
15.16996 266
15.19007 273
15.21019 269
15.2303 299
15.25041 267
15.27053 283
15.29064 274
15.31075 274
15.33087 283
15.35098 259
15.3711 255
15.39121 266
15.41132 291
15.43144 255
15.45155 256
15.47166 273
15.49178 269
15.51189 257
15.53201 274
15.55212 286
15.57223 259
15.59235 290
15.61246 275
15.63257 271
15.65269 278
15.6728 270
15.69291 262
15.71303 272
15.73314 269
15.75326 277
15.77337 266
15.79348 268
15.8136 277
15.83371 267
15.85382 300
15.87394 278
15.89405 249
15.91417 271
15.93428 257
15.95439 249
15.97451 293
15.99462 268
16.01473 300
16.03485 267
16.05496 292
16.07508 268
16.09519 273
16.1153 267
16.13542 269
16.15553 263
16.17564 277
16.19576 277
16.21587 248
16.23598 285
16.2561 275
16.27621 290
16.29633 252
16.31644 256
16.33655 275
16.35667 288
16.37678 273
16.39689 278
16.41701 275
16.43712 271
16.45724 270
16.47735 278
16.49746 249
16.51758 226
16.53769 270
16.5578 282
16.57792 266
16.59803 256
16.61814 291
16.63826 262
16.65837 231
16.67849 287
16.6986 263
16.71871 289
16.73883 243
16.75894 270
16.77905 254
16.79917 290
16.81928 279
16.8394 279
16.85951 263
16.87962 268
16.89974 277
16.91985 243
16.93996 254
16.96008 268
16.98019 276
17.00031 272
17.02042 271
17.04053 269
17.06065 253
17.08076 301
17.10087 259
17.12099 253
17.1411 312
17.16121 303
17.18133 226
17.20144 301
17.22156 251
17.24167 283
17.26178 260
17.2819 276
17.30201 283
17.32212 263
17.34224 300
17.36235 276
17.38247 276
17.40258 279
17.42269 273
17.44281 270
17.46292 273
17.48303 287
17.50315 290
17.52326 283
17.54338 274
17.56349 282
17.5836 284
17.60372 266
17.62383 270
17.64394 268
17.66406 335
17.68417 285
17.70428 282
17.7244 303
17.74451 283
17.76463 298
17.78474 291
17.80485 341
17.82497 304
17.84508 291
17.86519 275
17.88531 286
17.90542 320
17.92554 317
17.94565 324
17.96576 334
17.98588 287
18.00599 300
18.0261 362
18.04622 334
18.06633 323
18.08645 357
18.10656 369
18.12667 324
18.14679 422
18.1669 474
18.18701 512
18.20713 525
18.22724 631
18.24735 620
18.26747 682
18.28758 635
18.3077 614
18.32781 592
18.34792 538
18.36804 494
18.38815 464
18.40826 405
18.42838 394
18.44849 373
18.46861 346
18.48872 321
18.50883 332
18.52895 304
18.54906 302
18.56917 326
18.58929 309
18.6094 332
18.62951 297
18.64963 293
18.66974 283
18.68986 275
18.70997 305
18.73008 309
18.7502 305
18.77031 303
18.79042 289
18.81054 278
18.83065 315
18.85077 264
18.87088 255
18.89099 290
18.91111 281
18.93122 295
18.95133 252
18.97145 338
18.99156 298
19.01168 319
19.03179 268
19.0519 284
19.07202 283
19.09213 297
19.11224 326
19.13236 311
19.15247 258
19.17258 306
19.1927 259
19.21281 297
19.23293 307
19.25304 291
19.27315 300
19.29327 295
19.31338 291
19.33349 313
19.35361 327
19.37372 323
19.39384 368
19.41395 342
19.43406 320
19.45418 310
19.47429 327
19.4944 375
19.51452 335
19.53463 339
19.55475 349
19.57486 380
19.59497 388
19.61509 401
19.6352 413
19.65531 432
19.67543 442
19.69554 442
19.71565 489
19.73577 552
19.75588 595
19.776 625
19.79611 675
19.81622 684
19.83634 673
19.85645 709
19.87656 710
19.89668 684
19.91679 679
19.93691 688
19.95702 727
19.97713 694
19.99725 691
20.01736 686
20.03747 622
20.05759 619
20.0777 634
20.09782 663
20.11793 631
20.13804 714
20.15816 660
20.17827 681
20.19838 736
20.2185 755
20.23861 732
20.25872 722
20.27884 732
20.29895 731
20.31907 764
20.33918 730
20.35929 693
20.37941 752
20.39952 717
20.41963 706
20.43975 706
20.45986 744
20.47998 726
20.50009 729
20.5202 788
20.54032 746
20.56043 820
20.58054 847
20.60066 842
20.62077 931
20.64088 1083
20.661 1181
20.68111 1345
20.70123 1757
20.72134 2225
20.74145 2658
20.76157 3373
20.78168 3886
20.80179 4142
20.82191 4072
20.84202 3982
20.86214 3627
20.88225 2950
20.90236 2262
20.92248 1871
20.94259 1450
20.9627 1164
20.98282 949
21.00293 850
21.02305 728
21.04316 723
21.06327 710
21.08339 695
21.1035 673
21.12361 620
21.14373 610
21.16384 606
21.18395 626
21.20407 629
21.22418 603
21.2443 579
21.26441 626
21.28452 618
21.30464 667
21.32475 625
21.34486 671
21.36498 641
21.38509 588
21.40521 661
21.42532 644
21.44543 617
21.46555 640
21.48566 634
21.50577 642
21.52589 645
21.546 623
21.56612 641
21.58623 611
21.60634 568
21.62646 580
21.64657 568
21.66668 530
21.6868 566
21.70691 545
21.72702 506
21.74714 504
21.76725 510
21.78737 486
21.80748 510
21.82759 485
21.84771 452
21.86782 487
21.88793 476
21.90805 502
21.92816 462
21.94828 436
21.96839 472
21.9885 433
22.00862 429
22.02873 420
22.04884 465
22.06896 429
22.08907 458
22.10919 404
22.1293 459
22.14941 444
22.16953 448
22.18964 425
22.20975 470
22.22987 422
22.24998 446
22.27009 411
22.29021 421
22.31032 460
22.33044 413
22.35055 421
22.37066 418
22.39078 401
22.41089 389
22.431 401
22.45112 400
22.47123 403
22.49135 364
22.51146 436
22.53157 379
22.55169 403
22.5718 384
22.59191 396
22.61203 417
22.63214 439
22.65225 368
22.67237 357
22.69248 441
22.7126 398
22.73271 399
22.75282 399
22.77294 435
22.79305 389
22.81316 416
22.83328 391
22.85339 384
22.87351 383
22.89362 372
22.91373 399
22.93385 364
22.95396 379
22.97407 399
22.99419 378
23.0143 382
23.03442 379
23.05453 363
23.07464 377
23.09476 383
23.11487 365
23.13498 375
23.1551 350
23.17521 413
23.19532 434
23.21544 352
23.23555 361
23.25567 342
23.27578 347
23.29589 377
23.31601 374
23.33612 382
23.35623 387
23.37635 338
23.39646 393
23.41658 350
23.43669 331
23.4568 325
23.47692 387
23.49703 356
23.51714 369
23.53726 342
23.55737 365
23.57749 397
23.5976 382
23.61771 362
23.63783 342
23.65794 364
23.67805 389
23.69817 376
23.71828 386
23.73839 324
23.75851 420
23.77862 373
23.79874 388
23.81885 374
23.83896 380
23.85908 347
23.87919 418
23.8993 444
23.91942 430
23.93953 424
23.95965 432
23.97976 475
23.99987 448
24.01999 444
24.0401 420
24.06021 407
24.08033 397
24.10044 345
24.12056 386
24.14067 411
24.16078 384
24.1809 394
24.20101 424
24.22112 437
24.24124 434
24.26135 416
24.28146 421
24.30158 462
24.32169 438
24.34181 411
24.36192 448
24.38203 421
24.40215 404
24.42226 481
24.44237 453
24.46249 439
24.4826 499
24.50272 482
24.52283 502
24.54294 495
24.56306 543
24.58317 489
24.60328 509
24.6234 548
24.64351 556
24.66362 567
24.68374 602
24.70385 570
24.72397 616
24.74408 648
24.76419 650
24.78431 666
24.80442 662
24.82453 650
24.84465 659
24.86476 683
24.88488 672
24.90499 636
24.9251 640
24.94522 600
24.96533 631
24.98544 627
25.00556 625
25.02567 573
25.04579 585
25.0659 546
25.08601 518
25.10613 583
25.12624 526
25.14635 587
25.16647 575
25.18658 592
25.20669 599
25.22681 602
25.24692 570
25.26704 545
25.28715 511
25.30726 516
25.32738 556
25.34749 475
25.3676 442
25.38772 464
25.40783 425
25.42795 461
25.44806 451
25.46817 420
25.48829 457
25.5084 451
25.52851 425
25.54863 418
25.56874 476
25.58886 452
25.60897 449
25.62908 431
25.6492 474
25.66931 464
25.68942 498
25.70954 473
25.72965 463
25.74976 506
25.76988 517
25.78999 488
25.81011 490
25.83022 541
25.85033 530
25.87045 518
25.89056 502
25.91067 519
25.93079 529
25.9509 543
25.97102 538
25.99113 542
26.01124 568
26.03136 592
26.05147 632
26.07158 626
26.0917 650
26.11181 757
26.13193 736
26.15204 718
26.17215 791
26.19227 777
26.21238 860
26.23249 937
26.25261 963
26.27272 1085
26.29283 1121
26.31295 1280
26.33306 1446
26.35318 1665
26.37329 1877
26.3934 2327
26.41352 2894
26.43363 3801
26.45374 4971
26.47386 6624
26.49397 8701
26.51409 11151
26.5342 13908
26.55431 16012
26.57443 17651
26.59454 17497
26.61465 16489
26.63477 14468
26.65488 12388
26.67499 9765
26.69511 7451
26.71522 5323
26.73534 3851
26.75545 2799
26.77556 2006
26.79568 1623
26.81579 1358
26.8359 1277
26.85602 1049
26.87613 945
26.89625 942
26.91636 774
26.93647 818
26.95659 737
26.9767 659
26.99681 640
27.01693 619
27.03704 523
27.05716 552
27.07727 524
27.09738 489
27.1175 564
27.13761 497
27.15772 500
27.17784 470
27.19795 482
27.21806 476
27.23818 474
27.25829 489
27.27841 514
27.29852 461
27.31863 475
27.33875 480
27.35886 516
27.37897 479
27.39909 451
27.4192 456
27.43932 465
27.45943 413
27.47954 464
27.49966 421
27.51977 438
27.53988 451
27.56 392
27.58011 416
27.60023 392
27.62034 412
27.64045 414
27.66057 413
27.68068 381
27.70079 421
27.72091 385
27.74102 437
27.76113 399
27.78125 346
27.80136 377
27.82148 399
27.84159 399
27.8617 406
27.88182 371
27.90193 422
27.92204 409
27.94216 375
27.96227 384
27.98239 424
28.0025 374
28.02261 390
28.04273 387
28.06284 350
28.08295 378
28.10307 369
28.12318 375
28.1433 350
28.16341 340
28.18352 374
28.20364 372
28.22375 375
28.24386 367
28.26398 381
28.28409 350
28.3042 340
28.32432 358
28.34443 375
28.36455 369
28.38466 342
28.40477 322
28.42489 332
28.445 360
28.46511 355
28.48523 370
28.50534 364
28.52546 355
28.54557 345
28.56568 346
28.5858 334
28.60591 336
28.62602 369
28.64614 364
28.66625 316
28.68636 351
28.70648 338
28.72659 319
28.74671 333
28.76682 333
28.78693 334
28.80705 331
28.82716 363
28.84727 299
28.86739 312
28.8875 314
28.90762 328
28.92773 337
28.94784 340
28.96796 309
28.98807 291
29.00818 369
29.0283 332
29.04841 324
29.06853 324
29.08864 291
29.10875 305
29.12887 318
29.14898 293
29.16909 346
29.18921 333
29.20932 340
29.22943 312
29.24955 336
29.26966 305
29.28978 317
29.30989 334
29.33 307
29.35012 320
29.37023 336
29.39034 311
29.41046 329
29.43057 317
29.45069 342
29.4708 301
29.49091 314
29.51103 336
29.53114 313
29.55125 326
29.57137 318
29.59148 307
29.6116 322
29.63171 322
29.65182 324
29.67194 291
29.69205 328
29.71216 304
29.73228 306
29.75239 297
29.7725 324
29.79262 286
29.81273 316
29.83285 342
29.85296 312
29.87307 332
29.89319 315
29.9133 331
29.93341 334
29.95353 301
29.97364 313
29.99376 309
30.01387 320
30.03398 294
30.0541 316
30.07421 316
30.09432 314
30.11444 309
30.13455 312
30.15467 344
30.17478 302
30.19489 286
30.21501 302
30.23512 304
30.25523 321
30.27535 355
30.29546 294
30.31557 293
30.33569 311
30.3558 323
30.37592 324
30.39603 342
30.41614 314
30.43626 300
30.45637 312
30.47648 305
30.4966 264
30.51671 290
30.53683 297
30.55694 315
30.57705 304
30.59717 303
30.61728 284
30.63739 298
30.65751 299
30.67762 278
30.69773 271
30.71785 273
30.73796 292
30.75808 266
30.77819 297
30.7983 285
30.81842 281
30.83853 295
30.85864 309
30.87876 316
30.89887 324
30.91899 282
30.9391 321
30.95921 302
30.97933 320
30.99944 350
31.01955 322
31.03967 288
31.05978 258
31.0799 274
31.10001 309
31.12012 279
31.14024 308
31.16035 289
31.18046 299
31.20058 322
31.22069 294
31.2408 301
31.26092 341
31.28103 298
31.30115 292
31.32126 306
31.34137 283
31.36149 307
31.3816 292
31.40171 293
31.42183 271
31.44194 267
31.46206 293
31.48217 307
31.50228 299
31.5224 307
31.54251 336
31.56262 303
31.58274 302
31.60285 289
31.62297 290
31.64308 281
31.66319 312
31.68331 280
31.70342 306
31.72353 300
31.74365 253
31.76376 286
31.78387 277
31.80399 292
31.8241 301
31.84422 308
31.86433 292
31.88444 294
31.90456 295
31.92467 287
31.94478 289
31.9649 309
31.98501 280
32.00513 310
32.02524 275
32.04535 319
32.06547 313
32.08558 301
32.10569 292
32.12581 312
32.14592 308
32.16604 303
32.18615 310
32.20626 290
32.22638 310
32.24649 272
32.2666 284
32.28672 301
32.30683 277
32.32694 300
32.34706 262
32.36717 291
32.38729 324
32.4074 298
32.42751 301
32.44763 288
32.46774 298
32.48785 305
32.50797 271
32.52808 285
32.5482 303
32.56831 307
32.58842 291
32.60854 316
32.62865 300
32.64876 305
32.66888 296
32.68899 335
32.7091 302
32.72922 307
32.74933 338
32.76945 278
32.78956 305
32.80967 340
32.82979 306
32.8499 318
32.87001 322
32.89013 287
32.91024 333
32.93036 349
32.95047 334
32.97058 358
32.9907 354
33.01081 346
33.03092 357
33.05104 355
33.07115 379
33.09127 356
33.11138 369
33.13149 314
33.15161 387
33.17172 368
33.19183 364
33.21195 322
33.23206 322
33.25217 341
33.27229 354
33.2924 380
33.31252 348
33.33263 336
33.35274 363
33.37286 321
33.39297 355
33.41308 343
33.4332 326
33.45331 320
33.47343 342
33.49354 345
33.51365 321
33.53377 324
33.55388 320
33.57399 366
33.59411 325
33.61422 339
33.63434 354
33.65445 327
33.67456 369
33.69468 333
33.71479 349
33.7349 327
33.75502 343
33.77513 376
33.79524 338
33.81536 345
33.83547 290
33.85559 362
33.8757 309
33.89581 295
33.91593 316
33.93604 311
33.95615 318
33.97627 299
33.99638 290
34.0165 321
34.03661 344
34.05672 298
34.07684 335
34.09695 304
34.11706 293
34.13718 311
34.15729 307
34.17741 279
34.19752 313
34.21763 295
34.23775 295
34.25786 296
34.27797 335
34.29809 342
34.3182 337
34.33831 316
34.35843 307
34.37854 393
34.39866 312
34.41877 346
34.43888 324
34.459 325
34.47911 340
34.49922 355
34.51934 337
34.53945 354
34.55957 369
34.57968 341
34.59979 362
34.61991 386
34.64002 372
34.66013 389
34.68025 365
34.70036 389
34.72047 452
34.74059 498
34.7607 423
34.78082 471
34.80093 493
34.82104 445
34.84116 490
34.86127 507
34.88138 496
34.9015 486
34.92161 506
34.94173 476
34.96184 459
34.98195 462
35.00207 467
35.02218 483
35.04229 475
35.06241 431
35.08252 433
35.10264 458
35.12275 412
35.14286 424
35.16298 438
35.18309 417
35.2032 439
35.22332 427
35.24343 422
35.26354 392
35.28366 412
35.30377 417
35.32389 451
35.344 430
35.36411 441
35.38423 495
35.40434 418
35.42445 477
35.44457 443
35.46468 458
35.4848 456
35.50491 473
35.52502 495
35.54514 473
35.56525 474
35.58536 492
35.60548 490
35.62559 477
35.64571 511
35.66582 497
35.68593 466
35.70605 513
35.72616 532
35.74627 476
35.76639 498
35.7865 485
35.80661 512
35.82673 505
35.84684 475
35.86696 521
35.88707 487
35.90718 533
35.9273 511
35.94741 527
35.96752 489
35.98764 487
36.00775 479
36.02787 450
36.04798 453
36.06809 513
36.08821 473
36.10832 448
36.12843 427
36.14855 416
36.16866 450
36.18878 477
36.20889 444
36.229 501
36.24912 502
36.26923 550
36.28934 594
36.30946 648
36.32957 735
36.34968 803
36.3698 845
36.38991 1005
36.41003 1147
36.43014 1322
36.45025 1428
36.47037 1473
36.49048 1522
36.51059 1471
36.53071 1303
36.55082 1239
36.57094 1153
36.59105 967
36.61116 870
36.63128 680
36.65139 575
36.6715 539
36.69162 520
36.71173 464
36.73184 473
36.75196 457
36.77207 440
36.79219 441
36.8123 420
36.83241 422
36.85253 430
36.87264 417
36.89275 439
36.91287 421
36.93298 399
36.9531 419
36.97321 426
36.99332 416
37.01344 448
37.03355 399
37.05366 424
37.07378 453
37.09389 465
37.11401 455
37.13412 433
37.15423 453
37.17435 418
37.19446 482
37.21457 441
37.23469 392
37.2548 467
37.27491 451
37.29503 481
37.31514 465
37.33526 428
37.35537 454
37.37548 440
37.3956 455
37.41571 468
37.43582 449
37.45594 462
37.47605 462
37.49617 471
37.51628 421
37.53639 496
37.55651 439
37.57662 466
37.59673 448
37.61685 480
37.63696 464
37.65708 423
37.67719 450
37.6973 511
37.71742 467
37.73753 414
37.75764 445
37.77776 439
37.79787 432
37.81798 445
37.8381 428
37.85821 396
37.87833 401
37.89844 432
37.91855 425
37.93867 395
37.95878 417
37.97889 386
37.99901 409
38.01912 416
38.03924 423
38.05935 398
38.07946 443
38.09958 400
38.11969 410
38.1398 478
38.15992 433
38.18003 473
38.20015 479
38.22026 515
38.24037 524
38.26049 497
38.2806 451
38.30071 474
38.32083 454
38.34094 490
38.36105 450
38.38117 479
38.40128 500
38.4214 485
38.44151 469
38.46162 481
38.48174 460
38.50185 463
38.52196 453
38.54208 441
38.56219 468
38.58231 449
38.60242 436
38.62253 401
38.64265 441
38.66276 398
38.68287 407
38.70299 407
38.7231 390
38.74321 393
38.76333 473
38.78344 392
38.80356 398
38.82367 400
38.84378 409
38.8639 388
38.88401 397
38.90412 405
38.92424 458
38.94435 433
38.96447 419
38.98458 423
39.00469 426
39.02481 403
39.04492 444
39.06503 402
39.08515 486
39.10526 436
39.12538 486
39.14549 433
39.1656 467
39.18572 496
39.20583 552
39.22594 575
39.24606 612
39.26617 711
39.28628 820
39.3064 854
39.32651 976
39.34663 1187
39.36674 1253
39.38685 1349
39.40697 1401
39.42708 1369
39.44719 1217
39.46731 1132
39.48742 1056
39.50754 920
39.52765 853
39.54776 722
39.56788 614
39.58799 532
39.6081 476
39.62822 417
39.64833 378
39.66845 389
39.68856 332
39.70867 369
39.72879 325
39.7489 359
39.76901 351
39.78913 395
39.80924 349
39.82935 368
39.84947 371
39.86958 320
39.8897 313
39.90981 327
39.92992 339
39.95004 409
39.97015 423
39.99026 413
40.01038 371
40.03049 398
40.05061 458
40.07072 496
40.09083 531
40.11095 533
40.13106 616
40.15117 685
40.17129 767
40.1914 760
40.21152 805
40.23163 866
40.25174 823
40.27186 763
40.29197 682
40.31208 669
40.3322 614
40.35231 555
40.37242 488
40.39254 444
40.41265 445
40.43277 400
40.45288 361
40.47299 389
40.49311 404
40.51322 396
40.53333 324
40.55345 364
40.57356 357
40.59368 364
40.61379 343
40.6339 373
40.65402 351
40.67413 325
40.69424 377
40.71436 377
40.73447 364
40.75458 368
40.7747 332
40.79481 389
40.81493 353
40.83504 351
40.85515 353
40.87527 347
40.89538 365
40.91549 325
40.93561 388
40.95572 355
40.97584 363
40.99595 342
41.01606 343
41.03618 366
41.05629 325
41.0764 322
41.09652 358
41.11663 378
41.13675 349
41.15686 345
41.17697 370
41.19709 335
41.2172 319
41.23731 337
41.25743 329
41.27754 334
41.29765 304
41.31777 324
41.33788 330
41.358 344
41.37811 350
41.39822 324
41.41834 331
41.43845 346
41.45856 354
41.47868 354
41.49879 354
41.51891 317
41.53902 333
41.55913 384
41.57925 323
41.59936 359
41.61947 358
41.63959 312
41.6597 338
41.67982 365
41.69993 338
41.72004 341
41.74016 336
41.76027 338
41.78038 307
41.8005 325
41.82061 361
41.84072 345
41.86084 345
41.88095 346
41.90107 323
41.92118 334
41.94129 330
41.96141 332
41.98152 331
42.00163 343
42.02175 345
42.04186 358
42.06198 359
42.08209 361
42.1022 339
42.12232 360
42.14243 395
42.16254 379
42.18266 412
42.20277 422
42.22289 525
42.243 533
42.26311 598
42.28323 657
42.30334 815
42.32345 847
42.34357 950
42.36368 989
42.38379 976
42.40391 1005
42.42402 951
42.44414 865
42.46425 797
42.48436 703
42.50448 674
42.52459 574
42.5447 525
42.56482 470
42.58493 400
42.60505 334
42.62516 307
42.64527 317
42.66539 324
42.6855 308
42.70561 302
42.72573 304
42.74584 288
42.76595 278
42.78607 299
42.80618 293
42.8263 311
42.84641 324
42.86652 291
42.88664 295
42.90675 295
42.92686 282
42.94698 281
42.96709 276
42.98721 277
43.00732 274
43.02743 289
43.04755 266
43.06766 263
43.08777 260
43.10789 280
43.128 272
43.14812 300
43.16823 254
43.18834 294
43.20846 254
43.22857 254
43.24868 270
43.2688 304
43.28891 307
43.30902 275
43.32914 245
43.34925 257
43.36937 274
43.38948 293
43.40959 272
43.42971 261
43.44982 239
43.46993 265
43.49005 258
43.51016 277
43.53028 268
43.55039 273
43.5705 280
43.59062 273
43.61073 281
43.63084 256
43.65096 269
43.67107 283
43.69119 291
43.7113 267
43.73141 289
43.75153 292
43.77164 283
43.79175 282
43.81187 270
43.83198 270
43.85209 283
43.87221 274
43.89232 305
43.91244 263
43.93255 282
43.95266 264
43.97278 307
43.99289 309
44.013 282
44.03312 286
44.05323 291
44.07335 280
44.09346 294
44.11357 316
44.13369 291
44.1538 295
44.17391 305
44.19403 299
44.21414 304
44.23426 285
44.25437 284
44.27448 268
44.2946 278
44.31471 291
44.33482 276
44.35494 304
44.37505 307
44.39516 291
44.41528 254
44.43539 283
44.45551 273
44.47562 314
44.49573 280
44.51585 268
44.53596 296
44.55607 310
44.57619 262
44.5963 279
44.61642 289
44.63653 256
44.65664 261
44.67676 303
44.69687 241
44.71698 277
44.7371 300
44.75721 290
44.77732 264
44.79744 264
44.81755 307
44.83767 294
44.85778 290
44.87789 303
44.89801 265
44.91812 302
44.93823 304
44.95835 293
44.97846 298
44.99858 303
45.01869 305
45.0388 286
45.05892 274
45.07903 324
45.09914 315
45.11926 300
45.13937 280
45.15949 322
45.1796 302
45.19971 326
45.21983 345
45.23994 305
45.26005 329
45.28017 317
45.30028 314
45.32039 345
45.34051 321
45.36062 370
45.38074 325
45.40085 345
45.42096 340
45.44108 386
45.46119 380
45.4813 373
45.50142 396
45.52153 406
45.54165 446
45.56176 447
45.58187 493
45.60199 508
45.6221 581
45.64221 635
45.66233 682
45.68244 799
45.70256 736
45.72267 766
45.74278 789
45.7629 749
45.78301 708
45.80312 635
45.82324 622
45.84335 579
45.86346 529
45.88358 457
45.90369 416
45.92381 364
45.94392 352
45.96403 380
45.98415 353
46.00426 343
46.02437 332
46.04449 321
46.0646 293
46.08472 305
46.10483 311
46.12494 287
46.14506 303
46.16517 279
46.18528 310
46.2054 305
46.22551 301
46.24563 292
46.26574 269
46.28585 296
46.30597 304
46.32608 271
46.34619 284
46.36631 307
46.38642 293
46.40653 276
46.42665 300
46.44676 305
46.46688 300
46.48699 292
46.5071 274
46.52722 296
46.54733 251
46.56744 299
46.58756 264
46.60767 308
46.62779 300
46.6479 277
46.66801 294
46.68813 293
46.70824 294
46.72835 303
46.74847 280
46.76858 299
46.78869 285
46.80881 275
46.82892 270
46.84904 288
46.86915 296
46.88926 296
46.90938 275
46.92949 279
46.9496 300
46.96972 254
46.98983 297
47.00995 300
47.03006 282
47.05017 287
47.07029 273
47.0904 291
47.11051 285
47.13063 294
47.15074 299
47.17086 300
47.19097 277
47.21108 298
47.2312 299
47.25131 279
47.27142 277
47.29154 320
47.31165 314
47.33176 294
47.35188 300
47.37199 275
47.39211 284
47.41222 270
47.43233 282
47.45245 263
47.47256 301
47.49267 311
47.51279 278
47.5329 294
47.55302 319
47.57313 273
47.59324 252
47.61336 309
47.63347 278
47.65358 291
47.6737 275
47.69381 294
47.71393 295
47.73404 286
47.75415 276
47.77427 291
47.79438 301
47.81449 307
47.83461 292
47.85472 291
47.87483 312
47.89495 264
47.91506 282
47.93518 285
47.95529 296
47.9754 325
47.99552 288
48.01563 305
48.03574 274
48.05586 292
48.07597 273
48.09609 294
48.1162 291
48.13631 287
48.15643 281
48.17654 293
48.19665 289
48.21677 268
48.23688 302
48.257 292
48.27711 303
48.29722 269
48.31734 282
48.33745 258
48.35756 292
48.37768 289
48.39779 275
48.4179 295
48.43802 291
48.45813 276
48.47825 244
48.49836 253
48.51847 264
48.53859 282
48.5587 307
48.57881 274
48.59893 310
48.61904 317
48.63916 297
48.65927 282
48.67938 282
48.6995 278
48.71961 305
48.73972 308
48.75984 283
48.77995 249
48.80006 253
48.82018 297
48.84029 275
48.86041 314
48.88052 296
48.90063 298
48.92075 264
48.94086 285
48.96097 302
48.98109 265
49.0012 302
49.02132 280
49.04143 249
49.06154 285
49.08166 310
49.10177 288
49.12188 291
49.142 297
49.16211 310
49.18223 267
49.20234 306
49.22245 297
49.24257 292
49.26268 328
49.28279 302
49.30291 292
49.32302 321
49.34313 299
49.36325 293
49.38336 307
49.40348 305
49.42359 324
49.4437 310
49.46382 318
49.48393 308
49.50404 324
49.52416 353
49.54427 307
49.56439 340
49.5845 330
49.60461 332
49.62473 335
49.64484 324
49.66495 351
49.68507 357
49.70518 346
49.7253 353
49.74541 378
49.76552 429
49.78564 422
49.80575 465
49.82586 506
49.84598 512
49.86609 641
49.8862 630
49.90632 758
49.92643 855
49.94655 1047
49.96666 1187
49.98677 1423
50.00689 1610
50.027 1793
50.04711 2017
50.06723 2021
50.08734 1978
50.10746 1836
50.12757 1632
50.14768 1487
50.1678 1379
50.18791 1265
50.20802 1149
50.22814 1063
50.24825 880
50.26837 728
50.28848 609
50.30859 534
50.32871 454
50.34882 410
50.36893 388
50.38905 340
50.40916 366
50.42927 357
50.44939 379
50.4695 350
50.48962 360
50.50973 364
50.52984 352
50.54996 343
50.57007 355
50.59018 329
50.6103 316
50.63041 343
50.65053 350
50.67064 343
50.69075 327
50.71087 330
50.73098 285
50.75109 313
50.77121 326
50.79132 330
50.81143 312
50.83155 298
50.85166 272
50.87178 278
50.89189 303
50.912 273
50.93212 282
50.95223 265
50.97234 310
50.99246 252
51.01257 277
51.03269 249
51.0528 297
51.07291 294
51.09303 268
51.11314 290
51.13325 309
51.15337 274
51.17348 273
51.1936 250
51.21371 267
51.23382 266
51.25394 285
51.27405 289
51.29416 295
51.31428 282
51.33439 285
51.3545 308
51.37462 271
51.39473 276
51.41485 272
51.43496 264
51.45507 281
51.47519 265
51.4953 277
51.51541 258
51.53553 265
51.55564 267
51.57576 268
51.59587 289
51.61598 222
51.6361 269
51.65621 241
51.67632 258
51.69644 268
51.71655 235
51.73667 256
51.75678 289
51.77689 269
51.79701 255
51.81712 263
51.83723 271
51.85735 261
51.87746 290
51.89757 268
51.91769 248
51.9378 297
51.95792 262
51.97803 258
51.99814 288
52.01826 290
52.03837 288
52.05848 276
52.0786 281
52.09871 291
52.11883 287
52.13894 278
52.15905 271
52.17917 288
52.19928 265
52.21939 291
52.23951 283
52.25962 286
52.27974 283
52.29985 295
52.31996 287
52.34008 284
52.36019 278
52.3803 250
52.40042 268
52.42053 271
52.44064 259
52.46076 279
52.48087 277
52.50099 247
52.5211 255
52.54121 248
52.56133 266
52.58144 280
52.60155 256
52.62167 262
52.64178 267
52.6619 260
52.68201 256
52.70212 252
52.72224 228
52.74235 255
52.76246 265
52.78258 242
52.80269 271
52.8228 263
52.84292 276
52.86303 280
52.88315 260
52.90326 257
52.92337 255
52.94349 258
52.9636 270
52.98371 264
53.00383 274
53.02394 280
53.04406 273
53.06417 254
53.08428 257
53.1044 265
53.12451 250
53.14462 278
53.16474 264
53.18485 258
53.20497 251
53.22508 259
53.24519 289
53.26531 289
53.28542 284
53.30553 284
53.32565 269
53.34576 297
53.36587 275
53.38599 286
53.4061 274
53.42622 291
53.44633 288
53.46644 305
53.48656 277
53.50667 291
53.52678 301
53.5469 304
53.56701 275
53.58713 303
53.60724 296
53.62735 283
53.64747 294
53.66758 303
53.68769 329
53.70781 343
53.72792 338
53.74804 324
53.76815 337
53.78826 351
53.80838 310
53.82849 322
53.8486 343
53.86872 337
53.88883 363
53.90894 383
53.92906 381
53.94917 367
53.96929 392
53.9894 396
54.00951 360
54.02963 385
54.04974 407
54.06985 402
54.08997 398
54.11008 351
54.1302 385
54.15031 408
54.17042 380
54.19054 367
54.21065 407
54.23076 433
54.25088 432
54.27099 374
54.29111 393
54.31122 396
54.33133 385
54.35145 398
54.37156 382
54.39167 422
54.41179 408
54.4319 403
54.45201 400
54.47213 419
54.49224 397
54.51236 438
54.53247 421
54.55258 454
54.5727 435
54.59281 466
54.61292 436
54.63304 488
54.65315 534
54.67327 574
54.69338 595
54.71349 650
54.73361 741
54.75372 757
54.77383 800
54.79395 830
54.81406 834
54.83417 771
54.85429 736
54.8744 734
54.89452 667
54.91463 666
54.93474 644
54.95486 649
54.97497 558
54.99508 518
55.0152 537
55.03531 471
55.05543 488
55.07554 446
55.09565 494
55.11577 447
55.13588 496
55.15599 532
55.17611 517
55.19622 545
55.21634 558
55.23645 604
55.25656 574
55.27668 543
55.29679 510
55.3169 494
55.33702 493
55.35713 447
55.37724 480
55.39736 473
55.41747 454
55.43759 417
55.4577 416
55.47781 384
55.49793 337
55.51804 333
55.53815 340
55.55827 343
55.57838 344
55.5985 360
55.61861 307
55.63872 360
55.65884 305
55.67895 288
55.69906 346
55.71918 302
55.73929 312
55.75941 295
55.77952 292
55.79963 314
55.81975 324
55.83986 280
55.85997 288
55.88009 302
55.9002 290
55.92031 316
55.94043 309
55.96054 328
55.98066 300
56.00077 292
56.02088 316
56.041 293
56.06111 286
56.08122 295
56.10134 259
56.12145 286
56.14157 270
56.16168 285
56.18179 303
56.20191 307
56.22202 309
56.24213 309
56.26225 249
56.28236 292
56.30248 331
56.32259 283
56.3427 315
56.36282 286
56.38293 265
56.40304 283
56.42316 304
56.44327 288
56.46338 319
56.4835 268
56.50361 285
56.52373 288
56.54384 304
56.56395 259
56.58407 288
56.60418 302
56.62429 246
56.64441 274
56.66452 315
56.68464 262
56.70475 283
56.72486 282
56.74498 281
56.76509 294
56.7852 269
56.80532 287
56.82543 282
56.84554 282
56.86566 307
56.88577 275
56.90589 274
56.926 268
56.94611 245
56.96623 271
56.98634 284
57.00645 285
57.02657 292
57.04668 314
57.0668 284
57.08691 308
57.10702 304
57.12714 310
57.14725 308
57.16736 309
57.18748 309
57.20759 308
57.22771 293
57.24782 241
57.26793 275
57.28805 305
57.30816 287
57.32827 244
57.34839 275
57.3685 275
57.38861 304
57.40873 285
57.42884 307
57.44896 301
57.46907 247
57.48918 259
57.5093 282
57.52941 292
57.54952 287
57.56964 265
57.58975 251
57.60987 285
57.62998 308
57.65009 282
57.67021 256
57.69032 281
57.71043 255
57.73055 275
57.75066 277
57.77078 283
57.79089 283
57.811 252
57.83112 281
57.85123 251
57.87134 266
57.89146 262
57.91157 281
57.93168 245
57.9518 285
57.97191 280
57.99203 263
58.01214 308
58.03225 282
58.05237 279
58.07248 261
58.09259 283
58.11271 272
58.13282 253
58.15294 308
58.17305 285
58.19316 270
58.21328 278
58.23339 281
58.2535 262
58.27362 253
58.29373 274
58.31385 254
58.33396 264
58.35407 265
58.37419 300
58.3943 236
58.41441 227
58.43453 272
58.45464 251
58.47475 274
58.49487 284
58.51498 279
58.5351 268
58.55521 275
58.57532 268
58.59544 267
58.61555 275
58.63566 253
58.65578 303
58.67589 276
58.69601 270
58.71612 288
58.73623 264
58.75635 252
58.77646 288
58.79657 251
58.81669 260
58.8368 271
58.85691 289
58.87703 265
58.89714 275
58.91726 271
58.93737 274
58.95748 285
58.9776 297
58.99771 288
59.01782 250
59.03794 299
59.05805 265
59.07817 264
59.09828 271
59.11839 281
59.13851 269
59.15862 273
59.17873 267
59.19885 278
59.21896 271
59.23908 302
59.25919 314
59.2793 287
59.29942 332
59.31953 304
59.33964 289
59.35976 278
59.37987 321
59.39998 290
59.4201 288
59.44021 294
59.46033 329
59.48044 342
59.50055 339
59.52067 345
59.54078 357
59.56089 334
59.58101 355
59.60112 406
59.62124 400
59.64135 453
59.66146 469
59.68158 524
59.70169 630
59.7218 579
59.74192 721
59.76203 778
59.78215 878
59.80226 1105
59.82237 1186
59.84249 1263
59.8626 1299
59.88271 1294
59.90283 1231
59.92294 1184
59.94305 1050
59.96317 1019
59.98328 966
60.0034 917
60.02351 844
60.04362 853
60.06374 744
60.08385 677
60.10396 603
60.12408 521
60.14419 474
60.16431 412
60.18442 377
60.20453 343
60.22465 361
60.24476 307
60.26487 316
60.28499 314
60.3051 330
60.32522 322
60.34533 307
60.36544 290
60.38556 280
60.40567 318
60.42578 297
60.4459 299
60.46601 273
60.48612 281
60.50624 273
60.52635 301
60.54647 269
60.56658 283
60.58669 255
60.60681 277
60.62692 296
60.64703 286
60.66715 258
60.68726 273
60.70738 275
60.72749 305
60.7476 291
60.76772 268
60.78783 263
60.80794 244
60.82806 267
60.84817 273
60.86828 252
60.8884 244
60.90851 225
60.92863 245
60.94874 259
60.96885 290
60.98897 255
61.00908 252
61.02919 255
61.04931 250
61.06942 273
61.08954 273
61.10965 261
61.12976 247
61.14988 252
61.16999 297
61.1901 281
61.21022 296
61.23033 269
61.25045 292
61.27056 291
61.29067 258
61.31079 276
61.3309 288
61.35101 282
61.37113 291
61.39124 268
61.41135 281
61.43147 273
61.45158 259
61.4717 284
61.49181 295
61.51192 333
61.53204 278
61.55215 271
61.57226 295
61.59238 268
61.61249 281
61.63261 251
61.65272 285
61.67283 295
61.69295 283
61.71306 275
61.73317 287
61.75329 278
61.7734 327
61.79352 285
61.81363 299
61.83374 294
61.85386 302
61.87397 301
61.89408 338
61.9142 345
61.93431 367
61.95442 352
61.97454 336
61.99465 311
62.01477 355
62.03488 363
62.05499 375
62.07511 378
62.09522 366
62.11533 381
62.13545 405
62.15556 393
62.17568 421
62.19579 438
62.2159 399
62.23602 441
62.25613 365
62.27624 429
62.29636 403
62.31647 384
62.33659 376
62.3567 371
62.37681 370
62.39693 381
62.41704 353
62.43715 329
62.45727 337
62.47738 378
62.49749 364
62.51761 318
62.53772 306
62.55784 318
62.57795 310
62.59806 317
62.61818 285
62.63829 319
62.6584 309
62.67852 286
62.69863 304
62.71875 317
62.73886 289
62.75897 255
62.77909 267
62.7992 321
62.81931 315
62.83943 291
62.85954 271
62.87965 286
62.89977 278
62.91988 256
62.94 264
62.96011 276
62.98022 275
63.00034 251
63.02045 275
63.04056 262
63.06068 273
63.08079 288
63.10091 269
63.12102 271
63.14113 261
63.16125 303
63.18136 268
63.20147 279
63.22159 282
63.2417 281
63.26182 266
63.28193 261
63.30204 280
63.32216 297
63.34227 276
63.36238 283
63.3825 268
63.40261 279
63.42272 249
63.44284 299
63.46295 283
63.48307 275
63.50318 261
63.52329 273
63.54341 302
63.56352 303
63.58363 281
63.60375 338
63.62386 298
63.64398 339
63.66409 299
63.6842 360
63.70432 334
63.72443 308
63.74454 353
63.76466 342
63.78477 349
63.80489 408
63.825 377
63.84511 416
63.86523 427
63.88534 429
63.90545 463
63.92557 451
63.94568 470
63.96579 499
63.98591 462
64.00602 466
64.02614 428
64.04625 412
64.06636 385
64.08648 397
64.10659 388
64.1267 383
64.14682 401
64.16693 339
64.18705 338
64.20716 314
64.22727 329
64.24739 268
64.2675 285
64.28761 305
64.30773 285
64.32784 318
64.34796 285
64.36807 277
64.38818 281
64.4083 302
64.42841 304
64.44852 273
64.46864 291
64.48875 277
64.50886 266
64.52898 245
64.54909 254
64.56921 259
64.58932 275
64.60943 278
64.62955 292
64.64966 284
64.66977 287
64.68989 279
64.71 288
64.73012 240
64.75023 282
64.77034 229
64.79046 271
64.81057 252
64.83068 293
64.8508 237
64.87091 261
64.89102 255
64.91114 231
64.93125 251
64.95137 264
64.97148 240
64.99159 238
65.01171 288
65.03182 246
65.05193 274
65.07205 248
65.09216 227
65.11228 253
65.13239 275
65.1525 251
65.17262 266
65.19273 256
65.21284 262
65.23296 227
65.25307 263
65.27319 267
65.2933 289
65.31341 261
65.33353 242
65.35364 259
65.37375 251
65.39387 268
65.41398 247
65.43409 239
65.45421 265
65.47432 246
65.49444 267
65.51455 261
65.53466 253
65.55478 275
65.57489 288
65.595 310
65.61512 287
65.63523 299
65.65535 275
65.67546 274
65.69557 335
65.71569 296
65.7358 302
65.75591 304
65.77603 269
65.79614 334
65.81626 288
65.83637 301
65.85648 296
65.8766 277
65.89671 268
65.91682 280
65.93694 269
65.95705 287
65.97716 274
65.99728 263
66.01739 265
66.03751 266
66.05762 290
66.07773 256
66.09785 256
66.11796 272
66.13807 228
66.15819 280
66.1783 229
66.19842 270
66.21853 236
66.23864 239
66.25876 229
66.27887 264
66.29898 240
66.3191 279
66.33921 250
66.35933 249
66.37944 249
66.39955 268
66.41967 246
66.43978 278
66.45989 259
66.48001 268
66.50012 241
66.52023 255
66.54035 256
66.56046 270
66.58058 241
66.60069 266
66.6208 265
66.64092 279
66.66103 260
66.68114 247
66.70126 261
66.72137 273
66.74149 270
66.7616 273
66.78171 276
66.80183 278
66.82194 247
66.84205 282
66.86217 232
66.88228 255
66.90239 273
66.92251 261
66.94262 267
66.96274 265
66.98285 233
67.00296 282
67.02308 268
67.04319 281
67.0633 265
67.08342 283
67.10353 265
67.12365 266
67.14376 294
67.16387 284
67.18399 256
67.2041 261
67.22421 304
67.24433 313
67.26444 279
67.28456 305
67.30467 330
67.32478 335
67.3449 320
67.36501 325
67.38512 358
67.40524 353
67.42535 381
67.44546 416
67.46558 391
67.48569 422
67.50581 433
67.52592 551
67.54603 564
67.56615 687
67.58626 726
67.60637 787
67.62649 810
67.6466 915
67.66672 884
67.68683 845
67.70694 776
67.72706 765
67.74717 705
67.76728 682
67.7874 672
67.80751 713
67.82763 707
67.84774 758
67.86785 723
67.88797 765
67.90808 770
67.92819 745
67.94831 853
67.96842 815
67.98853 873
68.00865 994
68.02876 1118
68.04888 1131
68.06899 1117
68.0891 1119
68.10922 1047
68.12933 1020
68.14944 1028
68.16956 1039
68.18967 984
68.20979 1022
68.2299 1085
68.25001 994
68.27013 916
68.29024 914
68.31035 759
68.33047 690
68.35058 658
68.3707 581
68.39081 582
68.41092 522
68.43104 550
68.45115 465
68.47126 468
68.49138 405
68.51149 391
68.5316 352
68.55172 352
68.57183 314
68.59195 287
68.61206 293
68.63217 284
68.65229 310
68.6724 271
68.69251 280
68.71263 277
68.73274 299
68.75286 239
68.77297 271
68.79308 254
68.8132 289
68.83331 267
68.85342 270
68.87354 280
68.89365 262
68.91376 273
68.93388 261
68.95399 239
68.97411 255
68.99422 260
69.01433 242
69.03445 263
69.05456 243
69.07467 268
69.09479 253
69.1149 240
69.13502 260
69.15513 267
69.17524 223
69.19536 233
69.21547 239
69.23558 260
69.2557 260
69.27581 255
69.29593 252
69.31604 241
69.33615 228
69.35627 258
69.37638 225
69.39649 242
69.41661 269
69.43672 226
69.45683 244
69.47695 226
69.49706 249
69.51718 255
69.53729 238
69.5574 248
69.57752 219
69.59763 244
69.61774 230
69.63786 247
69.65797 208
69.67809 256
69.6982 232
69.71831 229
69.73843 268
69.75854 229
69.77865 226
69.79877 235
69.81888 254
69.839 238
69.85911 255
69.87922 267
69.89934 243
69.91945 261
69.93956 236
69.95968 246
69.97979 244
69.9999 246
70.02002 229
70.04013 222
70.06025 234
70.08036 235
70.10047 207
70.12059 255
70.1407 259
70.16081 244
70.18093 243
70.20104 249
70.22116 231
70.24127 249
70.26138 228
70.2815 243
70.30161 238
70.32172 253
70.34184 225
70.36195 265
70.38207 256
70.40218 204
70.42229 255
70.44241 253
70.46252 220
70.48263 247
70.50275 249
70.52286 250
70.54297 250
70.56309 252
70.5832 251
70.60332 243
70.62343 227
70.64354 245
70.66366 218
70.68377 264
70.70388 247
70.724 229
70.74411 245
70.76423 252
70.78434 237
70.80445 241
70.82457 244
70.84468 228
70.86479 227
70.88491 234
70.90502 205
70.92513 239
70.94525 225
70.96536 227
70.98548 223
71.00559 233
71.0257 218
71.04582 224
71.06593 240
71.08604 263
71.10616 230
71.12627 254
71.14639 246
71.1665 240
71.18661 234
71.20673 194
71.22684 232
71.24695 221
71.26707 233
71.28718 212
71.3073 238
71.32741 237
71.34752 220
71.36764 233
71.38775 242
71.40786 256
71.42798 198
71.44809 230
71.4682 225
71.48832 240
71.50843 253
71.52855 241
71.54866 223
71.56877 231
71.58889 220
71.609 253
71.62911 237
71.64923 229
71.66934 236
71.68946 230
71.70957 207
71.72968 222
71.7498 200
71.76991 255
71.79002 256
71.81014 231
71.83025 261
71.85037 243
71.87048 206
71.89059 236
71.91071 210
71.93082 219
71.95093 242
71.97105 249
71.99116 251
72.01127 228
72.03139 206
72.0515 231
72.07162 234
72.09173 230
72.11184 256
72.13196 228
72.15207 237
72.17218 247
72.1923 263
72.21241 236
72.23253 229
72.25264 242
72.27275 209
72.29287 250
72.31298 216
72.33309 227
72.35321 240
72.37332 226
72.39344 242
72.41355 253
72.43366 245
72.45378 268
72.47389 216
72.494 265
72.51412 261
72.53423 275
72.55434 262
72.57446 253
72.59457 250
72.61469 252
72.6348 242
72.65491 236
72.67503 203
72.69514 227
72.71525 222
72.73537 224
72.75548 243
72.7756 231
72.79571 244
72.81582 231
72.83594 248
72.85605 218
72.87616 270
72.89628 214
72.91639 241
72.9365 253
72.95662 266
72.97673 251
72.99685 232
73.01696 235
73.03707 264
73.05719 236
73.0773 286
73.09741 273
73.11753 280
73.13764 289
73.15776 274
73.17787 280
73.19798 306
73.2181 293
73.23821 318
73.25832 359
73.27844 361
73.29855 387
73.31867 426
73.33878 406
73.35889 436
73.37901 444
73.39912 476
73.41923 400
73.43935 411
73.45946 401
73.47957 357
73.49969 394
73.5198 361
73.53992 320
73.56003 365
73.58014 347
73.60026 371
73.62037 331
73.64048 344
73.6606 339
73.68071 317
73.70083 307
73.72094 278
73.74105 286
73.76117 237
73.78128 246
73.80139 239
73.82151 247
73.84162 232
73.86174 237
73.88185 235
73.90196 250
73.92208 228
73.94219 252
73.9623 235
73.98242 210
74.00253 237
74.02264 241
74.04276 229
74.06287 228
74.08299 237
74.1031 221
74.12321 246
74.14333 225
74.16344 232
74.18355 242
74.20367 241
74.22378 227
74.2439 230
74.26401 234
74.28412 225
74.30424 230
74.32435 228
74.34446 209
74.36458 199
74.38469 240
74.40481 213
74.42492 219
74.44503 250
74.46515 203
74.48526 218
74.50537 234
74.52549 217
74.5456 215
74.56571 244
74.58583 225
74.60594 236
74.62606 226
74.64617 267
74.66628 219
74.6864 245
74.70651 245
74.72662 215
74.74674 233
74.76685 202
74.78697 218
74.80708 212
74.82719 262
74.84731 252
74.86742 233
74.88753 230
74.90765 240
74.92776 239
74.94787 236
74.96799 242
74.9881 221
75.00822 248
