3.00117 22450
3.02128 21823
3.0414 20933
3.06151 20486
3.08162 20060
3.10174 19470
3.12185 18812
3.14197 18178
3.16208 18172
3.18219 17536
3.20231 17180
3.22242 16235
3.24253 15973
3.26265 15857
3.28276 15042
3.30288 14557
3.32299 14188
3.3431 13650
3.36322 13475
3.38333 12735
3.40344 12634
3.42356 12035
3.44367 11721
3.46379 11613
3.4839 10848
3.50401 10639
3.52413 10373
3.54424 9658
3.56435 9673
3.58447 9186
3.60458 8891
3.62469 8576
3.64481 8137
3.66492 8099
3.68504 7521
3.70515 7238
3.72526 7127
3.74538 6958
3.76549 6660
3.7856 6365
3.80572 6200
3.82583 5950
3.84595 5801
3.86606 5587
3.88617 5289
3.90629 4942
3.9264 4840
3.94651 4718
3.96663 4618
3.98674 4257
4.00686 4098
4.02697 3873
4.04708 3638
4.0672 3684
4.08731 3398
4.10742 3350
4.12754 3321
4.14765 3105
4.16776 3007
4.18788 2711
4.20799 2755
4.22811 2613
4.24822 2611
4.26833 2413
4.28845 2349
4.30856 2290
4.32867 2235
4.34879 2252
4.3689 2107
4.38902 1938
4.40913 1924
4.42924 1979
4.44936 1897
4.46947 1899
4.48958 1820
4.5097 1738
4.52981 1740
4.54992 1677
4.57004 1671
4.59015 1487
4.61027 1546
4.63038 1595
4.65049 1550
4.67061 1521
4.69072 1423
4.71083 1421
4.73095 1387
4.75106 1364
4.77118 1311
4.79129 1353
4.8114 1188
4.83152 1362
4.85163 1287
4.87174 1220
4.89186 1198
4.91197 1164
4.93209 1184
4.9522 1175
4.97231 1156
4.99243 1090
5.01254 1071
5.03265 1072
5.05277 1098
5.07288 1002
5.09299 1016
5.11311 988
5.13322 938
5.15334 934
5.17345 978
5.19356 958
5.21368 931
5.23379 890
5.2539 840
5.27402 870
5.29413 834
5.31425 785
5.33436 787
5.35447 825
5.37459 735
5.3947 814
5.41481 826
5.43493 750
5.45504 711
5.47516 711
5.49527 744
5.51538 697
5.5355 679
5.55561 702
5.57572 746
5.59584 657
5.61595 686
5.63606 627
5.65618 630
5.67629 640
5.69641 675
5.71652 617
5.73663 583
5.75675 595
5.77686 647
5.79697 659
5.81709 585
5.8372 591
5.85732 621
5.87743 606
5.89754 638
5.91766 577
5.93777 601
5.95788 531
5.978 560
5.99811 521
6.01823 545
6.03834 554
6.05845 563
6.07857 505
6.09868 547
6.11879 543
6.13891 559
6.15902 599
6.17913 570
6.19925 557
6.21936 471
6.23948 555
6.25959 505
6.2797 500
6.29982 474
6.31993 532
6.34004 538
6.36016 538
6.38027 491
6.40039 521
6.4205 510
6.44061 539
6.46073 499
6.48084 496
6.50095 552
6.52107 473
6.54118 500
6.56129 505
6.58141 520
6.60152 475
6.62164 504
6.64175 489
6.66186 461
6.68198 521
6.70209 537
6.7222 479
6.74232 465
6.76243 506
6.78255 453
6.80266 525
6.82277 505
6.84289 491
6.863 458
6.88311 526
6.90323 517
6.92334 504
6.94346 457
6.96357 500
6.98368 486
7.0038 502
7.02391 515
7.04402 420
7.06414 489
7.08425 501
7.10436 480
7.12448 472
7.14459 448
7.16471 471
7.18482 483
7.20493 476
7.22505 442
7.24516 468
7.26527 451
7.28539 430
7.3055 496
7.32562 482
7.34573 497
7.36584 502
7.38596 480
7.40607 487
7.42618 449
7.4463 479
7.46641 472
7.48653 498
7.50664 460
7.52675 472
7.54687 426
7.56698 483
7.58709 459
7.60721 436
7.62732 482
7.64743 475
7.66755 469
7.68766 473
7.70778 473
7.72789 469
7.748 430
7.76812 453
7.78823 442
7.80834 477
7.82846 463
7.84857 454
7.86869 421
7.8888 457
7.90891 448
7.92903 452
7.94914 484
7.96925 486
7.98937 463
8.00948 455
8.0296 454
8.04971 488
8.06982 459
8.08994 448
8.11005 452
8.13016 485
8.15028 474
8.17039 468
8.1905 469
8.21062 531
8.23073 434
8.25085 452
8.27096 452
8.29107 447
8.31119 464
8.3313 470
8.35141 496
8.37153 491
8.39164 490
8.41176 484
8.43187 481
8.45198 485
8.4721 474
8.49221 446
8.51232 458
8.53244 471
8.55255 499
8.57266 470
8.59278 482
8.61289 459
8.63301 456
8.65312 503
8.67323 483
8.69335 487
8.71346 483
8.73357 422
8.75369 467
8.7738 511
8.79392 470
8.81403 461
8.83414 492
8.85426 456
8.87437 501
8.89448 498
8.9146 442
8.93471 473
8.95483 434
8.97494 476
8.99505 473
9.01517 451
9.03528 456
9.05539 432
9.07551 466
9.09562 437
9.11573 433
9.13585 465
9.15596 396
9.17608 479
9.19619 432
9.2163 447
9.23642 480
9.25653 485
9.27664 460
9.29676 488
9.31687 448
9.33699 458
9.3571 497
9.37721 431
9.39733 450
9.41744 426
9.43755 454
9.45767 453
9.47778 400
9.4979 453
9.51801 407
9.53812 458
9.55824 486
9.57835 480
9.59846 410
9.61858 435
9.63869 452
9.6588 430
9.67892 434
9.69903 410
9.71915 454
9.73926 455
9.75937 438
9.77949 451
9.7996 440
9.81971 427
9.83983 415
9.85994 435
9.88006 439
9.90017 438
9.92028 432
9.9404 435
9.96051 422
9.98062 427
10.00074 424
10.02085 435
10.04097 414
10.06108 404
10.08119 422
10.10131 451
10.12142 481
10.14153 443
10.16165 419
10.18176 416
10.20187 430
10.22199 424
10.2421 413
10.26222 483
10.28233 459
10.30244 483
10.32256 421
10.34267 443
10.36278 428
10.3829 459
10.40301 468
10.42313 501
10.44324 495
10.46335 422
10.48347 427
10.50358 474
10.52369 434
10.54381 523
10.56392 411
10.58403 426
10.60415 429
10.62426 509
10.64438 438
10.66449 442
10.6846 465
10.70472 432
10.72483 460
10.74494 425
10.76506 408
10.78517 519
10.80529 428
10.8254 468
10.84551 425
10.86563 454
10.88574 425
10.90585 409
10.92597 461
10.94608 411
10.9662 435
10.98631 455
11.00642 434
11.02654 463
11.04665 514
11.06676 476
11.08688 482
11.10699 472
11.1271 507
11.14722 475
11.16733 507
11.18745 461
11.20756 465
11.22767 469
11.24779 439
11.2679 448
11.28801 507
11.30813 461
11.32824 468
11.34836 494
11.36847 459
11.38858 456
11.4087 464
11.42881 467
11.44892 461
11.46904 518
11.48915 454
11.50927 481
11.52938 492
11.54949 497
11.56961 501
11.58972 471
11.60983 516
11.62995 511
11.65006 464
11.67017 497
11.69029 437
11.7104 507
11.73052 537
11.75063 519
11.77074 532
11.79086 492
11.81097 512
11.83108 549
11.8512 484
11.87131 503
11.89143 538
11.91154 479
11.93165 473
11.95177 542
11.97188 548
11.99199 480
12.01211 559
12.03222 502
12.05234 512
12.07245 505
12.09256 479
12.11268 556
12.13279 486
12.1529 491
12.17302 494
12.19313 485
12.21324 497
12.23336 555
12.25347 492
12.27359 533
12.2937 543
12.31381 471
12.33393 563
12.35404 509
12.37415 507
12.39427 560
12.41438 524
12.4345 485
12.45461 489
12.47472 519
12.49484 509
12.51495 471
12.53506 484
12.55518 455
12.57529 483
12.5954 482
12.61552 482
12.63563 446
12.65575 431
12.67586 480
12.69597 448
12.71609 444
12.7362 446
12.75631 461
12.77643 465
12.79654 456
12.81666 398
12.83677 436
12.85688 429
12.877 426
12.89711 399
12.91722 473
12.93734 462
12.95745 404
12.97757 399
12.99768 399
13.01779 414
13.03791 401
13.05802 433
13.07813 383
13.09825 387
13.11836 414
13.13847 446
13.15859 353
13.1787 380
13.19882 415
13.21893 374
13.23904 409
13.25916 428
13.27927 402
13.29938 405
13.3195 474
13.33961 424
13.35973 412
13.37984 402
13.39995 401
13.42007 407
13.44018 424
13.46029 423
13.48041 373
13.50052 403
13.52064 438
13.54075 423
13.56086 426
13.58098 423
13.60109 434
13.6212 459
13.64132 450
13.66143 469
13.68154 512
13.70166 500
13.72177 466
13.74189 408
13.762 489
13.78211 435
13.80223 455
13.82234 440
13.84245 430
13.86257 410
13.88268 421
13.9028 408
13.92291 399
13.94302 430
13.96314 384
13.98325 394
14.00336 363
14.02348 375
14.04359 389
14.06371 405
14.08382 402
14.10393 381
14.12405 377
14.14416 367
14.16427 367
14.18439 380
14.2045 369
14.22461 346
14.24473 370
14.26484 367
14.28496 375
14.30507 358
14.32518 372
14.3453 407
14.36541 371
14.38552 394
14.40564 344
14.42575 370
14.44587 356
14.46598 388
14.48609 391
14.50621 361
14.52632 377
14.54643 413
14.56655 392
14.58666 341
14.60677 372
14.62689 378
14.647 395
14.66712 358
14.68723 353
14.70734 371
14.72746 346
14.74757 354
14.76768 367
14.7878 417
14.80791 379
14.82803 366
14.84814 373
14.86825 375
14.88837 331
14.90848 348
14.92859 402
14.94871 385
14.96882 338
14.98894 395
15.00905 367
15.02916 402
15.04928 397
15.06939 364
15.0895 394
15.10962 370
15.12973 351
15.14984 367
15.16996 387
15.19007 388
15.21019 391
15.2303 428
15.25041 410
15.27053 422
15.29064 402
15.31075 361
15.33087 370
15.35098 376
15.3711 402
15.39121 379
15.41132 360
15.43144 345
15.45155 357
15.47166 372
15.49178 381
15.51189 377
15.53201 370
15.55212 374
15.57223 378
15.59235 358
15.61246 352
15.63257 367
15.65269 339
15.6728 392
15.69291 364
15.71303 374
15.73314 395
15.75326 374
15.77337 336
15.79348 359
15.8136 352
15.83371 368
15.85382 339
15.87394 349
15.89405 370
15.91417 386
15.93428 367
15.95439 341
15.97451 353
15.99462 350
16.01473 364
16.03485 361
16.05496 356
16.07508 358
16.09519 369
16.1153 379
16.13542 397
16.15553 369
16.17564 328
16.19576 335
16.21587 319
16.23598 349
16.2561 362
16.27621 372
16.29633 383
16.31644 359
16.33655 377
16.35667 378
16.37678 384
16.39689 377
16.41701 343
16.43712 353
16.45724 339
16.47735 404
16.49746 361
16.51758 367
16.53769 381
16.5578 393
16.57792 368
16.59803 361
16.61814 370
16.63826 372
16.65837 380
16.67849 380
16.6986 370
16.71871 404
16.73883 354
16.75894 415
16.77905 364
16.79917 347
16.81928 337
16.8394 410
16.85951 387
16.87962 363
16.89974 361
16.91985 402
16.93996 381
16.96008 420
16.98019 399
17.00031 376
17.02042 365
17.04053 441
17.06065 349
17.08076 390
17.10087 407
17.12099 362
17.1411 398
17.16121 376
17.18133 377
17.20144 390
17.22156 373
17.24167 337
17.26178 363
17.2819 376
17.30201 376
17.32212 370
17.34224 384
17.36235 355
17.38247 416
17.40258 394
17.42269 392
17.44281 371
17.46292 378
17.48303 412
17.50315 390
17.52326 399
17.54338 350
17.56349 394
17.5836 429
17.60372 344
17.62383 369
17.64394 408
17.66406 401
17.68417 381
17.70428 395
17.7244 363
17.74451 388
17.76463 378
17.78474 452
17.80485 387
17.82497 375
17.84508 416
17.86519 361
17.88531 411
17.90542 361
17.92554 392
17.94565 414
17.96576 391
17.98588 384
18.00599 375
18.0261 380
18.04622 398
18.06633 395
18.08645 389
18.10656 359
18.12667 406
18.14679 394
18.1669 377
18.18701 388
18.20713 393
18.22724 399
18.24735 426
18.26747 396
18.28758 384
18.3077 393
18.32781 400
18.34792 403
18.36804 392
18.38815 409
18.40826 402
18.42838 411
18.44849 381
18.46861 360
18.48872 400
18.50883 399
18.52895 390
18.54906 375
18.56917 429
18.58929 397
18.6094 426
18.62951 410
18.64963 433
18.66974 403
18.68986 409
18.70997 441
18.73008 427
18.7502 411
18.77031 397
18.79042 410
18.81054 406
18.83065 427
18.85077 419
18.87088 415
18.89099 419
18.91111 452
18.93122 401
18.95133 411
18.97145 393
18.99156 432
19.01168 409
19.03179 406
19.0519 425
19.07202 408
19.09213 406
19.11224 444
19.13236 467
19.15247 433
19.17258 411
19.1927 438
19.21281 450
19.23293 412
19.25304 411
19.27315 451
19.29327 472
19.31338 460
19.33349 452
19.35361 467
19.37372 436
19.39384 463
19.41395 453
19.43406 485
19.45418 481
19.47429 490
19.4944 482
19.51452 510
19.53463 486
19.55475 517
19.57486 586
19.59497 553
19.61509 564
19.6352 588
19.65531 624
19.67543 666
19.69554 701
19.71565 738
19.73577 698
19.75588 722
19.776 736
19.79611 768
19.81622 743
19.83634 802
19.85645 835
19.87656 847
19.89668 807
19.91679 859
19.93691 801
19.95702 813
19.97713 846
19.99725 753
20.01736 842
20.03747 823
20.05759 824
20.0777 835
20.09782 754
20.11793 790
20.13804 772
20.15816 794
20.17827 781
20.19838 767
20.2185 783
20.23861 766
20.25872 766
20.27884 781
20.29895 759
20.31907 764
20.33918 755
20.35929 821
20.37941 697
20.39952 723
20.41963 732
20.43975 726
20.45986 755
20.47998 775
20.50009 748
20.5202 746
20.54032 740
20.56043 720
20.58054 771
20.60066 734
20.62077 753
20.64088 782
20.661 808
20.68111 840
20.70123 866
20.72134 984
20.74145 1169
20.76157 1344
20.78168 1591
20.80179 2078
20.82191 2413
20.84202 2785
20.86214 2919
20.88225 2775
20.90236 2407
20.92248 1959
20.94259 1533
20.9627 1177
20.98282 958
21.00293 805
21.02305 831
21.04316 788
21.06327 826
21.08339 778
21.1035 736
21.12361 717
21.14373 669
21.16384 689
21.18395 665
21.20407 697
21.22418 665
21.2443 706
21.26441 695
21.28452 675
21.30464 747
21.32475 602
21.34486 694
21.36498 634
21.38509 701
21.40521 695
21.42532 706
21.44543 739
21.46555 700
21.48566 707
21.50577 746
21.52589 774
21.546 782
21.56612 772
21.58623 923
21.60634 898
21.62646 888
21.64657 821
21.66668 816
21.6868 748
21.70691 754
21.72702 698
21.74714 682
21.76725 627
21.78737 630
21.80748 632
21.82759 624
21.84771 589
21.86782 631
21.88793 669
21.90805 625
21.92816 617
21.94828 689
21.96839 628
21.9885 625
22.00862 679
22.02873 683
22.04884 630
22.06896 583
22.08907 649
22.10919 636
22.1293 568
22.14941 641
22.16953 598
22.18964 553
22.20975 576
22.22987 570
22.24998 582
22.27009 570
22.29021 579
22.31032 573
22.33044 532
22.35055 629
22.37066 529
22.39078 582
22.41089 583
22.431 530
22.45112 556
22.47123 560
22.49135 547
22.51146 532
22.53157 568
22.55169 553
22.5718 606
22.59191 574
22.61203 592
22.63214 541
22.65225 565
22.67237 593
22.69248 531
22.7126 563
22.73271 551
22.75282 566
22.77294 543
22.79305 593
22.81316 579
22.83328 587
22.85339 594
22.87351 670
22.89362 602
22.91373 681
22.93385 620
22.95396 590
22.97407 591
22.99419 598
23.0143 623
23.03442 590
23.05453 602
23.07464 524
23.09476 525
23.11487 545
23.13498 592
23.1551 574
23.17521 548
23.19532 569
23.21544 554
23.23555 554
23.25567 584
23.27578 538
23.29589 558
23.31601 625
23.33612 515
23.35623 536
23.37635 563
23.39646 599
23.41658 582
23.43669 576
23.4568 555
23.47692 614
23.49703 636
23.51714 608
23.53726 641
23.55737 615
23.57749 660
23.5976 675
23.61771 681
23.63783 765
23.65794 763
23.67805 781
23.69817 817
23.71828 740
23.73839 811
23.75851 713
23.77862 726
23.79874 705
23.81885 633
23.83896 688
23.85908 655
23.87919 639
23.8993 640
23.91942 659
23.93953 629
23.95965 608
23.97976 653
23.99987 600
24.01999 657
24.0401 594
24.06021 598
24.08033 621
24.10044 580
24.12056 577
24.14067 607
24.16078 616
24.1809 610
24.20101 605
24.22112 625
24.24124 569
24.26135 564
24.28146 580
24.30158 556
24.32169 609
24.34181 603
24.36192 545
24.38203 571
24.40215 582
24.42226 575
24.44237 606
24.46249 543
24.4826 609
24.50272 590
24.52283 598
24.54294 587
24.56306 653
24.58317 615
24.60328 686
24.6234 613
24.64351 632
24.66362 640
24.68374 672
24.70385 603
24.72397 622
24.74408 614
24.76419 626
24.78431 698
24.80442 606
24.82453 630
24.84465 662
24.86476 633
24.88488 594
24.90499 629
24.9251 611
24.94522 595
24.96533 618
24.98544 607
25.00556 629
25.02567 576
25.04579 608
25.0659 641
25.08601 614
25.10613 634
25.12624 638
25.14635 578
25.16647 640
25.18658 637
25.20669 647
25.22681 657
25.24692 615
25.26704 658
25.28715 642
25.30726 644
25.32738 607
25.34749 649
25.3676 626
25.38772 615
25.40783 593
25.42795 587
25.44806 612
25.46817 609
25.48829 659
25.5084 560
25.52851 622
25.54863 620
25.56874 659
25.58886 653
25.60897 610
25.62908 628
25.6492 615
25.66931 692
25.68942 654
25.70954 690
25.72965 759
25.74976 737
25.76988 792
25.78999 664
25.81011 679
25.83022 707
25.85033 728
25.87045 702
25.89056 637
25.91067 610
25.93079 625
25.9509 612
25.97102 636
25.99113 625
26.01124 564
26.03136 603
26.05147 626
26.07158 604
26.0917 683
26.11181 617
26.13193 637
26.15204 626
26.17215 652
26.19227 601
26.21238 698
26.23249 686
26.25261 749
26.27272 693
26.29283 768
26.31295 776
26.33306 850
26.35318 850
26.37329 858
26.3934 1066
26.41352 1118
26.43363 1150
26.45374 1482
26.47386 1820
26.49397 2259
26.51409 2987
26.5342 4059
26.55431 5365
26.57443 7055
26.59454 8714
26.61465 10136
26.63477 10666
26.65488 10065
26.67499 8677
26.69511 6811
26.71522 5036
26.73534 3757
26.75545 2484
26.77556 1692
26.79568 1231
26.81579 1105
26.8359 1023
26.85602 931
26.87613 880
26.89625 875
26.91636 830
26.93647 804
26.95659 762
26.9767 754
26.99681 729
27.01693 692
27.03704 764
27.05716 645
27.07727 705
27.09738 606
27.1175 703
27.13761 685
27.15772 660
27.17784 596
27.19795 587
27.21806 613
27.23818 597
27.25829 647
27.27841 685
27.29852 716
27.31863 695
27.33875 758
27.35886 851
27.37897 878
27.39909 946
27.4192 1054
27.43932 1183
27.45943 1152
27.47954 1197
27.49966 1226
27.51977 1086
27.53988 1021
27.56 1021
27.58011 974
27.60023 882
27.62034 811
27.64045 831
27.66057 892
27.68068 885
27.70079 1005
27.72091 1034
27.74102 971
27.76113 1053
27.78125 1005
27.80136 987
27.82148 846
27.84159 796
27.8617 767
27.88182 758
27.90193 666
27.92204 626
27.94216 593
27.96227 598
27.98239 581
28.0025 566
28.02261 568
28.04273 547
28.06284 527
28.08295 540
28.10307 510
28.12318 534
28.1433 491
28.16341 486
28.18352 474
28.20364 506
28.22375 515
28.24386 512
28.26398 476
28.28409 512
28.3042 504
28.32432 512
28.34443 512
28.36455 501
28.38466 495
28.40477 502
28.42489 434
28.445 480
28.46511 495
28.48523 470
28.50534 474
28.52546 512
28.54557 455
28.56568 481
28.5858 464
28.60591 459
28.62602 412
28.64614 470
28.66625 442
28.68636 467
28.70648 499
28.72659 454
28.74671 434
28.76682 467
28.78693 458
28.80705 485
28.82716 470
28.84727 441
28.86739 459
28.8875 451
28.90762 437
28.92773 467
28.94784 454
28.96796 469
28.98807 395
29.00818 419
29.0283 448
29.04841 436
29.06853 431
29.08864 456
29.10875 460
29.12887 477
29.14898 477
29.16909 446
29.18921 442
29.20932 420
29.22943 416
29.24955 429
29.26966 452
29.28978 421
29.30989 515
29.33 478
29.35012 472
29.37023 463
29.39034 468
29.41046 438
29.43057 477
29.45069 455
29.4708 441
29.49091 478
29.51103 450
29.53114 443
29.55125 475
29.57137 463
29.59148 471
29.6116 448
29.63171 434
29.65182 472
29.67194 451
29.69205 446
29.71216 472
29.73228 478
29.75239 506
29.7725 473
29.79262 491
29.81273 479
29.83285 505
29.85296 527
29.87307 505
29.89319 500
29.9133 500
29.93341 480
29.95353 537
29.97364 483
29.99376 504
30.01387 507
30.03398 500
30.0541 476
30.07421 511
30.09432 517
30.11444 536
30.13455 526
30.15467 523
30.17478 505
30.19489 482
30.21501 492
30.23512 516
30.25523 470
30.27535 477
30.29546 446
30.31557 493
30.33569 460
30.3558 469
30.37592 488
30.39603 498
30.41614 475
30.43626 481
30.45637 483
30.47648 494
30.4966 462
30.51671 503
30.53683 456
30.55694 469
30.57705 464
30.59717 477
30.61728 542
30.63739 533
30.65751 492
30.67762 477
30.69773 530
30.71785 479
30.73796 516
30.75808 502
30.77819 519
30.7983 528
30.81842 524
30.83853 498
30.85864 516
30.87876 507
30.89887 466
30.91899 501
30.9391 505
30.95921 461
30.97933 470
30.99944 445
31.01955 491
31.03967 438
31.05978 455
31.0799 440
31.10001 437
31.12012 426
31.14024 490
31.16035 462
31.18046 428
31.20058 441
31.22069 447
31.2408 440
31.26092 411
31.28103 398
31.30115 424
31.32126 429
31.34137 410
31.36149 416
31.3816 458
31.40171 408
31.42183 443
31.44194 408
31.46206 431
31.48217 429
31.50228 431
31.5224 439
31.54251 441
31.56262 415
31.58274 405
31.60285 410
31.62297 382
31.64308 408
31.66319 398
31.68331 385
31.70342 414
31.72353 428
31.74365 406
31.76376 369
31.78387 441
31.80399 425
31.8241 430
31.84422 399
31.86433 403
31.88444 424
31.90456 424
31.92467 395
31.94478 374
31.9649 444
31.98501 427
32.00513 435
32.02524 445
32.04535 407
32.06547 408
32.08558 458
32.10569 471
32.12581 430
32.14592 423
32.16604 379
32.18615 449
32.20626 441
32.22638 439
32.24649 461
32.2666 458
32.28672 435
32.30683 474
32.32694 429
32.34706 442
32.36717 459
32.38729 497
32.4074 447
32.42751 477
32.44763 446
32.46774 517
32.48785 467
32.50797 459
32.52808 463
32.5482 461
32.56831 470
32.58842 472
32.60854 405
32.62865 455
32.64876 422
32.66888 473
32.68899 466
32.7091 500
32.72922 502
32.74933 428
32.76945 460
32.78956 503
32.80967 476
32.82979 480
32.8499 473
32.87001 479
32.89013 449
32.91024 484
32.93036 541
32.95047 528
32.97058 481
32.9907 534
33.01081 457
33.03092 520
33.05104 489
33.07115 553
33.09127 499
33.11138 487
33.13149 525
33.15161 519
33.17172 498
33.19183 503
33.21195 452
33.23206 534
33.25217 487
33.27229 480
33.2924 459
33.31252 473
33.33263 476
33.35274 437
33.37286 487
33.39297 456
33.41308 447
33.4332 410
33.45331 435
33.47343 469
33.49354 444
33.51365 471
33.53377 439
33.55388 436
33.57399 455
33.59411 484
33.61422 442
33.63434 383
33.65445 409
33.67456 404
33.69468 427
33.71479 429
33.7349 447
33.75502 415
33.77513 429
33.79524 405
33.81536 449
33.83547 446
33.85559 392
33.8757 398
33.89581 480
33.91593 393
33.93604 419
33.95615 434
33.97627 429
33.99638 428
34.0165 468
34.03661 409
34.05672 404
34.07684 428
34.09695 395
34.11706 435
34.13718 451
34.15729 443
34.17741 429
34.19752 429
34.21763 440
34.23775 391
34.25786 382
34.27797 410
34.29809 450
34.3182 475
34.33831 472
34.35843 447
34.37854 494
34.39866 418
34.41877 448
34.43888 494
34.459 507
34.47911 510
34.49922 503
34.51934 469
34.53945 497
34.55957 486
34.57968 546
34.59979 539
34.61991 579
34.64002 488
34.66013 545
34.68025 517
34.70036 482
34.72047 563
34.74059 596
34.7607 549
34.78082 602
34.80093 609
34.82104 598
34.84116 604
34.86127 569
34.88138 602
34.9015 577
34.92161 616
34.94173 618
34.96184 580
34.98195 582
35.00207 656
35.02218 594
35.04229 617
35.06241 606
35.08252 593
35.10264 616
35.12275 655
35.14286 658
35.16298 712
35.18309 706
35.2032 690
35.22332 664
35.24343 658
35.26354 648
35.28366 625
35.30377 627
35.32389 630
35.344 665
35.36411 606
35.38423 587
35.40434 583
35.42445 642
35.44457 599
35.46468 639
35.4848 647
35.50491 644
35.52502 668
35.54514 651
35.56525 652
35.58536 619
35.60548 651
35.62559 615
35.64571 621
35.66582 601
35.68593 638
35.70605 666
35.72616 603
35.74627 618
35.76639 631
35.7865 560
35.80661 622
35.82673 585
35.84684 600
35.86696 590
35.88707 605
35.90718 603
35.9273 578
35.94741 588
35.96752 582
35.98764 566
36.00775 585
36.02787 545
36.04798 574
36.06809 561
36.08821 596
36.10832 545
36.12843 519
36.14855 575
36.16866 561
36.18878 551
36.20889 528
36.229 592
36.24912 598
36.26923 539
36.28934 566
36.30946 553
36.32957 619
36.34968 605
36.3698 582
36.38991 715
36.41003 722
36.43014 796
36.45025 917
36.47037 964
36.49048 1083
36.51059 1122
36.53071 1209
36.55082 1195
36.57094 1021
36.59105 951
36.61116 895
36.63128 804
36.65139 761
36.6715 702
36.69162 606
36.71173 574
36.73184 580
36.75196 554
36.77207 600
36.79219 527
36.8123 536
36.83241 544
36.85253 486
36.87264 538
36.89275 546
36.91287 555
36.93298 531
36.9531 516
36.97321 496
36.99332 518
37.01344 526
37.03355 508
37.05366 535
37.07378 561
37.09389 496
37.11401 483
37.13412 476
37.15423 538
37.17435 537
37.19446 495
37.21457 508
37.23469 513
37.2548 526
37.27491 524
37.29503 483
37.31514 502
37.33526 515
37.35537 542
37.37548 510
37.3956 554
37.41571 490
37.43582 521
37.45594 515
37.47605 518
37.49617 528
37.51628 499
37.53639 521
37.55651 502
37.57662 520
37.59673 465
37.61685 509
37.63696 538
37.65708 479
37.67719 506
37.6973 470
37.71742 501
37.73753 534
37.75764 522
37.77776 479
37.79787 506
37.81798 456
37.8381 464
37.85821 481
37.87833 453
37.89844 497
37.91855 446
37.93867 487
37.95878 491
37.97889 525
37.99901 496
38.01912 478
38.03924 500
38.05935 483
38.07946 481
38.09958 474
38.11969 494
38.1398 455
38.15992 468
38.18003 453
38.20015 513
38.22026 475
38.24037 483
38.26049 493
38.2806 510
38.30071 468
38.32083 455
38.34094 506
38.36105 514
38.38117 473
38.40128 499
38.4214 488
38.44151 471
38.46162 478
38.48174 535
38.50185 486
38.52196 482
38.54208 471
38.56219 497
38.58231 479
38.60242 471
38.62253 475
38.64265 512
38.66276 492
38.68287 481
38.70299 475
38.7231 473
38.74321 467
38.76333 529
38.78344 477
38.80356 459
38.82367 451
38.84378 471
38.8639 471
38.88401 475
38.90412 432
38.92424 465
38.94435 494
38.96447 477
38.98458 469
39.00469 448
39.02481 475
39.04492 466
39.06503 511
39.08515 491
39.10526 489
39.12538 420
39.14549 434
39.1656 478
39.18572 479
39.20583 480
39.22594 492
39.24606 538
39.26617 525
39.28628 542
39.3064 532
39.32651 623
39.34663 697
39.36674 765
39.38685 830
39.40697 932
39.42708 1025
39.44719 962
39.46731 961
39.48742 957
39.50754 879
39.52765 764
39.54776 751
39.56788 741
39.58799 642
39.6081 583
39.62822 473
39.64833 494
39.66845 444
39.68856 471
39.70867 449
39.72879 458
39.7489 414
39.76901 427
39.78913 419
39.80924 440
39.82935 445
39.84947 431
39.86958 447
39.8897 415
39.90981 414
39.92992 473
39.95004 443
39.97015 443
39.99026 442
40.01038 432
40.03049 453
40.05061 444
40.07072 474
40.09083 465
40.11095 483
40.13106 459
40.15117 537
40.17129 565
40.1914 628
40.21152 657
40.23163 685
40.25174 707
40.27186 692
40.29197 690
40.31208 679
40.3322 584
40.35231 584
40.37242 598
40.39254 580
40.41265 532
40.43277 454
40.45288 449
40.47299 456
40.49311 460
40.51322 467
40.53333 411
40.55345 429
40.57356 416
40.59368 429
40.61379 451
40.6339 442
40.65402 463
40.67413 444
40.69424 444
40.71436 440
40.73447 468
40.75458 456
40.7747 463
40.79481 446
40.81493 450
40.83504 463
40.85515 460
40.87527 420
40.89538 458
40.91549 463
40.93561 425
40.95572 457
40.97584 484
40.99595 483
41.01606 460
41.03618 414
41.05629 482
41.0764 404
41.09652 420
41.11663 468
41.13675 443
41.15686 433
41.17697 429
41.19709 448
41.2172 462
41.23731 456
41.25743 400
41.27754 444
41.29765 425
41.31777 429
41.33788 421
41.358 418
41.37811 441
41.39822 428
41.41834 420
41.43845 390
41.45856 417
41.47868 384
41.49879 395
41.51891 428
41.53902 389
41.55913 465
41.57925 422
41.59936 451
41.61947 446
41.63959 450
41.6597 459
41.67982 486
41.69993 463
41.72004 457
41.74016 460
41.76027 435
41.78038 459
41.8005 468
41.82061 421
41.84072 457
41.86084 415
41.88095 397
41.90107 420
41.92118 399
41.94129 393
41.96141 398
41.98152 425
42.00163 423
42.02175 416
42.04186 367
42.06198 394
42.08209 425
42.1022 394
42.12232 428
42.14243 419
42.16254 417
42.18266 482
42.20277 406
42.22289 450
42.243 464
42.26311 467
42.28323 517
42.30334 516
42.32345 542
42.34357 607
42.36368 690
42.38379 742
42.40391 775
42.42402 812
42.44414 809
42.46425 804
42.48436 705
42.50448 637
42.52459 630
42.5447 581
42.56482 545
42.58493 526
42.60505 475
42.62516 446
42.64527 443
42.66539 423
42.6855 427
42.70561 393
42.72573 396
42.74584 406
42.76595 418
42.78607 365
42.80618 395
42.8263 368
42.84641 392
42.86652 393
42.88664 416
42.90675 403
42.92686 354
42.94698 381
42.96709 357
42.98721 374
43.00732 394
43.02743 383
43.04755 394
43.06766 412
43.08777 365
43.10789 363
43.128 413
43.14812 379
43.16823 394
43.18834 359
43.20846 386
43.22857 397
43.24868 366
43.2688 375
43.28891 376
43.30902 374
43.32914 348
43.34925 382
43.36937 368
43.38948 345
43.40959 396
43.42971 389
43.44982 375
43.46993 353
43.49005 387
43.51016 378
43.53028 373
43.55039 352
43.5705 383
43.59062 413
43.61073 380
43.63084 404
43.65096 376
43.67107 343
43.69119 390
43.7113 389
43.73141 385
43.75153 354
43.77164 364
43.79175 370
43.81187 341
43.83198 391
43.85209 346
43.87221 365
43.89232 392
43.91244 364
43.93255 370
43.95266 398
43.97278 379
43.99289 375
44.013 375
44.03312 418
44.05323 428
44.07335 408
44.09346 354
44.11357 372
44.13369 427
44.1538 373
44.17391 359
44.19403 362
44.21414 395
44.23426 399
44.25437 406
44.27448 400
44.2946 382
44.31471 371
44.33482 417
44.35494 374
44.37505 384
44.39516 374
44.41528 395
44.43539 394
44.45551 382
44.47562 376
44.49573 383
44.51585 357
44.53596 351
44.55607 359
44.57619 355
44.5963 407
44.61642 390
44.63653 367
44.65664 375
44.67676 379
44.69687 398
44.71698 395
44.7371 400
44.75721 396
44.77732 417
44.79744 362
44.81755 390
44.83767 361
44.85778 368
44.87789 390
44.89801 382
44.91812 353
44.93823 397
44.95835 366
44.97846 399
44.99858 385
45.01869 390
45.0388 399
45.05892 399
45.07903 358
45.09914 377
45.11926 380
45.13937 385
45.15949 390
45.1796 367
45.19971 392
45.21983 359
45.23994 391
45.26005 386
45.28017 415
45.30028 384
45.32039 397
45.34051 381
45.36062 355
45.38074 407
45.40085 427
45.42096 377
45.44108 394
45.46119 352
45.4813 422
45.50142 388
45.52153 408
45.54165 398
45.56176 439
45.58187 434
45.60199 393
45.6221 483
45.64221 463
45.66233 477
45.68244 545
45.70256 552
45.72267 562
45.74278 617
45.7629 638
45.78301 623
45.80312 605
45.82324 584
45.84335 543
45.86346 536
45.88358 531
45.90369 497
45.92381 476
45.94392 464
45.96403 382
45.98415 398
46.00426 413
46.02437 397
46.04449 367
46.0646 401
46.08472 389
46.10483 383
46.12494 366
46.14506 386
46.16517 413
46.18528 441
46.2054 412
46.22551 390
46.24563 371
46.26574 396
46.28585 354
46.30597 357
46.32608 371
46.34619 410
46.36631 398
46.38642 395
46.40653 407
46.42665 388
46.44676 364
46.46688 407
46.48699 390
46.5071 376
46.52722 359
46.54733 399
46.56744 382
46.58756 408
46.60767 397
46.62779 396
46.6479 365
46.66801 403
46.68813 373
46.70824 399
46.72835 387
46.74847 380
46.76858 395
46.78869 359
46.80881 390
46.82892 405
46.84904 407
46.86915 400
46.88926 377
46.90938 377
46.92949 410
46.9496 373
46.96972 376
46.98983 393
47.00995 382
47.03006 350
47.05017 372
47.07029 378
47.0904 423
47.11051 381
47.13063 380
47.15074 389
47.17086 351
47.19097 401
47.21108 379
47.2312 406
47.25131 373
47.27142 381
47.29154 366
47.31165 365
47.33176 381
47.35188 360
47.37199 374
47.39211 343
47.41222 375
47.43233 427
47.45245 385
47.47256 375
47.49267 397
47.51279 355
47.5329 371
47.55302 369
47.57313 382
47.59324 384
47.61336 369
47.63347 359
47.65358 355
47.6737 363
47.69381 393
47.71393 358
47.73404 365
47.75415 363
47.77427 373
47.79438 365
47.81449 389
47.83461 389
47.85472 396
47.87483 366
47.89495 380
47.91506 383
47.93518 389
47.95529 431
47.9754 380
47.99552 386
48.01563 367
48.03574 411
48.05586 351
48.07597 370
48.09609 379
48.1162 409
48.13631 371
48.15643 378
48.17654 383
48.19665 406
48.21677 365
48.23688 385
48.257 418
48.27711 352
48.29722 391
48.31734 381
48.33745 376
48.35756 394
48.37768 367
48.39779 405
48.4179 365
48.43802 409
48.45813 390
48.47825 374
48.49836 373
48.51847 439
48.53859 438
48.5587 361
48.57881 367
48.59893 373
48.61904 376
48.63916 412
48.65927 396
48.67938 360
48.6995 384
48.71961 403
48.73972 401
48.75984 389
48.77995 361
48.80006 376
48.82018 375
48.84029 365
48.86041 364
48.88052 378
48.90063 405
48.92075 357
48.94086 360
48.96097 378
48.98109 350
49.0012 389
49.02132 410
49.04143 424
49.06154 360
49.08166 339
49.10177 405
49.12188 406
49.142 385
49.16211 392
49.18223 397
49.20234 385
49.22245 391
49.24257 401
49.26268 401
49.28279 372
49.30291 427
49.32302 416
49.34313 417
49.36325 434
49.38336 377
49.40348 388
49.42359 430
49.4437 399
49.46382 399
49.48393 372
49.50404 395
49.52416 421
49.54427 424
49.56439 406
49.5845 406
49.60461 384
49.62473 373
49.64484 415
49.66495 427
49.68507 388
49.70518 396
49.7253 407
49.74541 385
49.76552 428
49.78564 446
49.80575 482
49.82586 461
49.84598 452
49.86609 469
49.8862 485
49.90632 525
49.92643 518
49.94655 585
49.96666 604
49.98677 724
50.00689 801
50.027 909
50.04711 1028
50.06723 1183
50.08734 1263
50.10746 1287
50.12757 1313
50.14768 1124
50.1678 1076
50.18791 932
50.20802 898
50.22814 842
50.24825 785
50.26837 754
50.28848 713
50.30859 594
50.32871 475
50.34882 428
50.36893 430
50.38905 436
50.40916 412
50.42927 414
50.44939 423
50.4695 386
50.48962 391
50.50973 379
50.52984 427
50.54996 426
50.57007 412
50.59018 448
50.6103 404
50.63041 417
50.65053 401
50.67064 432
50.69075 442
50.71087 392
50.73098 395
50.75109 426
50.77121 417
50.79132 399
50.81143 428
50.83155 364
50.85166 404
50.87178 420
50.89189 447
50.912 434
50.93212 422
50.95223 438
50.97234 432
50.99246 433
51.01257 397
51.03269 395
51.0528 387
51.07291 389
51.09303 392
51.11314 408
51.13325 393
51.15337 403
51.17348 352
51.1936 371
51.21371 376
51.23382 395
51.25394 351
51.27405 377
51.29416 363
51.31428 370
51.33439 387
51.3545 343
51.37462 347
51.39473 348
51.41485 338
51.43496 358
51.45507 326
51.47519 382
51.4953 327
51.51541 347
51.53553 382
51.55564 319
51.57576 340
51.59587 363
51.61598 322
51.6361 320
51.65621 339
51.67632 341
51.69644 347
51.71655 355
51.73667 342
51.75678 372
51.77689 347
51.79701 329
51.81712 343
51.83723 349
51.85735 306
51.87746 344
51.89757 360
51.91769 336
51.9378 342
51.95792 323
51.97803 324
51.99814 345
52.01826 357
52.03837 351
52.05848 339
52.0786 341
52.09871 362
52.11883 328
52.13894 322
52.15905 342
52.17917 353
52.19928 329
52.21939 336
52.23951 297
52.25962 334
52.27974 325
52.29985 341
52.31996 339
52.34008 352
52.36019 351
52.3803 306
52.40042 342
52.42053 362
52.44064 356
52.46076 355
52.48087 353
52.50099 371
52.5211 330
52.54121 331
52.56133 318
52.58144 382
52.60155 375
52.62167 384
52.64178 381
52.6619 370
52.68201 334
52.70212 363
52.72224 365
52.74235 352
52.76246 375
52.78258 353
52.80269 369
52.8228 402
52.84292 392
52.86303 392
52.88315 370
52.90326 365
52.92337 368
52.94349 364
52.9636 357
52.98371 365
53.00383 372
53.02394 377
53.04406 382
53.06417 398
53.08428 390
53.1044 368
53.12451 387
53.14462 392
53.16474 348
53.18485 398
53.20497 352
53.22508 414
53.24519 353
53.26531 379
53.28542 407
53.30553 399
53.32565 388
53.34576 377
53.36587 387
53.38599 374
53.4061 391
53.42622 353
53.44633 420
53.46644 400
53.48656 377
53.50667 397
53.52678 426
53.5469 434
53.56701 419
53.58713 407
53.60724 389
53.62735 407
53.64747 410
53.66758 400
53.68769 409
53.70781 482
53.72792 389
53.74804 413
53.76815 410
53.78826 408
53.80838 458
53.82849 441
53.8486 444
53.86872 407
53.88883 437
53.90894 455
53.92906 445
53.94917 416
53.96929 435
53.9894 431
54.00951 409
54.02963 454
54.04974 443
54.06985 488
54.08997 465
54.11008 479
54.1302 457
54.15031 446
54.17042 413
54.19054 455
54.21065 424
54.23076 454
54.25088 427
54.27099 460
54.29111 460
54.31122 414
54.33133 462
54.35145 462
54.37156 408
54.39167 444
54.41179 475
54.4319 425
54.45201 437
54.47213 434
54.49224 420
54.51236 464
54.53247 416
54.55258 449
54.5727 425
54.59281 427
54.61292 417
54.63304 490
54.65315 475
54.67327 461
54.69338 491
54.71349 521
54.73361 553
54.75372 574
54.77383 615
54.79395 644
54.81406 623
54.83417 707
54.85429 672
54.8744 681
54.89452 607
54.91463 579
54.93474 571
54.95486 528
54.97497 553
54.99508 523
55.0152 540
55.03531 467
55.05543 433
55.07554 442
55.09565 475
55.11577 400
55.13588 413
55.15599 419
55.17611 456
55.19622 469
55.21634 447
55.23645 511
55.25656 496
55.27668 508
55.29679 511
55.3169 445
55.33702 449
55.35713 495
55.37724 464
55.39736 438
55.41747 426
55.43759 450
55.4577 408
55.47781 416
55.49793 394
55.51804 408
55.53815 395
55.55827 398
55.57838 369
55.5985 401
55.61861 378
55.63872 371
55.65884 372
55.67895 395
55.69906 402
55.71918 381
55.73929 394
55.75941 373
55.77952 344
55.79963 405
55.81975 364
55.83986 381
55.85997 366
55.88009 353
55.9002 388
55.92031 373
55.94043 399
55.96054 363
55.98066 359
56.00077 390
56.02088 362
56.041 364
56.06111 379
56.08122 352
56.10134 353
56.12145 346
56.14157 376
56.16168 355
56.18179 382
56.20191 372
56.22202 348
56.24213 406
56.26225 368
56.28236 370
56.30248 388
56.32259 380
56.3427 376
56.36282 352
56.38293 382
56.40304 369
56.42316 370
56.44327 404
56.46338 349
56.4835 399
56.50361 347
56.52373 378
56.54384 358
56.56395 384
56.58407 358
56.60418 374
56.62429 378
56.64441 368
56.66452 374
56.68464 384
56.70475 363
56.72486 377
56.74498 352
56.76509 370
56.7852 358
56.80532 346
56.82543 370
56.84554 395
56.86566 357
56.88577 383
56.90589 371
56.926 377
56.94611 320
56.96623 378
56.98634 352
57.00645 351
57.02657 371
57.04668 356
57.0668 356
57.08691 370
57.10702 382
57.12714 395
57.14725 351
57.16736 374
57.18748 401
57.20759 356
57.22771 377
57.24782 377
57.26793 386
57.28805 379
57.30816 387
57.32827 402
57.34839 369
57.3685 362
57.38861 335
57.40873 392
57.42884 372
57.44896 324
57.46907 359
57.48918 368
57.5093 389
57.52941 337
57.54952 335
57.56964 352
57.58975 350
57.60987 355
57.62998 363
57.65009 371
57.67021 368
57.69032 333
57.71043 383
57.73055 338
57.75066 342
57.77078 330
57.79089 375
57.811 363
57.83112 355
57.85123 316
57.87134 348
57.89146 337
57.91157 378
57.93168 315
57.9518 355
57.97191 375
57.99203 359
58.01214 322
58.03225 355
58.05237 330
58.07248 333
58.09259 353
58.11271 383
58.13282 382
58.15294 333
58.17305 325
58.19316 346
58.21328 317
58.23339 359
58.2535 329
58.27362 345
58.29373 334
58.31385 338
58.33396 349
58.35407 350
58.37419 357
58.3943 357
58.41441 306
58.43453 332
58.45464 358
58.47475 341
58.49487 323
58.51498 340
58.5351 380
58.55521 339
58.57532 359
58.59544 352
58.61555 347
58.63566 320
58.65578 335
58.67589 333
58.69601 331
58.71612 365
58.73623 354
58.75635 341
58.77646 335
58.79657 372
58.81669 339
58.8368 349
58.85691 350
58.87703 366
58.89714 364
58.91726 335
58.93737 351
58.95748 340
58.9776 334
58.99771 344
59.01782 395
59.03794 374
59.05805 362
59.07817 332
59.09828 329
59.11839 340
59.13851 344
59.15862 336
59.17873 353
59.19885 362
59.21896 343
59.23908 355
59.25919 366
59.2793 389
59.29942 359
59.31953 349
59.33964 360
59.35976 336
59.37987 344
59.39998 339
59.4201 349
59.44021 365
59.46033 335
59.48044 357
59.50055 360
59.52067 360
59.54078 373
59.56089 354
59.58101 367
59.60112 388
59.62124 384
59.64135 363
59.66146 360
59.68158 426
59.70169 433
59.7218 447
59.74192 440
59.76203 477
59.78215 533
59.80226 592
59.82237 667
59.84249 760
59.8626 786
59.88271 887
59.90283 867
59.92294 919
59.94305 850
59.96317 763
59.98328 748
60.0034 646
60.02351 636
60.04362 618
60.06374 662
60.08385 614
60.10396 578
60.12408 546
60.14419 475
60.16431 471
60.18442 421
60.20453 391
60.22465 362
60.24476 378
60.26487 369
60.28499 363
60.3051 335
60.32522 325
60.34533 367
60.36544 343
60.38556 359
60.40567 326
60.42578 347
60.4459 368
60.46601 351
60.48612 363
60.50624 335
60.52635 330
60.54647 360
60.56658 340
60.58669 368
60.60681 328
60.62692 354
60.64703 291
60.66715 314
60.68726 351
60.70738 401
60.72749 349
60.7476 340
60.76772 319
60.78783 370
60.80794 352
60.82806 348
60.84817 388
60.86828 348
60.8884 351
60.90851 365
60.92863 342
60.94874 327
60.96885 328
60.98897 331
61.00908 349
61.02919 363
61.04931 363
61.06942 358
61.08954 351
61.10965 372
61.12976 364
61.14988 373
61.16999 324
61.1901 330
61.21022 354
61.23033 345
61.25045 346
61.27056 367
61.29067 341
61.31079 347
61.3309 357
61.35101 360
61.37113 363
61.39124 377
61.41135 406
61.43147 378
61.45158 363
61.4717 395
61.49181 355
61.51192 380
61.53204 349
61.55215 369
61.57226 405
61.59238 395
61.61249 395
61.63261 386
61.65272 402
61.67283 365
61.69295 363
61.71306 422
61.73317 385
61.75329 419
61.7734 432
61.79352 415
61.81363 405
61.83374 429
61.85386 408
61.87397 453
61.89408 444
61.9142 427
61.93431 408
61.95442 455
61.97454 415
61.99465 405
62.01477 444
62.03488 479
62.05499 463
62.07511 445
62.09522 463
62.11533 459
62.13545 471
62.15556 464
62.17568 445
62.19579 462
62.2159 482
62.23602 500
62.25613 489
62.27624 487
62.29636 468
62.31647 446
62.33659 484
62.3567 454
62.37681 420
62.39693 444
62.41704 452
62.43715 446
62.45727 420
62.47738 447
62.49749 421
62.51761 431
62.53772 411
62.55784 403
62.57795 422
62.59806 410
62.61818 419
62.63829 410
62.6584 399
62.67852 422
62.69863 399
62.71875 418
62.73886 360
62.75897 375
62.77909 390
62.7992 402
62.81931 400
62.83943 409
62.85954 369
62.87965 371
62.89977 371
62.91988 382
62.94 428
62.96011 372
62.98022 341
63.00034 341
63.02045 355
63.04056 364
63.06068 354
63.08079 338
63.10091 372
63.12102 375
63.14113 369
63.16125 333
63.18136 366
63.20147 382
63.22159 360
63.2417 372
63.26182 365
63.28193 354
63.30204 341
63.32216 357
63.34227 348
63.36238 371
63.3825 352
63.40261 384
63.42272 364
63.44284 350
63.46295 386
63.48307 347
63.50318 344
63.52329 358
63.54341 355
63.56352 397
63.58363 381
63.60375 382
63.62386 361
63.64398 354
63.66409 368
63.6842 362
63.70432 388
63.72443 345
63.74454 369
63.76466 387
63.78477 383
63.80489 390
63.825 376
63.84511 389
63.86523 419
63.88534 418
63.90545 404
63.92557 456
63.94568 433
63.96579 455
63.98591 469
64.00602 435
64.02614 431
64.04625 450
64.06636 480
64.08648 435
64.10659 412
64.1267 414
64.14682 428
64.16693 369
64.18705 428
64.20716 370
64.22727 379
64.24739 374
64.2675 415
64.28761 379
64.30773 375
64.32784 370
64.34796 355
64.36807 360
64.38818 363
64.4083 361
64.42841 333
64.44852 331
64.46864 326
64.48875 340
64.50886 370
64.52898 320
64.54909 345
64.56921 350
64.58932 350
64.60943 350
64.62955 329
64.64966 314
64.66977 335
64.68989 320
64.71 318
64.73012 327
64.75023 339
64.77034 289
64.79046 329
64.81057 320
64.83068 329
64.8508 329
64.87091 335
64.89102 337
64.91114 335
64.93125 300
64.95137 329
64.97148 316
64.99159 341
65.01171 325
65.03182 349
65.05193 346
65.07205 317
65.09216 307
65.11228 339
65.13239 348
65.1525 339
65.17262 330
65.19273 340
65.21284 355
65.23296 322
65.25307 302
65.27319 332
65.2933 323
65.31341 287
65.33353 323
65.35364 283
65.37375 327
65.39387 322
65.41398 306
65.43409 348
65.45421 321
65.47432 319
65.49444 337
65.51455 315
65.53466 336
65.55478 301
65.57489 356
65.595 290
65.61512 343
65.63523 334
65.65535 314
65.67546 303
65.69557 365
65.71569 346
65.7358 362
65.75591 379
65.77603 357
65.79614 347
65.81626 312
65.83637 352
65.85648 334
65.8766 348
65.89671 322
65.91682 323
65.93694 349
65.95705 337
65.97716 306
65.99728 331
66.01739 368
66.03751 316
66.05762 319
66.07773 344
66.09785 343
66.11796 317
66.13807 306
66.15819 335
66.1783 310
66.19842 296
66.21853 303
66.23864 322
66.25876 303
66.27887 324
66.29898 356
66.3191 335
66.33921 309
66.35933 316
66.37944 324
66.39955 324
66.41967 278
66.43978 330
66.45989 331
66.48001 329
66.50012 314
66.52023 330
66.54035 301
66.56046 316
66.58058 315
66.60069 278
66.6208 286
66.64092 319
66.66103 325
66.68114 331
66.70126 316
66.72137 301
66.74149 333
66.7616 299
66.78171 302
66.80183 304
66.82194 306
66.84205 314
66.86217 333
66.88228 313
66.90239 308
66.92251 316
66.94262 349
66.96274 326
66.98285 333
67.00296 281
67.02308 326
67.04319 321
67.0633 322
67.08342 320
67.10353 317
67.12365 358
67.14376 288
67.16387 288
67.18399 327
67.2041 295
67.22421 329
67.24433 344
67.26444 312
67.28456 334
67.30467 336
67.32478 339
67.3449 352
67.36501 344
67.38512 299
67.40524 357
67.42535 371
67.44546 337
67.46558 375
67.48569 363
67.50581 375
67.52592 398
67.54603 418
67.56615 453
67.58626 468
67.60637 509
67.62649 573
67.6466 564
67.66672 588
67.68683 630
67.70694 621
67.72706 644
67.74717 596
67.76728 538
67.7874 507
67.80751 522
67.82763 512
67.84774 504
67.86785 529
67.88797 531
67.90808 544
67.92819 588
67.94831 574
67.96842 527
67.98853 587
68.00865 603
68.02876 645
68.04888 722
68.06899 772
68.0891 729
68.10922 801
68.12933 722
68.14944 746
68.16956 736
68.18967 683
68.20979 685
68.2299 722
68.25001 726
68.27013 748
68.29024 733
68.31035 639
68.33047 637
68.35058 581
68.3707 468
68.39081 497
68.41092 482
68.43104 481
68.45115 459
68.47126 439
68.49138 418
68.51149 405
68.5316 388
68.55172 378
68.57183 348
68.59195 342
68.61206 319
68.63217 327
68.65229 336
68.6724 367
68.69251 339
68.71263 340
68.73274 314
68.75286 338
68.77297 343
68.79308 300
68.8132 342
68.83331 314
68.85342 315
68.87354 297
68.89365 352
68.91376 335
68.93388 318
68.95399 322
68.97411 327
68.99422 315
69.01433 320
69.03445 307
69.05456 322
69.07467 324
69.09479 301
69.1149 283
69.13502 313
69.15513 312
69.17524 326
69.19536 321
69.21547 306
69.23558 300
69.2557 312
69.27581 326
69.29593 319
69.31604 344
69.33615 296
69.35627 306
69.37638 319
69.39649 324
69.41661 284
69.43672 313
69.45683 315
69.47695 291
69.49706 321
69.51718 305
69.53729 292
69.5574 272
69.57752 320
69.59763 326
69.61774 329
69.63786 324
69.65797 307
69.67809 288
69.6982 295
69.71831 290
69.73843 300
69.75854 319
69.77865 294
69.79877 284
69.81888 303
69.839 311
69.85911 307
69.87922 291
69.89934 310
69.91945 333
69.93956 284
69.95968 288
69.97979 328
69.9999 325
70.02002 308
70.04013 312
70.06025 309
70.08036 298
70.10047 316
70.12059 314
70.1407 308
70.16081 304
70.18093 333
70.20104 313
70.22116 307
70.24127 342
70.26138 313
70.2815 305
70.30161 329
70.32172 289
70.34184 345
70.36195 308
70.38207 303
70.40218 285
70.42229 322
70.44241 274
70.46252 313
70.48263 301
70.50275 263
70.52286 325
70.54297 325
70.56309 335
70.5832 298
70.60332 308
70.62343 291
70.64354 288
70.66366 296
70.68377 313
70.70388 305
70.724 315
70.74411 294
70.76423 273
70.78434 304
70.80445 290
70.82457 291
70.84468 253
70.86479 304
70.88491 302
70.90502 285
70.92513 280
70.94525 291
70.96536 276
70.98548 283
71.00559 294
71.0257 288
71.04582 268
71.06593 293
71.08604 302
71.10616 287
71.12627 289
71.14639 295
71.1665 312
71.18661 282
71.20673 322
71.22684 293
71.24695 301
71.26707 294
71.28718 311
71.3073 278
71.32741 288
71.34752 285
71.36764 303
71.38775 298
71.40786 281
71.42798 321
71.44809 315
71.4682 307
71.48832 299
71.50843 304
71.52855 283
71.54866 318
71.56877 304
71.58889 277
71.609 318
71.62911 296
71.64923 316
71.66934 292
71.68946 290
71.70957 310
71.72968 313
71.7498 319
71.76991 319
71.79002 308
71.81014 270
71.83025 285
71.85037 273
71.87048 311
71.89059 302
71.91071 294
71.93082 316
71.95093 341
71.97105 317
71.99116 351
72.01127 280
72.03139 296
72.0515 305
72.07162 307
72.09173 300
72.11184 342
72.13196 287
72.15207 335
72.17218 280
72.1923 291
72.21241 283
72.23253 299
72.25264 310
72.27275 274
72.29287 319
72.31298 307
72.33309 294
72.35321 298
72.37332 320
72.39344 330
72.41355 299
72.43366 292
72.45378 297
72.47389 314
72.494 325
72.51412 294
72.53423 323
72.55434 330
72.57446 286
72.59457 295
72.61469 312
72.6348 314
72.65491 319
72.67503 292
72.69514 305
72.71525 276
72.73537 321
72.75548 325
72.7756 327
72.79571 335
72.81582 288
72.83594 305
72.85605 324
72.87616 313
72.89628 298
72.91639 302
72.9365 324
72.95662 305
72.97673 325
72.99685 314
73.01696 310
73.03707 319
73.05719 329
73.0773 308
73.09741 346
73.11753 292
73.13764 325
73.15776 342
73.17787 338
73.19798 346
73.2181 331
73.23821 332
73.25832 340
73.27844 403
73.29855 369
73.31867 374
73.33878 387
73.35889 355
73.37901 401
73.39912 424
73.41923 429
73.43935 418
73.45946 393
73.47957 396
73.49969 372
73.5198 341
73.53992 343
73.56003 350
73.58014 348
73.60026 326
73.62037 352
73.64048 366
73.6606 357
73.68071 348
73.70083 347
73.72094 323
73.74105 320
73.76117 335
73.78128 324
73.80139 318
73.82151 303
73.84162 300
73.86174 338
73.88185 305
73.90196 323
73.92208 300
73.94219 300
73.9623 274
73.98242 326
74.00253 326
74.02264 286
74.04276 323
74.06287 344
74.08299 305
74.1031 315
74.12321 280
74.14333 327
74.16344 292
74.18355 300
74.20367 305
74.22378 314
74.2439 299
74.26401 311
74.28412 292
74.30424 309
74.32435 303
74.34446 342
74.36458 301
74.38469 324
74.40481 311
74.42492 320
74.44503 298
74.46515 296
74.48526 310
74.50537 323
74.52549 313
74.5456 322
74.56571 324
74.58583 302
74.60594 296
74.62606 302
74.64617 333
74.66628 288
74.6864 300
74.70651 298
74.72662 314
74.74674 298
74.76685 317
74.78697 310
74.80708 309
74.82719 296
74.84731 291
74.86742 313
74.88753 327
74.90765 293
74.92776 305
74.94787 327
74.96799 300
74.9881 285
75.00822 310
