3.00117 20964
3.02128 20319
3.0414 19871
3.06151 19028
3.08162 18906
3.10174 18174
3.12185 17603
3.14197 17430
3.16208 16469
3.18219 16342
3.20231 15938
3.22242 15305
3.24253 15088
3.26265 14398
3.28276 14104
3.30288 13741
3.32299 12936
3.3431 12961
3.36322 12416
3.38333 11941
3.40344 11562
3.42356 11194
3.44367 10855
3.46379 10568
3.4839 10234
3.50401 9694
3.52413 9489
3.54424 9114
3.56435 9043
3.58447 8514
3.60458 8270
3.62469 7981
3.64481 7834
3.66492 7268
3.68504 7211
3.70515 6798
3.72526 6517
3.74538 6291
3.76549 5935
3.7856 5732
3.80572 5441
3.82583 5322
3.84595 5127
3.86606 4849
3.88617 4948
3.90629 4550
3.9264 4413
3.94651 4227
3.96663 3978
3.98674 3722
4.00686 3632
4.02697 3316
4.04708 3561
4.0672 3303
4.08731 3144
4.10742 2851
4.12754 2780
4.14765 2852
4.16776 2646
4.18788 2528
4.20799 2323
4.22811 2194
4.24822 2336
4.26833 2271
4.28845 2060
4.30856 2017
4.32867 1981
4.34879 1918
4.3689 1929
4.38902 1912
4.40913 1757
4.42924 1737
4.44936 1726
4.46947 1718
4.48958 1594
4.5097 1618
4.52981 1497
4.54992 1599
4.57004 1527
4.59015 1456
4.61027 1383
4.63038 1386
4.65049 1439
4.67061 1460
4.69072 1302
4.71083 1246
4.73095 1285
4.75106 1288
4.77118 1309
4.79129 1244
4.8114 1101
4.83152 1151
4.85163 1122
4.87174 1222
4.89186 1170
4.91197 1040
4.93209 1006
4.9522 1024
4.97231 1054
4.99243 933
5.01254 1024
5.03265 960
5.05277 904
5.07288 911
5.09299 926
5.11311 837
5.13322 898
5.15334 842
5.17345 913
5.19356 828
5.21368 855
5.23379 821
5.2539 794
5.27402 787
5.29413 761
5.31425 773
5.33436 755
5.35447 745
5.37459 745
5.3947 718
5.41481 660
5.43493 739
5.45504 665
5.47516 722
5.49527 695
5.51538 684
5.5355 691
5.55561 643
5.57572 620
5.59584 653
5.61595 692
5.63606 670
5.65618 644
5.67629 608
5.69641 603
5.71652 571
5.73663 613
5.75675 580
5.77686 544
5.79697 596
5.81709 636
5.8372 617
5.85732 557
5.87743 534
5.89754 569
5.91766 576
5.93777 560
5.95788 587
5.978 542
5.99811 551
6.01823 501
6.03834 493
6.05845 535
6.07857 542
6.09868 547
6.11879 503
6.13891 465
6.15902 536
6.17913 503
6.19925 468
6.21936 544
6.23948 482
6.25959 431
6.2797 455
6.29982 437
6.31993 482
6.34004 421
6.36016 441
6.38027 453
6.40039 485
6.4205 488
6.44061 455
6.46073 471
6.48084 459
6.50095 450
6.52107 442
6.54118 463
6.56129 468
6.58141 482
6.60152 445
6.62164 423
6.64175 425
6.66186 429
6.68198 404
6.70209 472
6.7222 411
6.74232 398
6.76243 384
6.78255 382
6.80266 408
6.82277 398
6.84289 410
6.863 469
6.88311 402
6.90323 404
6.92334 376
6.94346 387
6.96357 386
6.98368 402
7.0038 432
7.02391 374
7.04402 382
7.06414 401
7.08425 358
7.10436 408
7.12448 384
7.14459 387
7.16471 417
7.18482 372
7.20493 380
7.22505 374
7.24516 372
7.26527 378
7.28539 389
7.3055 371
7.32562 357
7.34573 334
7.36584 400
7.38596 394
7.40607 386
7.42618 354
7.4463 402
7.46641 354
7.48653 388
7.50664 364
7.52675 365
7.54687 398
7.56698 368
7.58709 363
7.60721 394
7.62732 375
7.64743 349
7.66755 378
7.68766 339
7.70778 346
7.72789 338
7.748 345
7.76812 415
7.78823 367
7.80834 357
7.82846 357
7.84857 347
7.86869 386
7.8888 374
7.90891 367
7.92903 344
7.94914 355
7.96925 341
7.98937 379
8.00948 348
8.0296 363
8.04971 413
8.06982 378
8.08994 373
8.11005 331
8.13016 372
8.15028 384
8.17039 362
8.1905 390
8.21062 382
8.23073 346
8.25085 330
8.27096 423
8.29107 356
8.31119 368
8.3313 397
8.35141 384
8.37153 418
8.39164 352
8.41176 386
8.43187 333
8.45198 376
8.4721 386
8.49221 370
8.51232 408
8.53244 349
8.55255 390
8.57266 399
8.59278 360
8.61289 393
8.63301 396
8.65312 431
8.67323 360
8.69335 395
8.71346 367
8.73357 364
8.75369 383
8.7738 392
8.79392 368
8.81403 396
8.83414 394
8.85426 383
8.87437 373
8.89448 368
8.9146 388
8.93471 380
8.95483 368
8.97494 339
8.99505 376
9.01517 389
9.03528 331
9.05539 365
9.07551 344
9.09562 329
9.11573 358
9.13585 339
9.15596 364
9.17608 335
9.19619 340
9.2163 351
9.23642 342
9.25653 323
9.27664 327
9.29676 334
9.31687 339
9.33699 316
9.3571 337
9.37721 310
9.39733 345
9.41744 345
9.43755 409
9.45767 326
9.47778 362
9.4979 354
9.51801 359
9.53812 352
9.55824 357
9.57835 345
9.59846 314
9.61858 350
9.63869 366
9.6588 337
9.67892 370
9.69903 325
9.71915 329
9.73926 319
9.75937 314
9.77949 333
9.7996 309
9.81971 323
9.83983 355
9.85994 326
9.88006 311
9.90017 350
9.92028 306
9.9404 361
9.96051 313
9.98062 324
10.00074 378
10.02085 325
10.04097 345
10.06108 331
10.08119 328
10.10131 330
10.12142 369
10.14153 322
10.16165 343
10.18176 337
10.20187 349
10.22199 364
10.2421 322
10.26222 317
10.28233 310
10.30244 317
10.32256 308
10.34267 317
10.36278 345
10.3829 367
10.40301 337
10.42313 311
10.44324 340
10.46335 324
10.48347 308
10.50358 332
10.52369 327
10.54381 360
10.56392 325
10.58403 331
10.60415 339
10.62426 345
10.64438 315
10.66449 346
10.6846 344
10.70472 345
10.72483 330
10.74494 331
10.76506 318
10.78517 304
10.80529 331
10.8254 334
10.84551 329
10.86563 356
10.88574 339
10.90585 316
10.92597 330
10.94608 287
10.9662 324
10.98631 322
11.00642 321
11.02654 313
11.04665 320
11.06676 328
11.08688 354
11.10699 357
11.1271 331
11.14722 327
11.16733 319
11.18745 328
11.20756 327
11.22767 356
11.24779 319
11.2679 327
11.28801 288
11.30813 298
11.32824 320
11.34836 302
11.36847 303
11.38858 327
11.4087 340
11.42881 331
11.44892 327
11.46904 305
11.48915 321
11.50927 353
11.52938 289
11.54949 317
11.56961 327
11.58972 307
11.60983 341
11.62995 300
11.65006 343
11.67017 299
11.69029 313
11.7104 308
11.73052 311
11.75063 336
11.77074 322
11.79086 294
11.81097 342
11.83108 311
11.8512 327
11.87131 306
11.89143 315
11.91154 321
11.93165 338
11.95177 332
11.97188 322
11.99199 298
12.01211 329
12.03222 367
12.05234 315
12.07245 341
12.09256 347
12.11268 313
12.13279 329
12.1529 332
12.17302 305
12.19313 319
12.21324 332
12.23336 317
12.25347 306
12.27359 329
12.2937 328
12.31381 350
12.33393 340
12.35404 343
12.37415 332
12.39427 320
12.41438 308
12.4345 300
12.45461 327
12.47472 299
12.49484 334
12.51495 324
12.53506 321
12.55518 340
12.57529 315
12.5954 333
12.61552 318
12.63563 325
12.65575 321
12.67586 311
12.69597 348
12.71609 289
12.7362 353
12.75631 277
12.77643 346
12.79654 294
12.81666 317
12.83677 302
12.85688 312
12.877 309
12.89711 298
12.91722 333
12.93734 317
12.95745 281
12.97757 287
12.99768 282
13.01779 283
13.03791 323
13.05802 311
13.07813 302
13.09825 311
13.11836 300
13.13847 321
13.15859 293
13.1787 311
13.19882 303
13.21893 327
13.23904 291
13.25916 320
13.27927 316
13.29938 343
13.3195 300
13.33961 278
13.35973 284
13.37984 337
13.39995 326
13.42007 348
13.44018 314
13.46029 298
13.48041 347
13.50052 313
13.52064 308
13.54075 310
13.56086 334
13.58098 355
13.60109 299
13.6212 377
13.64132 352
13.66143 383
13.68154 311
13.70166 375
13.72177 302
13.74189 341
13.762 341
13.78211 343
13.80223 312
13.82234 348
13.84245 348
13.86257 328
13.88268 331
13.9028 328
13.92291 331
13.94302 317
13.96314 326
13.98325 299
14.00336 326
14.02348 309
14.04359 308
14.06371 314
14.08382 313
14.10393 283
14.12405 275
14.14416 308
14.16427 301
14.18439 321
14.2045 276
14.22461 278
14.24473 283
14.26484 262
14.28496 286
14.30507 308
14.32518 268
14.3453 274
14.36541 253
14.38552 285
14.40564 311
14.42575 298
14.44587 308
14.46598 307
14.48609 289
14.50621 286
14.52632 271
14.54643 321
14.56655 309
14.58666 298
14.60677 274
14.62689 254
14.647 339
14.66712 262
14.68723 293
14.70734 293
14.72746 269
14.74757 329
14.76768 288
14.7878 298
14.80791 306
14.82803 297
14.84814 308
14.86825 306
14.88837 280
14.90848 283
14.92859 308
14.94871 302
14.96882 281
14.98894 341
15.00905 285
15.02916 301
15.04928 313
15.06939 336
15.0895 307
15.10962 306
15.12973 309
15.14984 317
15.16996 352
15.19007 251
15.21019 285
15.2303 310
15.25041 308
15.27053 287
15.29064 289
15.31075 285
15.33087 299
15.35098 283
15.3711 297
15.39121 293
15.41132 294
15.43144 302
15.45155 274
15.47166 305
15.49178 297
15.51189 322
15.53201 290
15.55212 300
15.57223 279
15.59235 294
15.61246 274
15.63257 303
15.65269 273
15.6728 296
15.69291 308
15.71303 333
15.73314 299
15.75326 297
15.77337 309
15.79348 276
15.8136 294
15.83371 276
15.85382 288
15.87394 305
15.89405 311
15.91417 283
15.93428 279
15.95439 284
15.97451 302
15.99462 285
16.01473 308
16.03485 289
16.05496 327
16.07508 329
16.09519 289
16.1153 299
16.13542 283
16.15553 313
16.17564 309
16.19576 250
16.21587 299
16.23598 318
16.2561 313
16.27621 283
16.29633 290
16.31644 274
16.33655 306
16.35667 280
16.37678 278
16.39689 255
16.41701 298
16.43712 280
16.45724 314
16.47735 249
16.49746 287
16.51758 286
16.53769 291
16.5578 303
16.57792 301
16.59803 281
16.61814 274
16.63826 317
16.65837 269
16.67849 287
16.6986 272
16.71871 325
16.73883 330
16.75894 302
16.77905 292
16.79917 306
16.81928 284
16.8394 259
16.85951 309
16.87962 278
16.89974 291
16.91985 285
16.93996 301
16.96008 270
16.98019 324
17.00031 292
17.02042 302
17.04053 298
17.06065 314
17.08076 279
17.10087 293
17.12099 296
17.1411 283
17.16121 307
17.18133 295
17.20144 260
17.22156 295
17.24167 302
17.26178 271
17.2819 335
17.30201 289
17.32212 319
17.34224 313
17.36235 281
17.38247 265
17.40258 280
17.42269 306
17.44281 300
17.46292 301
17.48303 283
17.50315 311
17.52326 287
17.54338 276
17.56349 296
17.5836 314
17.60372 297
17.62383 330
17.64394 313
17.66406 308
17.68417 311
17.70428 281
17.7244 320
17.74451 307
17.76463 292
17.78474 343
17.80485 293
17.82497 334
17.84508 306
17.86519 309
17.88531 276
17.90542 295
17.92554 299
17.94565 272
17.96576 330
17.98588 289
18.00599 316
18.0261 317
18.04622 326
18.06633 279
18.08645 295
18.10656 273
18.12667 293
18.14679 269
18.1669 321
18.18701 315
18.20713 317
18.22724 307
18.24735 271
18.26747 291
18.28758 301
18.3077 307
18.32781 282
18.34792 299
18.36804 279
18.38815 317
18.40826 332
18.42838 306
18.44849 311
18.46861 299
18.48872 272
18.50883 323
18.52895 330
18.54906 302
18.56917 300
18.58929 295
18.6094 296
18.62951 314
18.64963 302
18.66974 352
18.68986 295
18.70997 312
18.73008 349
18.7502 317
18.77031 296
18.79042 314
18.81054 336
18.83065 349
18.85077 323
18.87088 331
18.89099 349
18.91111 329
18.93122 387
18.95133 349
18.97145 323
18.99156 348
19.01168 362
19.03179 327
19.0519 292
19.07202 359
19.09213 338
19.11224 365
19.13236 358
19.15247 315
19.17258 316
19.1927 326
19.21281 326
19.23293 318
19.25304 385
19.27315 379
19.29327 332
19.31338 379
19.33349 344
19.35361 373
19.37372 390
19.39384 372
19.41395 373
19.43406 384
19.45418 373
19.47429 398
19.4944 413
19.51452 411
19.53463 396
19.55475 392
19.57486 406
19.59497 454
19.61509 447
19.6352 417
19.65531 502
19.67543 471
19.69554 484
19.71565 526
19.73577 552
19.75588 565
19.776 546
19.79611 569
19.81622 557
19.83634 538
19.85645 564
19.87656 609
19.89668 550
19.91679 537
19.93691 550
19.95702 540
19.97713 521
19.99725 544
20.01736 493
20.03747 513
20.05759 488
20.0777 536
20.09782 523
20.11793 470
20.13804 487
20.15816 498
20.17827 524
20.19838 508
20.2185 462
20.23861 527
20.25872 476
20.27884 451
20.29895 437
20.31907 435
20.33918 449
20.35929 435
20.37941 480
20.39952 473
20.41963 476
20.43975 447
20.45986 498
20.47998 486
20.50009 504
20.5202 498
20.54032 466
20.56043 484
20.58054 496
20.60066 533
20.62077 544
20.64088 559
20.661 604
20.68111 710
20.70123 811
20.72134 956
20.74145 1296
20.76157 1543
20.78168 2018
20.80179 2773
20.82191 3224
20.84202 3402
20.86214 3345
20.88225 2968
20.90236 2257
20.92248 1733
20.94259 1246
20.9627 809
20.98282 729
21.00293 596
21.02305 621
21.04316 646
21.06327 533
21.08339 537
21.1035 522
21.12361 531
21.14373 487
21.16384 455
21.18395 471
21.20407 468
21.22418 461
21.2443 472
21.26441 410
21.28452 466
21.30464 422
21.32475 408
21.34486 420
21.36498 424
21.38509 436
21.40521 420
21.42532 430
21.44543 413
21.46555 408
21.48566 426
21.50577 396
21.52589 384
21.546 434
21.56612 416
21.58623 454
21.60634 414
21.62646 419
21.64657 408
21.66668 418
21.6868 398
21.70691 444
21.72702 432
21.74714 424
21.76725 399
21.78737 400
21.80748 413
21.82759 445
21.84771 506
21.86782 555
21.88793 596
21.90805 679
21.92816 821
21.94828 824
21.96839 937
21.9885 842
22.00862 817
22.02873 746
22.04884 576
22.06896 509
22.08907 464
22.10919 448
22.1293 436
22.14941 424
22.16953 401
22.18964 441
22.20975 405
22.22987 430
22.24998 421
22.27009 391
22.29021 411
22.31032 398
22.33044 388
22.35055 405
22.37066 393
22.39078 384
22.41089 383
22.431 412
22.45112 351
22.47123 383
22.49135 383
22.51146 400
22.53157 385
22.55169 406
22.5718 389
22.59191 417
22.61203 419
22.63214 397
22.65225 422
22.67237 381
22.69248 427
22.7126 421
22.73271 441
22.75282 446
22.77294 484
22.79305 441
22.81316 450
22.83328 409
22.85339 500
22.87351 417
22.89362 431
22.91373 390
22.93385 428
22.95396 394
22.97407 428
22.99419 361
23.0143 386
23.03442 399
23.05453 402
23.07464 398
23.09476 447
23.11487 367
23.13498 434
23.1551 313
23.17521 400
23.19532 392
23.21544 398
23.23555 385
23.25567 376
23.27578 401
23.29589 384
23.31601 369
23.33612 451
23.35623 422
23.37635 430
23.39646 448
23.41658 433
23.43669 457
23.4568 407
23.47692 465
23.49703 495
23.51714 575
23.53726 630
23.55737 641
23.57749 652
23.5976 625
23.61771 677
23.63783 704
23.65794 650
23.67805 633
23.69817 610
23.71828 603
23.73839 537
23.75851 536
23.77862 499
23.79874 513
23.81885 533
23.83896 506
23.85908 496
23.87919 459
23.8993 459
23.91942 492
23.93953 481
23.95965 454
23.97976 467
23.99987 479
24.01999 481
24.0401 465
24.06021 441
24.08033 439
24.10044 460
24.12056 426
24.14067 442
24.16078 481
24.1809 528
24.20101 472
24.22112 480
24.24124 486
24.26135 524
24.28146 518
24.30158 514
24.32169 559
24.34181 515
24.36192 574
24.38203 601
24.40215 554
24.42226 550
24.44237 575
24.46249 559
24.4826 529
24.50272 507
24.52283 503
24.54294 487
24.56306 433
24.58317 412
24.60328 453
24.6234 423
24.64351 437
24.66362 414
24.68374 407
24.70385 375
24.72397 432
24.74408 400
24.76419 399
24.78431 430
24.80442 370
24.82453 421
24.84465 391
24.86476 402
24.88488 408
24.90499 408
24.9251 370
24.94522 400
24.96533 385
24.98544 387
25.00556 401
25.02567 398
25.04579 391
25.0659 391
25.08601 423
25.10613 405
25.12624 400
25.14635 423
25.16647 421
25.18658 374
25.20669 385
25.22681 403
25.24692 381
25.26704 394
25.28715 432
25.30726 419
25.32738 410
25.34749 415
25.3676 464
25.38772 452
25.40783 481
25.42795 464
25.44806 424
25.46817 535
25.48829 457
25.5084 453
25.52851 493
25.54863 498
25.56874 485
25.58886 507
25.60897 527
25.62908 508
25.6492 548
25.66931 542
25.68942 551
25.70954 534
25.72965 514
25.74976 497
25.76988 501
25.78999 511
25.81011 521
25.83022 496
25.85033 470
25.87045 531
25.89056 493
25.91067 488
25.93079 447
25.9509 505
25.97102 487
25.99113 476
26.01124 452
26.03136 509
26.05147 517
26.07158 471
26.0917 518
26.11181 540
26.13193 544
26.15204 604
26.17215 558
26.19227 642
26.21238 665
26.23249 698
26.25261 669
26.27272 704
26.29283 747
26.31295 813
26.33306 809
26.35318 988
26.37329 1097
26.3934 1192
26.41352 1395
26.43363 1717
26.45374 2056
26.47386 2605
26.49397 3643
26.51409 4840
26.5342 6506
26.55431 8982
26.57443 11334
26.59454 13334
26.61465 14636
26.63477 14428
26.65488 12487
26.67499 9784
26.69511 7694
26.71522 5582
26.73534 3671
26.75545 2363
26.77556 1412
26.79568 1189
26.81579 1087
26.8359 946
26.85602 904
26.87613 904
26.89625 855
26.91636 778
26.93647 777
26.95659 723
26.9767 712
26.99681 678
27.01693 646
27.03704 631
27.05716 626
27.07727 615
27.09738 649
27.1175 577
27.13761 564
27.15772 561
27.17784 546
27.19795 565
27.21806 533
27.23818 496
27.25829 495
27.27841 515
27.29852 531
27.31863 588
27.33875 629
27.35886 647
27.37897 605
27.39909 698
27.4192 681
27.43932 690
27.45943 694
27.47954 727
27.49966 771
27.51977 751
27.53988 842
27.56 797
27.58011 851
27.60023 825
27.62034 871
27.64045 852
27.66057 969
27.68068 1029
27.70079 1117
27.72091 1230
27.74102 1277
27.76113 1247
27.78125 1333
27.80136 1343
27.82148 1241
27.84159 1169
27.8617 1094
27.88182 1091
27.90193 1024
27.92204 1059
27.94216 1125
27.96227 1091
27.98239 1070
28.0025 1126
28.02261 1049
28.04273 898
28.06284 837
28.08295 783
28.10307 688
28.12318 624
28.1433 552
28.16341 447
28.18352 476
28.20364 530
28.22375 535
28.24386 536
28.26398 500
28.28409 496
28.3042 543
28.32432 548
28.34443 580
28.36455 608
28.38466 614
28.40477 523
28.42489 557
28.445 574
28.46511 551
28.48523 489
28.50534 455
28.52546 448
28.54557 383
28.56568 390
28.5858 396
28.60591 411
28.62602 397
28.64614 378
28.66625 405
28.68636 377
28.70648 387
28.72659 442
28.74671 375
28.76682 376
28.78693 374
28.80705 380
28.82716 402
28.84727 356
28.86739 395
28.8875 363
28.90762 398
28.92773 357
28.94784 385
28.96796 369
28.98807 366
29.00818 410
29.0283 406
29.04841 398
29.06853 385
29.08864 425
29.10875 394
29.12887 379
29.14898 368
29.16909 354
29.18921 374
29.20932 395
29.22943 383
29.24955 379
29.26966 395
29.28978 406
29.30989 412
29.33 414
29.35012 403
29.37023 432
29.39034 437
29.41046 440
29.43057 441
29.45069 464
29.4708 481
29.49091 465
29.51103 498
29.53114 511
29.55125 553
29.57137 569
29.59148 567
29.6116 567
29.63171 633
29.65182 567
29.67194 612
29.69205 618
29.71216 626
29.73228 608
29.75239 694
29.7725 726
29.79262 724
29.81273 743
29.83285 652
29.85296 679
29.87307 618
29.89319 569
29.9133 556
29.93341 500
29.95353 514
29.97364 509
29.99376 474
30.01387 442
30.03398 461
30.0541 470
30.07421 490
30.09432 522
30.11444 477
30.13455 475
30.15467 478
30.17478 554
30.19489 541
30.21501 589
30.23512 643
30.25523 588
30.27535 551
30.29546 580
30.31557 609
30.33569 549
30.3558 608
30.37592 556
30.39603 613
30.41614 565
30.43626 587
30.45637 559
30.47648 501
30.4966 519
30.51671 515
30.53683 446
30.55694 518
30.57705 491
30.59717 511
30.61728 495
30.63739 552
30.65751 496
30.67762 524
30.69773 482
30.71785 518
30.73796 475
30.75808 515
30.77819 491
30.7983 480
30.81842 597
30.83853 519
30.85864 522
30.87876 511
30.89887 495
30.91899 505
30.9391 445
30.95921 449
30.97933 414
30.99944 408
31.01955 406
31.03967 379
31.05978 354
31.0799 370
31.10001 392
31.12012 357
31.14024 375
31.16035 355
31.18046 379
31.20058 361
31.22069 399
31.2408 382
31.26092 344
31.28103 383
31.30115 395
31.32126 395
31.34137 413
31.36149 394
31.3816 401
31.40171 420
31.42183 403
31.44194 423
31.46206 408
31.48217 430
31.50228 417
31.5224 412
31.54251 421
31.56262 398
31.58274 386
31.60285 387
31.62297 322
31.64308 342
31.66319 383
31.68331 361
31.70342 385
31.72353 362
31.74365 361
31.76376 352
31.78387 362
31.80399 342
31.8241 358
31.84422 340
31.86433 342
31.88444 329
31.90456 348
31.92467 352
31.94478 358
31.9649 324
31.98501 363
32.00513 348
32.02524 329
32.04535 369
32.06547 359
32.08558 347
32.10569 335
32.12581 343
32.14592 366
32.16604 353
32.18615 334
32.20626 343
32.22638 354
32.24649 337
32.2666 380
32.28672 362
32.30683 381
32.32694 388
32.34706 333
32.36717 408
32.38729 388
32.4074 355
32.42751 365
32.44763 391
32.46774 385
32.48785 378
32.50797 404
32.52808 420
32.5482 405
32.56831 450
32.58842 418
32.60854 435
32.62865 394
32.64876 418
32.66888 389
32.68899 389
32.7091 368
32.72922 370
32.74933 379
32.76945 371
32.78956 348
32.80967 327
32.82979 368
32.8499 351
32.87001 363
32.89013 329
32.91024 396
32.93036 364
32.95047 327
32.97058 363
32.9907 361
33.01081 354
33.03092 349
33.05104 355
33.07115 343
33.09127 368
33.11138 371
33.13149 374
33.15161 341
33.17172 315
33.19183 350
33.21195 340
33.23206 342
33.25217 350
33.27229 359
33.2924 347
33.31252 371
33.33263 349
33.35274 366
33.37286 337
33.39297 361
33.41308 327
33.4332 342
33.45331 318
33.47343 353
33.49354 325
33.51365 294
33.53377 334
33.55388 333
33.57399 366
33.59411 354
33.61422 356
33.63434 342
33.65445 384
33.67456 433
33.69468 392
33.71479 367
33.7349 413
33.75502 437
33.77513 381
33.79524 348
33.81536 354
33.83547 392
33.85559 360
33.8757 395
33.89581 355
33.91593 399
33.93604 324
33.95615 391
33.97627 348
33.99638 351
34.0165 360
34.03661 375
34.05672 358
34.07684 364
34.09695 346
34.11706 394
34.13718 384
34.15729 377
34.17741 348
34.19752 358
34.21763 382
34.23775 379
34.25786 385
34.27797 379
34.29809 389
34.3182 384
34.33831 347
34.35843 395
34.37854 416
34.39866 441
34.41877 428
34.43888 416
34.459 423
34.47911 429
34.49922 455
34.51934 494
34.53945 441
34.55957 451
34.57968 459
34.59979 451
34.61991 458
34.64002 436
34.66013 481
34.68025 459
34.70036 483
34.72047 516
34.74059 528
34.7607 540
34.78082 568
34.80093 581
34.82104 526
34.84116 567
34.86127 533
34.88138 567
34.9015 592
34.92161 603
34.94173 597
34.96184 600
34.98195 573
35.00207 620
35.02218 543
35.04229 538
35.06241 560
35.08252 536
35.10264 515
35.12275 511
35.14286 517
35.16298 532
35.18309 506
35.2032 519
35.22332 558
35.24343 559
35.26354 589
35.28366 546
35.30377 550
35.32389 540
35.344 588
35.36411 632
35.38423 588
35.40434 591
35.42445 638
35.44457 616
35.46468 651
35.4848 672
35.50491 692
35.52502 646
35.54514 691
35.56525 723
35.58536 641
35.60548 705
35.62559 631
35.64571 648
35.66582 648
35.68593 577
35.70605 581
35.72616 604
35.74627 541
35.76639 590
35.7865 545
35.80661 539
35.82673 532
35.84684 490
35.86696 521
35.88707 484
35.90718 512
35.9273 453
35.94741 432
35.96752 410
35.98764 436
36.00775 448
36.02787 424
36.04798 461
36.06809 389
36.08821 474
36.10832 482
36.12843 409
36.14855 415
36.16866 350
36.18878 408
36.20889 410
36.229 461
36.24912 464
36.26923 449
36.28934 483
36.30946 463
36.32957 510
36.34968 511
36.3698 595
36.38991 682
36.41003 718
36.43014 855
36.45025 1006
36.47037 1085
36.49048 1260
36.51059 1328
36.53071 1306
36.55082 1140
36.57094 1063
36.59105 943
36.61116 938
36.63128 742
36.65139 668
36.6715 605
36.69162 521
36.71173 482
36.73184 483
36.75196 437
36.77207 440
36.79219 487
36.8123 398
36.83241 404
36.85253 405
36.87264 405
36.89275 430
36.91287 416
36.93298 349
36.9531 395
36.97321 391
36.99332 374
37.01344 386
37.03355 402
37.05366 408
37.07378 391
37.09389 435
37.11401 423
37.13412 420
37.15423 401
37.17435 391
37.19446 405
37.21457 391
37.23469 408
37.2548 427
37.27491 402
37.29503 393
37.31514 363
37.33526 384
37.35537 370
37.37548 380
37.3956 395
37.41571 358
37.43582 395
37.45594 383
37.47605 362
37.49617 352
37.51628 398
37.53639 397
37.55651 349
37.57662 385
37.59673 389
37.61685 377
37.63696 386
37.65708 405
37.67719 426
37.6973 414
37.71742 379
37.73753 353
37.75764 374
37.77776 386
37.79787 420
37.81798 360
37.8381 331
37.85821 349
37.87833 348
37.89844 360
37.91855 400
37.93867 352
37.95878 344
37.97889 356
37.99901 373
38.01912 360
38.03924 334
38.05935 340
38.07946 350
38.09958 338
38.11969 335
38.1398 330
38.15992 387
38.18003 349
38.20015 361
38.22026 361
38.24037 349
38.26049 333
38.2806 316
38.30071 367
38.32083 345
38.34094 363
38.36105 349
38.38117 359
38.40128 358
38.4214 339
38.44151 319
38.46162 374
38.48174 340
38.50185 360
38.52196 374
38.54208 335
38.56219 360
38.58231 338
38.60242 332
38.62253 323
38.64265 368
38.66276 341
38.68287 342
38.70299 359
38.7231 354
38.74321 336
38.76333 327
38.78344 337
38.80356 367
38.82367 340
38.84378 353
38.8639 356
38.88401 373
38.90412 367
38.92424 359
38.94435 369
38.96447 350
38.98458 372
39.00469 355
39.02481 398
39.04492 348
39.06503 339
39.08515 357
39.10526 373
39.12538 409
39.14549 374
39.1656 428
39.18572 412
39.20583 399
39.22594 436
39.24606 455
39.26617 468
39.28628 487
39.3064 562
39.32651 622
39.34663 764
39.36674 855
39.38685 984
39.40697 1123
39.42708 1162
39.44719 1218
39.46731 1061
39.48742 981
39.50754 841
39.52765 754
39.54776 729
39.56788 609
39.58799 535
39.6081 463
39.62822 377
39.64833 405
39.66845 396
39.68856 389
39.70867 359
39.72879 387
39.7489 365
39.76901 351
39.78913 350
39.80924 362
39.82935 340
39.84947 352
39.86958 319
39.8897 355
39.90981 334
39.92992 332
39.95004 364
39.97015 306
39.99026 350
40.01038 357
40.03049 362
40.05061 364
40.07072 355
40.09083 382
40.11095 411
40.13106 425
40.15117 471
40.17129 582
40.1914 565
40.21152 652
40.23163 667
40.25174 732
40.27186 739
40.29197 747
40.31208 630
40.3322 545
40.35231 583
40.37242 555
40.39254 537
40.41265 465
40.43277 426
40.45288 419
40.47299 402
40.49311 375
40.51322 395
40.53333 415
40.55345 388
40.57356 358
40.59368 376
40.61379 376
40.6339 362
40.65402 358
40.67413 387
40.69424 359
40.71436 365
40.73447 373
40.75458 352
40.7747 377
40.79481 355
40.81493 364
40.83504 382
40.85515 385
40.87527 338
40.89538 386
40.91549 358
40.93561 423
40.95572 341
40.97584 350
40.99595 374
41.01606 339
41.03618 368
41.05629 334
41.0764 365
41.09652 379
41.11663 360
41.13675 354
41.15686 348
41.17697 385
41.19709 356
41.2172 379
41.23731 360
41.25743 337
41.27754 370
41.29765 342
41.31777 312
41.33788 349
41.358 336
41.37811 344
41.39822 337
41.41834 335
41.43845 345
41.45856 348
41.47868 347
41.49879 343
41.51891 321
41.53902 378
41.55913 362
41.57925 359
41.59936 327
41.61947 329
41.63959 362
41.6597 354
41.67982 394
41.69993 372
41.72004 379
41.74016 329
41.76027 359
41.78038 424
41.8005 387
41.82061 347
41.84072 370
41.86084 343
41.88095 364
41.90107 346
41.92118 396
41.94129 330
41.96141 373
41.98152 346
42.00163 371
42.02175 379
42.04186 354
42.06198 412
42.08209 399
42.1022 388
42.12232 393
42.14243 435
42.16254 445
42.18266 457
42.20277 465
42.22289 513
42.243 536
42.26311 546
42.28323 575
42.30334 573
42.32345 677
42.34357 760
42.36368 872
42.38379 939
42.40391 970
42.42402 975
42.44414 903
42.46425 843
42.48436 725
42.50448 700
42.52459 720
42.5447 687
42.56482 523
42.58493 510
42.60505 384
42.62516 425
42.64527 426
42.66539 381
42.6855 362
42.70561 377
42.72573 327
42.74584 373
42.76595 357
42.78607 349
42.80618 359
42.8263 397
42.84641 393
42.86652 378
42.88664 360
42.90675 358
42.92686 371
42.94698 353
42.96709 371
42.98721 356
43.00732 335
43.02743 355
43.04755 321
43.06766 353
43.08777 322
43.10789 323
43.128 320
43.14812 342
43.16823 317
43.18834 318
43.20846 351
43.22857 341
43.24868 337
43.2688 321
43.28891 302
43.30902 295
43.32914 298
43.34925 292
43.36937 285
43.38948 275
43.40959 275
43.42971 319
43.44982 313
43.46993 285
43.49005 281
43.51016 275
43.53028 321
43.55039 306
43.5705 300
43.59062 301
43.61073 317
43.63084 319
43.65096 327
43.67107 321
43.69119 295
43.7113 320
43.73141 278
43.75153 292
43.77164 303
43.79175 304
43.81187 294
43.83198 281
43.85209 298
43.87221 309
43.89232 291
43.91244 305
43.93255 298
43.95266 294
43.97278 289
43.99289 296
44.013 297
44.03312 316
44.05323 310
44.07335 291
44.09346 308
44.11357 316
44.13369 305
44.1538 306
44.17391 349
44.19403 280
44.21414 342
44.23426 324
44.25437 331
44.27448 298
44.2946 327
44.31471 353
44.33482 314
44.35494 334
44.37505 353
44.39516 334
44.41528 320
44.43539 347
44.45551 368
44.47562 308
44.49573 337
44.51585 319
44.53596 335
44.55607 306
44.57619 314
44.5963 286
44.61642 338
44.63653 333
44.65664 348
44.67676 371
44.69687 342
44.71698 349
44.7371 356
44.75721 329
44.77732 335
44.79744 373
44.81755 356
44.83767 376
44.85778 324
44.87789 359
44.89801 334
44.91812 340
44.93823 339
44.95835 383
44.97846 366
44.99858 345
45.01869 342
45.0388 358
45.05892 378
45.07903 351
45.09914 340
45.11926 310
45.13937 351
45.15949 321
45.1796 350
45.19971 346
45.21983 339
45.23994 325
45.26005 333
45.28017 321
45.30028 326
45.32039 305
45.34051 351
45.36062 360
45.38074 361
45.40085 339
45.42096 344
45.44108 342
45.46119 363
45.4813 349
45.50142 332
45.52153 371
45.54165 342
45.56176 375
45.58187 363
45.60199 423
45.6221 406
45.64221 485
45.66233 500
45.68244 542
45.70256 571
45.72267 646
45.74278 692
45.7629 728
45.78301 677
45.80312 641
45.82324 511
45.84335 573
45.86346 522
45.88358 523
45.90369 479
45.92381 438
45.94392 418
45.96403 367
45.98415 340
46.00426 374
46.02437 342
46.04449 369
46.0646 348
46.08472 332
46.10483 332
46.12494 320
46.14506 331
46.16517 296
46.18528 327
46.2054 324
46.22551 300
46.24563 331
46.26574 335
46.28585 326
46.30597 340
46.32608 312
46.34619 319
46.36631 269
46.38642 309
46.40653 318
46.42665 291
46.44676 304
46.46688 307
46.48699 286
46.5071 312
46.52722 301
46.54733 291
46.56744 293
46.58756 297
46.60767 296
46.62779 297
46.6479 316
46.66801 293
46.68813 281
46.70824 312
46.72835 264
46.74847 287
46.76858 285
46.78869 296
46.80881 297
46.82892 262
46.84904 318
46.86915 289
46.88926 296
46.90938 310
46.92949 295
46.9496 310
46.96972 295
46.98983 329
47.00995 327
47.03006 324
47.05017 308
47.07029 268
47.0904 292
47.11051 330
47.13063 318
47.15074 356
47.17086 306
47.19097 345
47.21108 370
47.2312 298
47.25131 340
47.27142 285
47.29154 318
47.31165 306
47.33176 321
47.35188 287
47.37199 311
47.39211 290
47.41222 297
47.43233 283
47.45245 294
47.47256 298
47.49267 286
47.51279 285
47.5329 285
47.55302 298
47.57313 286
47.59324 280
47.61336 287
47.63347 265
47.65358 280
47.6737 303
47.69381 275
47.71393 299
47.73404 279
47.75415 317
47.77427 288
47.79438 305
47.81449 305
47.83461 297
47.85472 290
47.87483 270
47.89495 296
47.91506 267
47.93518 293
47.95529 311
47.9754 299
47.99552 277
48.01563 323
48.03574 304
48.05586 281
48.07597 270
48.09609 293
48.1162 311
48.13631 346
48.15643 291
48.17654 301
48.19665 281
48.21677 270
48.23688 301
48.257 330
48.27711 317
48.29722 345
48.31734 326
48.33745 340
48.35756 337
48.37768 319
48.39779 328
48.4179 326
48.43802 312
48.45813 331
48.47825 302
48.49836 342
48.51847 292
48.53859 297
48.5587 314
48.57881 319
48.59893 316
48.61904 327
48.63916 332
48.65927 340
48.67938 309
48.6995 311
48.71961 328
48.73972 326
48.75984 329
48.77995 349
48.80006 301
48.82018 322
48.84029 299
48.86041 320
48.88052 335
48.90063 316
48.92075 270
48.94086 304
48.96097 324
48.98109 322
49.0012 335
49.02132 302
49.04143 318
49.06154 312
49.08166 345
49.10177 362
49.12188 338
49.142 347
49.16211 359
49.18223 323
49.20234 357
49.22245 351
49.24257 375
49.26268 337
49.28279 331
49.30291 367
49.32302 355
49.34313 340
49.36325 306
49.38336 321
49.40348 348
49.42359 326
49.4437 309
49.46382 329
49.48393 334
49.50404 321
49.52416 381
49.54427 375
49.56439 379
49.5845 367
49.60461 356
49.62473 344
49.64484 402
49.66495 382
49.68507 418
49.70518 395
49.7253 416
49.74541 432
49.76552 415
49.78564 432
49.80575 424
49.82586 459
49.84598 451
49.86609 463
49.8862 497
49.90632 540
49.92643 536
49.94655 661
49.96666 707
49.98677 837
50.00689 993
50.027 1197
50.04711 1290
50.06723 1579
50.08734 1626
50.10746 1599
50.12757 1496
50.14768 1374
50.1678 1183
50.18791 1067
50.20802 986
50.22814 940
50.24825 885
50.26837 825
50.28848 625
50.30859 489
50.32871 461
50.34882 400
50.36893 397
50.38905 359
50.40916 353
50.42927 372
50.44939 396
50.4695 373
50.48962 370
50.50973 366
50.52984 365
50.54996 371
50.57007 362
50.59018 345
50.6103 400
50.63041 359
50.65053 348
50.67064 388
50.69075 369
50.71087 374
50.73098 365
50.75109 374
50.77121 352
50.79132 364
50.81143 347
50.83155 363
50.85166 343
50.87178 350
50.89189 329
50.912 315
50.93212 318
50.95223 335
50.97234 346
50.99246 299
51.01257 306
51.03269 310
51.0528 301
51.07291 322
51.09303 308
51.11314 296
51.13325 283
51.15337 323
51.17348 313
51.1936 315
51.21371 318
51.23382 331
51.25394 336
51.27405 300
51.29416 303
51.31428 319
51.33439 313
51.3545 320
51.37462 330
51.39473 328
51.41485 348
51.43496 349
51.45507 353
51.47519 352
51.4953 326
51.51541 348
51.53553 339
51.55564 325
51.57576 302
51.59587 313
51.61598 304
51.6361 312
51.65621 306
51.67632 299
51.69644 330
51.71655 268
51.73667 301
51.75678 272
51.77689 276
51.79701 320
51.81712 292
51.83723 348
51.85735 284
51.87746 286
51.89757 245
51.91769 249
51.9378 310
51.95792 304
51.97803 327
51.99814 315
52.01826 315
52.03837 303
52.05848 304
52.0786 312
52.09871 317
52.11883 307
52.13894 330
52.15905 325
52.17917 334
52.19928 331
52.21939 323
52.23951 330
52.25962 344
52.27974 342
52.29985 352
52.31996 305
52.34008 313
52.36019 303
52.3803 325
52.40042 336
52.42053 297
52.44064 314
52.46076 311
52.48087 288
52.50099 334
52.5211 290
52.54121 304
52.56133 303
52.58144 287
52.60155 285
52.62167 288
52.64178 296
52.6619 300
52.68201 319
52.70212 302
52.72224 281
52.74235 293
52.76246 295
52.78258 312
52.80269 282
52.8228 265
52.84292 291
52.86303 308
52.88315 332
52.90326 332
52.92337 283
52.94349 311
52.9636 327
52.98371 321
53.00383 313
53.02394 311
53.04406 352
53.06417 335
53.08428 328
53.1044 352
53.12451 354
53.14462 358
53.16474 375
53.18485 374
53.20497 349
53.22508 319
53.24519 327
53.26531 363
53.28542 402
53.30553 341
53.32565 326
53.34576 346
53.36587 339
53.38599 307
53.4061 335
53.42622 307
53.44633 329
53.46644 332
53.48656 311
53.50667 329
53.52678 317
53.5469 366
53.56701 334
53.58713 325
53.60724 324
53.62735 296
53.64747 346
53.66758 299
53.68769 333
53.70781 300
53.72792 347
53.74804 334
53.76815 369
53.78826 356
53.80838 338
53.82849 309
53.8486 308
53.86872 359
53.88883 357
53.90894 318
53.92906 325
53.94917 336
53.96929 331
53.9894 331
54.00951 354
54.02963 365
54.04974 342
54.06985 362
54.08997 339
54.11008 329
54.1302 322
54.15031 327
54.17042 325
54.19054 313
54.21065 299
54.23076 306
54.25088 317
54.27099 326
54.29111 351
54.31122 329
54.33133 317
54.35145 357
54.37156 368
54.39167 313
54.41179 347
54.4319 314
54.45201 379
54.47213 328
54.49224 329
54.51236 326
54.53247 346
54.55258 371
54.5727 348
54.59281 346
54.61292 350
54.63304 369
54.65315 405
54.67327 394
54.69338 469
54.71349 484
54.73361 523
54.75372 541
54.77383 595
54.79395 665
54.81406 714
54.83417 681
54.85429 615
54.8744 626
54.89452 578
54.91463 507
54.93474 541
54.95486 523
54.97497 543
54.99508 483
55.0152 447
55.03531 420
55.05543 398
55.07554 406
55.09565 360
55.11577 377
55.13588 384
55.15599 394
55.17611 392
55.19622 396
55.21634 442
55.23645 424
55.25656 463
55.27668 476
55.29679 425
55.3169 405
55.33702 408
55.35713 428
55.37724 417
55.39736 409
55.41747 384
55.43759 390
55.4577 384
55.47781 358
55.49793 364
55.51804 333
55.53815 329
55.55827 337
55.57838 314
55.5985 330
55.61861 304
55.63872 313
55.65884 335
55.67895 309
55.69906 295
55.71918 317
55.73929 293
55.75941 319
55.77952 313
55.79963 298
55.81975 291
55.83986 275
55.85997 311
55.88009 273
55.9002 302
55.92031 291
55.94043 304
55.96054 299
55.98066 269
56.00077 316
56.02088 301
56.041 284
56.06111 289
56.08122 302
56.10134 312
56.12145 285
56.14157 329
56.16168 279
56.18179 297
56.20191 278
56.22202 302
56.24213 322
56.26225 319
56.28236 336
56.30248 360
56.32259 328
56.3427 316
56.36282 320
56.38293 328
56.40304 346
56.42316 329
56.44327 327
56.46338 359
56.4835 326
56.50361 334
56.52373 338
56.54384 342
56.56395 366
56.58407 362
56.60418 361
56.62429 330
56.64441 318
56.66452 367
56.68464 366
56.70475 345
56.72486 338
56.74498 334
56.76509 328
56.7852 328
56.80532 314
56.82543 323
56.84554 301
56.86566 315
56.88577 302
56.90589 328
56.926 312
56.94611 285
56.96623 314
56.98634 328
57.00645 328
57.02657 300
57.04668 318
57.0668 320
57.08691 317
57.10702 335
57.12714 320
57.14725 332
57.16736 310
57.18748 332
57.20759 317
57.22771 311
57.24782 327
57.26793 285
57.28805 323
57.30816 318
57.32827 305
57.34839 311
57.3685 270
57.38861 317
57.40873 255
57.42884 273
57.44896 284
57.46907 322
57.48918 288
57.5093 296
57.52941 295
57.54952 307
57.56964 308
57.58975 276
57.60987 253
57.62998 262
57.65009 278
57.67021 255
57.69032 302
57.71043 254
57.73055 301
57.75066 295
57.77078 276
57.79089 288
57.811 289
57.83112 282
57.85123 276
57.87134 260
57.89146 324
57.91157 303
57.93168 288
57.9518 265
57.97191 265
57.99203 304
58.01214 260
58.03225 294
58.05237 280
58.07248 260
58.09259 273
58.11271 280
58.13282 280
58.15294 296
58.17305 293
58.19316 316
58.21328 287
58.23339 297
58.2535 283
58.27362 268
58.29373 298
58.31385 275
58.33396 285
58.35407 269
58.37419 262
58.3943 275
58.41441 260
58.43453 241
58.45464 299
58.47475 284
58.49487 316
58.51498 297
58.5351 284
58.55521 281
58.57532 278
58.59544 294
58.61555 282
58.63566 318
58.65578 302
58.67589 281
58.69601 295
58.71612 312
58.73623 300
58.75635 316
58.77646 275
58.79657 302
58.81669 302
58.8368 312
58.85691 313
58.87703 292
58.89714 285
58.91726 261
58.93737 290
58.95748 245
58.9776 271
58.99771 286
59.01782 286
59.03794 276
59.05805 276
59.07817 330
59.09828 283
59.11839 297
59.13851 277
59.15862 306
59.17873 311
59.19885 264
59.21896 300
59.23908 296
59.25919 286
59.2793 325
59.29942 300
59.31953 283
59.33964 276
59.35976 294
59.37987 306
59.39998 272
59.4201 306
59.44021 302
59.46033 319
59.48044 297
59.50055 283
59.52067 327
59.54078 319
59.56089 325
59.58101 379
59.60112 352
59.62124 311
59.64135 405
59.66146 363
59.68158 408
59.70169 433
59.7218 434
59.74192 478
59.76203 475
59.78215 609
59.80226 686
59.82237 768
59.84249 912
59.8626 1018
59.88271 1108
59.90283 1139
59.92294 1092
59.94305 1057
59.96317 945
59.98328 831
60.0034 747
60.02351 713
60.04362 689
60.06374 727
60.08385 730
60.10396 606
60.12408 564
60.14419 427
60.16431 416
60.18442 395
60.20453 375
60.22465 378
60.24476 330
60.26487 343
60.28499 307
60.3051 307
60.32522 293
60.34533 331
60.36544 349
60.38556 317
60.40567 299
60.42578 299
60.4459 333
60.46601 319
60.48612 341
60.50624 295
60.52635 309
60.54647 306
60.56658 352
60.58669 312
60.60681 298
60.62692 334
60.64703 311
60.66715 320
60.68726 324
60.70738 294
60.72749 291
60.7476 286
60.76772 299
60.78783 279
60.80794 274
60.82806 340
60.84817 290
60.86828 273
60.8884 323
60.90851 318
60.92863 278
60.94874 323
60.96885 305
60.98897 329
61.00908 306
61.02919 307
61.04931 314
61.06942 307
61.08954 296
61.10965 299
61.12976 294
61.14988 316
61.16999 319
61.1901 301
61.21022 329
61.23033 338
61.25045 330
61.27056 307
61.29067 349
61.31079 321
61.3309 310
61.35101 346
61.37113 341
61.39124 319
61.41135 345
61.43147 327
61.45158 341
61.4717 339
61.49181 325
61.51192 335
61.53204 354
61.55215 358
61.57226 356
61.59238 354
61.61249 336
61.63261 340
61.65272 356
61.67283 377
61.69295 369
61.71306 322
61.73317 382
61.75329 382
61.7734 385
61.79352 344
61.81363 398
61.83374 355
61.85386 337
61.87397 361
61.89408 346
61.9142 352
61.93431 348
61.95442 361
61.97454 378
61.99465 351
62.01477 363
62.03488 344
62.05499 382
62.07511 364
62.09522 351
62.11533 347
62.13545 353
62.15556 369
62.17568 380
62.19579 347
62.2159 341
62.23602 345
62.25613 365
62.27624 338
62.29636 365
62.31647 316
62.33659 391
62.3567 348
62.37681 368
62.39693 339
62.41704 322
62.43715 366
62.45727 335
62.47738 343
62.49749 321
62.51761 301
62.53772 364
62.55784 306
62.57795 307
62.59806 333
62.61818 321
62.63829 332
62.6584 309
62.67852 296
62.69863 323
62.71875 318
62.73886 287
62.75897 330
62.77909 327
62.7992 300
62.81931 325
62.83943 296
62.85954 324
62.87965 276
62.89977 308
62.91988 279
62.94 325
62.96011 271
62.98022 306
63.00034 297
63.02045 306
63.04056 307
63.06068 286
63.08079 287
63.10091 315
63.12102 305
63.14113 272
63.16125 279
63.18136 292
63.20147 297
63.22159 318
63.2417 340
63.26182 299
63.28193 307
63.30204 304
63.32216 297
63.34227 297
63.36238 284
63.3825 295
63.40261 328
63.42272 279
63.44284 292
63.46295 296
63.48307 297
63.50318 293
63.52329 327
63.54341 302
63.56352 282
63.58363 307
63.60375 319
63.62386 309
63.64398 320
63.66409 335
63.6842 297
63.70432 332
63.72443 311
63.74454 347
63.76466 335
63.78477 336
63.80489 336
63.825 355
63.84511 356
63.86523 380
63.88534 355
63.90545 391
63.92557 394
63.94568 433
63.96579 437
63.98591 476
64.00602 409
64.02614 403
64.04625 397
64.06636 375
64.08648 354
64.10659 360
64.1267 329
64.14682 371
64.16693 378
64.18705 345
64.20716 364
64.22727 328
64.24739 316
64.2675 295
64.28761 271
64.30773 277
64.32784 304
64.34796 306
64.36807 275
64.38818 290
64.4083 297
64.42841 285
64.44852 276
64.46864 278
64.48875 284
64.50886 280
64.52898 287
64.54909 280
64.56921 304
64.58932 275
64.60943 312
64.62955 263
64.64966 261
64.66977 280
64.68989 285
64.71 261
64.73012 303
64.75023 268
64.77034 303
64.79046 256
64.81057 246
64.83068 272
64.8508 270
64.87091 293
64.89102 279
64.91114 277
64.93125 302
64.95137 244
64.97148 302
64.99159 270
65.01171 280
65.03182 303
65.05193 273
65.07205 284
65.09216 280
65.11228 276
65.13239 271
65.1525 264
65.17262 286
65.19273 285
65.21284 289
65.23296 276
65.25307 257
65.27319 286
65.2933 277
65.31341 267
65.33353 269
65.35364 287
65.37375 298
65.39387 322
65.41398 278
65.43409 281
65.45421 262
65.47432 275
65.49444 296
65.51455 300
65.53466 302
65.55478 307
65.57489 285
65.595 294
65.61512 316
65.63523 277
65.65535 303
65.67546 321
65.69557 339
65.71569 353
65.7358 326
65.75591 326
65.77603 328
65.79614 345
65.81626 300
65.83637 324
65.85648 292
65.8766 314
65.89671 320
65.91682 313
65.93694 288
65.95705 271
65.97716 282
65.99728 327
66.01739 268
66.03751 262
66.05762 284
66.07773 287
66.09785 301
66.11796 271
66.13807 304
66.15819 301
66.1783 320
66.19842 282
66.21853 299
66.23864 302
66.25876 321
66.27887 279
66.29898 279
66.3191 289
66.33921 260
66.35933 279
66.37944 268
66.39955 282
66.41967 268
66.43978 279
66.45989 279
66.48001 319
66.50012 297
66.52023 259
66.54035 275
66.56046 257
66.58058 250
66.60069 292
66.6208 271
66.64092 262
66.66103 302
66.68114 242
66.70126 262
66.72137 259
66.74149 261
66.7616 274
66.78171 285
66.80183 269
66.82194 246
66.84205 293
66.86217 262
66.88228 267
66.90239 302
66.92251 249
66.94262 282
66.96274 274
66.98285 259
67.00296 300
67.02308 265
67.04319 279
67.0633 272
67.08342 305
67.10353 276
67.12365 276
67.14376 275
67.16387 293
67.18399 298
67.2041 278
67.22421 279
67.24433 269
67.26444 297
67.28456 323
67.30467 296
67.32478 317
67.3449 314
67.36501 340
67.38512 303
67.40524 346
67.42535 323
67.44546 320
67.46558 360
67.48569 402
67.50581 375
67.52592 409
67.54603 415
67.56615 427
67.58626 574
67.60637 624
67.62649 593
67.6466 717
67.66672 700
67.68683 720
67.70694 741
67.72706 677
67.74717 649
67.76728 587
67.7874 596
67.80751 569
67.82763 569
67.84774 570
67.86785 577
67.88797 560
67.90808 630
67.92819 536
67.94831 606
67.96842 649
67.98853 628
68.00865 648
68.02876 770
68.04888 782
68.06899 851
68.0891 872
68.10922 879
68.12933 900
68.14944 800
68.16956 790
68.18967 803
68.20979 800
68.2299 846
68.25001 866
68.27013 864
68.29024 895
68.31035 796
68.33047 659
68.35058 562
68.3707 552
68.39081 485
68.41092 513
68.43104 490
68.45115 476
68.47126 482
68.49138 432
68.51149 396
68.5316 359
68.55172 350
68.57183 339
68.59195 329
68.61206 328
68.63217 300
68.65229 306
68.6724 286
68.69251 290
68.71263 308
68.73274 287
68.75286 265
68.77297 292
68.79308 274
68.8132 301
68.83331 300
68.85342 309
68.87354 265
68.89365 302
68.91376 261
68.93388 274
68.95399 296
68.97411 287
68.99422 289
69.01433 263
69.03445 284
69.05456 266
69.07467 260
69.09479 272
69.1149 281
69.13502 263
69.15513 276
69.17524 287
69.19536 314
69.21547 286
69.23558 280
69.2557 317
69.27581 273
69.29593 263
69.31604 273
69.33615 276
69.35627 288
69.37638 291
69.39649 286
69.41661 280
69.43672 311
69.45683 274
69.47695 261
69.49706 311
69.51718 287
69.53729 291
69.5574 284
69.57752 287
69.59763 285
69.61774 247
69.63786 285
69.65797 280
69.67809 293
69.6982 279
69.71831 265
69.73843 274
69.75854 271
69.77865 246
69.79877 262
69.81888 268
69.839 245
69.85911 290
69.87922 280
69.89934 253
69.91945 236
69.93956 262
69.95968 279
69.97979 271
69.9999 257
70.02002 280
70.04013 263
70.06025 258
70.08036 299
70.10047 262
70.12059 250
70.1407 281
70.16081 248
70.18093 264
70.20104 264
70.22116 287
70.24127 280
70.26138 275
70.2815 271
70.30161 265
70.32172 261
70.34184 239
70.36195 281
70.38207 275
70.40218 255
70.42229 282
70.44241 256
70.46252 262
70.48263 252
70.50275 281
70.52286 287
70.54297 246
70.56309 272
70.5832 263
70.60332 243
70.62343 268
70.64354 262
70.66366 270
70.68377 291
70.70388 280
70.724 264
70.74411 266
70.76423 250
70.78434 279
70.80445 258
70.82457 243
70.84468 256
70.86479 273
70.88491 254
70.90502 251
70.92513 258
70.94525 265
70.96536 257
70.98548 252
71.00559 257
71.0257 288
71.04582 277
71.06593 260
71.08604 281
71.10616 268
71.12627 241
71.14639 279
71.1665 263
71.18661 253
71.20673 290
71.22684 283
71.24695 253
71.26707 311
71.28718 244
71.3073 288
71.32741 270
71.34752 297
71.36764 274
71.38775 286
71.40786 244
71.42798 248
71.44809 266
71.4682 246
71.48832 284
71.50843 255
71.52855 280
71.54866 253
71.56877 243
71.58889 273
71.609 230
71.62911 262
71.64923 266
71.66934 238
71.68946 226
71.70957 264
71.72968 256
71.7498 231
71.76991 237
71.79002 261
71.81014 266
71.83025 258
71.85037 241
71.87048 270
71.89059 273
71.91071 262
71.93082 274
71.95093 247
71.97105 285
71.99116 244
72.01127 246
72.03139 273
72.0515 259
72.07162 232
72.09173 262
72.11184 250
72.13196 240
72.15207 263
72.17218 240
72.1923 270
72.21241 275
72.23253 254
72.25264 255
72.27275 272
72.29287 264
72.31298 264
72.33309 262
72.35321 244
72.37332 230
72.39344 261
72.41355 239
72.43366 280
72.45378 266
72.47389 259
72.494 257
72.51412 240
72.53423 267
72.55434 246
72.57446 244
72.59457 263
72.61469 263
72.6348 252
72.65491 253
72.67503 244
72.69514 277
72.71525 250
72.73537 254
72.75548 277
72.7756 282
72.79571 279
72.81582 257
72.83594 250
72.85605 309
72.87616 261
72.89628 282
72.91639 265
72.9365 267
72.95662 265
72.97673 286
72.99685 270
73.01696 249
73.03707 279
73.05719 262
73.0773 270
73.09741 280
73.11753 284
73.13764 280
73.15776 267
73.17787 278
73.19798 294
73.2181 288
73.23821 352
73.25832 343
73.27844 322
73.29855 342
73.31867 343
73.33878 370
73.35889 380
73.37901 422
73.39912 429
73.41923 446
73.43935 397
73.45946 381
73.47957 398
73.49969 344
73.5198 340
73.53992 318
73.56003 305
73.58014 331
73.60026 327
73.62037 320
73.64048 321
73.6606 345
73.68071 313
73.70083 310
73.72094 284
73.74105 264
73.76117 274
73.78128 268
73.80139 230
73.82151 279
73.84162 276
73.86174 272
73.88185 257
73.90196 284
73.92208 267
73.94219 274
73.9623 309
73.98242 245
74.00253 260
74.02264 245
74.04276 246
74.06287 257
74.08299 263
74.1031 267
74.12321 263
74.14333 237
74.16344 269
74.18355 274
74.20367 255
74.22378 263
74.2439 232
74.26401 273
74.28412 247
74.30424 274
74.32435 248
74.34446 256
74.36458 263
74.38469 286
74.40481 268
74.42492 274
74.44503 268
74.46515 271
74.48526 280
74.50537 238
74.52549 262
74.5456 274
74.56571 259
74.58583 247
74.60594 247
74.62606 282
74.64617 288
74.66628 249
74.6864 236
74.70651 240
74.72662 231
74.74674 273
74.76685 259
74.78697 248
74.80708 252
74.82719 225
74.84731 222
74.86742 270
74.88753 248
74.90765 285
74.92776 249
74.94787 248
74.96799 246
74.9881 272
75.00822 250
