3.00117 20180
3.02128 19578
3.0414 19349
3.06151 18448
3.08162 17920
3.10174 17791
3.12185 16850
3.14197 16615
3.16208 15943
3.18219 15646
3.20231 15268
3.22242 14800
3.24253 14798
3.26265 14044
3.28276 13405
3.30288 13379
3.32299 12564
3.3431 12524
3.36322 11985
3.38333 11478
3.40344 11384
3.42356 10923
3.44367 10546
3.46379 9978
3.4839 9715
3.50401 9404
3.52413 9111
3.54424 8778
3.56435 8440
3.58447 8290
3.60458 8050
3.62469 7591
3.64481 7356
3.66492 6901
3.68504 6694
3.70515 6748
3.72526 6094
3.74538 6114
3.76549 5575
3.7856 5513
3.80572 5461
3.82583 5267
3.84595 4998
3.86606 4676
3.88617 4714
3.90629 4435
3.9264 4129
3.94651 4048
3.96663 3888
3.98674 3692
4.00686 3623
4.02697 3339
4.04708 3308
4.0672 3112
4.08731 2998
4.10742 2980
4.12754 2657
4.14765 2693
4.16776 2416
4.18788 2406
4.20799 2378
4.22811 2275
4.24822 2187
4.26833 1975
4.28845 1923
4.30856 2089
4.32867 1853
4.34879 1873
4.3689 1776
4.38902 1703
4.40913 1758
4.42924 1673
4.44936 1663
4.46947 1568
4.48958 1527
4.5097 1489
4.52981 1595
4.54992 1465
4.57004 1388
4.59015 1325
4.61027 1336
4.63038 1312
4.65049 1244
4.67061 1191
4.69072 1187
4.71083 1239
4.73095 1223
4.75106 1164
4.77118 1117
4.79129 1144
4.8114 1140
4.83152 1074
4.85163 1008
4.87174 992
4.89186 981
4.91197 938
4.93209 1005
4.9522 884
4.97231 939
4.99243 903
5.01254 866
5.03265 877
5.05277 823
5.07288 820
5.09299 838
5.11311 804
5.13322 884
5.15334 740
5.17345 745
5.19356 758
5.21368 708
5.23379 756
5.2539 651
5.27402 632
5.29413 666
5.31425 677
5.33436 650
5.35447 596
5.37459 624
5.3947 648
5.41481 610
5.43493 637
5.45504 549
5.47516 603
5.49527 584
5.51538 590
5.5355 587
5.55561 600
5.57572 525
5.59584 559
5.61595 529
5.63606 510
5.65618 516
5.67629 481
5.69641 495
5.71652 479
5.73663 551
5.75675 514
5.77686 500
5.79697 543
5.81709 509
5.8372 465
5.85732 492
5.87743 470
5.89754 461
5.91766 454
5.93777 452
5.95788 455
5.978 466
5.99811 392
6.01823 424
6.03834 424
6.05845 393
6.07857 450
6.09868 446
6.11879 473
6.13891 445
6.15902 439
6.17913 415
6.19925 425
6.21936 393
6.23948 420
6.25959 411
6.2797 405
6.29982 387
6.31993 413
6.34004 445
6.36016 410
6.38027 414
6.40039 386
6.4205 386
6.44061 392
6.46073 376
6.48084 404
6.50095 362
6.52107 398
6.54118 374
6.56129 346
6.58141 374
6.60152 387
6.62164 382
6.64175 403
6.66186 398
6.68198 381
6.70209 383
6.7222 383
6.74232 402
6.76243 368
6.78255 374
6.80266 342
6.82277 393
6.84289 398
6.863 390
6.88311 375
6.90323 391
6.92334 397
6.94346 369
6.96357 406
6.98368 357
7.0038 355
7.02391 417
7.04402 355
7.06414 368
7.08425 380
7.10436 350
7.12448 360
7.14459 381
7.16471 363
7.18482 347
7.20493 389
7.22505 343
7.24516 365
7.26527 360
7.28539 333
7.3055 394
7.32562 381
7.34573 360
7.36584 365
7.38596 343
7.40607 394
7.42618 375
7.4463 373
7.46641 371
7.48653 338
7.50664 391
7.52675 386
7.54687 398
7.56698 396
7.58709 369
7.60721 356
7.62732 340
7.64743 351
7.66755 381
7.68766 369
7.70778 368
7.72789 346
7.748 371
7.76812 375
7.78823 385
7.80834 383
7.82846 361
7.84857 366
7.86869 340
7.8888 381
7.90891 354
7.92903 375
7.94914 366
7.96925 405
7.98937 349
8.00948 355
8.0296 382
8.04971 332
8.06982 349
8.08994 355
8.11005 379
8.13016 386
8.15028 417
8.17039 360
8.1905 327
8.21062 368
8.23073 400
8.25085 373
8.27096 386
8.29107 377
8.31119 402
8.3313 364
8.35141 383
8.37153 369
8.39164 412
8.41176 371
8.43187 374
8.45198 377
8.4721 374
8.49221 346
8.51232 392
8.53244 345
8.55255 412
8.57266 388
8.59278 369
8.61289 400
8.63301 390
8.65312 366
8.67323 376
8.69335 398
8.71346 391
8.73357 383
8.75369 396
8.7738 420
8.79392 375
8.81403 425
8.83414 387
8.85426 416
8.87437 415
8.89448 419
8.9146 419
8.93471 395
8.95483 396
8.97494 368
8.99505 379
9.01517 378
9.03528 398
9.05539 367
9.07551 376
9.09562 355
9.11573 358
9.13585 409
9.15596 382
9.17608 368
9.19619 398
9.2163 378
9.23642 357
9.25653 391
9.27664 409
9.29676 388
9.31687 371
9.33699 369
9.3571 373
9.37721 383
9.39733 371
9.41744 345
9.43755 394
9.45767 392
9.47778 377
9.4979 376
9.51801 380
9.53812 390
9.55824 359
9.57835 327
9.59846 375
9.61858 387
9.63869 388
9.6588 361
9.67892 370
9.69903 389
9.71915 330
9.73926 413
9.75937 405
9.77949 373
9.7996 349
9.81971 375
9.83983 405
9.85994 355
9.88006 380
9.90017 337
9.92028 337
9.9404 390
9.96051 336
9.98062 367
10.00074 350
10.02085 399
10.04097 354
10.06108 374
10.08119 380
10.10131 363
10.12142 379
10.14153 372
10.16165 344
10.18176 353
10.20187 376
10.22199 390
10.2421 405
10.26222 395
10.28233 375
10.30244 368
10.32256 335
10.34267 384
10.36278 371
10.3829 434
10.40301 369
10.42313 376
10.44324 365
10.46335 382
10.48347 385
10.50358 348
10.52369 349
10.54381 368
10.56392 383
10.58403 375
10.60415 414
10.62426 394
10.64438 361
10.66449 382
10.6846 397
10.70472 363
10.72483 404
10.74494 361
10.76506 389
10.78517 421
10.80529 367
10.8254 367
10.84551 370
10.86563 375
10.88574 398
10.90585 362
10.92597 378
10.94608 368
10.9662 417
10.98631 380
11.00642 384
11.02654 378
11.04665 363
11.06676 412
11.08688 426
11.10699 412
11.1271 407
11.14722 415
11.16733 408
11.18745 448
11.20756 412
11.22767 378
11.24779 392
11.2679 365
11.28801 413
11.30813 438
11.32824 384
11.34836 459
11.36847 404
11.38858 416
11.4087 431
11.42881 416
11.44892 415
11.46904 424
11.48915 415
11.50927 403
11.52938 438
11.54949 381
11.56961 492
11.58972 439
11.60983 430
11.62995 433
11.65006 442
11.67017 450
11.69029 446
11.7104 439
11.73052 479
11.75063 508
11.77074 464
11.79086 481
11.81097 476
11.83108 503
11.8512 525
11.87131 523
11.89143 474
11.91154 506
11.93165 569
11.95177 543
11.97188 539
11.99199 583
12.01211 596
12.03222 660
12.05234 624
12.07245 672
12.09256 664
12.11268 727
12.13279 728
12.1529 732
12.17302 777
12.19313 756
12.21324 816
12.23336 815
12.25347 762
12.27359 805
12.2937 750
12.31381 792
12.33393 761
12.35404 728
12.37415 738
12.39427 745
12.41438 694
12.4345 626
12.45461 637
12.47472 581
12.49484 594
12.51495 613
12.53506 513
12.55518 509
12.57529 495
12.5954 479
12.61552 471
12.63563 518
12.65575 482
12.67586 464
12.69597 433
12.71609 434
12.7362 419
12.75631 433
12.77643 389
12.79654 391
12.81666 412
12.83677 417
12.85688 395
12.877 391
12.89711 381
12.91722 397
12.93734 379
12.95745 420
12.97757 393
12.99768 366
13.01779 371
13.03791 365
13.05802 335
13.07813 403
13.09825 357
13.11836 392
13.13847 406
13.15859 368
13.1787 365
13.19882 364
13.21893 361
13.23904 390
13.25916 393
13.27927 374
13.29938 346
13.3195 368
13.33961 374
13.35973 359
13.37984 341
13.39995 374
13.42007 366
13.44018 379
13.46029 362
13.48041 355
13.50052 367
13.52064 354
13.54075 338
13.56086 357
13.58098 364
13.60109 361
13.6212 376
13.64132 394
13.66143 339
13.68154 348
13.70166 352
13.72177 361
13.74189 319
13.762 353
13.78211 347
13.80223 334
13.82234 356
13.84245 367
13.86257 341
13.88268 368
13.9028 342
13.92291 316
13.94302 337
13.96314 362
13.98325 343
14.00336 353
14.02348 346
14.04359 336
14.06371 372
14.08382 327
14.10393 347
14.12405 362
14.14416 368
14.16427 321
14.18439 317
14.2045 351
14.22461 325
14.24473 374
14.26484 339
14.28496 338
14.30507 354
14.32518 332
14.3453 312
14.36541 326
14.38552 336
14.40564 332
14.42575 357
14.44587 316
14.46598 329
14.48609 318
14.50621 358
14.52632 366
14.54643 326
14.56655 320
14.58666 398
14.60677 341
14.62689 317
14.647 342
14.66712 305
14.68723 363
14.70734 346
14.72746 358
14.74757 336
14.76768 320
14.7878 326
14.80791 331
14.82803 319
14.84814 331
14.86825 318
14.88837 322
14.90848 355
14.92859 339
14.94871 372
14.96882 334
14.98894 377
15.00905 325
15.02916 344
15.04928 350
15.06939 344
15.0895 341
15.10962 313
15.12973 337
15.14984 326
15.16996 329
15.19007 345
15.21019 331
15.2303 348
15.25041 333
15.27053 312
15.29064 315
15.31075 348
15.33087 314
15.35098 328
15.3711 309
15.39121 329
15.41132 352
15.43144 308
15.45155 305
15.47166 368
15.49178 333
15.51189 311
15.53201 332
15.55212 336
15.57223 322
15.59235 347
15.61246 343
15.63257 328
15.65269 320
15.6728 341
15.69291 315
15.71303 338
15.73314 317
15.75326 321
15.77337 349
15.79348 302
15.8136 321
15.83371 336
15.85382 344
15.87394 317
15.89405 314
15.91417 298
15.93428 332
15.95439 309
15.97451 337
15.99462 324
16.01473 315
16.03485 324
16.05496 303
16.07508 367
16.09519 311
16.1153 341
16.13542 349
16.15553 319
16.17564 324
16.19576 326
16.21587 344
16.23598 363
16.2561 321
16.27621 329
16.29633 324
16.31644 326
16.33655 338
16.35667 299
16.37678 328
16.39689 338
16.41701 366
16.43712 310
16.45724 314
16.47735 329
16.49746 341
16.51758 353
16.53769 310
16.5578 310
16.57792 291
16.59803 334
16.61814 327
16.63826 332
16.65837 330
16.67849 312
16.6986 324
16.71871 330
16.73883 301
16.75894 339
16.77905 360
16.79917 349
16.81928 306
16.8394 310
16.85951 328
16.87962 358
16.89974 342
16.91985 309
16.93996 346
16.96008 311
16.98019 344
17.00031 301
17.02042 297
17.04053 342
17.06065 333
17.08076 399
17.10087 333
17.12099 374
17.1411 357
17.16121 348
17.18133 304
17.20144 316
17.22156 343
17.24167 312
17.26178 369
17.2819 313
17.30201 332
17.32212 295
17.34224 347
17.36235 329
17.38247 323
17.40258 326
17.42269 347
17.44281 327
17.46292 314
17.48303 327
17.50315 329
17.52326 309
17.54338 320
17.56349 370
17.5836 338
17.60372 307
17.62383 341
17.64394 308
17.66406 352
17.68417 310
17.70428 405
17.7244 326
17.74451 370
17.76463 329
17.78474 311
17.80485 329
17.82497 359
17.84508 369
17.86519 321
17.88531 313
17.90542 365
17.92554 316
17.94565 311
17.96576 341
17.98588 354
18.00599 328
18.0261 345
18.04622 332
18.06633 330
18.08645 337
18.10656 317
18.12667 328
18.14679 360
18.1669 340
18.18701 361
18.20713 367
18.22724 354
18.24735 316
18.26747 338
18.28758 367
18.3077 369
18.32781 342
18.34792 368
18.36804 356
18.38815 346
18.40826 310
18.42838 377
18.44849 304
18.46861 333
18.48872 359
18.50883 337
18.52895 313
18.54906 352
18.56917 348
18.58929 329
18.6094 347
18.62951 356
18.64963 339
18.66974 326
18.68986 296
18.70997 321
18.73008 332
18.7502 315
18.77031 350
18.79042 361
18.81054 329
18.83065 337
18.85077 298
18.87088 350
18.89099 379
18.91111 330
18.93122 305
18.95133 373
18.97145 328
18.99156 345
19.01168 336
19.03179 347
19.0519 325
19.07202 360
19.09213 343
19.11224 329
19.13236 356
19.15247 377
19.17258 346
19.1927 343
19.21281 353
19.23293 340
19.25304 322
19.27315 317
19.29327 346
19.31338 365
19.33349 368
19.35361 341
19.37372 368
19.39384 338
19.41395 374
19.43406 381
19.45418 380
19.47429 379
19.4944 383
19.51452 441
19.53463 400
19.55475 410
19.57486 407
19.59497 414
19.61509 440
19.6352 459
19.65531 542
19.67543 491
19.69554 495
19.71565 557
19.73577 623
19.75588 629
19.776 683
19.79611 655
19.81622 699
19.83634 728
19.85645 717
19.87656 729
19.89668 767
19.91679 705
19.93691 715
19.95702 685
19.97713 709
19.99725 656
20.01736 656
20.03747 656
20.05759 590
20.0777 662
20.09782 670
20.11793 648
20.13804 689
20.15816 612
20.17827 670
20.19838 666
20.2185 706
20.23861 631
20.25872 718
20.27884 731
20.29895 686
20.31907 715
20.33918 724
20.35929 759
20.37941 744
20.39952 688
20.41963 653
20.43975 709
20.45986 644
20.47998 687
20.50009 756
20.5202 803
20.54032 748
20.56043 794
20.58054 843
20.60066 823
20.62077 950
20.64088 1076
20.661 1286
20.68111 1581
20.70123 2016
20.72134 2398
20.74145 2947
20.76157 3381
20.78168 3760
20.80179 3847
20.82191 3751
20.84202 3400
20.86214 2993
20.88225 2288
20.90236 1829
20.92248 1435
20.94259 1209
20.9627 1062
20.98282 912
21.00293 865
21.02305 802
21.04316 754
21.06327 726
21.08339 708
21.1035 767
21.12361 738
21.14373 654
21.16384 696
21.18395 630
21.20407 709
21.22418 686
21.2443 680
21.26441 684
21.28452 678
21.30464 608
21.32475 679
21.34486 668
21.36498 628
21.38509 598
21.40521 653
21.42532 622
21.44543 607
21.46555 583
21.48566 621
21.50577 609
21.52589 588
21.546 569
21.56612 584
21.58623 569
21.60634 565
21.62646 524
21.64657 520
21.66668 532
21.6868 536
21.70691 574
21.72702 527
21.74714 510
21.76725 504
21.78737 516
21.80748 513
21.82759 556
21.84771 551
21.86782 520
21.88793 529
21.90805 516
21.92816 525
21.94828 512
21.96839 476
21.9885 481
22.00862 480
22.02873 479
22.04884 499
22.06896 530
22.08907 459
22.10919 471
22.1293 499
22.14941 463
22.16953 509
22.18964 452
22.20975 521
22.22987 481
22.24998 464
22.27009 464
22.29021 481
22.31032 485
22.33044 545
22.35055 451
22.37066 500
22.39078 474
22.41089 478
22.431 450
22.45112 500
22.47123 438
22.49135 447
22.51146 455
22.53157 480
22.55169 459
22.5718 479
22.59191 418
22.61203 461
22.63214 451
22.65225 494
22.67237 468
22.69248 483
22.7126 456
22.73271 485
22.75282 420
22.77294 440
22.79305 448
22.81316 447
22.83328 468
22.85339 443
22.87351 446
22.89362 468
22.91373 460
22.93385 387
22.95396 451
22.97407 414
22.99419 462
23.0143 426
23.03442 446
23.05453 446
23.07464 444
23.09476 436
23.11487 450
23.13498 423
23.1551 434
23.17521 436
23.19532 392
23.21544 431
23.23555 432
23.25567 405
23.27578 470
23.29589 472
23.31601 475
23.33612 447
23.35623 442
23.37635 482
23.39646 480
23.41658 450
23.43669 443
23.4568 425
23.47692 464
23.49703 479
23.51714 482
23.53726 433
23.55737 455
23.57749 453
23.5976 473
23.61771 493
23.63783 479
23.65794 470
23.67805 452
23.69817 459
23.71828 443
23.73839 458
23.75851 447
23.77862 525
23.79874 470
23.81885 501
23.83896 522
23.85908 467
23.87919 510
23.8993 536
23.91942 532
23.93953 558
23.95965 479
23.97976 519
23.99987 522
24.01999 500
24.0401 479
24.06021 471
24.08033 505
24.10044 514
24.12056 466
24.14067 505
24.16078 509
24.1809 503
24.20101 477
24.22112 525
24.24124 476
24.26135 494
24.28146 465
24.30158 506
24.32169 495
24.34181 505
24.36192 527
24.38203 572
24.40215 475
24.42226 545
24.44237 499
24.46249 545
24.4826 584
24.50272 545
24.52283 573
24.54294 573
24.56306 567
24.58317 620
24.60328 648
24.6234 633
24.64351 627
24.66362 629
24.68374 676
24.70385 683
24.72397 673
24.74408 717
24.76419 726
24.78431 739
24.80442 685
24.82453 660
24.84465 732
24.86476 708
24.88488 694
24.90499 694
24.9251 634
24.94522 690
24.96533 737
24.98544 650
25.00556 655
25.02567 575
25.04579 599
25.0659 608
25.08601 572
25.10613 561
25.12624 554
25.14635 589
25.16647 543
25.18658 530
25.20669 595
25.22681 528
25.24692 501
25.26704 525
25.28715 497
25.30726 508
25.32738 535
25.34749 509
25.3676 474
25.38772 483
25.40783 492
25.42795 509
25.44806 490
25.46817 480
25.48829 511
25.5084 502
25.52851 523
25.54863 498
25.56874 548
25.58886 493
25.60897 546
25.62908 519
25.6492 530
25.66931 538
25.68942 582
25.70954 552
25.72965 530
25.74976 521
25.76988 518
25.78999 542
25.81011 592
25.83022 534
25.85033 525
25.87045 585
25.89056 562
25.91067 521
25.93079 594
25.9509 578
25.97102 574
25.99113 634
26.01124 617
26.03136 597
26.05147 649
26.07158 690
26.0917 730
26.11181 738
26.13193 706
26.15204 798
26.17215 808
26.19227 849
26.21238 854
26.23249 925
26.25261 989
26.27272 1128
26.29283 1145
26.31295 1260
26.33306 1464
26.35318 1773
26.37329 2077
26.3934 2469
26.41352 3233
26.43363 4142
26.45374 5445
26.47386 7193
26.49397 9098
26.51409 11424
26.5342 13368
26.55431 15033
26.57443 15920
26.59454 15411
26.61465 13781
26.63477 11633
26.65488 9493
26.67499 6964
26.69511 5189
26.71522 3747
26.73534 2710
26.75545 1924
26.77556 1504
26.79568 1322
26.81579 1125
26.8359 1100
26.85602 968
26.87613 954
26.89625 816
26.91636 817
26.93647 807
26.95659 765
26.9767 695
26.99681 681
27.01693 632
27.03704 632
27.05716 659
27.07727 622
27.09738 569
27.1175 581
27.13761 552
27.15772 531
27.17784 550
27.19795 521
27.21806 548
27.23818 550
27.25829 494
27.27841 548
27.29852 520
27.31863 573
27.33875 597
27.35886 622
27.37897 550
27.39909 575
27.4192 557
27.43932 533
27.45943 535
27.47954 531
27.49966 498
27.51977 487
27.53988 514
27.56 485
27.58011 511
27.60023 468
27.62034 420
27.64045 405
27.66057 444
27.68068 449
27.70079 446
27.72091 421
27.74102 413
27.76113 495
27.78125 430
27.80136 428
27.82148 407
27.84159 462
27.8617 413
27.88182 411
27.90193 396
27.92204 422
27.94216 434
27.96227 416
27.98239 424
28.0025 411
28.02261 418
28.04273 391
28.06284 410
28.08295 409
28.10307 394
28.12318 425
28.1433 427
28.16341 385
28.18352 391
28.20364 370
28.22375 400
28.24386 403
28.26398 414
28.28409 415
28.3042 412
28.32432 423
28.34443 420
28.36455 436
28.38466 347
28.40477 424
28.42489 393
28.445 406
28.46511 404
28.48523 401
28.50534 395
28.52546 412
28.54557 422
28.56568 417
28.5858 430
28.60591 416
28.62602 423
28.64614 407
28.66625 404
28.68636 406
28.70648 370
28.72659 380
28.74671 407
28.76682 396
28.78693 385
28.80705 407
28.82716 372
28.84727 380
28.86739 345
28.8875 400
28.90762 373
28.92773 376
28.94784 341
28.96796 404
28.98807 381
29.00818 378
29.0283 383
29.04841 376
29.06853 399
29.08864 400
29.10875 340
29.12887 387
29.14898 396
29.16909 360
29.18921 425
29.20932 403
29.22943 406
29.24955 383
29.26966 372
29.28978 371
29.30989 382
29.33 374
29.35012 372
29.37023 373
29.39034 387
29.41046 382
29.43057 391
29.45069 404
29.4708 422
29.49091 387
29.51103 393
29.53114 388
29.55125 382
29.57137 394
29.59148 400
29.6116 414
29.63171 367
29.65182 369
29.67194 390
29.69205 411
29.71216 408
29.73228 404
29.75239 404
29.7725 410
29.79262 397
29.81273 417
29.83285 399
29.85296 363
29.87307 415
29.89319 394
29.9133 382
29.93341 377
29.95353 376
29.97364 390
29.99376 376
30.01387 381
30.03398 386
30.0541 359
30.07421 357
30.09432 378
30.11444 435
30.13455 371
30.15467 398
30.17478 404
30.19489 391
30.21501 378
30.23512 350
30.25523 382
30.27535 347
30.29546 397
30.31557 379
30.33569 375
30.3558 337
30.37592 394
30.39603 370
30.41614 362
30.43626 382
30.45637 372
30.47648 369
30.4966 385
30.51671 364
30.53683 366
30.55694 382
30.57705 378
30.59717 386
30.61728 383
30.63739 376
30.65751 407
30.67762 350
30.69773 370
30.71785 389
30.73796 369
30.75808 377
30.77819 385
30.7983 376
30.81842 370
30.83853 350
30.85864 382
30.87876 353
30.89887 377
30.91899 337
30.9391 382
30.95921 336
30.97933 367
30.99944 346
31.01955 327
31.03967 360
31.05978 336
31.0799 344
31.10001 375
31.12012 371
31.14024 353
31.16035 398
31.18046 361
31.20058 351
31.22069 428
31.2408 371
31.26092 338
31.28103 377
31.30115 376
31.32126 389
31.34137 330
31.36149 363
31.3816 372
31.40171 324
31.42183 353
31.44194 339
31.46206 321
31.48217 336
31.50228 368
31.5224 348
31.54251 341
31.56262 352
31.58274 360
31.60285 357
31.62297 333
31.64308 368
31.66319 365
31.68331 351
31.70342 339
31.72353 355
31.74365 353
31.76376 351
31.78387 338
31.80399 331
31.8241 343
31.84422 400
31.86433 355
31.88444 347
31.90456 330
31.92467 388
31.94478 362
31.9649 350
31.98501 335
32.00513 368
32.02524 417
32.04535 359
32.06547 398
32.08558 381
32.10569 357
32.12581 392
32.14592 369
32.16604 374
32.18615 386
32.20626 382
32.22638 397
32.24649 368
32.2666 363
32.28672 400
32.30683 364
32.32694 370
32.34706 375
32.36717 401
32.38729 439
32.4074 397
32.42751 401
32.44763 421
32.46774 409
32.48785 440
32.50797 428
32.52808 403
32.5482 445
32.56831 440
32.58842 402
32.60854 448
32.62865 445
32.64876 437
32.66888 408
32.68899 432
32.7091 420
32.72922 437
32.74933 427
32.76945 407
32.78956 437
32.80967 424
32.82979 430
32.8499 433
32.87001 408
32.89013 427
32.91024 435
32.93036 441
32.95047 499
32.97058 460
32.9907 467
33.01081 519
33.03092 483
33.05104 500
33.07115 525
33.09127 521
33.11138 539
33.13149 458
33.15161 526
33.17172 539
33.19183 498
33.21195 524
33.23206 494
33.25217 498
33.27229 457
33.2924 482
33.31252 460
33.33263 428
33.35274 450
33.37286 404
33.39297 439
33.41308 446
33.4332 429
33.45331 430
33.47343 414
33.49354 422
33.51365 427
33.53377 449
33.55388 416
33.57399 429
33.59411 395
33.61422 403
33.63434 393
33.65445 373
33.67456 411
33.69468 403
33.71479 393
33.7349 381
33.75502 392
33.77513 391
33.79524 376
33.81536 401
33.83547 408
33.85559 369
33.8757 379
33.89581 355
33.91593 369
33.93604 369
33.95615 399
33.97627 387
33.99638 396
34.0165 373
34.03661 354
34.05672 405
34.07684 393
34.09695 414
34.11706 368
34.13718 358
34.15729 394
34.17741 390
34.19752 389
34.21763 383
34.23775 349
34.25786 393
34.27797 369
34.29809 398
34.3182 360
34.33831 420
34.35843 361
34.37854 381
34.39866 366
34.41877 434
34.43888 410
34.459 401
34.47911 397
34.49922 369
34.51934 410
34.53945 422
34.55957 451
34.57968 443
34.59979 467
34.61991 449
34.64002 447
34.66013 444
34.68025 456
34.70036 511
34.72047 506
34.74059 510
34.7607 551
34.78082 563
34.80093 531
34.82104 572
34.84116 607
34.86127 567
34.88138 567
34.9015 615
34.92161 596
34.94173 591
34.96184 649
34.98195 593
35.00207 529
35.02218 563
35.04229 569
35.06241 582
35.08252 536
35.10264 560
35.12275 530
35.14286 537
35.16298 582
35.18309 554
35.2032 549
35.22332 548
35.24343 560
35.26354 549
35.28366 581
35.30377 593
35.32389 594
35.344 565
35.36411 597
35.38423 621
35.40434 603
35.42445 606
35.44457 602
35.46468 648
35.4848 612
35.50491 627
35.52502 667
35.54514 656
35.56525 615
35.58536 671
35.60548 682
35.62559 678
35.64571 649
35.66582 660
35.68593 644
35.70605 617
35.72616 646
35.74627 667
35.76639 644
35.7865 639
35.80661 599
35.82673 624
35.84684 631
35.86696 627
35.88707 575
35.90718 582
35.9273 611
35.94741 571
35.96752 524
35.98764 582
36.00775 573
36.02787 547
36.04798 561
36.06809 497
36.08821 510
36.10832 498
36.12843 512
36.14855 523
36.16866 497
36.18878 560
36.20889 521
36.229 575
36.24912 553
36.26923 579
36.28934 629
36.30946 683
36.32957 711
36.34968 869
36.3698 898
36.38991 1096
36.41003 1134
36.43014 1304
36.45025 1366
36.47037 1398
36.49048 1318
36.51059 1371
36.53071 1157
36.55082 1052
36.57094 986
36.59105 882
36.61116 752
36.63128 698
36.65139 664
36.6715 541
36.69162 564
36.71173 483
36.73184 510
36.75196 456
36.77207 507
36.79219 490
36.8123 464
36.83241 476
36.85253 503
36.87264 433
36.89275 449
36.91287 446
36.93298 478
36.9531 461
36.97321 446
36.99332 429
37.01344 463
37.03355 451
37.05366 471
37.07378 453
37.09389 441
37.11401 458
37.13412 428
37.15423 449
37.17435 418
37.19446 455
37.21457 413
37.23469 452
37.2548 409
37.27491 437
37.29503 378
37.31514 413
37.33526 396
37.35537 402
37.37548 406
37.3956 415
37.41571 385
37.43582 426
37.45594 441
37.47605 390
37.49617 441
37.51628 392
37.53639 424
37.55651 419
37.57662 424
37.59673 449
37.61685 429
37.63696 450
37.65708 467
37.67719 416
37.6973 477
37.71742 414
37.73753 413
37.75764 455
37.77776 434
37.79787 458
37.81798 470
37.8381 405
37.85821 465
37.87833 416
37.89844 417
37.91855 511
37.93867 450
37.95878 473
37.97889 497
37.99901 492
38.01912 478
38.03924 438
38.05935 455
38.07946 473
38.09958 468
38.11969 492
38.1398 530
38.15992 572
38.18003 516
38.20015 556
38.22026 532
38.24037 553
38.26049 567
38.2806 580
38.30071 556
38.32083 586
38.34094 591
38.36105 544
38.38117 579
38.40128 554
38.4214 560
38.44151 549
38.46162 534
38.48174 544
38.50185 512
38.52196 532
38.54208 529
38.56219 497
38.58231 506
38.60242 520
38.62253 446
38.64265 491
38.66276 474
38.68287 481
38.70299 472
38.7231 450
38.74321 497
38.76333 491
38.78344 466
38.80356 498
38.82367 460
38.84378 465
38.8639 489
38.88401 476
38.90412 467
38.92424 505
38.94435 486
38.96447 493
38.98458 473
39.00469 490
39.02481 503
39.04492 483
39.06503 522
39.08515 508
39.10526 517
39.12538 536
39.14549 525
39.1656 550
39.18572 601
39.20583 627
39.22594 646
39.24606 708
39.26617 785
39.28628 891
39.3064 1015
39.32651 1146
39.34663 1198
39.36674 1288
39.38685 1283
39.40697 1283
39.42708 1197
39.44719 1143
39.46731 1005
39.48742 943
39.50754 820
39.52765 753
39.54776 642
39.56788 613
39.58799 538
39.6081 520
39.62822 440
39.64833 469
39.66845 445
39.68856 446
39.70867 389
39.72879 408
39.7489 403
39.76901 373
39.78913 419
39.80924 405
39.82935 408
39.84947 420
39.86958 427
39.8897 404
39.90981 425
39.92992 439
39.95004 483
39.97015 405
39.99026 451
40.01038 467
40.03049 470
40.05061 499
40.07072 526
40.09083 578
40.11095 604
40.13106 708
40.15117 719
40.17129 780
40.1914 809
40.21152 818
40.23163 854
40.25174 773
40.27186 712
40.29197 730
40.31208 702
40.3322 586
40.35231 551
40.37242 554
40.39254 477
40.41265 460
40.43277 428
40.45288 386
40.47299 410
40.49311 416
40.51322 421
40.53333 424
40.55345 402
40.57356 379
40.59368 432
40.61379 414
40.6339 392
40.65402 414
40.67413 440
40.69424 401
40.71436 407
40.73447 427
40.75458 454
40.7747 454
40.79481 435
40.81493 420
40.83504 428
40.85515 424
40.87527 461
40.89538 420
40.91549 467
40.93561 427
40.95572 390
40.97584 451
40.99595 405
41.01606 414
41.03618 411
41.05629 416
41.0764 423
41.09652 396
41.11663 371
41.13675 412
41.15686 391
41.17697 403
41.19709 399
41.2172 396
41.23731 381
41.25743 383
41.27754 374
41.29765 377
41.31777 372
41.33788 408
41.358 365
41.37811 397
41.39822 350
41.41834 393
41.43845 349
41.45856 373
41.47868 361
41.49879 398
41.51891 422
41.53902 382
41.55913 373
41.57925 373
41.59936 356
41.61947 369
41.63959 360
41.6597 399
41.67982 402
41.69993 357
41.72004 365
41.74016 355
41.76027 353
41.78038 384
41.8005 345
41.82061 380
41.84072 407
41.86084 360
41.88095 364
41.90107 382
41.92118 348
41.94129 385
41.96141 391
41.98152 349
42.00163 356
42.02175 375
42.04186 375
42.06198 397
42.08209 423
42.1022 426
42.12232 417
42.14243 420
42.16254 457
42.18266 423
42.20277 512
42.22289 573
42.243 588
42.26311 675
42.28323 759
42.30334 825
42.32345 828
42.34357 981
42.36368 953
42.38379 972
42.40391 950
42.42402 884
42.44414 780
42.46425 781
42.48436 711
42.50448 603
42.52459 543
42.5447 522
42.56482 487
42.58493 441
42.60505 390
42.62516 392
42.64527 401
42.66539 368
42.6855 383
42.70561 349
42.72573 349
42.74584 354
42.76595 380
42.78607 363
42.80618 336
42.8263 334
42.84641 350
42.86652 374
42.88664 332
42.90675 377
42.92686 316
42.94698 356
42.96709 331
42.98721 333
43.00732 350
43.02743 340
43.04755 372
43.06766 326
43.08777 359
43.10789 336
43.128 335
43.14812 333
43.16823 369
43.18834 331
43.20846 326
43.22857 347
43.24868 338
43.2688 369
43.28891 312
43.30902 335
43.32914 310
43.34925 343
43.36937 348
43.38948 350
43.40959 305
43.42971 326
43.44982 330
43.46993 322
43.49005 358
43.51016 351
43.53028 325
43.55039 350
43.5705 335
43.59062 340
43.61073 319
43.63084 325
43.65096 322
43.67107 311
43.69119 324
43.7113 325
43.73141 345
43.75153 340
43.77164 331
43.79175 347
43.81187 343
43.83198 314
43.85209 371
43.87221 329
43.89232 326
43.91244 346
43.93255 316
43.95266 345
43.97278 296
43.99289 349
44.013 352
44.03312 323
44.05323 347
44.07335 326
44.09346 317
44.11357 316
44.13369 341
44.1538 359
44.17391 320
44.19403 334
44.21414 347
44.23426 318
44.25437 342
44.27448 341
44.2946 319
44.31471 324
44.33482 302
44.35494 307
44.37505 316
44.39516 358
44.41528 314
44.43539 356
44.45551 339
44.47562 339
44.49573 350
44.51585 342
44.53596 327
44.55607 326
44.57619 326
44.5963 324
44.61642 336
44.63653 344
44.65664 353
44.67676 340
44.69687 335
44.71698 336
44.7371 355
44.75721 346
44.77732 333
44.79744 333
44.81755 350
44.83767 349
44.85778 339
44.87789 368
44.89801 348
44.91812 360
44.93823 361
44.95835 394
44.97846 388
44.99858 334
45.01869 347
45.0388 390
45.05892 371
45.07903 375
45.09914 348
45.11926 366
45.13937 375
45.15949 371
45.1796 353
45.19971 365
45.21983 373
45.23994 393
45.26005 388
45.28017 387
45.30028 398
45.32039 433
45.34051 403
45.36062 420
45.38074 407
45.40085 419
45.42096 357
45.44108 428
45.46119 414
45.4813 504
45.50142 437
45.52153 488
45.54165 500
45.56176 518
45.58187 536
45.60199 594
45.6221 634
45.64221 664
45.66233 675
45.68244 724
45.70256 806
45.72267 793
45.74278 790
45.7629 693
45.78301 671
45.80312 650
45.82324 617
45.84335 538
45.86346 506
45.88358 474
45.90369 485
45.92381 445
45.94392 425
45.96403 388
45.98415 340
46.00426 401
46.02437 377
46.04449 359
46.0646 356
46.08472 351
46.10483 358
46.12494 375
46.14506 386
46.16517 334
46.18528 366
46.2054 401
46.22551 340
46.24563 365
46.26574 337
46.28585 344
46.30597 352
46.32608 333
46.34619 345
46.36631 369
46.38642 350
46.40653 353
46.42665 365
46.44676 354
46.46688 383
46.48699 335
46.5071 341
46.52722 336
46.54733 326
46.56744 352
46.58756 325
46.60767 369
46.62779 330
46.6479 330
46.66801 314
46.68813 385
46.70824 325
46.72835 347
46.74847 366
46.76858 354
46.78869 325
46.80881 343
46.82892 370
46.84904 333
46.86915 361
46.88926 365
46.90938 331
46.92949 376
46.9496 358
46.96972 354
46.98983 356
47.00995 342
47.03006 360
47.05017 339
47.07029 319
47.0904 323
47.11051 334
47.13063 384
47.15074 319
47.17086 345
47.19097 364
47.21108 343
47.2312 338
47.25131 347
47.27142 338
47.29154 322
47.31165 333
47.33176 346
47.35188 329
47.37199 315
47.39211 327
47.41222 324
47.43233 362
47.45245 372
47.47256 348
47.49267 323
47.51279 320
47.5329 353
47.55302 337
47.57313 346
47.59324 354
47.61336 335
47.63347 329
47.65358 346
47.6737 357
47.69381 318
47.71393 346
47.73404 347
47.75415 355
47.77427 352
47.79438 347
47.81449 329
47.83461 312
47.85472 338
47.87483 350
47.89495 345
47.91506 342
47.93518 339
47.95529 362
47.9754 364
47.99552 329
48.01563 354
48.03574 372
48.05586 340
48.07597 329
48.09609 370
48.1162 329
48.13631 345
48.15643 343
48.17654 343
48.19665 358
48.21677 348
48.23688 332
48.257 343
48.27711 364
48.29722 381
48.31734 327
48.33745 360
48.35756 321
48.37768 350
48.39779 324
48.4179 342
48.43802 348
48.45813 365
48.47825 352
48.49836 364
48.51847 339
48.53859 318
48.5587 331
48.57881 338
48.59893 358
48.61904 386
48.63916 343
48.65927 377
48.67938 349
48.6995 359
48.71961 372
48.73972 345
48.75984 339
48.77995 346
48.80006 361
48.82018 345
48.84029 364
48.86041 351
48.88052 373
48.90063 384
48.92075 345
48.94086 366
48.96097 376
48.98109 363
49.0012 387
49.02132 337
49.04143 366
49.06154 386
49.08166 337
49.10177 372
49.12188 359
49.142 358
49.16211 370
49.18223 389
49.20234 345
49.22245 394
49.24257 342
49.26268 380
49.28279 397
49.30291 406
49.32302 403
49.34313 391
49.36325 399
49.38336 383
49.40348 397
49.42359 432
49.4437 401
49.46382 441
49.48393 372
49.50404 409
49.52416 389
49.54427 418
49.56439 398
49.5845 399
49.60461 410
49.62473 396
49.64484 419
49.66495 404
49.68507 424
49.70518 473
49.7253 484
49.74541 456
49.76552 528
49.78564 481
49.80575 532
49.82586 586
49.84598 621
49.86609 645
49.8862 828
49.90632 841
49.92643 991
49.94655 1145
49.96666 1358
49.98677 1480
50.00689 1659
50.027 1779
50.04711 1803
50.06723 1804
50.08734 1717
50.10746 1540
50.12757 1479
50.14768 1327
50.1678 1230
50.18791 1174
50.20802 985
50.22814 875
50.24825 744
50.26837 671
50.28848 522
50.30859 495
50.32871 510
50.34882 424
50.36893 421
50.38905 454
50.40916 418
50.42927 435
50.44939 402
50.4695 397
50.48962 409
50.50973 386
50.52984 423
50.54996 391
50.57007 385
50.59018 390
50.6103 407
50.63041 436
50.65053 390
50.67064 376
50.69075 376
50.71087 391
50.73098 375
50.75109 374
50.77121 377
50.79132 370
50.81143 368
50.83155 341
50.85166 373
50.87178 363
50.89189 337
50.912 362
50.93212 371
50.95223 345
50.97234 337
50.99246 348
51.01257 353
51.03269 326
51.0528 371
51.07291 333
51.09303 362
51.11314 334
51.13325 315
51.15337 323
51.17348 324
51.1936 321
51.21371 333
51.23382 342
51.25394 319
51.27405 327
51.29416 307
51.31428 331
51.33439 316
51.3545 348
51.37462 297
51.39473 320
51.41485 331
51.43496 310
51.45507 316
51.47519 319
51.4953 294
51.51541 325
51.53553 333
51.55564 303
51.57576 312
51.59587 316
51.61598 337
51.6361 325
51.65621 292
51.67632 326
51.69644 318
51.71655 328
51.73667 318
51.75678 320
51.77689 285
51.79701 291
51.81712 344
51.83723 306
51.85735 320
51.87746 319
51.89757 339
51.91769 315
51.9378 292
51.95792 324
51.97803 293
51.99814 304
52.01826 326
52.03837 343
52.05848 324
52.0786 315
52.09871 312
52.11883 336
52.13894 303
52.15905 289
52.17917 289
52.19928 329
52.21939 318
52.23951 313
52.25962 311
52.27974 319
52.29985 337
52.31996 300
52.34008 307
52.36019 341
52.3803 313
52.40042 319
52.42053 304
52.44064 327
52.46076 313
52.48087 325
52.50099 281
52.5211 321
52.54121 320
52.56133 293
52.58144 311
52.60155 324
52.62167 336
52.64178 320
52.6619 331
52.68201 320
52.70212 318
52.72224 355
52.74235 322
52.76246 347
52.78258 344
52.80269 327
52.8228 326
52.84292 332
52.86303 367
52.88315 359
52.90326 311
52.92337 336
52.94349 320
52.9636 364
52.98371 324
53.00383 366
53.02394 349
53.04406 368
53.06417 385
53.08428 320
53.1044 397
53.12451 352
53.14462 339
53.16474 399
53.18485 372
53.20497 419
53.22508 366
53.24519 354
53.26531 333
53.28542 362
53.30553 383
53.32565 367
53.34576 358
53.36587 368
53.38599 411
53.4061 363
53.42622 402
53.44633 413
53.46644 344
53.48656 402
53.50667 375
53.52678 412
53.5469 399
53.56701 412
53.58713 371
53.60724 376
53.62735 386
53.64747 371
53.66758 436
53.68769 376
53.70781 392
53.72792 381
53.74804 408
53.76815 436
53.78826 426
53.80838 421
53.82849 443
53.8486 431
53.86872 435
53.88883 437
53.90894 421
53.92906 416
53.94917 416
53.96929 454
53.9894 454
54.00951 444
54.02963 446
54.04974 447
54.06985 426
54.08997 473
54.11008 426
54.1302 428
54.15031 455
54.17042 470
54.19054 422
54.21065 424
54.23076 431
54.25088 490
54.27099 511
54.29111 454
54.31122 448
54.33133 463
54.35145 457
54.37156 448
54.39167 429
54.41179 444
54.4319 476
54.45201 468
54.47213 423
54.49224 454
54.51236 470
54.53247 479
54.55258 483
54.5727 487
54.59281 531
54.61292 531
54.63304 608
54.65315 569
54.67327 643
54.69338 640
54.71349 708
54.73361 759
54.75372 808
54.77383 811
54.79395 807
54.81406 807
54.83417 736
54.85429 683
54.8744 683
54.89452 675
54.91463 646
54.93474 603
54.95486 610
54.97497 610
54.99508 572
55.0152 541
55.03531 528
55.05543 533
55.07554 508
55.09565 477
55.11577 486
55.13588 504
55.15599 539
55.17611 515
55.19622 578
55.21634 582
55.23645 597
55.25656 541
55.27668 581
55.29679 547
55.3169 552
55.33702 517
55.35713 477
55.37724 462
55.39736 458
55.41747 436
55.43759 465
55.4577 432
55.47781 427
55.49793 400
55.51804 405
55.53815 392
55.55827 379
55.57838 414
55.5985 374
55.61861 389
55.63872 394
55.65884 368
55.67895 405
55.69906 370
55.71918 399
55.73929 361
55.75941 371
55.77952 366
55.79963 382
55.81975 371
55.83986 368
55.85997 339
55.88009 364
55.9002 365
55.92031 346
55.94043 387
55.96054 363
55.98066 344
56.00077 351
56.02088 332
56.041 336
56.06111 367
56.08122 356
56.10134 359
56.12145 369
56.14157 324
56.16168 361
56.18179 319
56.20191 347
56.22202 356
56.24213 362
56.26225 332
56.28236 331
56.30248 378
56.32259 370
56.3427 360
56.36282 370
56.38293 357
56.40304 398
56.42316 358
56.44327 378
56.46338 348
56.4835 322
56.50361 369
56.52373 359
56.54384 360
56.56395 333
56.58407 344
56.60418 349
56.62429 350
56.64441 387
56.66452 354
56.68464 335
56.70475 384
56.72486 364
56.74498 380
56.76509 363
56.7852 374
56.80532 331
56.82543 381
56.84554 333
56.86566 385
56.88577 350
56.90589 336
56.926 343
56.94611 338
56.96623 314
56.98634 353
57.00645 328
57.02657 360
57.04668 353
57.0668 375
57.08691 367
57.10702 337
57.12714 374
57.14725 370
57.16736 369
57.18748 345
57.20759 340
57.22771 388
57.24782 352
57.26793 348
57.28805 322
57.30816 357
57.32827 345
57.34839 338
57.3685 357
57.38861 339
57.40873 341
57.42884 362
57.44896 343
57.46907 372
57.48918 343
57.5093 361
57.52941 322
57.54952 355
57.56964 329
57.58975 349
57.60987 331
57.62998 346
57.65009 343
57.67021 331
57.69032 341
57.71043 332
57.73055 343
57.75066 335
57.77078 371
57.79089 351
57.811 352
57.83112 352
57.85123 322
57.87134 347
57.89146 327
57.91157 352
57.93168 339
57.9518 357
57.97191 342
57.99203 354
58.01214 303
58.03225 358
58.05237 337
58.07248 336
58.09259 330
58.11271 313
58.13282 341
58.15294 368
58.17305 319
58.19316 344
58.21328 329
58.23339 336
58.2535 319
58.27362 331
58.29373 329
58.31385 329
58.33396 351
58.35407 347
58.37419 324
58.3943 339
58.41441 317
58.43453 304
58.45464 341
58.47475 341
58.49487 348
58.51498 335
58.5351 323
58.55521 349
58.57532 332
58.59544 334
58.61555 329
58.63566 331
58.65578 323
58.67589 326
58.69601 312
58.71612 338
58.73623 315
58.75635 324
58.77646 332
58.79657 336
58.81669 341
58.8368 315
58.85691 348
58.87703 344
58.89714 340
58.91726 311
58.93737 328
58.95748 317
58.9776 320
58.99771 309
59.01782 359
59.03794 330
59.05805 323
59.07817 348
59.09828 342
59.11839 311
59.13851 327
59.15862 331
59.17873 325
59.19885 344
59.21896 372
59.23908 364
59.25919 346
59.2793 378
59.29942 352
59.31953 378
59.33964 362
59.35976 388
59.37987 348
59.39998 381
59.4201 345
59.44021 377
59.46033 398
59.48044 368
59.50055 382
59.52067 418
59.54078 404
59.56089 455
59.58101 466
59.60112 477
59.62124 472
59.64135 518
59.66146 562
59.68158 623
59.70169 674
59.7218 749
59.74192 743
59.76203 908
59.78215 964
59.80226 1051
59.82237 1181
59.84249 1176
59.8626 1249
59.88271 1252
59.90283 1166
59.92294 1030
59.94305 989
59.96317 912
59.98328 869
60.0034 866
60.02351 863
60.04362 778
60.06374 708
60.08385 649
60.10396 557
60.12408 528
60.14419 428
60.16431 468
60.18442 416
60.20453 399
60.22465 402
60.24476 389
60.26487 359
60.28499 338
60.3051 338
60.32522 352
60.34533 329
60.36544 331
60.38556 334
60.40567 388
60.42578 333
60.4459 327
60.46601 383
60.48612 339
60.50624 316
60.52635 324
60.54647 326
60.56658 319
60.58669 341
60.60681 350
60.62692 327
60.64703 347
60.66715 340
60.68726 339
60.70738 348
60.72749 325
60.7476 349
60.76772 349
60.78783 327
60.80794 327
60.82806 279
60.84817 305
60.86828 319
60.8884 335
60.90851 282
60.92863 284
60.94874 334
60.96885 339
60.98897 350
61.00908 308
61.02919 335
61.04931 363
61.06942 324
61.08954 316
61.10965 325
61.12976 318
61.14988 351
61.16999 325
61.1901 303
61.21022 338
61.23033 316
61.25045 311
61.27056 317
61.29067 331
61.31079 337
61.3309 327
61.35101 358
61.37113 344
61.39124 354
61.41135 332
61.43147 320
61.45158 355
61.4717 353
61.49181 333
61.51192 352
61.53204 316
61.55215 369
61.57226 338
61.59238 363
61.61249 363
61.63261 417
61.65272 354
61.67283 374
61.69295 376
61.71306 367
61.73317 364
61.75329 378
61.7734 404
61.79352 393
61.81363 388
61.83374 400
61.85386 396
61.87397 383
61.89408 421
61.9142 409
61.93431 401
61.95442 434
61.97454 437
61.99465 459
62.01477 448
62.03488 425
62.05499 455
62.07511 437
62.09522 479
62.11533 463
62.13545 529
62.15556 491
62.17568 482
62.19579 470
62.2159 496
62.23602 499
62.25613 491
62.27624 516
62.29636 473
62.31647 490
62.33659 471
62.3567 428
62.37681 474
62.39693 421
62.41704 453
62.43715 431
62.45727 434
62.47738 406
62.49749 417
62.51761 420
62.53772 368
62.55784 393
62.57795 403
62.59806 415
62.61818 424
62.63829 379
62.6584 367
62.67852 337
62.69863 367
62.71875 359
62.73886 361
62.75897 342
62.77909 372
62.7992 378
62.81931 360
62.83943 343
62.85954 327
62.87965 364
62.89977 332
62.91988 361
62.94 349
62.96011 319
62.98022 327
63.00034 356
63.02045 331
63.04056 345
63.06068 365
63.08079 370
63.10091 321
63.12102 353
63.14113 340
63.16125 358
63.18136 347
63.20147 341
63.22159 315
63.2417 366
63.26182 323
63.28193 355
63.30204 324
63.32216 338
63.34227 366
63.36238 327
63.3825 331
63.40261 354
63.42272 378
63.44284 334
63.46295 340
63.48307 368
63.50318 340
63.52329 335
63.54341 370
63.56352 350
63.58363 367
63.60375 371
63.62386 332
63.64398 365
63.66409 416
63.6842 384
63.70432 366
63.72443 396
63.74454 399
63.76466 422
63.78477 417
63.80489 434
63.825 453
63.84511 494
63.86523 515
63.88534 504
63.90545 562
63.92557 542
63.94568 543
63.96579 565
63.98591 526
64.00602 517
64.02614 484
64.04625 503
64.06636 450
64.08648 490
64.10659 460
64.1267 420
64.14682 425
64.16693 461
64.18705 390
64.20716 423
64.22727 346
64.24739 375
64.2675 360
64.28761 359
64.30773 376
64.32784 366
64.34796 340
64.36807 329
64.38818 342
64.4083 350
64.42841 317
64.44852 301
64.46864 351
64.48875 339
64.50886 335
64.52898 335
64.54909 329
64.56921 312
64.58932 329
64.60943 310
64.62955 319
64.64966 331
64.66977 298
64.68989 301
64.71 331
64.73012 325
64.75023 332
64.77034 325
64.79046 327
64.81057 336
64.83068 336
64.8508 290
64.87091 331
64.89102 330
64.91114 311
64.93125 260
64.95137 325
64.97148 300
64.99159 312
65.01171 312
65.03182 298
65.05193 330
65.07205 308
65.09216 313
65.11228 325
65.13239 304
65.1525 325
65.17262 316
65.19273 326
65.21284 345
65.23296 311
65.25307 335
65.27319 304
65.2933 296
65.31341 301
65.33353 309
65.35364 339
65.37375 323
65.39387 327
65.41398 311
65.43409 300
65.45421 307
65.47432 297
65.49444 311
65.51455 323
65.53466 332
65.55478 317
65.57489 337
65.595 335
65.61512 334
65.63523 351
65.65535 375
65.67546 369
65.69557 329
65.71569 357
65.7358 347
65.75591 350
65.77603 366
65.79614 321
65.81626 329
65.83637 317
65.85648 319
65.8766 328
65.89671 349
65.91682 314
65.93694 324
65.95705 305
65.97716 334
65.99728 303
66.01739 322
66.03751 301
66.05762 323
66.07773 293
66.09785 329
66.11796 333
66.13807 291
66.15819 357
66.1783 318
66.19842 286
66.21853 287
66.23864 286
66.25876 304
66.27887 346
66.29898 280
66.3191 290
66.33921 316
66.35933 304
66.37944 280
66.39955 321
66.41967 289
66.43978 308
66.45989 341
66.48001 313
66.50012 286
66.52023 316
66.54035 307
66.56046 335
66.58058 299
66.60069 289
66.6208 314
66.64092 329
66.66103 309
66.68114 321
66.70126 291
66.72137 328
66.74149 301
66.7616 300
66.78171 330
66.80183 324
66.82194 316
66.84205 308
66.86217 307
66.88228 306
66.90239 310
66.92251 311
66.94262 333
66.96274 301
66.98285 323
67.00296 314
67.02308 303
67.04319 326
67.0633 322
67.08342 321
67.10353 322
67.12365 303
67.14376 355
67.16387 328
67.18399 317
67.2041 348
67.22421 333
67.24433 371
67.26444 344
67.28456 371
67.30467 390
67.32478 364
67.3449 426
67.36501 406
67.38512 388
67.40524 449
67.42535 433
67.44546 485
67.46558 483
67.48569 528
67.50581 572
67.52592 627
67.54603 700
67.56615 654
67.58626 692
67.60637 830
67.62649 826
67.6466 818
67.66672 863
67.68683 810
67.70694 717
67.72706 739
67.74717 681
67.76728 685
67.7874 649
67.80751 722
67.82763 701
67.84774 745
67.86785 736
67.88797 783
67.90808 764
67.92819 802
67.94831 832
67.96842 893
67.98853 892
68.00865 972
68.02876 1062
68.04888 1088
68.06899 1093
68.0891 1059
68.10922 1040
68.12933 990
68.14944 1022
68.16956 1011
68.18967 1023
68.20979 1042
68.2299 952
68.25001 942
68.27013 850
68.29024 835
68.31035 697
68.33047 621
68.35058 646
68.3707 593
68.39081 594
68.41092 563
68.43104 544
68.45115 477
68.47126 469
68.49138 417
68.51149 412
68.5316 352
68.55172 337
68.57183 366
68.59195 333
68.61206 350
68.63217 330
68.65229 337
68.6724 357
68.69251 325
68.71263 339
68.73274 302
68.75286 333
68.77297 324
68.79308 313
68.8132 306
68.83331 311
68.85342 335
68.87354 332
68.89365 333
68.91376 268
68.93388 319
68.95399 298
68.97411 336
68.99422 328
69.01433 279
69.03445 297
69.05456 332
69.07467 301
69.09479 296
69.1149 315
69.13502 317
69.15513 281
69.17524 299
69.19536 334
69.21547 308
69.23558 309
69.2557 299
69.27581 316
69.29593 291
69.31604 309
69.33615 280
69.35627 280
69.37638 296
69.39649 318
69.41661 313
69.43672 291
69.45683 311
69.47695 308
69.49706 297
69.51718 317
69.53729 322
69.5574 281
69.57752 296
69.59763 280
69.61774 313
69.63786 293
69.65797 300
69.67809 313
69.6982 286
69.71831 301
69.73843 303
69.75854 303
69.77865 320
69.79877 308
69.81888 327
69.839 308
69.85911 307
69.87922 304
69.89934 306
69.91945 306
69.93956 305
69.95968 306
69.97979 307
69.9999 307
70.02002 315
70.04013 299
70.06025 287
70.08036 305
70.10047 281
70.12059 305
70.1407 289
70.16081 291
70.18093 300
70.20104 302
70.22116 323
70.24127 299
70.26138 292
70.2815 294
70.30161 307
70.32172 288
70.34184 290
70.36195 284
70.38207 294
70.40218 269
70.42229 269
70.44241 319
70.46252 326
70.48263 275
70.50275 311
70.52286 276
70.54297 283
70.56309 299
70.5832 309
70.60332 290
70.62343 295
70.64354 272
70.66366 281
70.68377 307
70.70388 281
70.724 324
70.74411 282
70.76423 261
70.78434 270
70.80445 268
70.82457 287
70.84468 303
70.86479 282
70.88491 286
70.90502 290
70.92513 317
70.94525 271
70.96536 303
70.98548 300
71.00559 304
71.0257 281
71.04582 293
71.06593 279
71.08604 280
71.10616 269
71.12627 285
71.14639 311
71.1665 319
71.18661 303
71.20673 273
71.22684 298
71.24695 274
71.26707 249
71.28718 288
71.3073 320
71.32741 283
71.34752 297
71.36764 276
71.38775 297
71.40786 286
71.42798 292
71.44809 314
71.4682 287
71.48832 295
71.50843 287
71.52855 308
71.54866 306
71.56877 264
71.58889 304
71.609 293
71.62911 316
71.64923 313
71.66934 317
71.68946 306
71.70957 302
71.72968 289
71.7498 338
71.76991 281
71.79002 276
71.81014 287
71.83025 330
71.85037 304
71.87048 331
71.89059 326
71.91071 350
71.93082 318
71.95093 334
71.97105 308
71.99116 278
72.01127 306
72.03139 304
72.0515 285
72.07162 328
72.09173 318
72.11184 307
72.13196 307
72.15207 296
72.17218 313
72.1923 311
72.21241 321
72.23253 334
72.25264 332
72.27275 334
72.29287 306
72.31298 288
72.33309 319
72.35321 308
72.37332 319
72.39344 295
72.41355 306
72.43366 306
72.45378 328
72.47389 304
72.494 287
72.51412 312
72.53423 299
72.55434 303
72.57446 298
72.59457 295
72.61469 326
72.6348 312
72.65491 303
72.67503 302
72.69514 272
72.71525 331
72.73537 315
72.75548 301
72.7756 289
72.79571 275
72.81582 252
72.83594 312
72.85605 310
72.87616 321
72.89628 289
72.91639 279
72.9365 276
72.95662 275
72.97673 306
72.99685 300
73.01696 288
73.03707 333
73.05719 337
73.0773 338
73.09741 327
73.11753 326
73.13764 354
73.15776 351
73.17787 362
73.19798 376
73.2181 383
73.23821 404
73.25832 398
73.27844 439
73.29855 450
73.31867 438
73.33878 455
73.35889 513
73.37901 469
73.39912 489
73.41923 454
73.43935 434
73.45946 406
73.47957 439
73.49969 385
73.5198 418
73.53992 392
73.56003 405
73.58014 398
73.60026 419
73.62037 404
73.64048 381
73.6606 336
73.68071 343
73.70083 322
73.72094 319
73.74105 308
73.76117 319
73.78128 295
73.80139 302
73.82151 305
73.84162 328
73.86174 306
73.88185 313
73.90196 284
73.92208 291
73.94219 299
73.9623 286
73.98242 281
74.00253 324
74.02264 308
74.04276 299
74.06287 277
74.08299 306
74.1031 288
74.12321 282
74.14333 311
74.16344 314
74.18355 290
74.20367 282
74.22378 285
74.2439 283
74.26401 308
74.28412 278
74.30424 304
74.32435 268
74.34446 259
74.36458 297
74.38469 283
74.40481 309
74.42492 284
74.44503 287
74.46515 294
74.48526 299
74.50537 289
74.52549 285
74.5456 281
74.56571 296
74.58583 271
74.60594 289
74.62606 293
74.64617 295
74.66628 281
74.6864 277
74.70651 276
74.72662 288
74.74674 320
74.76685 291
74.78697 273
74.80708 299
74.82719 279
74.84731 290
74.86742 330
74.88753 265
74.90765 306
74.92776 283
74.94787 303
74.96799 274
74.9881 317
75.00822 284
