3.00117 15812
3.02128 15513
3.0414 15221
3.06151 14492
3.08162 14324
3.10174 13608
3.12185 13220
3.14197 12960
3.16208 12424
3.18219 11984
3.20231 11562
3.22242 11430
3.24253 10653
3.26265 10337
3.28276 10335
3.30288 9787
3.32299 9799
3.3431 9066
3.36322 8847
3.38333 8554
3.40344 8280
3.42356 8015
3.44367 7752
3.46379 7231
3.4839 7245
3.50401 6552
3.52413 6413
3.54424 6308
3.56435 5999
3.58447 5924
3.60458 5485
3.62469 5395
3.64481 5145
3.66492 4981
3.68504 4871
3.70515 4461
3.72526 4196
3.74538 4021
3.76549 3985
3.7856 3733
3.80572 3411
3.82583 3497
3.84595 3271
3.86606 3052
3.88617 3112
3.90629 2777
3.9264 2714
3.94651 2673
3.96663 2410
3.98674 2458
4.00686 2239
4.02697 2194
4.04708 2047
4.0672 2030
4.08731 2035
4.10742 1801
4.12754 1773
4.14765 1738
4.16776 1634
4.18788 1806
4.20799 1539
4.22811 1572
4.24822 1504
4.26833 1459
4.28845 1391
4.30856 1330
4.32867 1390
4.34879 1350
4.3689 1299
4.38902 1284
4.40913 1110
4.42924 1184
4.44936 1161
4.46947 1130
4.48958 1174
4.5097 1026
4.52981 1014
4.54992 1029
4.57004 974
4.59015 983
4.61027 918
4.63038 860
4.65049 953
4.67061 885
4.69072 943
4.71083 801
4.73095 836
4.75106 774
4.77118 781
4.79129 757
4.8114 773
4.83152 715
4.85163 751
4.87174 714
4.89186 644
4.91197 690
4.93209 637
4.9522 645
4.97231 632
4.99243 580
5.01254 583
5.03265 562
5.05277 543
5.07288 592
5.09299 522
5.11311 536
5.13322 539
5.15334 561
5.17345 590
5.19356 433
5.21368 457
5.23379 452
5.2539 480
5.27402 459
5.29413 462
5.31425 476
5.33436 436
5.35447 391
5.37459 395
5.3947 416
5.41481 385
5.43493 370
5.45504 437
5.47516 345
5.49527 315
5.51538 369
5.5355 335
5.55561 374
5.57572 308
5.59584 338
5.61595 316
5.63606 330
5.65618 344
5.67629 327
5.69641 313
5.71652 309
5.73663 309
5.75675 275
5.77686 296
5.79697 298
5.81709 294
5.8372 275
5.85732 288
5.87743 273
5.89754 303
5.91766 268
5.93777 288
5.95788 289
5.978 312
5.99811 258
6.01823 245
6.03834 260
6.05845 273
6.07857 239
6.09868 278
6.11879 277
6.13891 291
6.15902 235
6.17913 250
6.19925 248
6.21936 220
6.23948 243
6.25959 274
6.2797 234
6.29982 278
6.31993 277
6.34004 272
6.36016 262
6.38027 269
6.40039 261
6.4205 242
6.44061 245
6.46073 262
6.48084 233
6.50095 254
6.52107 246
6.54118 242
6.56129 272
6.58141 221
6.60152 253
6.62164 241
6.64175 251
6.66186 230
6.68198 228
6.70209 259
6.7222 248
6.74232 249
6.76243 237
6.78255 236
6.80266 240
6.82277 253
6.84289 247
6.863 254
6.88311 231
6.90323 250
6.92334 248
6.94346 266
6.96357 223
6.98368 254
7.0038 209
7.02391 244
7.04402 214
7.06414 225
7.08425 238
7.10436 195
7.12448 233
7.14459 230
7.16471 267
7.18482 240
7.20493 213
7.22505 255
7.24516 253
7.26527 238
7.28539 185
7.3055 273
7.32562 243
7.34573 262
7.36584 247
7.38596 242
7.40607 223
7.42618 242
7.4463 209
7.46641 252
7.48653 222
7.50664 235
7.52675 216
7.54687 254
7.56698 213
7.58709 250
7.60721 218
7.62732 259
7.64743 220
7.66755 248
7.68766 220
7.70778 226
7.72789 254
7.748 248
7.76812 245
7.78823 236
7.80834 271
7.82846 257
7.84857 253
7.86869 259
7.8888 234
7.90891 254
7.92903 241
7.94914 255
7.96925 228
7.98937 251
8.00948 245
8.0296 271
8.04971 239
8.06982 270
8.08994 315
8.11005 251
8.13016 248
8.15028 260
8.17039 256
8.1905 269
8.21062 269
8.23073 258
8.25085 308
8.27096 305
8.29107 297
8.31119 278
8.3313 288
8.35141 298
8.37153 313
8.39164 316
8.41176 297
8.43187 308
8.45198 321
8.4721 322
8.49221 357
8.51232 365
8.53244 354
8.55255 382
8.57266 324
8.59278 345
8.61289 394
8.63301 398
8.65312 446
8.67323 436
8.69335 429
8.71346 436
8.73357 463
8.75369 469
8.7738 530
8.79392 522
8.81403 552
8.83414 526
8.85426 490
8.87437 493
8.89448 457
8.9146 415
8.93471 346
8.95483 314
8.97494 320
8.99505 299
9.01517 306
9.03528 309
9.05539 263
9.07551 268
9.09562 275
9.11573 280
9.13585 254
9.15596 319
9.17608 266
9.19619 243
9.2163 263
9.23642 232
9.25653 251
9.27664 198
9.29676 238
9.31687 240
9.33699 225
9.3571 251
9.37721 258
9.39733 240
9.41744 238
9.43755 223
9.45767 256
9.47778 241
9.4979 229
9.51801 262
9.53812 255
9.55824 258
9.57835 229
9.59846 235
9.61858 251
9.63869 221
9.6588 244
9.67892 247
9.69903 265
9.71915 254
9.73926 256
9.75937 226
9.77949 253
9.7996 235
9.81971 241
9.83983 248
9.85994 224
9.88006 244
9.90017 244
9.92028 244
9.9404 228
9.96051 239
9.98062 231
10.00074 257
10.02085 216
10.04097 232
10.06108 239
10.08119 265
10.10131 235
10.12142 225
10.14153 264
10.16165 247
10.18176 258
10.20187 240
10.22199 273
10.2421 236
10.26222 247
10.28233 208
10.30244 258
10.32256 232
10.34267 263
10.36278 250
10.3829 232
10.40301 236
10.42313 253
10.44324 274
10.46335 272
10.48347 256
10.50358 251
10.52369 241
10.54381 229
10.56392 252
10.58403 274
10.60415 237
10.62426 242
10.64438 223
10.66449 234
10.6846 250
10.70472 242
10.72483 254
10.74494 259
10.76506 243
10.78517 253
10.80529 240
10.8254 271
10.84551 268
10.86563 249
10.88574 226
10.90585 258
10.92597 254
10.94608 277
10.9662 275
10.98631 255
11.00642 242
11.02654 256
11.04665 245
11.06676 259
11.08688 233
11.10699 216
11.1271 245
11.14722 219
11.16733 233
11.18745 239
11.20756 218
11.22767 230
11.24779 242
11.2679 245
11.28801 274
11.30813 244
11.32824 264
11.34836 232
11.36847 248
11.38858 238
11.4087 226
11.42881 228
11.44892 256
11.46904 254
11.48915 247
11.50927 234
11.52938 217
11.54949 225
11.56961 213
11.58972 200
11.60983 234
11.62995 230
11.65006 255
11.67017 236
11.69029 243
11.7104 228
11.73052 251
11.75063 260
11.77074 222
11.79086 216
11.81097 267
11.83108 259
11.8512 230
11.87131 252
11.89143 238
11.91154 262
11.93165 251
11.95177 226
11.97188 258
11.99199 224
12.01211 232
12.03222 252
12.05234 256
12.07245 254
12.09256 239
12.11268 241
12.13279 243
12.1529 278
12.17302 303
12.19313 238
12.21324 245
12.23336 237
12.25347 271
12.27359 236
12.2937 255
12.31381 268
12.33393 236
12.35404 260
12.37415 214
12.39427 267
12.41438 242
12.4345 249
12.45461 235
12.47472 251
12.49484 237
12.51495 219
12.53506 240
12.55518 226
12.57529 257
12.5954 228
12.61552 241
12.63563 233
12.65575 235
12.67586 243
12.69597 227
12.71609 256
12.7362 238
12.75631 227
12.77643 239
12.79654 242
12.81666 240
12.83677 215
12.85688 260
12.877 219
12.89711 218
12.91722 228
12.93734 250
12.95745 212
12.97757 235
12.99768 236
13.01779 216
13.03791 248
13.05802 261
13.07813 252
13.09825 263
13.11836 268
13.13847 242
13.15859 259
13.1787 235
13.19882 230
13.21893 221
13.23904 204
13.25916 225
13.27927 204
13.29938 247
13.3195 258
13.33961 225
13.35973 238
13.37984 233
13.39995 208
13.42007 257
13.44018 220
13.46029 212
13.48041 239
13.50052 244
13.52064 264
13.54075 259
13.56086 258
13.58098 277
13.60109 264
13.6212 283
13.64132 264
13.66143 270
13.68154 285
13.70166 284
13.72177 270
13.74189 312
13.762 354
13.78211 358
13.80223 427
13.82234 387
13.84245 375
13.86257 367
13.88268 364
13.9028 315
13.92291 299
13.94302 288
13.96314 293
13.98325 254
14.00336 221
14.02348 253
14.04359 227
14.06371 235
14.08382 247
14.10393 179
14.12405 212
14.14416 206
14.16427 218
14.18439 213
14.2045 216
14.22461 214
14.24473 202
14.26484 219
14.28496 197
14.30507 213
14.32518 215
14.3453 208
14.36541 181
14.38552 178
14.40564 217
14.42575 207
14.44587 206
14.46598 220
14.48609 208
14.50621 236
14.52632 238
14.54643 219
14.56655 207
14.58666 219
14.60677 180
14.62689 230
14.647 210
14.66712 208
14.68723 232
14.70734 210
14.72746 199
14.74757 210
14.76768 246
14.7878 250
14.80791 276
14.82803 244
14.84814 279
14.86825 253
14.88837 270
14.90848 256
14.92859 304
14.94871 251
14.96882 283
14.98894 284
15.00905 256
15.02916 278
15.04928 232
15.06939 264
15.0895 232
15.10962 259
15.12973 222
15.14984 242
15.16996 215
15.19007 234
15.21019 252
15.2303 225
15.25041 186
15.27053 228
15.29064 227
15.31075 213
15.33087 198
15.35098 205
15.3711 217
15.39121 181
15.41132 215
15.43144 215
15.45155 178
15.47166 208
15.49178 204
15.51189 196
15.53201 229
15.55212 197
15.57223 196
15.59235 205
15.61246 205
15.63257 217
15.65269 199
15.6728 237
15.69291 204
15.71303 262
15.73314 217
15.75326 252
15.77337 250
15.79348 264
15.8136 231
15.83371 259
15.85382 210
15.87394 237
15.89405 224
15.91417 199
15.93428 216
15.95439 203
15.97451 190
15.99462 206
16.01473 188
16.03485 187
16.05496 210
16.07508 233
16.09519 191
16.1153 186
16.13542 199
16.15553 189
16.17564 203
16.19576 217
16.21587 191
16.23598 203
16.2561 209
16.27621 208
16.29633 213
16.31644 218
16.33655 206
16.35667 172
16.37678 206
16.39689 205
16.41701 222
16.43712 217
16.45724 190
16.47735 191
16.49746 196
16.51758 209
16.53769 215
16.5578 201
16.57792 216
16.59803 200
16.61814 184
16.63826 215
16.65837 205
16.67849 219
16.6986 179
16.71871 202
16.73883 188
16.75894 167
16.77905 194
16.79917 220
16.81928 200
16.8394 190
16.85951 213
16.87962 230
16.89974 194
16.91985 218
16.93996 187
16.96008 184
16.98019 201
17.00031 193
17.02042 197
17.04053 197
17.06065 195
17.08076 214
17.10087 199
17.12099 206
17.1411 206
17.16121 191
17.18133 206
17.20144 197
17.22156 206
17.24167 214
17.26178 222
17.2819 196
17.30201 172
17.32212 190
17.34224 209
17.36235 221
17.38247 226
17.40258 213
17.42269 233
17.44281 210
17.46292 193
17.48303 210
17.50315 206
17.52326 194
17.54338 234
17.56349 252
17.5836 250
17.60372 265
17.62383 256
17.64394 265
17.66406 264
17.68417 233
17.70428 269
17.7244 250
17.74451 226
17.76463 257
17.78474 243
17.80485 219
17.82497 199
17.84508 222
17.86519 221
17.88531 204
17.90542 181
17.92554 202
17.94565 245
17.96576 223
17.98588 209
18.00599 195
18.0261 219
18.04622 189
18.06633 207
18.08645 189
18.10656 221
18.12667 216
18.14679 210
18.1669 195
18.18701 202
18.20713 210
18.22724 204
18.24735 206
18.26747 192
18.28758 216
18.3077 194
18.32781 203
18.34792 215
18.36804 207
18.38815 215
18.40826 194
18.42838 208
18.44849 212
18.46861 221
18.48872 210
18.50883 211
18.52895 194
18.54906 173
18.56917 184
18.58929 201
18.6094 214
18.62951 213
18.64963 183
18.66974 193
18.68986 207
18.70997 178
18.73008 202
18.7502 199
18.77031 214
18.79042 226
18.81054 225
18.83065 214
18.85077 205
18.87088 186
18.89099 227
18.91111 228
18.93122 216
18.95133 206
18.97145 219
18.99156 195
19.01168 202
19.03179 228
19.0519 211
19.07202 196
19.09213 223
19.11224 229
19.13236 233
19.15247 255
19.17258 235
19.1927 262
19.21281 298
19.23293 281
19.25304 250
19.27315 269
19.29327 290
19.31338 258
19.33349 244
19.35361 235
19.37372 270
19.39384 302
19.41395 250
19.43406 251
19.45418 286
19.47429 268
19.4944 286
19.51452 260
19.53463 257
19.55475 278
19.57486 306
19.59497 299
19.61509 295
19.6352 338
19.65531 346
19.67543 332
19.69554 348
19.71565 326
19.73577 340
19.75588 367
19.776 386
19.79611 352
19.81622 348
19.83634 346
19.85645 365
19.87656 340
19.89668 311
19.91679 298
19.93691 292
19.95702 326
19.97713 311
19.99725 269
20.01736 289
20.03747 255
20.05759 298
20.0777 277
20.09782 303
20.11793 294
20.13804 290
20.15816 300
20.17827 286
20.19838 264
20.2185 288
20.23861 297
20.25872 257
20.27884 314
20.29895 298
20.31907 304
20.33918 324
20.35929 289
20.37941 290
20.39952 293
20.41963 292
20.43975 337
20.45986 318
20.47998 284
20.50009 353
20.5202 325
20.54032 352
20.56043 379
20.58054 426
20.60066 415
20.62077 479
20.64088 557
20.661 705
20.68111 848
20.70123 1090
20.72134 1423
20.74145 1943
20.76157 2341
20.78168 2809
20.80179 3105
20.82191 3073
20.84202 2768
20.86214 2445
20.88225 1876
20.90236 1396
20.92248 981
20.94259 869
20.9627 723
20.98282 722
21.00293 661
21.02305 653
21.04316 568
21.06327 467
21.08339 410
21.1035 375
21.12361 339
21.14373 316
21.16384 313
21.18395 344
21.20407 274
21.22418 292
21.2443 277
21.26441 277
21.28452 274
21.30464 283
21.32475 271
21.34486 262
21.36498 252
21.38509 289
21.40521 291
21.42532 252
21.44543 275
21.46555 283
21.48566 267
21.50577 280
21.52589 300
21.546 286
21.56612 269
21.58623 290
21.60634 272
21.62646 278
21.64657 304
21.66668 317
21.6868 300
21.70691 307
21.72702 324
21.74714 298
21.76725 351
21.78737 389
21.80748 395
21.82759 412
21.84771 515
21.86782 587
21.88793 772
21.90805 838
21.92816 1042
21.94828 1163
21.96839 1234
21.9885 1240
22.00862 1081
22.02873 990
22.04884 818
22.06896 638
22.08907 544
22.10919 476
22.1293 354
22.14941 391
22.16953 362
22.18964 351
22.20975 368
22.22987 368
22.24998 363
22.27009 365
22.29021 371
22.31032 349
22.33044 334
22.35055 274
22.37066 343
22.39078 287
22.41089 265
22.431 275
22.45112 325
22.47123 292
22.49135 273
22.51146 307
22.53157 296
22.55169 306
22.5718 315
22.59191 301
22.61203 284
22.63214 301
22.65225 273
22.67237 321
22.69248 275
22.7126 286
22.73271 274
22.75282 315
22.77294 296
22.79305 374
22.81316 363
22.83328 377
22.85339 423
22.87351 445
22.89362 408
22.91373 448
22.93385 413
22.95396 420
22.97407 411
22.99419 411
23.0143 418
23.03442 408
23.05453 375
23.07464 396
23.09476 423
23.11487 436
23.13498 424
23.1551 426
23.17521 452
23.19532 455
23.21544 368
23.23555 383
23.25567 343
23.27578 340
23.29589 324
23.31601 339
23.33612 303
23.35623 337
23.37635 350
23.39646 373
23.41658 422
23.43669 445
23.4568 566
23.47692 613
23.49703 648
23.51714 669
23.53726 642
23.55737 642
23.57749 638
23.5976 581
23.61771 534
23.63783 528
23.65794 432
23.67805 394
23.69817 386
23.71828 443
23.73839 449
23.75851 443
23.77862 475
23.79874 479
23.81885 517
23.83896 550
23.85908 543
23.87919 613
23.8993 685
23.91942 654
23.93953 619
23.95965 632
23.97976 563
23.99987 500
24.01999 512
24.0401 496
24.06021 553
24.08033 511
24.10044 574
24.12056 594
24.14067 641
24.16078 645
24.1809 699
24.20101 734
24.22112 758
24.24124 778
24.26135 839
24.28146 769
24.30158 668
24.32169 623
24.34181 552
24.36192 509
24.38203 425
24.40215 397
24.42226 362
24.44237 353
24.46249 338
24.4826 287
24.50272 342
24.52283 270
24.54294 287
24.56306 306
24.58317 323
24.60328 327
24.6234 307
24.64351 353
24.66362 328
24.68374 359
24.70385 336
24.72397 298
24.74408 338
24.76419 320
24.78431 321
24.80442 297
24.82453 281
24.84465 318
24.86476 281
24.88488 300
24.90499 322
24.9251 309
24.94522 287
24.96533 274
24.98544 290
25.00556 316
25.02567 315
25.04579 316
25.0659 286
25.08601 297
25.10613 284
25.12624 309
25.14635 326
25.16647 306
25.18658 323
25.20669 300
25.22681 327
25.24692 359
25.26704 365
25.28715 378
25.30726 405
25.32738 488
25.34749 493
25.3676 517
25.38772 560
25.40783 615
25.42795 663
25.44806 716
25.46817 682
25.48829 690
25.5084 664
25.52851 699
25.54863 640
25.56874 636
25.58886 612
25.60897 532
25.62908 525
25.6492 484
25.66931 456
25.68942 439
25.70954 435
25.72965 457
25.74976 415
25.76988 424
25.78999 423
25.81011 389
25.83022 379
25.85033 376
25.87045 391
25.89056 378
25.91067 353
25.93079 410
25.9509 422
25.97102 389
25.99113 417
26.01124 417
26.03136 455
26.05147 491
26.07158 491
26.0917 491
26.11181 510
26.13193 556
26.15204 560
26.17215 604
26.19227 647
26.21238 683
26.23249 759
26.25261 838
26.27272 869
26.29283 1017
26.31295 1163
26.33306 1322
26.35318 1520
26.37329 1792
26.3934 2154
26.41352 2599
26.43363 3085
26.45374 4027
26.47386 4926
26.49397 6622
26.51409 8488
26.5342 10516
26.55431 12302
26.57443 13184
26.59454 13474
26.61465 12553
26.63477 10791
26.65488 8346
26.67499 6084
26.69511 4286
26.71522 2899
26.73534 1856
26.75545 1261
26.77556 1097
26.79568 959
26.81579 880
26.8359 871
26.85602 799
26.87613 786
26.89625 712
26.91636 757
26.93647 760
26.95659 762
26.9767 755
26.99681 749
27.01693 725
27.03704 743
27.05716 783
27.07727 679
27.09738 641
27.1175 580
27.13761 566
27.15772 528
27.17784 569
27.19795 570
27.21806 599
27.23818 643
27.25829 649
27.27841 746
27.29852 764
27.31863 863
27.33875 945
27.35886 966
27.37897 1026
27.39909 1055
27.4192 1055
27.43932 1012
27.45943 989
27.47954 878
27.49966 805
27.51977 790
27.53988 819
27.56 772
27.58011 815
27.60023 920
27.62034 1015
27.64045 1113
27.66057 1323
27.68068 1454
27.70079 1559
27.72091 1653
27.74102 1721
27.76113 1772
27.78125 1862
27.80136 1775
27.82148 1974
27.84159 1944
27.8617 1981
27.88182 1974
27.90193 1885
27.92204 1805
27.94216 1676
27.96227 1528
27.98239 1346
28.0025 1166
28.02261 1006
28.04273 886
28.06284 858
28.08295 750
28.10307 673
28.12318 684
28.1433 701
28.16341 671
28.18352 646
28.20364 715
28.22375 760
28.24386 707
28.26398 665
28.28409 697
28.3042 618
28.32432 471
28.34443 462
28.36455 435
28.38466 419
28.40477 375
28.42489 346
28.445 321
28.46511 289
28.48523 292
28.50534 301
28.52546 305
28.54557 272
28.56568 276
28.5858 301
28.60591 264
28.62602 274
28.64614 321
28.66625 265
28.68636 290
28.70648 286
28.72659 263
28.74671 292
28.76682 294
28.78693 261
28.80705 277
28.82716 267
28.84727 245
28.86739 248
28.8875 260
28.90762 315
28.92773 299
28.94784 294
28.96796 254
28.98807 280
29.00818 266
29.0283 285
29.04841 277
29.06853 255
29.08864 278
29.10875 288
29.12887 287
29.14898 298
29.16909 281
29.18921 288
29.20932 280
29.22943 271
29.24955 289
29.26966 320
29.28978 315
29.30989 337
29.33 373
29.35012 341
29.37023 391
29.39034 404
29.41046 382
29.43057 366
29.45069 358
29.4708 392
29.49091 375
29.51103 325
29.53114 359
29.55125 325
29.57137 334
29.59148 320
29.6116 398
29.63171 368
29.65182 363
29.67194 393
29.69205 418
29.71216 398
29.73228 447
29.75239 439
29.7725 475
29.79262 430
29.81273 444
29.83285 403
29.85296 420
29.87307 381
29.89319 389
29.9133 374
29.93341 385
29.95353 393
29.97364 468
29.99376 439
30.01387 461
30.03398 490
30.0541 484
30.07421 567
30.09432 595
30.11444 548
30.13455 576
30.15467 529
30.17478 546
30.19489 532
30.21501 584
30.23512 557
30.25523 502
30.27535 548
30.29546 554
30.31557 558
30.33569 546
30.3558 596
30.37592 549
30.39603 616
30.41614 583
30.43626 608
30.45637 601
30.47648 564
30.4966 554
30.51671 483
30.53683 467
30.55694 447
30.57705 451
30.59717 418
30.61728 440
30.63739 440
30.65751 457
30.67762 526
30.69773 540
30.71785 551
30.73796 508
30.75808 528
30.77819 511
30.7983 512
30.81842 459
30.83853 443
30.85864 411
30.87876 359
30.89887 344
30.91899 350
30.9391 329
30.95921 309
30.97933 293
30.99944 291
31.01955 306
31.03967 292
31.05978 343
31.0799 328
31.10001 300
31.12012 358
31.14024 350
31.16035 335
31.18046 417
31.20058 399
31.22069 355
31.2408 375
31.26092 383
31.28103 357
31.30115 361
31.32126 380
31.34137 330
31.36149 368
31.3816 318
31.40171 338
31.42183 320
31.44194 318
31.46206 329
31.48217 315
31.50228 284
31.5224 262
31.54251 288
31.56262 301
31.58274 283
31.60285 292
31.62297 316
31.64308 290
31.66319 306
31.68331 299
31.70342 303
31.72353 292
31.74365 304
31.76376 278
31.78387 286
31.80399 258
31.8241 283
31.84422 288
31.86433 253
31.88444 275
31.90456 294
31.92467 296
31.94478 311
31.9649 290
31.98501 328
32.00513 333
32.02524 257
32.04535 298
32.06547 298
32.08558 286
32.10569 308
32.12581 273
32.14592 282
32.16604 267
32.18615 291
32.20626 257
32.22638 260
32.24649 266
32.2666 255
32.28672 258
32.30683 293
32.32694 291
32.34706 276
32.36717 291
32.38729 276
32.4074 274
32.42751 283
32.44763 281
32.46774 260
32.48785 263
32.50797 272
32.52808 255
32.5482 246
32.56831 228
32.58842 232
32.60854 227
32.62865 209
32.64876 225
32.66888 243
32.68899 223
32.7091 236
32.72922 231
32.74933 227
32.76945 225
32.78956 230
32.80967 202
32.82979 223
32.8499 243
32.87001 253
32.89013 244
32.91024 246
32.93036 253
32.95047 267
32.97058 230
32.9907 217
33.01081 243
33.03092 239
33.05104 244
33.07115 247
33.09127 260
33.11138 242
33.13149 235
33.15161 288
33.17172 238
33.19183 277
33.21195 291
33.23206 284
33.25217 268
33.27229 287
33.2924 281
33.31252 238
33.33263 278
33.35274 261
33.37286 227
33.39297 263
33.41308 241
33.4332 265
33.45331 263
33.47343 242
33.49354 252
33.51365 209
33.53377 246
33.55388 263
33.57399 251
33.59411 264
33.61422 270
33.63434 284
33.65445 279
33.67456 297
33.69468 289
33.71479 294
33.7349 317
33.75502 311
33.77513 314
33.79524 351
33.81536 310
33.83547 390
33.85559 344
33.8757 347
33.89581 333
33.91593 374
33.93604 371
33.95615 315
33.97627 334
33.99638 343
34.0165 340
34.03661 361
34.05672 405
34.07684 389
34.09695 381
34.11706 412
34.13718 459
34.15729 467
34.17741 470
34.19752 481
34.21763 441
34.23775 489
34.25786 442
34.27797 481
34.29809 432
34.3182 412
34.33831 416
34.35843 413
34.37854 448
34.39866 371
34.41877 370
34.43888 399
34.459 411
34.47911 407
34.49922 328
34.51934 379
34.53945 379
34.55957 364
34.57968 365
34.59979 343
34.61991 352
34.64002 348
34.66013 382
34.68025 322
34.70036 369
34.72047 336
34.74059 382
34.7607 395
34.78082 408
34.80093 424
34.82104 427
34.84116 459
34.86127 430
34.88138 408
34.9015 440
34.92161 450
34.94173 431
34.96184 464
34.98195 436
35.00207 425
35.02218 387
35.04229 398
35.06241 401
35.08252 354
35.10264 378
35.12275 366
35.14286 362
35.16298 367
35.18309 378
35.2032 426
35.22332 389
35.24343 442
35.26354 464
35.28366 429
35.30377 432
35.32389 479
35.344 433
35.36411 457
35.38423 422
35.40434 481
35.42445 442
35.44457 427
35.46468 404
35.4848 378
35.50491 368
35.52502 382
35.54514 351
35.56525 363
35.58536 324
35.60548 359
35.62559 333
35.64571 323
35.66582 315
35.68593 298
35.70605 349
35.72616 302
35.74627 305
35.76639 312
35.7865 291
35.80661 285
35.82673 273
35.84684 284
35.86696 292
35.88707 286
35.90718 279
35.9273 315
35.94741 275
35.96752 309
35.98764 266
36.00775 302
36.02787 311
36.04798 281
36.06809 305
36.08821 310
36.10832 316
36.12843 318
36.14855 316
36.16866 357
36.18878 361
36.20889 343
36.229 326
36.24912 331
36.26923 369
36.28934 387
36.30946 504
36.32957 484
36.34968 562
36.3698 592
36.38991 677
36.41003 833
36.43014 989
36.45025 1047
36.47037 1124
36.49048 1133
36.51059 1111
36.53071 969
36.55082 856
36.57094 768
36.59105 644
36.61116 618
36.63128 515
36.65139 488
36.6715 452
36.69162 386
36.71173 351
36.73184 390
36.75196 436
36.77207 347
36.79219 366
36.8123 397
36.83241 377
36.85253 374
36.87264 384
36.89275 386
36.91287 402
36.93298 381
36.9531 380
36.97321 398
36.99332 349
37.01344 344
37.03355 347
37.05366 380
37.07378 361
37.09389 316
37.11401 312
37.13412 313
37.15423 300
37.17435 297
37.19446 286
37.21457 308
37.23469 347
37.2548 333
37.27491 334
37.29503 366
37.31514 348
37.33526 374
37.35537 368
37.37548 352
37.3956 352
37.41571 368
37.43582 355
37.45594 341
37.47605 326
37.49617 355
37.51628 359
37.53639 294
37.55651 300
37.57662 330
37.59673 323
37.61685 338
37.63696 339
37.65708 281
37.67719 331
37.6973 328
37.71742 298
37.73753 264
37.75764 283
37.77776 252
37.79787 241
37.81798 247
37.8381 234
37.85821 231
37.87833 215
37.89844 228
37.91855 214
37.93867 228
37.95878 222
37.97889 223
37.99901 253
38.01912 249
38.03924 225
38.05935 213
38.07946 241
38.09958 247
38.11969 230
38.1398 249
38.15992 245
38.18003 249
38.20015 254
38.22026 231
38.24037 253
38.26049 239
38.2806 252
38.30071 242
38.32083 238
38.34094 244
38.36105 238
38.38117 276
38.40128 268
38.4214 272
38.44151 292
38.46162 304
38.48174 280
38.50185 288
38.52196 286
38.54208 291
38.56219 241
38.58231 267
38.60242 281
38.62253 256
38.64265 232
38.66276 256
38.68287 260
38.70299 288
38.7231 268
38.74321 265
38.76333 240
38.78344 263
38.80356 257
38.82367 288
38.84378 282
38.8639 262
38.88401 260
38.90412 245
38.92424 273
38.94435 238
38.96447 281
38.98458 256
39.00469 313
39.02481 247
39.04492 310
39.06503 314
39.08515 331
39.10526 326
39.12538 369
39.14549 338
39.1656 391
39.18572 377
39.20583 363
39.22594 400
39.24606 456
39.26617 491
39.28628 592
39.3064 690
39.32651 789
39.34663 851
39.36674 932
39.38685 1000
39.40697 1081
39.42708 1001
39.44719 935
39.46731 750
39.48742 730
39.50754 625
39.52765 580
39.54776 506
39.56788 448
39.58799 377
39.6081 305
39.62822 322
39.64833 255
39.66845 284
39.68856 294
39.70867 268
39.72879 291
39.7489 285
39.76901 244
39.78913 291
39.80924 271
39.82935 252
39.84947 261
39.86958 276
39.8897 276
39.90981 263
39.92992 264
39.95004 265
39.97015 289
39.99026 293
40.01038 301
40.03049 298
40.05061 349
40.07072 328
40.09083 339
40.11095 399
40.13106 430
40.15117 490
40.17129 579
40.1914 538
40.21152 586
40.23163 611
40.25174 586
40.27186 546
40.29197 494
40.31208 430
40.3322 454
40.35231 405
40.37242 341
40.39254 298
40.41265 327
40.43277 250
40.45288 288
40.47299 248
40.49311 270
40.51322 262
40.53333 269
40.55345 284
40.57356 238
40.59368 264
40.61379 256
40.6339 258
40.65402 251
40.67413 256
40.69424 245
40.71436 227
40.73447 244
40.75458 274
40.7747 256
40.79481 228
40.81493 245
40.83504 236
40.85515 226
40.87527 215
40.89538 242
40.91549 239
40.93561 255
40.95572 257
40.97584 250
40.99595 246
41.01606 233
41.03618 252
41.05629 260
41.0764 234
41.09652 258
41.11663 245
41.13675 254
41.15686 252
41.17697 295
41.19709 293
41.2172 274
41.23731 291
41.25743 292
41.27754 255
41.29765 281
41.31777 232
41.33788 271
41.358 270
41.37811 272
41.39822 268
41.41834 297
41.43845 284
41.45856 325
41.47868 292
41.49879 303
41.51891 323
41.53902 329
41.55913 325
41.57925 319
41.59936 330
41.61947 342
41.63959 360
41.6597 394
41.67982 378
41.69993 394
41.72004 438
41.74016 414
41.76027 415
41.78038 353
41.8005 348
41.82061 348
41.84072 355
41.86084 346
41.88095 319
41.90107 344
41.92118 312
41.94129 308
41.96141 277
41.98152 276
42.00163 284
42.02175 298
42.04186 321
42.06198 260
42.08209 310
42.1022 313
42.12232 334
42.14243 346
42.16254 373
42.18266 413
42.20277 407
42.22289 463
42.243 484
42.26311 542
42.28323 539
42.30334 646
42.32345 743
42.34357 846
42.36368 827
42.38379 849
42.40391 767
42.42402 770
42.44414 671
42.46425 680
42.48436 602
42.50448 551
42.52459 526
42.5447 470
42.56482 405
42.58493 346
42.60505 355
42.62516 361
42.64527 353
42.66539 341
42.6855 324
42.70561 347
42.72573 321
42.74584 368
42.76595 331
42.78607 314
42.80618 315
42.8263 319
42.84641 338
42.86652 327
42.88664 296
42.90675 269
42.92686 285
42.94698 281
42.96709 257
42.98721 250
43.00732 257
43.02743 262
43.04755 242
43.06766 261
43.08777 241
43.10789 259
43.128 262
43.14812 243
43.16823 259
43.18834 242
43.20846 241
43.22857 246
43.24868 252
43.2688 220
43.28891 238
43.30902 241
43.32914 246
43.34925 212
43.36937 215
43.38948 245
43.40959 230
43.42971 246
43.44982 264
43.46993 246
43.49005 246
43.51016 233
43.53028 266
43.55039 236
43.5705 262
43.59062 248
43.61073 235
43.63084 222
43.65096 277
43.67107 219
43.69119 211
43.7113 233
43.73141 233
43.75153 201
43.77164 196
43.79175 240
43.81187 216
43.83198 201
43.85209 223
43.87221 215
43.89232 227
43.91244 216
43.93255 214
43.95266 188
43.97278 226
43.99289 191
44.013 204
44.03312 214
44.05323 217
44.07335 198
44.09346 228
44.11357 215
44.13369 218
44.1538 255
44.17391 230
44.19403 235
44.21414 196
44.23426 248
44.25437 218
44.27448 234
44.2946 188
44.31471 196
44.33482 222
44.35494 224
44.37505 222
44.39516 212
44.41528 202
44.43539 209
44.45551 216
44.47562 220
44.49573 257
44.51585 216
44.53596 226
44.55607 242
44.57619 228
44.5963 242
44.61642 194
44.63653 236
44.65664 210
44.67676 254
44.69687 216
44.71698 235
44.7371 210
44.75721 218
44.77732 223
44.79744 255
44.81755 243
44.83767 262
44.85778 252
44.87789 234
44.89801 235
44.91812 213
44.93823 227
44.95835 247
44.97846 242
44.99858 235
45.01869 254
45.0388 270
45.05892 237
45.07903 256
45.09914 248
45.11926 270
45.13937 219
45.15949 257
45.1796 255
45.19971 266
45.21983 291
45.23994 269
45.26005 277
45.28017 294
45.30028 267
45.32039 275
45.34051 305
45.36062 313
45.38074 301
45.40085 319
45.42096 347
45.44108 341
45.46119 336
45.4813 372
45.50142 336
45.52153 384
45.54165 377
45.56176 392
45.58187 442
45.60199 424
45.6221 524
45.64221 503
45.66233 593
45.68244 606
45.70256 615
45.72267 674
45.74278 627
45.7629 576
45.78301 540
45.80312 469
45.82324 456
45.84335 428
45.86346 400
45.88358 357
45.90369 367
45.92381 283
45.94392 247
45.96403 253
45.98415 228
46.00426 255
46.02437 241
46.04449 217
46.0646 266
46.08472 244
46.10483 223
46.12494 217
46.14506 223
46.16517 237
46.18528 214
46.2054 214
46.22551 242
46.24563 237
46.26574 232
46.28585 232
46.30597 207
46.32608 213
46.34619 215
46.36631 254
46.38642 218
46.40653 205
46.42665 199
46.44676 209
46.46688 223
46.48699 211
46.5071 222
46.52722 199
46.54733 205
46.56744 240
46.58756 219
46.60767 193
46.62779 218
46.6479 204
46.66801 233
46.68813 215
46.70824 197
46.72835 231
46.74847 226
46.76858 237
46.78869 221
46.80881 256
46.82892 218
46.84904 232
46.86915 222
46.88926 210
46.90938 230
46.92949 219
46.9496 252
46.96972 240
46.98983 247
47.00995 271
47.03006 283
47.05017 272
47.07029 265
47.0904 244
47.11051 234
47.13063 239
47.15074 236
47.17086 228
47.19097 228
47.21108 244
47.2312 213
47.25131 235
47.27142 228
47.29154 225
47.31165 245
47.33176 266
47.35188 206
47.37199 256
47.39211 229
47.41222 299
47.43233 247
47.45245 271
47.47256 263
47.49267 242
47.51279 221
47.5329 236
47.55302 235
47.57313 251
47.59324 237
47.61336 261
47.63347 231
47.65358 205
47.6737 203
47.69381 217
47.71393 243
47.73404 220
47.75415 237
47.77427 221
47.79438 232
47.81449 253
47.83461 231
47.85472 272
47.87483 242
47.89495 226
47.91506 248
47.93518 263
47.95529 246
47.9754 257
47.99552 271
48.01563 244
48.03574 256
48.05586 249
48.07597 243
48.09609 246
48.1162 246
48.13631 260
48.15643 270
48.17654 259
48.19665 258
48.21677 303
48.23688 296
48.257 278
48.27711 262
48.29722 254
48.31734 256
48.33745 272
48.35756 244
48.37768 268
48.39779 234
48.4179 238
48.43802 248
48.45813 249
48.47825 218
48.49836 266
48.51847 250
48.53859 225
48.5587 232
48.57881 249
48.59893 258
48.61904 207
48.63916 246
48.65927 254
48.67938 249
48.6995 237
48.71961 263
48.73972 223
48.75984 240
48.77995 237
48.80006 253
48.82018 274
48.84029 234
48.86041 276
48.88052 276
48.90063 268
48.92075 259
48.94086 303
48.96097 246
48.98109 275
49.0012 271
49.02132 282
49.04143 267
49.06154 304
49.08166 298
49.10177 276
49.12188 313
49.142 304
49.16211 289
49.18223 306
49.20234 286
49.22245 278
49.24257 287
49.26268 260
49.28279 258
49.30291 280
49.32302 259
49.34313 251
49.36325 230
49.38336 257
49.40348 244
49.42359 255
49.4437 244
49.46382 266
49.48393 244
49.50404 298
49.52416 273
49.54427 273
49.56439 277
49.5845 319
49.60461 336
49.62473 304
49.64484 327
49.66495 345
49.68507 385
49.70518 390
49.7253 394
49.74541 421
49.76552 425
49.78564 484
49.80575 476
49.82586 550
49.84598 549
49.86609 582
49.8862 691
49.90632 745
49.92643 782
49.94655 899
49.96666 1031
49.98677 1102
50.00689 1275
50.027 1443
50.04711 1527
50.06723 1501
50.08734 1564
50.10746 1376
50.12757 1197
50.14768 1031
50.1678 937
50.18791 891
50.20802 863
50.22814 760
50.24825 633
50.26837 506
50.28848 439
50.30859 357
50.32871 357
50.34882 343
50.36893 328
50.38905 383
50.40916 350
50.42927 388
50.44939 376
50.4695 387
50.48962 398
50.50973 397
50.52984 408
50.54996 392
50.57007 357
50.59018 345
50.6103 396
50.63041 356
50.65053 353
50.67064 337
50.69075 330
50.71087 334
50.73098 311
50.75109 319
50.77121 268
50.79132 283
50.81143 278
50.83155 256
50.85166 260
50.87178 269
50.89189 268
50.912 281
50.93212 260
50.95223 303
50.97234 283
50.99246 277
51.01257 295
51.03269 301
51.0528 331
51.07291 293
51.09303 311
51.11314 326
51.13325 303
51.15337 319
51.17348 310
51.1936 303
51.21371 309
51.23382 293
51.25394 311
51.27405 329
51.29416 320
51.31428 299
51.33439 278
51.3545 274
51.37462 273
51.39473 250
51.41485 265
51.43496 250
51.45507 217
51.47519 254
51.4953 216
51.51541 210
51.53553 250
51.55564 229
51.57576 227
51.59587 219
51.61598 190
51.6361 252
51.65621 215
51.67632 189
51.69644 194
51.71655 197
51.73667 229
51.75678 205
51.77689 210
51.79701 196
51.81712 207
51.83723 223
51.85735 195
51.87746 197
51.89757 216
51.91769 199
51.9378 223
51.95792 211
51.97803 232
51.99814 228
52.01826 220
52.03837 242
52.05848 248
52.0786 252
52.09871 217
52.11883 246
52.13894 199
52.15905 231
52.17917 225
52.19928 222
52.21939 222
52.23951 241
52.25962 217
52.27974 246
52.29985 237
52.31996 216
52.34008 248
52.36019 247
52.3803 253
52.40042 231
52.42053 235
52.44064 269
52.46076 257
52.48087 259
52.50099 245
52.5211 248
52.54121 257
52.56133 257
52.58144 239
52.60155 248
52.62167 253
52.64178 269
52.6619 239
52.68201 244
52.70212 279
52.72224 240
52.74235 217
52.76246 227
52.78258 221
52.80269 237
52.8228 257
52.84292 245
52.86303 242
52.88315 257
52.90326 264
52.92337 245
52.94349 248
52.9636 259
52.98371 208
53.00383 263
53.02394 262
53.04406 259
53.06417 254
53.08428 230
53.1044 256
53.12451 249
53.14462 274
53.16474 251
53.18485 278
53.20497 277
53.22508 225
53.24519 264
53.26531 282
53.28542 284
53.30553 223
53.32565 233
53.34576 227
53.36587 209
53.38599 237
53.4061 209
53.42622 213
53.44633 228
53.46644 210
53.48656 237
53.50667 223
53.52678 241
53.5469 219
53.56701 234
53.58713 213
53.60724 233
53.62735 226
53.64747 222
53.66758 242
53.68769 223
53.70781 213
53.72792 223
53.74804 228
53.76815 235
53.78826 212
53.80838 257
53.82849 222
53.8486 243
53.86872 246
53.88883 234
53.90894 212
53.92906 226
53.94917 225
53.96929 258
53.9894 237
54.00951 240
54.02963 235
54.04974 209
54.06985 240
54.08997 239
54.11008 255
54.1302 240
54.15031 210
54.17042 261
54.19054 263
54.21065 274
54.23076 250
54.25088 267
54.27099 230
54.29111 255
54.31122 245
54.33133 242
54.35145 238
54.37156 276
54.39167 234
54.41179 281
54.4319 273
54.45201 270
54.47213 258
54.49224 256
54.51236 264
54.53247 280
54.55258 262
54.5727 292
54.59281 322
54.61292 309
54.63304 293
54.65315 337
54.67327 391
54.69338 470
54.71349 479
54.73361 543
54.75372 566
54.77383 536
54.79395 629
54.81406 588
54.83417 584
54.85429 496
54.8744 483
54.89452 421
54.91463 431
54.93474 424
54.95486 460
54.97497 394
54.99508 389
55.0152 374
55.03531 358
55.05543 313
55.07554 299
55.09565 336
55.11577 323
55.13588 356
55.15599 373
55.17611 357
55.19622 369
55.21634 409
55.23645 408
55.25656 401
55.27668 401
55.29679 375
55.3169 349
55.33702 323
55.35713 306
55.37724 339
55.39736 327
55.41747 307
55.43759 297
55.4577 311
55.47781 288
55.49793 299
55.51804 245
55.53815 264
55.55827 263
55.57838 270
55.5985 241
55.61861 228
55.63872 242
55.65884 246
55.67895 233
55.69906 247
55.71918 241
55.73929 251
55.75941 226
55.77952 242
55.79963 246
55.81975 237
55.83986 264
55.85997 228
55.88009 224
55.9002 254
55.92031 241
55.94043 254
55.96054 240
55.98066 242
56.00077 251
56.02088 282
56.041 268
56.06111 267
56.08122 246
56.10134 262
56.12145 236
56.14157 264
56.16168 233
56.18179 230
56.20191 231
56.22202 228
56.24213 239
56.26225 242
56.28236 222
56.30248 220
56.32259 235
56.3427 219
56.36282 225
56.38293 219
56.40304 231
56.42316 239
56.44327 216
56.46338 222
56.4835 242
56.50361 227
56.52373 225
56.54384 226
56.56395 227
56.58407 229
56.60418 218
56.62429 229
56.64441 240
56.66452 208
56.68464 229
56.70475 237
56.72486 230
56.74498 248
56.76509 246
56.7852 221
56.80532 207
56.82543 206
56.84554 222
56.86566 233
56.88577 207
56.90589 221
56.926 198
56.94611 216
56.96623 203
56.98634 230
57.00645 205
57.02657 203
57.04668 196
57.0668 220
57.08691 231
57.10702 227
57.12714 230
57.14725 236
57.16736 231
57.18748 235
57.20759 226
57.22771 244
57.24782 242
57.26793 240
57.28805 249
57.30816 214
57.32827 217
57.34839 218
57.3685 240
57.38861 240
57.40873 238
57.42884 214
57.44896 232
57.46907 238
57.48918 214
57.5093 220
57.52941 229
57.54952 218
57.56964 209
57.58975 217
57.60987 184
57.62998 222
57.65009 225
57.67021 214
57.69032 214
57.71043 211
57.73055 214
57.75066 211
57.77078 208
57.79089 218
57.811 215
57.83112 201
57.85123 244
57.87134 226
57.89146 229
57.91157 226
57.93168 244
57.9518 233
57.97191 217
57.99203 215
58.01214 244
58.03225 222
58.05237 244
58.07248 222
58.09259 222
58.11271 227
58.13282 217
58.15294 242
58.17305 249
58.19316 245
58.21328 252
58.23339 243
58.2535 225
58.27362 251
58.29373 228
58.31385 251
58.33396 263
58.35407 248
58.37419 232
58.3943 270
58.41441 265
58.43453 244
58.45464 250
58.47475 260
58.49487 248
58.51498 284
58.5351 260
58.55521 239
58.57532 245
58.59544 262
58.61555 247
58.63566 249
58.65578 220
58.67589 236
58.69601 249
58.71612 252
58.73623 209
58.75635 221
58.77646 208
58.79657 226
58.81669 225
58.8368 216
58.85691 209
58.87703 245
58.89714 213
58.91726 209
58.93737 232
58.95748 205
58.9776 196
58.99771 229
59.01782 179
59.03794 233
59.05805 211
59.07817 231
59.09828 217
59.11839 215
59.13851 222
59.15862 239
59.17873 249
59.19885 224
59.21896 243
59.23908 238
59.25919 209
59.2793 232
59.29942 228
59.31953 246
59.33964 231
59.35976 226
59.37987 247
59.39998 226
59.4201 224
59.44021 257
59.46033 227
59.48044 291
59.50055 271
59.52067 277
59.54078 280
59.56089 268
59.58101 324
59.60112 304
59.62124 303
59.64135 332
59.66146 399
59.68158 389
59.70169 457
59.7218 512
59.74192 575
59.76203 618
59.78215 714
59.80226 793
59.82237 875
59.84249 973
59.8626 1036
59.88271 1060
59.90283 1011
59.92294 962
59.94305 874
59.96317 643
59.98328 687
60.0034 612
60.02351 649
60.04362 624
60.06374 584
60.08385 545
60.10396 492
60.12408 413
60.14419 391
60.16431 361
60.18442 328
60.20453 320
60.22465 311
60.24476 287
60.26487 302
60.28499 292
60.3051 281
60.32522 285
60.34533 296
60.36544 272
60.38556 279
60.40567 262
60.42578 288
60.4459 266
60.46601 242
60.48612 275
60.50624 264
60.52635 250
60.54647 240
60.56658 227
60.58669 250
60.60681 220
60.62692 230
60.64703 268
60.66715 258
60.68726 209
60.70738 219
60.72749 222
60.7476 258
60.76772 263
60.78783 220
60.80794 226
60.82806 206
60.84817 209
60.86828 221
60.8884 220
60.90851 218
60.92863 241
60.94874 219
60.96885 243
60.98897 248
61.00908 266
61.02919 223
61.04931 253
61.06942 241
61.08954 236
61.10965 251
61.12976 290
61.14988 273
61.16999 253
61.1901 243
61.21022 256
61.23033 278
61.25045 251
61.27056 257
61.29067 269
61.31079 246
61.3309 263
61.35101 254
61.37113 245
61.39124 266
61.41135 283
61.43147 257
61.45158 268
61.4717 260
61.49181 279
61.51192 253
61.53204 263
61.55215 271
61.57226 271
61.59238 228
61.61249 224
61.63261 254
61.65272 253
61.67283 244
61.69295 255
61.71306 277
61.73317 246
61.75329 267
61.7734 259
61.79352 234
61.81363 238
61.83374 214
61.85386 237
61.87397 239
61.89408 229
61.9142 248
61.93431 231
61.95442 220
61.97454 232
61.99465 231
62.01477 236
62.03488 216
62.05499 215
62.07511 247
62.09522 218
62.11533 207
62.13545 221
62.15556 215
62.17568 205
62.19579 243
62.2159 215
62.23602 251
62.25613 233
62.27624 217
62.29636 206
62.31647 218
62.33659 234
62.3567 198
62.37681 232
62.39693 210
62.41704 217
62.43715 222
62.45727 218
62.47738 247
62.49749 236
62.51761 237
62.53772 243
62.55784 212
62.57795 221
62.59806 202
62.61818 251
62.63829 220
62.6584 215
62.67852 245
62.69863 218
62.71875 201
62.73886 217
62.75897 234
62.77909 240
62.7992 221
62.81931 244
62.83943 240
62.85954 210
62.87965 232
62.89977 243
62.91988 250
62.94 245
62.96011 216
62.98022 242
63.00034 266
63.02045 229
63.04056 253
63.06068 199
63.08079 240
63.10091 253
63.12102 219
63.14113 229
63.16125 229
63.18136 245
63.20147 226
63.22159 229
63.2417 241
63.26182 230
63.28193 236
63.30204 239
63.32216 244
63.34227 229
63.36238 271
63.3825 250
63.40261 254
63.42272 239
63.44284 279
63.46295 252
63.48307 281
63.50318 253
63.52329 254
63.54341 262
63.56352 284
63.58363 263
63.60375 304
63.62386 299
63.64398 325
63.66409 272
63.6842 340
63.70432 289
63.72443 286
63.74454 301
63.76466 336
63.78477 305
63.80489 315
63.825 359
63.84511 320
63.86523 379
63.88534 357
63.90545 371
63.92557 396
63.94568 430
63.96579 436
63.98591 355
64.00602 379
64.02614 302
64.04625 295
64.06636 304
64.08648 308
64.10659 313
64.1267 272
64.14682 271
64.16693 259
64.18705 242
64.20716 238
64.22727 239
64.24739 190
64.2675 190
64.28761 227
64.30773 188
64.32784 212
64.34796 183
64.36807 197
64.38818 187
64.4083 215
64.42841 181
64.44852 196
64.46864 219
64.48875 193
64.50886 169
64.52898 211
64.54909 197
64.56921 189
64.58932 217
64.60943 220
64.62955 222
64.64966 207
64.66977 203
64.68989 216
64.71 213
64.73012 218
64.75023 208
64.77034 209
64.79046 220
64.81057 192
64.83068 200
64.8508 228
64.87091 243
64.89102 215
64.91114 220
64.93125 236
64.95137 233
64.97148 219
64.99159 262
65.01171 221
65.03182 221
65.05193 222
65.07205 222
65.09216 244
65.11228 253
65.13239 222
65.1525 233
65.17262 249
65.19273 244
65.21284 236
65.23296 253
65.25307 232
65.27319 220
65.2933 253
65.31341 262
65.33353 233
65.35364 220
65.37375 234
65.39387 237
65.41398 236
65.43409 221
65.45421 216
65.47432 221
65.49444 237
65.51455 217
65.53466 227
65.55478 234
65.57489 245
65.595 244
65.61512 232
65.63523 209
65.65535 263
65.67546 231
65.69557 244
65.71569 223
65.7358 225
65.75591 216
65.77603 227
65.79614 201
65.81626 207
65.83637 209
65.85648 226
65.8766 221
65.89671 236
65.91682 196
65.93694 210
65.95705 213
65.97716 212
65.99728 224
66.01739 209
66.03751 230
66.05762 214
66.07773 217
66.09785 227
66.11796 223
66.13807 238
66.15819 228
66.1783 219
66.19842 234
66.21853 261
66.23864 259
66.25876 219
66.27887 225
66.29898 251
66.3191 252
66.33921 211
66.35933 231
66.37944 214
66.39955 225
66.41967 231
66.43978 232
66.45989 200
66.48001 199
66.50012 226
66.52023 202
66.54035 215
66.56046 194
66.58058 216
66.60069 185
66.6208 213
66.64092 194
66.66103 195
66.68114 199
66.70126 196
66.72137 223
66.74149 212
66.7616 200
66.78171 203
66.80183 207
66.82194 235
66.84205 207
66.86217 216
66.88228 225
66.90239 205
66.92251 218
66.94262 220
66.96274 230
66.98285 225
67.00296 237
67.02308 241
67.04319 258
67.0633 252
67.08342 249
67.10353 239
67.12365 253
67.14376 231
67.16387 228
67.18399 215
67.2041 244
67.22421 265
67.24433 241
67.26444 228
67.28456 254
67.30467 239
67.32478 249
67.3449 285
67.36501 269
67.38512 280
67.40524 264
67.42535 311
67.44546 315
67.46558 352
67.48569 348
67.50581 391
67.52592 423
67.54603 457
67.56615 505
67.58626 613
67.60637 622
67.62649 672
67.6466 718
67.66672 679
67.68683 671
67.70694 615
67.72706 575
67.74717 496
67.76728 490
67.7874 507
67.80751 558
67.82763 562
67.84774 571
67.86785 603
67.88797 603
67.90808 587
67.92819 576
67.94831 569
67.96842 642
67.98853 701
68.00865 711
68.02876 791
68.04888 869
68.06899 865
68.0891 902
68.10922 825
68.12933 806
68.14944 775
68.16956 802
68.18967 794
68.20979 803
68.2299 780
68.25001 769
68.27013 759
68.29024 657
68.31035 590
68.33047 567
68.35058 483
68.3707 460
68.39081 374
68.41092 409
68.43104 378
68.45115 373
68.47126 354
68.49138 308
68.51149 297
68.5316 289
68.55172 244
68.57183 233
68.59195 240
68.61206 238
68.63217 239
68.65229 247
68.6724 227
68.69251 209
68.71263 211
68.73274 265
68.75286 231
68.77297 228
68.79308 210
68.8132 212
68.83331 232
68.85342 243
68.87354 207
68.89365 226
68.91376 222
68.93388 229
68.95399 246
68.97411 227
68.99422 226
69.01433 197
69.03445 246
69.05456 205
69.07467 229
69.09479 218
69.1149 245
69.13502 242
69.15513 260
69.17524 249
69.19536 208
69.21547 240
69.23558 234
69.2557 257
69.27581 234
69.29593 248
69.31604 229
69.33615 245
69.35627 245
69.37638 246
69.39649 248
69.41661 212
69.43672 227
69.45683 249
69.47695 250
69.49706 225
69.51718 222
69.53729 236
69.5574 218
69.57752 233
69.59763 235
69.61774 220
69.63786 231
69.65797 242
69.67809 203
69.6982 226
69.71831 237
69.73843 233
69.75854 226
69.77865 218
69.79877 228
69.81888 221
69.839 220
69.85911 226
69.87922 220
69.89934 222
69.91945 211
69.93956 222
69.95968 210
69.97979 204
69.9999 214
70.02002 220
70.04013 231
70.06025 193
70.08036 229
70.10047 209
70.12059 198
70.1407 221
70.16081 186
70.18093 180
70.20104 187
70.22116 201
70.24127 198
70.26138 178
70.2815 189
70.30161 176
70.32172 186
70.34184 210
70.36195 192
70.38207 166
70.40218 181
70.42229 189
70.44241 200
70.46252 195
70.48263 160
70.50275 198
70.52286 193
70.54297 192
70.56309 201
70.5832 202
70.60332 211
70.62343 199
70.64354 216
70.66366 198
70.68377 190
70.70388 209
70.724 206
70.74411 194
70.76423 212
70.78434 200
70.80445 214
70.82457 201
70.84468 201
70.86479 197
70.88491 199
70.90502 201
70.92513 222
70.94525 201
70.96536 199
70.98548 221
71.00559 208
71.0257 214
71.04582 242
71.06593 228
71.08604 231
71.10616 230
71.12627 191
71.14639 217
71.1665 222
71.18661 210
71.20673 224
71.22684 232
71.24695 208
71.26707 215
71.28718 227
71.3073 220
71.32741 193
71.34752 186
71.36764 222
71.38775 214
71.40786 228
71.42798 224
71.44809 221
71.4682 202
71.48832 191
71.50843 223
71.52855 200
71.54866 201
71.56877 231
71.58889 208
71.609 201
71.62911 195
71.64923 195
71.66934 215
71.68946 202
71.70957 183
71.72968 204
71.7498 193
71.76991 200
71.79002 181
71.81014 173
71.83025 193
71.85037 207
71.87048 170
71.89059 202
71.91071 183
71.93082 182
71.95093 191
71.97105 195
71.99116 206
72.01127 190
72.03139 222
72.0515 205
72.07162 195
72.09173 214
72.11184 202
72.13196 212
72.15207 191
72.17218 208
72.1923 211
72.21241 208
72.23253 196
72.25264 204
72.27275 233
72.29287 207
72.31298 199
72.33309 205
72.35321 188
72.37332 190
72.39344 203
72.41355 200
72.43366 195
72.45378 198
72.47389 206
72.494 192
72.51412 194
72.53423 199
72.55434 164
72.57446 218
72.59457 201
72.61469 199
72.6348 196
72.65491 202
72.67503 216
72.69514 190
72.71525 202
72.73537 185
72.75548 209
72.7756 193
72.79571 198
72.81582 221
72.83594 188
72.85605 179
72.87616 194
72.89628 179
72.91639 213
72.9365 205
72.95662 209
72.97673 237
72.99685 228
73.01696 203
73.03707 209
73.05719 213
73.0773 232
73.09741 196
73.11753 229
73.13764 242
73.15776 228
73.17787 244
73.19798 212
73.2181 269
73.23821 249
73.25832 260
73.27844 291
73.29855 302
73.31867 339
73.33878 320
73.35889 339
73.37901 330
73.39912 346
73.41923 296
73.43935 318
73.45946 285
73.47957 326
73.49969 270
73.5198 267
73.53992 259
73.56003 294
73.58014 289
73.60026 272
73.62037 256
73.64048 265
73.6606 253
73.68071 238
73.70083 217
73.72094 217
73.74105 202
73.76117 186
73.78128 235
73.80139 232
73.82151 203
73.84162 198
73.86174 202
73.88185 233
73.90196 238
73.92208 206
73.94219 213
73.9623 188
73.98242 218
74.00253 198
74.02264 177
74.04276 182
74.06287 190
74.08299 197
74.1031 173
74.12321 201
74.14333 192
74.16344 202
74.18355 228
74.20367 194
74.22378 214
74.2439 181
74.26401 179
74.28412 203
74.30424 182
74.32435 217
74.34446 196
74.36458 217
74.38469 200
74.40481 206
74.42492 213
74.44503 207
74.46515 193
74.48526 222
74.50537 211
74.52549 219
74.5456 197
74.56571 218
74.58583 221
74.60594 201
74.62606 249
74.64617 203
74.66628 243
74.6864 244
74.70651 214
74.72662 227
74.74674 215
74.76685 240
74.78697 216
74.80708 201
74.82719 246
74.84731 229
74.86742 215
74.88753 213
74.90765 211
74.92776 226
74.94787 213
74.96799 206
74.9881 194
75.00822 240
