3.00117 21170
3.02128 20822
3.0414 20223
3.06151 20245
3.08162 19411
3.10174 18873
3.12185 18470
3.14197 17498
3.16208 17390
3.18219 17140
3.20231 16343
3.22242 16085
3.24253 15320
3.26265 14786
3.28276 14531
3.30288 13909
3.32299 13557
3.3431 13174
3.36322 12896
3.38333 12521
3.40344 11815
3.42356 11687
3.44367 11295
3.46379 10913
3.4839 10635
3.50401 10078
3.52413 9886
3.54424 9443
3.56435 9168
3.58447 9012
3.60458 8380
3.62469 8259
3.64481 7880
3.66492 7577
3.68504 7503
3.70515 6941
3.72526 6921
3.74538 6621
3.76549 6388
3.7856 6293
3.80572 5715
3.82583 5669
3.84595 5338
3.86606 5235
3.88617 4959
3.90629 4623
3.9264 4579
3.94651 4351
3.96663 4173
3.98674 4129
4.00686 3588
4.02697 3777
4.04708 3597
4.0672 3443
4.08731 3420
4.10742 3137
4.12754 3003
4.14765 2830
4.16776 2820
4.18788 2801
4.20799 2483
4.22811 2508
4.24822 2453
4.26833 2353
4.28845 2375
4.30856 2159
4.32867 2151
4.34879 2065
4.3689 2060
4.38902 2036
4.40913 1816
4.42924 1872
4.44936 1841
4.46947 1779
4.48958 1893
4.5097 1642
4.52981 1664
4.54992 1741
4.57004 1691
4.59015 1608
4.61027 1461
4.63038 1536
4.65049 1433
4.67061 1545
4.69072 1511
4.71083 1316
4.73095 1439
4.75106 1371
4.77118 1320
4.79129 1305
4.8114 1292
4.83152 1308
4.85163 1330
4.87174 1295
4.89186 1280
4.91197 1212
4.93209 1162
4.9522 1175
4.97231 1136
4.99243 1158
5.01254 1038
5.03265 1100
5.05277 1109
5.07288 1048
5.09299 1053
5.11311 1002
5.13322 961
5.15334 1021
5.17345 951
5.19356 947
5.21368 994
5.23379 959
5.2539 970
5.27402 908
5.29413 883
5.31425 924
5.33436 896
5.35447 889
5.37459 860
5.3947 865
5.41481 859
5.43493 849
5.45504 854
5.47516 849
5.49527 791
5.51538 833
5.5355 781
5.55561 818
5.57572 808
5.59584 735
5.61595 782
5.63606 774
5.65618 693
5.67629 732
5.69641 681
5.71652 724
5.73663 712
5.75675 717
5.77686 680
5.79697 681
5.81709 650
5.8372 700
5.85732 673
5.87743 676
5.89754 643
5.91766 673
5.93777 674
5.95788 668
5.978 652
5.99811 657
6.01823 671
6.03834 636
6.05845 617
6.07857 646
6.09868 650
6.11879 697
6.13891 663
6.15902 673
6.17913 647
6.19925 607
6.21936 644
6.23948 703
6.25959 715
6.2797 667
6.29982 648
6.31993 637
6.34004 621
6.36016 652
6.38027 649
6.40039 650
6.4205 626
6.44061 624
6.46073 634
6.48084 673
6.50095 612
6.52107 656
6.54118 655
6.56129 621
6.58141 615
6.60152 569
6.62164 586
6.64175 603
6.66186 642
6.68198 623
6.70209 657
6.7222 617
6.74232 641
6.76243 627
6.78255 591
6.80266 620
6.82277 597
6.84289 620
6.863 603
6.88311 615
6.90323 607
6.92334 609
6.94346 704
6.96357 594
6.98368 614
7.0038 616
7.02391 614
7.04402 608
7.06414 595
7.08425 606
7.10436 622
7.12448 604
7.14459 598
7.16471 646
7.18482 613
7.20493 651
7.22505 573
7.24516 591
7.26527 597
7.28539 597
7.3055 584
7.32562 644
7.34573 642
7.36584 580
7.38596 612
7.40607 565
7.42618 627
7.4463 591
7.46641 640
7.48653 609
7.50664 592
7.52675 558
7.54687 591
7.56698 629
7.58709 616
7.60721 608
7.62732 644
7.64743 610
7.66755 607
7.68766 573
7.70778 608
7.72789 604
7.748 538
7.76812 577
7.78823 587
7.80834 575
7.82846 624
7.84857 625
7.86869 619
7.8888 598
7.90891 603
7.92903 591
7.94914 592
7.96925 562
7.98937 604
8.00948 633
8.0296 618
8.04971 626
8.06982 607
8.08994 667
8.11005 610
8.13016 590
8.15028 572
8.17039 647
8.1905 596
8.21062 604
8.23073 622
8.25085 557
8.27096 610
8.29107 559
8.31119 518
8.3313 660
8.35141 605
8.37153 616
8.39164 631
8.41176 583
8.43187 588
8.45198 646
8.4721 650
8.49221 634
8.51232 637
8.53244 633
8.55255 608
8.57266 649
8.59278 584
8.61289 650
8.63301 648
8.65312 640
8.67323 565
8.69335 592
8.71346 608
8.73357 603
8.75369 598
8.7738 590
8.79392 623
8.81403 604
8.83414 613
8.85426 599
8.87437 565
8.89448 659
8.9146 642
8.93471 537
8.95483 640
8.97494 613
8.99505 628
9.01517 604
9.03528 625
9.05539 676
9.07551 615
9.09562 642
9.11573 665
9.13585 586
9.15596 612
9.17608 578
9.19619 629
9.2163 637
9.23642 587
9.25653 631
9.27664 593
9.29676 609
9.31687 580
9.33699 618
9.3571 559
9.37721 623
9.39733 560
9.41744 617
9.43755 638
9.45767 590
9.47778 603
9.4979 645
9.51801 616
9.53812 619
9.55824 615
9.57835 635
9.59846 618
9.61858 610
9.63869 555
9.6588 596
9.67892 622
9.69903 619
9.71915 630
9.73926 610
9.75937 580
9.77949 626
9.7996 599
9.81971 596
9.83983 621
9.85994 568
9.88006 583
9.90017 671
9.92028 606
9.9404 584
9.96051 630
9.98062 582
10.00074 608
10.02085 624
10.04097 653
10.06108 654
10.08119 560
10.10131 594
10.12142 624
10.14153 594
10.16165 617
10.18176 598
10.20187 586
10.22199 571
10.2421 624
10.26222 643
10.28233 624
10.30244 661
10.32256 587
10.34267 659
10.36278 609
10.3829 627
10.40301 570
10.42313 617
10.44324 631
10.46335 579
10.48347 565
10.50358 603
10.52369 643
10.54381 579
10.56392 592
10.58403 588
10.60415 580
10.62426 624
10.64438 607
10.66449 622
10.6846 645
10.70472 591
10.72483 615
10.74494 633
10.76506 578
10.78517 594
10.80529 616
10.8254 577
10.84551 599
10.86563 648
10.88574 613
10.90585 631
10.92597 682
10.94608 596
10.9662 651
10.98631 639
11.00642 605
11.02654 597
11.04665 563
11.06676 649
11.08688 635
11.10699 592
11.1271 610
11.14722 617
11.16733 599
11.18745 624
11.20756 617
11.22767 600
11.24779 619
11.2679 613
11.28801 606
11.30813 563
11.32824 609
11.34836 713
11.36847 646
11.38858 663
11.4087 570
11.42881 572
11.44892 607
11.46904 622
11.48915 644
11.50927 609
11.52938 585
11.54949 632
11.56961 619
11.58972 622
11.60983 650
11.62995 647
11.65006 650
11.67017 612
11.69029 678
11.7104 615
11.73052 610
11.75063 597
11.77074 638
11.79086 695
11.81097 705
11.83108 717
11.8512 692
11.87131 731
11.89143 726
11.91154 739
11.93165 747
11.95177 759
11.97188 689
11.99199 751
12.01211 770
12.03222 785
12.05234 748
12.07245 734
12.09256 787
12.11268 864
12.13279 876
12.1529 898
12.17302 937
12.19313 946
12.21324 973
12.23336 1006
12.25347 1051
12.27359 1037
12.2937 991
12.31381 1046
12.33393 1001
12.35404 976
12.37415 993
12.39427 978
12.41438 951
12.4345 931
12.45461 923
12.47472 897
12.49484 820
12.51495 774
12.53506 871
12.55518 761
12.57529 674
12.5954 717
12.61552 708
12.63563 735
12.65575 710
12.67586 714
12.69597 658
12.71609 685
12.7362 683
12.75631 635
12.77643 634
12.79654 647
12.81666 627
12.83677 658
12.85688 641
12.877 655
12.89711 669
12.91722 629
12.93734 603
12.95745 635
12.97757 634
12.99768 639
13.01779 571
13.03791 620
13.05802 621
13.07813 604
13.09825 609
13.11836 675
13.13847 637
13.15859 584
13.1787 641
13.19882 595
13.21893 619
13.23904 604
13.25916 594
13.27927 572
13.29938 547
13.3195 618
13.33961 615
13.35973 599
13.37984 582
13.39995 555
13.42007 605
13.44018 618
13.46029 597
13.48041 626
13.50052 558
13.52064 631
13.54075 598
13.56086 604
13.58098 546
13.60109 640
13.6212 577
13.64132 597
13.66143 565
13.68154 581
13.70166 619
13.72177 598
13.74189 560
13.762 571
13.78211 561
13.80223 614
13.82234 597
13.84245 615
13.86257 628
13.88268 598
13.9028 586
13.92291 565
13.94302 564
13.96314 604
13.98325 644
14.00336 554
14.02348 535
14.04359 540
14.06371 602
14.08382 554
14.10393 581
14.12405 655
14.14416 591
14.16427 604
14.18439 589
14.2045 595
14.22461 589
14.24473 586
14.26484 610
14.28496 615
14.30507 566
14.32518 585
14.3453 585
14.36541 582
14.38552 515
14.40564 579
14.42575 588
14.44587 566
14.46598 574
14.48609 545
14.50621 618
14.52632 621
14.54643 614
14.56655 591
14.58666 571
14.60677 605
14.62689 597
14.647 590
14.66712 632
14.68723 563
14.70734 603
14.72746 592
14.74757 597
14.76768 578
14.7878 582
14.80791 606
14.82803 614
14.84814 576
14.86825 606
14.88837 603
14.90848 588
14.92859 661
14.94871 569
14.96882 577
14.98894 545
15.00905 576
15.02916 537
15.04928 589
15.06939 596
15.0895 572
15.10962 620
15.12973 603
15.14984 547
15.16996 616
15.19007 555
15.21019 638
15.2303 585
15.25041 607
15.27053 585
15.29064 597
15.31075 596
15.33087 594
15.35098 621
15.3711 582
15.39121 580
15.41132 596
15.43144 597
15.45155 610
15.47166 589
15.49178 588
15.51189 633
15.53201 589
15.55212 581
15.57223 565
15.59235 598
15.61246 592
15.63257 562
15.65269 562
15.6728 569
15.69291 626
15.71303 570
15.73314 576
15.75326 626
15.77337 592
15.79348 558
15.8136 608
15.83371 597
15.85382 619
15.87394 559
15.89405 578
15.91417 574
15.93428 574
15.95439 581
15.97451 599
15.99462 554
16.01473 572
16.03485 586
16.05496 578
16.07508 603
16.09519 575
16.1153 559
16.13542 615
16.15553 582
16.17564 569
16.19576 603
16.21587 597
16.23598 598
16.2561 605
16.27621 597
16.29633 588
16.31644 596
16.33655 573
16.35667 600
16.37678 557
16.39689 577
16.41701 604
16.43712 579
16.45724 599
16.47735 596
16.49746 603
16.51758 596
16.53769 559
16.5578 588
16.57792 556
16.59803 592
16.61814 586
16.63826 627
16.65837 605
16.67849 577
16.6986 575
16.71871 590
16.73883 600
16.75894 649
16.77905 552
16.79917 585
16.81928 608
16.8394 582
16.85951 642
16.87962 559
16.89974 572
16.91985 600
16.93996 615
16.96008 580
16.98019 579
17.00031 614
17.02042 557
17.04053 619
17.06065 587
17.08076 576
17.10087 578
17.12099 551
17.1411 594
17.16121 574
17.18133 603
17.20144 612
17.22156 597
17.24167 597
17.26178 598
17.2819 567
17.30201 596
17.32212 583
17.34224 584
17.36235 594
17.38247 603
17.40258 609
17.42269 576
17.44281 601
17.46292 597
17.48303 604
17.50315 600
17.52326 569
17.54338 645
17.56349 629
17.5836 617
17.60372 628
17.62383 619
17.64394 640
17.66406 605
17.68417 631
17.70428 605
17.7244 585
17.74451 652
17.76463 628
17.78474 615
17.80485 581
17.82497 625
17.84508 632
17.86519 613
17.88531 637
17.90542 651
17.92554 654
17.94565 676
17.96576 610
17.98588 659
18.00599 622
18.0261 648
18.04622 644
18.06633 680
18.08645 676
18.10656 721
18.12667 690
18.14679 733
18.1669 770
18.18701 804
18.20713 865
18.22724 1047
18.24735 1076
18.26747 1102
18.28758 1152
18.3077 1081
18.32781 953
18.34792 950
18.36804 817
18.38815 723
18.40826 696
18.42838 651
18.44849 692
18.46861 630
18.48872 637
18.50883 665
18.52895 628
18.54906 662
18.56917 590
18.58929 572
18.6094 624
18.62951 659
18.64963 583
18.66974 618
18.68986 574
18.70997 601
18.73008 621
18.7502 626
18.77031 626
18.79042 623
18.81054 585
18.83065 632
18.85077 622
18.87088 620
18.89099 584
18.91111 570
18.93122 618
18.95133 594
18.97145 588
18.99156 624
19.01168 641
19.03179 628
19.0519 603
19.07202 600
19.09213 621
19.11224 578
19.13236 636
19.15247 565
19.17258 614
19.1927 614
19.21281 579
19.23293 600
19.25304 585
19.27315 658
19.29327 586
19.31338 606
19.33349 650
19.35361 624
19.37372 634
19.39384 585
19.41395 628
19.43406 669
19.45418 618
19.47429 657
19.4944 627
19.51452 679
19.53463 654
19.55475 662
19.57486 637
19.59497 661
19.61509 664
19.6352 673
19.65531 665
19.67543 689
19.69554 709
19.71565 715
19.73577 760
19.75588 769
19.776 819
19.79611 847
19.81622 910
19.83634 915
19.85645 911
19.87656 934
19.89668 940
19.91679 908
19.93691 906
19.95702 883
19.97713 908
19.99725 878
20.01736 877
20.03747 882
20.05759 860
20.0777 876
20.09782 906
20.11793 886
20.13804 884
20.15816 858
20.17827 884
20.19838 927
20.2185 1012
20.23861 1025
20.25872 1014
20.27884 1041
20.29895 1004
20.31907 1029
20.33918 973
20.35929 976
20.37941 931
20.39952 984
20.41963 970
20.43975 923
20.45986 977
20.47998 972
20.50009 994
20.5202 906
20.54032 1006
20.56043 977
20.58054 1080
20.60066 1031
20.62077 942
20.64088 992
20.661 1026
20.68111 1028
20.70123 1106
20.72134 1205
20.74145 1414
20.76157 1607
20.78168 1887
20.80179 2169
20.82191 2414
20.84202 2349
20.86214 2200
20.88225 1934
20.90236 1595
20.92248 1383
20.94259 1226
20.9627 1134
20.98282 1084
21.00293 1079
21.02305 1022
21.04316 1063
21.06327 1033
21.08339 1058
21.1035 1057
21.12361 1088
21.14373 1118
21.16384 1195
21.18395 1161
21.20407 1194
21.22418 1209
21.2443 1265
21.26441 1311
21.28452 1309
21.30464 1326
21.32475 1299
21.34486 1414
21.36498 1364
21.38509 1296
21.40521 1297
21.42532 1242
21.44543 1282
21.46555 1239
21.48566 1229
21.50577 1174
21.52589 1095
21.546 1082
21.56612 1097
21.58623 1125
21.60634 990
21.62646 981
21.64657 934
21.66668 959
21.6868 973
21.70691 881
21.72702 952
21.74714 865
21.76725 923
21.78737 865
21.80748 859
21.82759 860
21.84771 859
21.86782 869
21.88793 830
21.90805 856
21.92816 821
21.94828 854
21.96839 820
21.9885 823
22.00862 769
22.02873 786
22.04884 800
22.06896 745
22.08907 749
22.10919 762
22.1293 779
22.14941 783
22.16953 803
22.18964 777
22.20975 765
22.22987 766
22.24998 817
22.27009 737
22.29021 793
22.31032 706
22.33044 752
22.35055 720
22.37066 719
22.39078 755
22.41089 704
22.431 741
22.45112 728
22.47123 745
22.49135 770
22.51146 761
22.53157 741
22.55169 709
22.5718 757
22.59191 744
22.61203 736
22.63214 699
22.65225 733
22.67237 750
22.69248 729
22.7126 710
22.73271 719
22.75282 740
22.77294 754
22.79305 702
22.81316 736
22.83328 706
22.85339 740
22.87351 673
22.89362 690
22.91373 689
22.93385 647
22.95396 666
22.97407 713
22.99419 703
23.0143 672
23.03442 698
23.05453 695
23.07464 646
23.09476 718
23.11487 719
23.13498 680
23.1551 707
23.17521 694
23.19532 675
23.21544 726
23.23555 695
23.25567 644
23.27578 734
23.29589 726
23.31601 658
23.33612 666
23.35623 649
23.37635 665
23.39646 671
23.41658 711
23.43669 682
23.4568 678
23.47692 681
23.49703 702
23.51714 659
23.53726 677
23.55737 697
23.57749 665
23.5976 640
23.61771 689
23.63783 665
23.65794 707
23.67805 668
23.69817 745
23.71828 718
23.73839 741
23.75851 693
23.77862 679
23.79874 728
23.81885 670
23.83896 743
23.85908 711
23.87919 723
23.8993 746
23.91942 747
23.93953 717
23.95965 696
23.97976 717
23.99987 739
24.01999 766
24.0401 680
24.06021 692
24.08033 717
24.10044 714
24.12056 696
24.14067 707
24.16078 718
24.1809 714
24.20101 726
24.22112 742
24.24124 721
24.26135 699
24.28146 717
24.30158 705
24.32169 725
24.34181 732
24.36192 731
24.38203 693
24.40215 800
24.42226 773
24.44237 741
24.46249 774
24.4826 745
24.50272 741
24.52283 742
24.54294 832
24.56306 818
24.58317 780
24.60328 806
24.6234 824
24.64351 829
24.66362 835
24.68374 876
24.70385 871
24.72397 893
24.74408 904
24.76419 1012
24.78431 995
24.80442 996
24.82453 1023
24.84465 986
24.86476 951
24.88488 961
24.90499 989
24.9251 949
24.94522 963
24.96533 877
24.98544 943
25.00556 798
25.02567 859
25.04579 903
25.0659 921
25.08601 855
25.10613 835
25.12624 821
25.14635 837
25.16647 839
25.18658 851
25.20669 821
25.22681 815
25.24692 787
25.26704 788
25.28715 772
25.30726 771
25.32738 761
25.34749 690
25.3676 782
25.38772 781
25.40783 710
25.42795 775
25.44806 791
25.46817 679
25.48829 727
25.5084 703
25.52851 716
25.54863 704
25.56874 750
25.58886 689
25.60897 722
25.62908 690
25.6492 661
25.66931 706
25.68942 683
25.70954 701
25.72965 716
25.74976 743
25.76988 697
25.78999 761
25.81011 691
25.83022 706
25.85033 690
25.87045 693
25.89056 731
25.91067 702
25.93079 706
25.9509 694
25.97102 727
25.99113 729
26.01124 742
26.03136 752
26.05147 766
26.07158 700
26.0917 768
26.11181 740
26.13193 782
26.15204 799
26.17215 804
26.19227 824
26.21238 847
26.23249 816
26.25261 867
26.27272 853
26.29283 889
26.31295 872
26.33306 950
26.35318 993
26.37329 977
26.3934 1071
26.41352 1214
26.43363 1317
26.45374 1497
26.47386 1873
26.49397 2459
26.51409 3171
26.5342 4125
26.55431 5350
26.57443 6544
26.59454 7061
26.61465 7110
26.63477 6472
26.65488 5653
26.67499 4449
26.69511 3415
26.71522 2622
26.73534 1792
26.75545 1312
26.77556 1163
26.79568 988
26.81579 955
26.8359 1013
26.85602 901
26.87613 926
26.89625 879
26.91636 883
26.93647 857
26.95659 817
26.9767 778
26.99681 752
27.01693 710
27.03704 746
27.05716 720
27.07727 724
27.09738 697
27.1175 708
27.13761 674
27.15772 680
27.17784 716
27.19795 676
27.21806 654
27.23818 719
27.25829 663
27.27841 646
27.29852 680
27.31863 652
27.33875 698
27.35886 661
27.37897 653
27.39909 669
27.4192 696
27.43932 674
27.45943 667
27.47954 682
27.49966 631
27.51977 616
27.53988 640
27.56 701
27.58011 641
27.60023 657
27.62034 591
27.64045 633
27.66057 661
27.68068 655
27.70079 662
27.72091 697
27.74102 701
27.76113 632
27.78125 633
27.80136 622
27.82148 649
27.84159 632
27.8617 638
27.88182 640
27.90193 683
27.92204 693
27.94216 743
27.96227 618
27.98239 680
28.0025 662
28.02261 702
28.04273 664
28.06284 666
28.08295 617
28.10307 691
28.12318 640
28.1433 671
28.16341 663
28.18352 634
28.20364 576
28.22375 592
28.24386 576
28.26398 578
28.28409 661
28.3042 610
28.32432 606
28.34443 624
28.36455 638
28.38466 625
28.40477 641
28.42489 633
28.445 635
28.46511 595
28.48523 594
28.50534 650
28.52546 699
28.54557 661
28.56568 581
28.5858 638
28.60591 636
28.62602 641
28.64614 615
28.66625 654
28.68636 630
28.70648 599
28.72659 647
28.74671 594
28.76682 604
28.78693 594
28.80705 645
28.82716 655
28.84727 591
28.86739 607
28.8875 594
28.90762 603
28.92773 631
28.94784 614
28.96796 649
28.98807 643
29.00818 631
29.0283 624
29.04841 660
29.06853 641
29.08864 660
29.10875 604
29.12887 617
29.14898 589
29.16909 643
29.18921 655
29.20932 613
29.22943 622
29.24955 620
29.26966 651
29.28978 568
29.30989 620
29.33 590
29.35012 574
29.37023 628
29.39034 586
29.41046 619
29.43057 610
29.45069 613
29.4708 628
29.49091 627
29.51103 611
29.53114 625
29.55125 582
29.57137 589
29.59148 643
29.6116 649
29.63171 618
29.65182 622
29.67194 619
29.69205 641
29.71216 627
29.73228 582
29.75239 617
29.7725 620
29.79262 602
29.81273 620
29.83285 575
29.85296 610
29.87307 616
29.89319 598
29.9133 580
29.93341 617
29.95353 638
29.97364 612
29.99376 638
30.01387 654
30.03398 639
30.0541 618
30.07421 641
30.09432 606
30.11444 610
30.13455 594
30.15467 630
30.17478 597
30.19489 660
30.21501 619
30.23512 613
30.25523 642
30.27535 646
30.29546 613
30.31557 634
30.33569 600
30.3558 617
30.37592 615
30.39603 678
30.41614 584
30.43626 553
30.45637 605
30.47648 616
30.4966 621
30.51671 617
30.53683 626
30.55694 622
30.57705 599
30.59717 577
30.61728 661
30.63739 634
30.65751 628
30.67762 646
30.69773 629
30.71785 624
30.73796 577
30.75808 621
30.77819 607
30.7983 616
30.81842 636
30.83853 558
30.85864 647
30.87876 639
30.89887 609
30.91899 676
30.9391 590
30.95921 629
30.97933 626
30.99944 629
31.01955 630
31.03967 627
31.05978 640
31.0799 617
31.10001 590
31.12012 613
31.14024 649
31.16035 597
31.18046 612
31.20058 571
31.22069 599
31.2408 667
31.26092 653
31.28103 676
31.30115 644
31.32126 591
31.34137 645
31.36149 611
31.3816 589
31.40171 615
31.42183 607
31.44194 663
31.46206 586
31.48217 583
31.50228 597
31.5224 610
31.54251 648
31.56262 579
31.58274 667
31.60285 610
31.62297 591
31.64308 614
31.66319 633
31.68331 622
31.70342 633
31.72353 635
31.74365 604
31.76376 622
31.78387 604
31.80399 589
31.8241 607
31.84422 619
31.86433 578
31.88444 614
31.90456 632
31.92467 592
31.94478 587
31.9649 660
31.98501 635
32.00513 605
32.02524 636
32.04535 659
32.06547 601
32.08558 611
32.10569 643
32.12581 654
32.14592 558
32.16604 625
32.18615 640
32.20626 618
32.22638 640
32.24649 635
32.2666 602
32.28672 643
32.30683 647
32.32694 641
32.34706 648
32.36717 672
32.38729 654
32.4074 662
32.42751 719
32.44763 676
32.46774 704
32.48785 707
32.50797 769
32.52808 715
32.5482 721
32.56831 741
32.58842 741
32.60854 765
32.62865 714
32.64876 717
32.66888 687
32.68899 722
32.7091 654
32.72922 700
32.74933 690
32.76945 636
32.78956 657
32.80967 660
32.82979 707
32.8499 649
32.87001 685
32.89013 657
32.91024 699
32.93036 653
32.95047 706
32.97058 730
32.9907 775
33.01081 727
33.03092 683
33.05104 780
33.07115 713
33.09127 745
33.11138 811
33.13149 749
33.15161 774
33.17172 753
33.19183 747
33.21195 769
33.23206 748
33.25217 720
33.27229 695
33.2924 762
33.31252 735
33.33263 769
33.35274 790
33.37286 756
33.39297 790
33.41308 764
33.4332 718
33.45331 828
33.47343 784
33.49354 738
33.51365 770
33.53377 727
33.55388 778
33.57399 721
33.59411 798
33.61422 799
33.63434 741
33.65445 785
33.67456 761
33.69468 768
33.71479 780
33.7349 749
33.75502 734
33.77513 693
33.79524 747
33.81536 676
33.83547 706
33.85559 689
33.8757 717
33.89581 681
33.91593 644
33.93604 658
33.95615 702
33.97627 624
33.99638 680
34.0165 682
34.03661 678
34.05672 633
34.07684 655
34.09695 683
34.11706 718
34.13718 707
34.15729 656
34.17741 676
34.19752 651
34.21763 683
34.23775 663
34.25786 607
34.27797 698
34.29809 677
34.3182 655
34.33831 671
34.35843 683
34.37854 653
34.39866 684
34.41877 623
34.43888 645
34.459 634
34.47911 643
34.49922 639
34.51934 724
34.53945 647
34.55957 698
34.57968 608
34.59979 688
34.61991 673
34.64002 664
34.66013 630
34.68025 739
34.70036 733
34.72047 704
34.74059 714
34.7607 753
34.78082 798
34.80093 769
34.82104 789
34.84116 872
34.86127 805
34.88138 855
34.9015 859
34.92161 857
34.94173 850
34.96184 828
34.98195 838
35.00207 825
35.02218 790
35.04229 789
35.06241 843
35.08252 815
35.10264 783
35.12275 866
35.14286 852
35.16298 852
35.18309 848
35.2032 845
35.22332 860
35.24343 937
35.26354 863
35.28366 882
35.30377 934
35.32389 932
35.344 898
35.36411 951
35.38423 884
35.40434 880
35.42445 901
35.44457 829
35.46468 816
35.4848 866
35.50491 848
35.52502 771
35.54514 793
35.56525 830
35.58536 824
35.60548 850
35.62559 767
35.64571 875
35.66582 799
35.68593 848
35.70605 817
35.72616 765
35.74627 817
35.76639 839
35.7865 789
35.80661 864
35.82673 855
35.84684 853
35.86696 841
35.88707 848
35.90718 793
35.9273 825
35.94741 854
35.96752 801
35.98764 812
36.00775 871
36.02787 811
36.04798 766
36.06809 761
36.08821 751
36.10832 766
36.12843 757
36.14855 805
36.16866 717
36.18878 727
36.20889 744
36.229 783
36.24912 750
36.26923 769
36.28934 799
36.30946 815
36.32957 857
36.34968 816
36.3698 909
36.38991 914
36.41003 979
36.43014 1048
36.45025 1095
36.47037 1154
36.49048 1195
36.51059 1214
36.53071 1260
36.55082 1059
36.57094 1098
36.59105 1103
36.61116 1035
36.63128 942
36.65139 904
36.6715 861
36.69162 883
36.71173 897
36.73184 900
36.75196 847
36.77207 834
36.79219 882
36.8123 924
36.83241 900
36.85253 853
36.87264 911
36.89275 911
36.91287 945
36.93298 911
36.9531 957
36.97321 966
36.99332 1019
37.01344 1054
37.03355 990
37.05366 1032
37.07378 956
37.09389 952
37.11401 954
37.13412 925
37.15423 952
37.17435 985
37.19446 946
37.21457 947
37.23469 893
37.2548 864
37.27491 847
37.29503 844
37.31514 844
37.33526 821
37.35537 811
37.37548 762
37.3956 805
37.41571 818
37.43582 727
37.45594 795
37.47605 776
37.49617 800
37.51628 815
37.53639 779
37.55651 841
37.57662 812
37.59673 788
37.61685 801
37.63696 763
37.65708 834
37.67719 797
37.6973 799
37.71742 803
37.73753 775
37.75764 764
37.77776 736
37.79787 726
37.81798 761
37.8381 780
37.85821 739
37.87833 701
37.89844 786
37.91855 760
37.93867 770
37.95878 696
37.97889 711
37.99901 726
38.01912 753
38.03924 758
38.05935 741
38.07946 758
38.09958 740
38.11969 780
38.1398 741
38.15992 742
38.18003 781
38.20015 836
38.22026 802
38.24037 843
38.26049 808
38.2806 854
38.30071 834
38.32083 874
38.34094 871
38.36105 881
38.38117 834
38.40128 830
38.4214 852
38.44151 859
38.46162 827
38.48174 810
38.50185 859
38.52196 767
38.54208 730
38.56219 805
38.58231 749
38.60242 754
38.62253 718
38.64265 748
38.66276 707
38.68287 692
38.70299 721
38.7231 723
38.74321 657
38.76333 693
38.78344 713
38.80356 709
38.82367 739
38.84378 808
38.8639 699
38.88401 687
38.90412 712
38.92424 750
38.94435 758
38.96447 689
38.98458 711
39.00469 702
39.02481 776
39.04492 807
39.06503 769
39.08515 790
39.10526 733
39.12538 781
39.14549 712
39.1656 748
39.18572 790
39.20583 726
39.22594 790
39.24606 760
39.26617 826
39.28628 852
39.3064 783
39.32651 854
39.34663 1014
39.36674 1011
39.38685 1102
39.40697 1073
39.42708 1080
39.44719 1029
39.46731 1043
39.48742 974
39.50754 903
39.52765 888
39.54776 813
39.56788 789
39.58799 749
39.6081 642
39.62822 660
39.64833 675
39.66845 703
39.68856 669
39.70867 673
39.72879 682
39.7489 667
39.76901 670
39.78913 679
39.80924 697
39.82935 669
39.84947 676
39.86958 693
39.8897 695
39.90981 686
39.92992 699
39.95004 721
39.97015 688
39.99026 743
40.01038 697
40.03049 774
40.05061 705
40.07072 757
40.09083 690
40.11095 748
40.13106 793
40.15117 785
40.17129 827
40.1914 848
40.21152 855
40.23163 974
40.25174 866
40.27186 839
40.29197 901
40.31208 814
40.3322 892
40.35231 852
40.37242 827
40.39254 806
40.41265 751
40.43277 742
40.45288 781
40.47299 737
40.49311 725
40.51322 752
40.53333 695
40.55345 767
40.57356 755
40.59368 734
40.61379 729
40.6339 735
40.65402 694
40.67413 677
40.69424 710
40.71436 689
40.73447 721
40.75458 731
40.7747 721
40.79481 713
40.81493 649
40.83504 735
40.85515 698
40.87527 653
40.89538 692
40.91549 667
40.93561 663
40.95572 679
40.97584 696
40.99595 690
41.01606 619
41.03618 714
41.05629 698
41.0764 705
41.09652 658
41.11663 686
41.13675 709
41.15686 660
41.17697 700
41.19709 714
41.2172 670
41.23731 673
41.25743 747
41.27754 669
41.29765 685
41.31777 663
41.33788 712
41.358 681
41.37811 695
41.39822 738
41.41834 767
41.43845 709
41.45856 754
41.47868 754
41.49879 689
41.51891 691
41.53902 713
41.55913 705
41.57925 698
41.59936 724
41.61947 749
41.63959 716
41.6597 707
41.67982 749
41.69993 698
41.72004 697
41.74016 717
41.76027 722
41.78038 701
41.8005 661
41.82061 698
41.84072 683
41.86084 656
41.88095 693
41.90107 674
41.92118 702
41.94129 676
41.96141 668
41.98152 660
42.00163 661
42.02175 641
42.04186 644
42.06198 603
42.08209 646
42.1022 675
42.12232 622
42.14243 634
42.16254 642
42.18266 665
42.20277 677
42.22289 693
42.243 707
42.26311 741
42.28323 705
42.30334 695
42.32345 768
42.34357 822
42.36368 860
42.38379 926
42.40391 852
42.42402 882
42.44414 859
42.46425 865
42.48436 813
42.50448 794
42.52459 723
42.5447 708
42.56482 676
42.58493 687
42.60505 594
42.62516 631
42.64527 629
42.66539 631
42.6855 649
42.70561 626
42.72573 603
42.74584 632
42.76595 638
42.78607 566
42.80618 606
42.8263 632
42.84641 621
42.86652 588
42.88664 649
42.90675 594
42.92686 638
42.94698 622
42.96709 576
42.98721 593
43.00732 617
43.02743 575
43.04755 613
43.06766 604
43.08777 612
43.10789 593
43.128 618
43.14812 596
43.16823 607
43.18834 571
43.20846 561
43.22857 639
43.24868 603
43.2688 560
43.28891 620
43.30902 605
43.32914 616
43.34925 596
43.36937 608
43.38948 589
43.40959 608
43.42971 617
43.44982 597
43.46993 590
43.49005 538
43.51016 569
43.53028 653
43.55039 641
43.5705 600
43.59062 614
43.61073 564
43.63084 557
43.65096 634
43.67107 580
43.69119 575
43.7113 557
43.73141 598
43.75153 617
43.77164 567
43.79175 613
43.81187 580
43.83198 626
43.85209 620
43.87221 601
43.89232 646
43.91244 601
43.93255 616
43.95266 595
43.97278 605
43.99289 592
44.013 612
44.03312 655
44.05323 607
44.07335 640
44.09346 643
44.11357 643
44.13369 626
44.1538 644
44.17391 649
44.19403 664
44.21414 678
44.23426 689
44.25437 597
44.27448 594
44.2946 586
44.31471 602
44.33482 641
44.35494 622
44.37505 590
44.39516 574
44.41528 618
44.43539 603
44.45551 596
44.47562 588
44.49573 551
44.51585 607
44.53596 623
44.55607 586
44.57619 588
44.5963 623
44.61642 592
44.63653 585
44.65664 539
44.67676 627
44.69687 624
44.71698 587
44.7371 588
44.75721 627
44.77732 654
44.79744 583
44.81755 628
44.83767 603
44.85778 604
44.87789 663
44.89801 592
44.91812 632
44.93823 551
44.95835 642
44.97846 602
44.99858 625
45.01869 600
45.0388 619
45.05892 625
45.07903 618
45.09914 653
45.11926 619
45.13937 620
45.15949 607
45.1796 674
45.19971 637
45.21983 614
45.23994 670
45.26005 675
45.28017 621
45.30028 676
45.32039 710
45.34051 690
45.36062 696
45.38074 681
45.40085 698
45.42096 724
45.44108 712
45.46119 645
45.4813 659
45.50142 717
45.52153 657
45.54165 686
45.56176 664
45.58187 677
45.60199 702
45.6221 676
45.64221 724
45.66233 729
45.68244 780
45.70256 782
45.72267 806
45.74278 810
45.7629 817
45.78301 746
45.80312 736
45.82324 729
45.84335 713
45.86346 737
45.88358 677
45.90369 698
45.92381 650
45.94392 691
45.96403 611
45.98415 633
46.00426 613
46.02437 618
46.04449 618
46.0646 594
46.08472 640
46.10483 627
46.12494 645
46.14506 623
46.16517 611
46.18528 646
46.2054 612
46.22551 625
46.24563 589
46.26574 630
46.28585 622
46.30597 602
46.32608 575
46.34619 559
46.36631 601
46.38642 600
46.40653 592
46.42665 639
46.44676 623
46.46688 576
46.48699 600
46.5071 613
46.52722 578
46.54733 581
46.56744 596
46.58756 621
46.60767 606
46.62779 572
46.6479 588
46.66801 639
46.68813 574
46.70824 634
46.72835 584
46.74847 659
46.76858 588
46.78869 586
46.80881 594
46.82892 616
46.84904 625
46.86915 596
46.88926 609
46.90938 576
46.92949 577
46.9496 599
46.96972 653
46.98983 587
47.00995 632
47.03006 630
47.05017 641
47.07029 585
47.0904 595
47.11051 605
47.13063 588
47.15074 592
47.17086 616
47.19097 645
47.21108 631
47.2312 634
47.25131 593
47.27142 615
47.29154 613
47.31165 619
47.33176 622
47.35188 579
47.37199 643
47.39211 695
47.41222 657
47.43233 622
47.45245 637
47.47256 636
47.49267 634
47.51279 642
47.5329 666
47.55302 609
47.57313 663
47.59324 665
47.61336 618
47.63347 622
47.65358 650
47.6737 643
47.69381 690
47.71393 627
47.73404 643
47.75415 595
47.77427 628
47.79438 617
47.81449 648
47.83461 688
47.85472 612
47.87483 622
47.89495 639
47.91506 629
47.93518 654
47.95529 657
47.9754 632
47.99552 574
48.01563 639
48.03574 638
48.05586 655
48.07597 591
48.09609 602
48.1162 644
48.13631 608
48.15643 632
48.17654 608
48.19665 603
48.21677 609
48.23688 634
48.257 621
48.27711 623
48.29722 594
48.31734 642
48.33745 613
48.35756 631
48.37768 627
48.39779 594
48.4179 606
48.43802 632
48.45813 603
48.47825 646
48.49836 585
48.51847 604
48.53859 611
48.5587 600
48.57881 587
48.59893 570
48.61904 644
48.63916 612
48.65927 604
48.67938 583
48.6995 612
48.71961 629
48.73972 603
48.75984 589
48.77995 609
48.80006 589
48.82018 597
48.84029 633
48.86041 608
48.88052 596
48.90063 642
48.92075 578
48.94086 597
48.96097 669
48.98109 633
49.0012 566
49.02132 594
49.04143 634
49.06154 578
49.08166 590
49.10177 602
49.12188 636
49.142 651
49.16211 619
49.18223 612
49.20234 577
49.22245 641
49.24257 630
49.26268 626
49.28279 629
49.30291 643
49.32302 643
49.34313 635
49.36325 637
49.38336 639
49.40348 683
49.42359 625
49.4437 667
49.46382 637
49.48393 610
49.50404 643
49.52416 613
49.54427 625
49.56439 599
49.5845 600
49.60461 596
49.62473 618
49.64484 616
49.66495 587
49.68507 591
49.70518 591
49.7253 602
49.74541 650
49.76552 635
49.78564 688
49.80575 658
49.82586 621
49.84598 654
49.86609 622
49.8862 655
49.90632 733
49.92643 674
49.94655 746
49.96666 763
49.98677 869
50.00689 906
50.027 1009
50.04711 1145
50.06723 1166
50.08734 1220
50.10746 1217
50.12757 1111
50.14768 995
50.1678 939
50.18791 909
50.20802 869
50.22814 901
50.24825 823
50.26837 752
50.28848 703
50.30859 692
50.32871 670
50.34882 635
50.36893 629
50.38905 662
50.40916 633
50.42927 625
50.44939 682
50.4695 682
50.48962 650
50.50973 650
50.52984 648
50.54996 608
50.57007 642
50.59018 637
50.6103 649
50.63041 649
50.65053 666
50.67064 640
50.69075 681
50.71087 681
50.73098 661
50.75109 627
50.77121 590
50.79132 606
50.81143 622
50.83155 644
50.85166 619
50.87178 635
50.89189 587
50.912 638
50.93212 656
50.95223 669
50.97234 674
50.99246 601
51.01257 605
51.03269 627
51.0528 663
51.07291 596
51.09303 636
51.11314 637
51.13325 608
51.15337 638
51.17348 598
51.1936 579
51.21371 601
51.23382 662
51.25394 616
51.27405 662
51.29416 639
51.31428 630
51.33439 580
51.3545 583
51.37462 625
51.39473 584
51.41485 579
51.43496 617
51.45507 558
51.47519 613
51.4953 581
51.51541 604
51.53553 593
51.55564 600
51.57576 603
51.59587 587
51.61598 563
51.6361 592
51.65621 566
51.67632 592
51.69644 601
51.71655 590
51.73667 607
51.75678 608
51.77689 586
51.79701 590
51.81712 591
51.83723 622
51.85735 611
51.87746 592
51.89757 559
51.91769 564
51.9378 560
51.95792 655
51.97803 595
51.99814 572
52.01826 592
52.03837 622
52.05848 602
52.0786 619
52.09871 627
52.11883 637
52.13894 639
52.15905 626
52.17917 617
52.19928 587
52.21939 575
52.23951 629
52.25962 653
52.27974 574
52.29985 636
52.31996 600
52.34008 594
52.36019 603
52.3803 594
52.40042 551
52.42053 565
52.44064 617
52.46076 585
52.48087 587
52.50099 603
52.5211 622
52.54121 550
52.56133 570
52.58144 608
52.60155 608
52.62167 528
52.64178 580
52.6619 604
52.68201 643
52.70212 607
52.72224 619
52.74235 609
52.76246 588
52.78258 600
52.80269 618
52.8228 614
52.84292 630
52.86303 624
52.88315 626
52.90326 635
52.92337 633
52.94349 614
52.9636 636
52.98371 602
53.00383 639
53.02394 645
53.04406 663
53.06417 606
53.08428 622
53.1044 660
53.12451 660
53.14462 641
53.16474 676
53.18485 679
53.20497 671
53.22508 682
53.24519 661
53.26531 657
53.28542 634
53.30553 686
53.32565 676
53.34576 691
53.36587 698
53.38599 687
53.4061 668
53.42622 713
53.44633 725
53.46644 719
53.48656 698
53.50667 736
53.52678 743
53.5469 699
53.56701 735
53.58713 765
53.60724 749
53.62735 801
53.64747 754
53.66758 768
53.68769 767
53.70781 794
53.72792 764
53.74804 737
53.76815 782
53.78826 722
53.80838 803
53.82849 753
53.8486 778
53.86872 798
53.88883 790
53.90894 726
53.92906 780
53.94917 775
53.96929 751
53.9894 785
54.00951 748
54.02963 723
54.04974 716
54.06985 773
54.08997 731
54.11008 737
54.1302 738
54.15031 729
54.17042 702
54.19054 723
54.21065 776
54.23076 786
54.25088 689
54.27099 694
54.29111 702
54.31122 731
54.33133 756
54.35145 703
54.37156 703
54.39167 686
54.41179 712
54.4319 713
54.45201 736
54.47213 714
54.49224 688
54.51236 750
54.53247 730
54.55258 712
54.5727 706
54.59281 760
54.61292 716
54.63304 732
54.65315 714
54.67327 762
54.69338 756
54.71349 793
54.73361 801
54.75372 799
54.77383 846
54.79395 847
54.81406 840
54.83417 878
54.85429 789
54.8744 821
54.89452 764
54.91463 809
54.93474 793
54.95486 784
54.97497 792
54.99508 752
55.0152 788
55.03531 752
55.05543 689
55.07554 705
55.09565 725
55.11577 677
55.13588 685
55.15599 740
55.17611 693
55.19622 779
55.21634 741
55.23645 744
55.25656 722
55.27668 812
55.29679 760
55.3169 710
55.33702 691
55.35713 688
55.37724 722
55.39736 670
55.41747 712
55.43759 625
55.4577 666
55.47781 601
55.49793 643
55.51804 612
55.53815 668
55.55827 598
55.57838 639
55.5985 615
55.61861 629
55.63872 609
55.65884 619
55.67895 638
55.69906 650
55.71918 587
55.73929 633
55.75941 593
55.77952 617
55.79963 620
55.81975 564
55.83986 664
55.85997 597
55.88009 593
55.9002 663
55.92031 631
55.94043 623
55.96054 594
55.98066 604
56.00077 626
56.02088 635
56.041 581
56.06111 620
56.08122 594
56.10134 590
56.12145 626
56.14157 570
56.16168 624
56.18179 632
56.20191 592
56.22202 602
56.24213 594
56.26225 581
56.28236 635
56.30248 630
56.32259 632
56.3427 589
56.36282 602
56.38293 571
56.40304 594
56.42316 633
56.44327 573
56.46338 589
56.4835 631
56.50361 620
56.52373 621
56.54384 628
56.56395 620
56.58407 611
56.60418 617
56.62429 633
56.64441 562
56.66452 591
56.68464 649
56.70475 618
56.72486 594
56.74498 623
56.76509 614
56.7852 624
56.80532 614
56.82543 599
56.84554 557
56.86566 606
56.88577 613
56.90589 569
56.926 587
56.94611 589
56.96623 592
56.98634 586
57.00645 610
57.02657 600
57.04668 579
57.0668 593
57.08691 576
57.10702 593
57.12714 583
57.14725 546
57.16736 575
57.18748 595
57.20759 613
57.22771 591
57.24782 587
57.26793 599
57.28805 600
57.30816 609
57.32827 570
57.34839 584
57.3685 623
57.38861 594
57.40873 624
57.42884 581
57.44896 584
57.46907 601
57.48918 551
57.5093 610
57.52941 548
57.54952 583
57.56964 588
57.58975 570
57.60987 623
57.62998 592
57.65009 583
57.67021 582
57.69032 570
57.71043 580
57.73055 624
57.75066 637
57.77078 631
57.79089 631
57.811 579
57.83112 624
57.85123 585
57.87134 588
57.89146 609
57.91157 598
57.93168 599
57.9518 618
57.97191 584
57.99203 598
58.01214 574
58.03225 626
58.05237 626
58.07248 586
58.09259 616
58.11271 605
58.13282 589
58.15294 596
58.17305 579
58.19316 621
58.21328 621
58.23339 574
58.2535 583
58.27362 577
58.29373 564
58.31385 582
58.33396 589
58.35407 577
58.37419 588
58.3943 517
58.41441 550
58.43453 592
58.45464 609
58.47475 605
58.49487 599
58.51498 603
58.5351 560
58.55521 577
58.57532 618
58.59544 612
58.61555 600
58.63566 630
58.65578 602
58.67589 563
58.69601 584
58.71612 573
58.73623 556
58.75635 596
58.77646 583
58.79657 572
58.81669 587
58.8368 605
58.85691 598
58.87703 611
58.89714 549
58.91726 570
58.93737 527
58.95748 517
58.9776 591
58.99771 535
59.01782 571
59.03794 617
59.05805 641
59.07817 626
59.09828 590
59.11839 622
59.13851 528
59.15862 596
59.17873 609
59.19885 597
59.21896 604
59.23908 626
59.25919 593
59.2793 607
59.29942 589
59.31953 597
59.33964 639
59.35976 617
59.37987 590
59.39998 603
59.4201 623
59.44021 569
59.46033 624
59.48044 601
59.50055 671
59.52067 601
59.54078 619
59.56089 641
59.58101 659
59.60112 665
59.62124 671
59.64135 640
59.66146 655
59.68158 685
59.70169 713
59.7218 705
59.74192 682
59.76203 779
59.78215 836
59.80226 809
59.82237 857
59.84249 949
59.8626 940
59.88271 972
59.90283 1085
59.92294 1005
59.94305 912
59.96317 862
59.98328 850
60.0034 774
60.02351 853
60.04362 762
60.06374 823
60.08385 797
60.10396 712
60.12408 726
60.14419 671
60.16431 679
60.18442 683
60.20453 641
60.22465 643
60.24476 578
60.26487 577
60.28499 602
60.3051 598
60.32522 625
60.34533 596
60.36544 633
60.38556 599
60.40567 580
60.42578 538
60.4459 546
60.46601 576
60.48612 577
60.50624 577
60.52635 608
60.54647 568
60.56658 552
60.58669 585
60.60681 565
60.62692 584
60.64703 553
60.66715 583
60.68726 534
60.70738 583
60.72749 576
60.7476 617
60.76772 576
60.78783 539
60.80794 610
60.82806 566
60.84817 554
60.86828 584
60.8884 558
60.90851 563
60.92863 553
60.94874 587
60.96885 574
60.98897 584
61.00908 581
61.02919 571
61.04931 540
61.06942 572
61.08954 569
61.10965 551
61.12976 589
61.14988 599
61.16999 550
61.1901 570
61.21022 559
61.23033 554
61.25045 612
61.27056 598
61.29067 603
61.31079 548
61.3309 610
61.35101 560
61.37113 544
61.39124 546
61.41135 621
61.43147 571
61.45158 564
61.4717 555
61.49181 563
61.51192 588
61.53204 599
61.55215 585
61.57226 539
61.59238 627
61.61249 613
61.63261 612
61.65272 582
61.67283 597
61.69295 620
61.71306 647
61.73317 595
61.75329 617
61.7734 592
61.79352 627
61.81363 602
61.83374 687
61.85386 698
61.87397 654
61.89408 627
61.9142 646
61.93431 652
61.95442 671
61.97454 628
61.99465 662
62.01477 699
62.03488 715
62.05499 684
62.07511 775
62.09522 703
62.11533 700
62.13545 732
62.15556 702
62.17568 783
62.19579 741
62.2159 755
62.23602 706
62.25613 713
62.27624 731
62.29636 673
62.31647 710
62.33659 725
62.3567 708
62.37681 696
62.39693 698
62.41704 651
62.43715 734
62.45727 703
62.47738 631
62.49749 647
62.51761 640
62.53772 606
62.55784 667
62.57795 621
62.59806 630
62.61818 598
62.63829 631
62.6584 601
62.67852 571
62.69863 589
62.71875 585
62.73886 588
62.75897 625
62.77909 545
62.7992 591
62.81931 583
62.83943 594
62.85954 589
62.87965 587
62.89977 532
62.91988 610
62.94 564
62.96011 566
62.98022 530
63.00034 618
63.02045 587
63.04056 588
63.06068 551
63.08079 601
63.10091 583
63.12102 631
63.14113 614
63.16125 580
63.18136 583
63.20147 548
63.22159 597
63.2417 611
63.26182 583
63.28193 581
63.30204 617
63.32216 610
63.34227 616
63.36238 602
63.3825 578
63.40261 549
63.42272 595
63.44284 597
63.46295 554
63.48307 555
63.50318 588
63.52329 571
63.54341 576
63.56352 642
63.58363 586
63.60375 586
63.62386 603
63.64398 564
63.66409 651
63.6842 608
63.70432 623
63.72443 641
63.74454 627
63.76466 552
63.78477 608
63.80489 663
63.825 625
63.84511 637
63.86523 665
63.88534 613
63.90545 675
63.92557 637
63.94568 646
63.96579 650
63.98591 640
64.00602 664
64.02614 650
64.04625 631
64.06636 597
64.08648 628
64.10659 629
64.1267 630
64.14682 591
64.16693 612
64.18705 662
64.20716 658
64.22727 595
64.24739 601
64.2675 550
64.28761 615
64.30773 576
64.32784 573
64.34796 578
64.36807 534
64.38818 617
64.4083 576
64.42841 597
64.44852 578
64.46864 563
64.48875 588
64.50886 554
64.52898 617
64.54909 568
64.56921 614
64.58932 584
64.60943 583
64.62955 552
64.64966 581
64.66977 554
64.68989 558
64.71 549
64.73012 571
64.75023 553
64.77034 572
64.79046 553
64.81057 566
64.83068 560
64.8508 562
64.87091 599
64.89102 550
64.91114 571
64.93125 571
64.95137 549
64.97148 553
64.99159 561
65.01171 637
65.03182 553
65.05193 564
65.07205 547
65.09216 574
65.11228 574
65.13239 584
65.1525 547
65.17262 549
65.19273 590
65.21284 570
65.23296 514
65.25307 579
65.27319 552
65.2933 531
65.31341 550
65.33353 573
65.35364 523
65.37375 575
65.39387 617
65.41398 559
65.43409 537
65.45421 562
65.47432 532
65.49444 521
65.51455 536
65.53466 548
65.55478 509
65.57489 553
65.595 545
65.61512 573
65.63523 557
65.65535 566
65.67546 570
65.69557 564
65.71569 505
65.7358 572
65.75591 549
65.77603 534
65.79614 555
65.81626 518
65.83637 598
65.85648 570
65.8766 559
65.89671 555
65.91682 523
65.93694 566
65.95705 551
65.97716 562
65.99728 547
66.01739 571
66.03751 532
66.05762 624
66.07773 553
66.09785 559
66.11796 570
66.13807 575
66.15819 513
66.1783 560
66.19842 536
66.21853 543
66.23864 531
66.25876 580
66.27887 548
66.29898 563
66.3191 546
66.33921 562
66.35933 543
66.37944 563
66.39955 487
66.41967 543
66.43978 550
66.45989 550
66.48001 540
66.50012 537
66.52023 557
66.54035 531
66.56046 571
66.58058 566
66.60069 548
66.6208 538
66.64092 541
66.66103 547
66.68114 550
66.70126 595
66.72137 556
66.74149 553
66.7616 545
66.78171 533
66.80183 541
66.82194 536
66.84205 564
66.86217 536
66.88228 573
66.90239 551
66.92251 530
66.94262 557
66.96274 530
66.98285 538
67.00296 581
67.02308 568
67.04319 558
67.0633 565
67.08342 521
67.10353 536
67.12365 552
67.14376 553
67.16387 511
67.18399 540
67.2041 555
67.22421 542
67.24433 546
67.26444 518
67.28456 537
67.30467 545
67.32478 582
67.3449 527
67.36501 542
67.38512 574
67.40524 520
67.42535 556
67.44546 542
67.46558 575
67.48569 586
67.50581 578
67.52592 572
67.54603 630
67.56615 671
67.58626 659
67.60637 691
67.62649 701
67.6466 750
67.66672 757
67.68683 739
67.70694 741
67.72706 703
67.74717 731
67.76728 680
67.7874 629
67.80751 722
67.82763 724
67.84774 677
67.86785 669
67.88797 710
67.90808 699
67.92819 680
67.94831 684
67.96842 698
67.98853 654
68.00865 728
68.02876 765
68.04888 794
68.06899 871
68.0891 848
68.10922 764
68.12933 841
68.14944 809
68.16956 739
68.18967 752
68.20979 819
68.2299 754
68.25001 828
68.27013 793
68.29024 771
68.31035 713
68.33047 738
68.35058 692
68.3707 662
68.39081 608
68.41092 630
68.43104 632
68.45115 636
68.47126 623
68.49138 558
68.51149 502
68.5316 594
68.55172 593
68.57183 560
68.59195 537
68.61206 572
68.63217 570
68.65229 564
68.6724 548
68.69251 503
68.71263 520
68.73274 543
68.75286 527
68.77297 542
68.79308 587
68.8132 569
68.83331 534
68.85342 573
68.87354 587
68.89365 556
68.91376 550
68.93388 536
68.95399 534
68.97411 577
68.99422 551
69.01433 600
69.03445 532
69.05456 510
69.07467 521
69.09479 545
69.1149 516
69.13502 498
69.15513 545
69.17524 540
69.19536 512
69.21547 540
69.23558 540
69.2557 504
69.27581 526
69.29593 520
69.31604 544
69.33615 523
69.35627 527
69.37638 540
69.39649 556
69.41661 535
69.43672 521
69.45683 529
69.47695 527
69.49706 523
69.51718 563
69.53729 527
69.5574 556
69.57752 511
69.59763 564
69.61774 510
69.63786 490
69.65797 545
69.67809 536
69.6982 540
69.71831 548
69.73843 555
69.75854 537
69.77865 523
69.79877 518
69.81888 562
69.839 528
69.85911 559
69.87922 580
69.89934 557
69.91945 508
69.93956 527
69.95968 546
69.97979 516
69.9999 544
70.02002 571
70.04013 546
70.06025 510
70.08036 560
70.10047 558
70.12059 526
70.1407 499
70.16081 513
70.18093 545
70.20104 551
70.22116 539
70.24127 505
70.26138 505
70.2815 526
70.30161 524
70.32172 544
70.34184 533
70.36195 534
70.38207 529
70.40218 516
70.42229 504
70.44241 509
70.46252 485
70.48263 540
70.50275 560
70.52286 537
70.54297 524
70.56309 532
70.5832 538
70.60332 521
70.62343 503
70.64354 521
70.66366 498
70.68377 533
70.70388 508
70.724 507
70.74411 535
70.76423 524
70.78434 521
70.80445 497
70.82457 536
70.84468 537
70.86479 528
70.88491 519
70.90502 495
70.92513 481
70.94525 511
70.96536 532
70.98548 458
71.00559 528
71.0257 494
71.04582 524
71.06593 490
71.08604 497
71.10616 505
71.12627 463
71.14639 498
71.1665 510
71.18661 484
71.20673 521
71.22684 491
71.24695 474
71.26707 533
71.28718 502
71.3073 528
71.32741 513
71.34752 509
71.36764 524
71.38775 532
71.40786 522
71.42798 472
71.44809 486
71.4682 517
71.48832 477
71.50843 551
71.52855 467
71.54866 546
71.56877 550
71.58889 489
71.609 511
71.62911 552
71.64923 513
71.66934 514
71.68946 531
71.70957 480
71.72968 522
71.7498 504
71.76991 502
71.79002 460
71.81014 504
71.83025 491
71.85037 527
71.87048 490
71.89059 524
71.91071 495
71.93082 538
71.95093 524
71.97105 502
71.99116 535
72.01127 529
72.03139 488
72.0515 516
72.07162 492
72.09173 510
72.11184 510
72.13196 510
72.15207 528
72.17218 545
72.1923 524
72.21241 473
72.23253 562
72.25264 535
72.27275 536
72.29287 497
72.31298 532
72.33309 532
72.35321 503
72.37332 461
72.39344 505
72.41355 536
72.43366 502
72.45378 520
72.47389 481
72.494 499
72.51412 491
72.53423 484
72.55434 495
72.57446 514
72.59457 533
72.61469 526
72.6348 512
72.65491 479
72.67503 494
72.69514 519
72.71525 505
72.73537 497
72.75548 522
72.7756 510
72.79571 504
72.81582 499
72.83594 514
72.85605 496
72.87616 525
72.89628 473
72.91639 570
72.9365 504
72.95662 528
72.97673 509
72.99685 543
73.01696 502
73.03707 492
73.05719 517
73.0773 470
73.09741 503
73.11753 517
73.13764 546
73.15776 543
73.17787 521
73.19798 556
73.2181 546
73.23821 517
73.25832 536
73.27844 576
73.29855 598
73.31867 578
73.33878 584
73.35889 583
73.37901 584
73.39912 582
73.41923 538
73.43935 600
73.45946 561
73.47957 525
73.49969 554
73.5198 542
73.53992 523
73.56003 509
73.58014 501
73.60026 571
73.62037 581
73.64048 544
73.6606 527
73.68071 500
73.70083 532
73.72094 516
73.74105 543
73.76117 495
73.78128 567
73.80139 486
73.82151 537
73.84162 513
73.86174 493
73.88185 503
73.90196 502
73.92208 490
73.94219 471
73.9623 494
73.98242 488
74.00253 477
74.02264 484
74.04276 488
74.06287 477
74.08299 481
74.1031 476
74.12321 517
74.14333 516
74.16344 469
74.18355 506
74.20367 536
74.22378 507
74.2439 483
74.26401 495
74.28412 481
74.30424 499
74.32435 492
74.34446 454
74.36458 511
74.38469 478
74.40481 487
74.42492 512
74.44503 520
74.46515 495
74.48526 498
74.50537 492
74.52549 531
74.5456 487
74.56571 526
74.58583 465
74.60594 495
74.62606 527
74.64617 452
74.66628 451
74.6864 469
74.70651 505
74.72662 494
74.74674 482
74.76685 494
74.78697 482
74.80708 518
74.82719 466
74.84731 503
74.86742 490
74.88753 502
74.90765 494
74.92776 482
74.94787 500
74.96799 456
74.9881 478
75.00822 499
