3.00117 15600
3.02128 15111
3.0414 14551
3.06151 13999
3.08162 13803
3.10174 13344
3.12185 12963
3.14197 12535
3.16208 12238
3.18219 11823
3.20231 11506
3.22242 10998
3.24253 10538
3.26265 10210
3.28276 9845
3.30288 9539
3.32299 9034
3.3431 9072
3.36322 8520
3.38333 8314
3.40344 8013
3.42356 7590
3.44367 7499
3.46379 7097
3.4839 6953
3.50401 6729
3.52413 6167
3.54424 6101
3.56435 5717
3.58447 5445
3.60458 5472
3.62469 5198
3.64481 5094
3.66492 4588
3.68504 4438
3.70515 4490
3.72526 4152
3.74538 3985
3.76549 3667
3.7856 3555
3.80572 3407
3.82583 3200
3.84595 3145
3.86606 2849
3.88617 2734
3.90629 2815
3.9264 2611
3.94651 2480
3.96663 2283
3.98674 2213
4.00686 2232
4.02697 1911
4.04708 1980
4.0672 1861
4.08731 1784
4.10742 1787
4.12754 1753
4.14765 1754
4.16776 1559
4.18788 1535
4.20799 1514
4.22811 1423
4.24822 1327
4.26833 1314
4.28845 1308
4.30856 1371
4.32867 1266
4.34879 1187
4.3689 1178
4.38902 1171
4.40913 1143
4.42924 1155
4.44936 1070
4.46947 990
4.48958 1001
4.5097 1052
4.52981 992
4.54992 1004
4.57004 891
4.59015 908
4.61027 917
4.63038 903
4.65049 841
4.67061 810
4.69072 768
4.71083 822
4.73095 753
4.75106 744
4.77118 662
4.79129 659
4.8114 673
4.83152 688
4.85163 614
4.87174 622
4.89186 569
4.91197 565
4.93209 604
4.9522 523
4.97231 595
4.99243 510
5.01254 527
5.03265 571
5.05277 453
5.07288 485
5.09299 539
5.11311 465
5.13322 503
5.15334 447
5.17345 428
5.19356 430
5.21368 401
5.23379 431
5.2539 358
5.27402 401
5.29413 392
5.31425 350
5.33436 379
5.35447 357
5.37459 337
5.3947 331
5.41481 305
5.43493 323
5.45504 297
5.47516 293
5.49527 289
5.51538 308
5.5355 294
5.55561 315
5.57572 247
5.59584 263
5.61595 283
5.63606 238
5.65618 270
5.67629 218
5.69641 248
5.71652 221
5.73663 230
5.75675 220
5.77686 225
5.79697 238
5.81709 212
5.8372 207
5.85732 214
5.87743 192
5.89754 244
5.91766 212
5.93777 235
5.95788 231
5.978 185
5.99811 200
6.01823 219
6.03834 215
6.05845 203
6.07857 188
6.09868 210
6.11879 222
6.13891 183
6.15902 190
6.17913 195
6.19925 189
6.21936 190
6.23948 176
6.25959 178
6.2797 185
6.29982 191
6.31993 207
6.34004 172
6.36016 162
6.38027 184
6.40039 171
6.4205 200
6.44061 180
6.46073 184
6.48084 178
6.50095 184
6.52107 172
6.54118 196
6.56129 187
6.58141 173
6.60152 186
6.62164 146
6.64175 191
6.66186 174
6.68198 169
6.70209 193
6.7222 179
6.74232 164
6.76243 157
6.78255 183
6.80266 186
6.82277 172
6.84289 164
6.863 171
6.88311 176
6.90323 166
6.92334 186
6.94346 163
6.96357 170
6.98368 174
7.0038 158
7.02391 158
7.04402 188
7.06414 187
7.08425 187
7.10436 170
7.12448 162
7.14459 184
7.16471 172
7.18482 181
7.20493 169
7.22505 160
7.24516 177
7.26527 188
7.28539 177
7.3055 174
7.32562 192
7.34573 161
7.36584 167
7.38596 175
7.40607 198
7.42618 174
7.4463 167
7.46641 144
7.48653 188
7.50664 162
7.52675 155
7.54687 153
7.56698 146
7.58709 170
7.60721 173
7.62732 158
7.64743 187
7.66755 158
7.68766 169
7.70778 159
7.72789 174
7.748 183
7.76812 195
7.78823 187
7.80834 189
7.82846 191
7.84857 193
7.86869 169
7.8888 166
7.90891 190
7.92903 183
7.94914 190
7.96925 184
7.98937 214
8.00948 148
8.0296 177
8.04971 195
8.06982 166
8.08994 173
8.11005 186
8.13016 184
8.15028 205
8.17039 234
8.1905 184
8.21062 183
8.23073 160
8.25085 207
8.27096 178
8.29107 180
8.31119 192
8.3313 215
8.35141 194
8.37153 193
8.39164 205
8.41176 183
8.43187 183
8.45198 189
8.4721 204
8.49221 207
8.51232 208
8.53244 199
8.55255 178
8.57266 219
8.59278 193
8.61289 188
8.63301 199
8.65312 194
8.67323 206
8.69335 207
8.71346 216
8.73357 209
8.75369 211
8.7738 203
8.79392 194
8.81403 222
8.83414 205
8.85426 196
8.87437 218
8.89448 204
8.9146 210
8.93471 190
8.95483 193
8.97494 186
8.99505 208
9.01517 195
9.03528 185
9.05539 185
9.07551 209
9.09562 194
9.11573 178
9.13585 214
9.15596 202
9.17608 185
9.19619 196
9.2163 182
9.23642 201
9.25653 223
9.27664 182
9.29676 181
9.31687 195
9.33699 246
9.3571 217
9.37721 191
9.39733 217
9.41744 208
9.43755 163
9.45767 203
9.47778 208
9.4979 196
9.51801 195
9.53812 225
9.55824 204
9.57835 209
9.59846 196
9.61858 211
9.63869 201
9.6588 166
9.67892 217
9.69903 211
9.71915 193
9.73926 229
9.75937 208
9.77949 216
9.7996 212
9.81971 227
9.83983 227
9.85994 216
9.88006 211
9.90017 219
9.92028 223
9.9404 192
9.96051 201
9.98062 206
10.00074 197
10.02085 184
10.04097 227
10.06108 182
10.08119 232
10.10131 232
10.12142 206
10.14153 202
10.16165 205
10.18176 199
10.20187 203
10.22199 211
10.2421 185
10.26222 214
10.28233 200
10.30244 231
10.32256 200
10.34267 208
10.36278 218
10.3829 204
10.40301 207
10.42313 215
10.44324 213
10.46335 228
10.48347 209
10.50358 204
10.52369 213
10.54381 241
10.56392 183
10.58403 189
10.60415 226
10.62426 202
10.64438 208
10.66449 199
10.6846 228
10.70472 191
10.72483 215
10.74494 228
10.76506 174
10.78517 229
10.80529 193
10.8254 189
10.84551 190
10.86563 210
10.88574 204
10.90585 225
10.92597 206
10.94608 186
10.9662 210
10.98631 211
11.00642 226
11.02654 192
11.04665 196
11.06676 206
11.08688 209
11.10699 191
11.1271 175
11.14722 182
11.16733 175
11.18745 195
11.20756 205
11.22767 218
11.24779 197
11.2679 244
11.28801 173
11.30813 186
11.32824 205
11.34836 194
11.36847 205
11.38858 200
11.4087 218
11.42881 203
11.44892 217
11.46904 210
11.48915 222
11.50927 231
11.52938 179
11.54949 215
11.56961 188
11.58972 190
11.60983 191
11.62995 206
11.65006 189
11.67017 219
11.69029 215
11.7104 205
11.73052 189
11.75063 218
11.77074 182
11.79086 185
11.81097 202
11.83108 203
11.8512 253
11.87131 202
11.89143 228
11.91154 223
11.93165 209
11.95177 203
11.97188 211
11.99199 210
12.01211 228
12.03222 205
12.05234 209
12.07245 213
12.09256 224
12.11268 236
12.13279 231
12.1529 229
12.17302 213
12.19313 184
12.21324 201
12.23336 221
12.25347 198
12.27359 207
12.2937 208
12.31381 182
12.33393 228
12.35404 220
12.37415 202
12.39427 201
12.41438 235
12.4345 218
12.45461 208
12.47472 244
12.49484 208
12.51495 204
12.53506 186
12.55518 195
12.57529 196
12.5954 200
12.61552 185
12.63563 206
12.65575 179
12.67586 209
12.69597 193
12.71609 193
12.7362 188
12.75631 180
12.77643 191
12.79654 192
12.81666 216
12.83677 220
12.85688 209
12.877 186
12.89711 198
12.91722 181
12.93734 196
12.95745 223
12.97757 183
12.99768 223
13.01779 196
13.03791 188
13.05802 212
13.07813 177
13.09825 178
13.11836 195
13.13847 181
13.15859 170
13.1787 191
13.19882 214
13.21893 188
13.23904 206
13.25916 198
13.27927 179
13.29938 176
13.3195 177
13.33961 239
13.35973 182
13.37984 189
13.39995 214
13.42007 179
13.44018 178
13.46029 206
13.48041 178
13.50052 184
13.52064 191
13.54075 189
13.56086 178
13.58098 235
13.60109 204
13.6212 223
13.64132 197
13.66143 227
13.68154 225
13.70166 203
13.72177 208
13.74189 189
13.762 209
13.78211 202
13.80223 207
13.82234 206
13.84245 270
13.86257 256
13.88268 238
13.9028 249
13.92291 226
13.94302 219
13.96314 207
13.98325 181
14.00336 189
14.02348 199
14.04359 190
14.06371 186
14.08382 187
14.10393 161
14.12405 177
14.14416 183
14.16427 182
14.18439 183
14.2045 172
14.22461 161
14.24473 169
14.26484 167
14.28496 156
14.30507 130
14.32518 155
14.3453 158
14.36541 181
14.38552 176
14.40564 190
14.42575 169
14.44587 171
14.46598 164
14.48609 143
14.50621 175
14.52632 165
14.54643 164
14.56655 166
14.58666 149
14.60677 157
14.62689 172
14.647 140
14.66712 185
14.68723 168
14.70734 182
14.72746 172
14.74757 169
14.76768 166
14.7878 174
14.80791 180
14.82803 180
14.84814 158
14.86825 198
14.88837 160
14.90848 175
14.92859 175
14.94871 187
14.96882 231
14.98894 193
15.00905 181
15.02916 183
15.04928 196
15.06939 194
15.0895 199
15.10962 216
15.12973 207
15.14984 178
15.16996 155
15.19007 187
15.21019 174
15.2303 172
15.25041 164
15.27053 197
15.29064 167
15.31075 167
15.33087 179
15.35098 147
15.3711 165
15.39121 176
15.41132 187
15.43144 178
15.45155 143
15.47166 157
15.49178 153
15.51189 179
15.53201 159
15.55212 162
15.57223 167
15.59235 158
15.61246 172
15.63257 149
15.65269 166
15.6728 153
15.69291 171
15.71303 169
15.73314 156
15.75326 184
15.77337 165
15.79348 182
15.8136 140
15.83371 174
15.85382 174
15.87394 156
15.89405 166
15.91417 145
15.93428 151
15.95439 163
15.97451 157
15.99462 163
16.01473 155
16.03485 154
16.05496 164
16.07508 141
16.09519 148
16.1153 155
16.13542 149
16.15553 164
16.17564 155
16.19576 151
16.21587 124
16.23598 142
16.2561 149
16.27621 135
16.29633 147
16.31644 181
16.33655 146
16.35667 151
16.37678 131
16.39689 166
16.41701 152
16.43712 152
16.45724 145
16.47735 138
16.49746 148
16.51758 153
16.53769 170
16.5578 158
16.57792 148
16.59803 175
16.61814 133
16.63826 137
16.65837 171
16.67849 167
16.6986 156
16.71871 145
16.73883 172
16.75894 146
16.77905 169
16.79917 158
16.81928 154
16.8394 145
16.85951 147
16.87962 140
16.89974 159
16.91985 147
16.93996 132
16.96008 121
16.98019 153
17.00031 167
17.02042 127
17.04053 146
17.06065 156
17.08076 145
17.10087 157
17.12099 148
17.1411 149
17.16121 146
17.18133 127
17.20144 159
17.22156 154
17.24167 140
17.26178 150
17.2819 171
17.30201 154
17.32212 165
17.34224 150
17.36235 146
17.38247 143
17.40258 152
17.42269 173
17.44281 134
17.46292 161
17.48303 127
17.50315 123
17.52326 148
17.54338 143
17.56349 156
17.5836 139
17.60372 167
17.62383 153
17.64394 155
17.66406 132
17.68417 171
17.70428 127
17.7244 162
17.74451 149
17.76463 132
17.78474 132
17.80485 149
17.82497 143
17.84508 138
17.86519 142
17.88531 147
17.90542 135
17.92554 150
17.94565 153
17.96576 157
17.98588 160
18.00599 149
18.0261 158
18.04622 155
18.06633 150
18.08645 154
18.10656 170
18.12667 159
18.14679 163
18.1669 152
18.18701 161
18.20713 135
18.22724 130
18.24735 153
18.26747 140
18.28758 151
18.3077 152
18.32781 154
18.34792 156
18.36804 156
18.38815 137
18.40826 147
18.42838 137
18.44849 148
18.46861 147
18.48872 145
18.50883 176
18.52895 146
18.54906 160
18.56917 144
18.58929 180
18.6094 140
18.62951 137
18.64963 156
18.66974 147
18.68986 131
18.70997 126
18.73008 159
18.7502 150
18.77031 172
18.79042 162
18.81054 184
18.83065 161
18.85077 161
18.87088 160
18.89099 169
18.91111 152
18.93122 164
18.95133 167
18.97145 158
18.99156 175
19.01168 156
19.03179 150
19.0519 155
19.07202 141
19.09213 144
19.11224 168
19.13236 147
19.15247 138
19.17258 160
19.1927 161
19.21281 139
19.23293 165
19.25304 169
19.27315 170
19.29327 173
19.31338 136
19.33349 153
19.35361 169
19.37372 145
19.39384 151
19.41395 165
19.43406 156
19.45418 151
19.47429 165
19.4944 137
19.51452 177
19.53463 138
19.55475 168
19.57486 193
19.59497 175
19.61509 187
19.6352 179
19.65531 210
19.67543 187
19.69554 186
19.71565 195
19.73577 207
19.75588 191
19.776 213
19.79611 229
19.81622 217
19.83634 233
19.85645 217
19.87656 219
19.89668 230
19.91679 237
19.93691 213
19.95702 241
19.97713 220
19.99725 238
20.01736 213
20.03747 236
20.05759 264
20.0777 220
20.09782 232
20.11793 230
20.13804 210
20.15816 274
20.17827 249
20.19838 246
20.2185 225
20.23861 312
20.25872 293
20.27884 293
20.29895 278
20.31907 243
20.33918 286
20.35929 276
20.37941 324
20.39952 287
20.41963 331
20.43975 303
20.45986 296
20.47998 328
20.50009 323
20.5202 306
20.54032 334
20.56043 356
20.58054 388
20.60066 417
20.62077 425
20.64088 514
20.661 550
20.68111 653
20.70123 844
20.72134 1120
20.74145 1608
20.76157 2222
20.78168 3241
20.80179 4501
20.82191 6130
20.84202 7501
20.86214 8204
20.88225 7694
20.90236 5863
20.92248 4138
20.94259 2796
20.9627 1642
20.98282 909
21.00293 728
21.02305 608
21.04316 558
21.06327 551
21.08339 534
21.1035 530
21.12361 427
21.14373 355
21.16384 342
21.18395 314
21.20407 284
21.22418 260
21.2443 284
21.26441 268
21.28452 237
21.30464 228
21.32475 234
21.34486 223
21.36498 221
21.38509 238
21.40521 263
21.42532 242
21.44543 215
21.46555 243
21.48566 241
21.50577 228
21.52589 219
21.546 206
21.56612 228
21.58623 219
21.60634 227
21.62646 222
21.64657 222
21.66668 219
21.6868 229
21.70691 227
21.72702 225
21.74714 224
21.76725 227
21.78737 236
21.80748 247
21.82759 243
21.84771 287
21.86782 302
21.88793 311
21.90805 388
21.92816 380
21.94828 457
21.96839 547
21.9885 610
22.00862 604
22.02873 553
22.04884 476
22.06896 355
22.08907 335
22.10919 286
22.1293 208
22.14941 202
22.16953 188
22.18964 216
22.20975 221
22.22987 244
22.24998 237
22.27009 222
22.29021 215
22.31032 217
22.33044 213
22.35055 228
22.37066 207
22.39078 221
22.41089 204
22.431 234
22.45112 195
22.47123 204
22.49135 189
22.51146 192
22.53157 209
22.55169 194
22.5718 218
22.59191 197
22.61203 238
22.63214 200
22.65225 222
22.67237 199
22.69248 174
22.7126 193
22.73271 182
22.75282 183
22.77294 199
22.79305 192
22.81316 177
22.83328 220
22.85339 210
22.87351 221
22.89362 226
22.91373 280
22.93385 300
22.95396 271
22.97407 263
22.99419 263
23.0143 260
23.03442 218
23.05453 196
23.07464 208
23.09476 225
23.11487 245
23.13498 241
23.1551 251
23.17521 251
23.19532 234
23.21544 248
23.23555 256
23.25567 239
23.27578 248
23.29589 221
23.31601 214
23.33612 223
23.35623 216
23.37635 203
23.39646 239
23.41658 232
23.43669 232
23.4568 213
23.47692 246
23.49703 234
23.51714 273
23.53726 310
23.55737 318
23.57749 360
23.5976 395
23.61771 386
23.63783 413
23.65794 315
23.67805 319
23.69817 270
23.71828 249
23.73839 215
23.75851 226
23.77862 220
23.79874 230
23.81885 238
23.83896 275
23.85908 309
23.87919 302
23.8993 335
23.91942 381
23.93953 452
23.95965 442
23.97976 508
23.99987 471
24.01999 444
24.0401 386
24.06021 360
24.08033 328
24.10044 249
24.12056 266
24.14067 236
24.16078 236
24.1809 255
24.20101 302
24.22112 303
24.24124 328
24.26135 367
24.28146 378
24.30158 384
24.32169 359
24.34181 361
24.36192 301
24.38203 335
24.40215 289
24.42226 261
24.44237 237
24.46249 239
24.4826 216
24.50272 218
24.52283 203
24.54294 218
24.56306 222
24.58317 193
24.60328 212
24.6234 229
24.64351 208
24.66362 225
24.68374 202
24.70385 227
24.72397 218
24.74408 212
24.76419 192
24.78431 223
24.80442 198
24.82453 222
24.84465 225
24.86476 210
24.88488 221
24.90499 216
24.9251 212
24.94522 235
24.96533 207
24.98544 189
25.00556 201
25.02567 209
25.04579 211
25.0659 193
25.08601 235
25.10613 180
25.12624 193
25.14635 221
25.16647 200
25.18658 188
25.20669 225
25.22681 225
25.24692 229
25.26704 224
25.28715 231
25.30726 220
25.32738 259
25.34749 235
25.3676 229
25.38772 243
25.40783 249
25.42795 252
25.44806 279
25.46817 309
25.48829 346
25.5084 360
25.52851 381
25.54863 376
25.56874 381
25.58886 369
25.60897 327
25.62908 345
25.6492 381
25.66931 378
25.68942 407
25.70954 416
25.72965 427
25.74976 433
25.76988 400
25.78999 389
25.81011 424
25.83022 390
25.85033 388
25.87045 409
25.89056 405
25.91067 424
25.93079 404
25.9509 420
25.97102 391
25.99113 401
26.01124 453
26.03136 445
26.05147 484
26.07158 491
26.0917 489
26.11181 548
26.13193 511
26.15204 580
26.17215 630
26.19227 715
26.21238 667
26.23249 769
26.25261 783
26.27272 931
26.29283 995
26.31295 1101
26.33306 1192
26.35318 1280
26.37329 1521
26.3934 1765
26.41352 2162
26.43363 2592
26.45374 3177
26.47386 4163
26.49397 5516
26.51409 7582
26.5342 10602
26.55431 14795
26.57443 20407
26.59454 27164
26.61465 33421
26.63477 36766
26.65488 34318
26.67499 27128
26.69511 21072
26.71522 16137
26.73534 10769
26.75545 5746
26.77556 3100
26.79568 2210
26.81579 1749
26.8359 1469
26.85602 1291
26.87613 1259
26.89625 1107
26.91636 1026
26.93647 944
26.95659 873
26.9767 825
26.99681 763
27.01693 728
27.03704 677
27.05716 666
27.07727 647
27.09738 608
27.1175 569
27.13761 547
27.15772 548
27.17784 572
27.19795 494
27.21806 500
27.23818 456
27.25829 437
27.27841 458
27.29852 472
27.31863 457
27.33875 462
27.35886 512
27.37897 540
27.39909 604
27.4192 602
27.43932 646
27.45943 648
27.47954 618
27.49966 613
27.51977 576
27.53988 565
27.56 504
27.58011 446
27.60023 475
27.62034 465
27.64045 470
27.66057 487
27.68068 566
27.70079 611
27.72091 702
27.74102 795
27.76113 919
27.78125 899
27.80136 937
27.82148 924
27.84159 944
27.8617 907
27.88182 912
27.90193 873
27.92204 915
27.94216 975
27.96227 1023
27.98239 943
28.0025 911
28.02261 770
28.04273 648
28.06284 619
28.08295 533
28.10307 385
28.12318 378
28.1433 353
28.16341 369
28.18352 338
28.20364 408
28.22375 425
28.24386 421
28.26398 410
28.28409 455
28.3042 412
28.32432 398
28.34443 339
28.36455 309
28.38466 294
28.40477 261
28.42489 298
28.445 273
28.46511 207
28.48523 240
28.50534 260
28.52546 254
28.54557 237
28.56568 231
28.5858 230
28.60591 253
28.62602 217
28.64614 251
28.66625 205
28.68636 243
28.70648 217
28.72659 218
28.74671 242
28.76682 214
28.78693 217
28.80705 209
28.82716 199
28.84727 205
28.86739 210
28.8875 199
28.90762 238
28.92773 222
28.94784 218
28.96796 208
28.98807 222
29.00818 209
29.0283 206
29.04841 223
29.06853 204
29.08864 224
29.10875 213
29.12887 209
29.14898 197
29.16909 208
29.18921 217
29.20932 215
29.22943 222
29.24955 179
29.26966 232
29.28978 204
29.30989 202
29.33 228
29.35012 241
29.37023 241
29.39034 235
29.41046 223
29.43057 253
29.45069 253
29.4708 244
29.49091 259
29.51103 223
29.53114 208
29.55125 244
29.57137 238
29.59148 232
29.6116 229
29.63171 229
29.65182 261
29.67194 232
29.69205 249
29.71216 237
29.73228 254
29.75239 271
29.7725 250
29.79262 285
29.81273 272
29.83285 266
29.85296 281
29.87307 292
29.89319 274
29.9133 255
29.93341 247
29.95353 227
29.97364 237
29.99376 238
30.01387 248
30.03398 194
30.0541 205
30.07421 232
30.09432 251
30.11444 252
30.13455 245
30.15467 211
30.17478 236
30.19489 243
30.21501 286
30.23512 248
30.25523 290
30.27535 258
30.29546 297
30.31557 302
30.33569 304
30.3558 387
30.37592 357
30.39603 394
30.41614 359
30.43626 362
30.45637 339
30.47648 318
30.4966 282
30.51671 270
30.53683 234
30.55694 231
30.57705 209
30.59717 180
30.61728 227
30.63739 213
30.65751 219
30.67762 238
30.69773 229
30.71785 223
30.73796 223
30.75808 251
30.77819 247
30.7983 232
30.81842 236
30.83853 246
30.85864 198
30.87876 212
30.89887 249
30.91899 199
30.9391 222
30.95921 209
30.97933 203
30.99944 208
31.01955 202
31.03967 201
31.05978 201
31.0799 177
31.10001 189
31.12012 179
31.14024 174
31.16035 170
31.18046 176
31.20058 199
31.22069 182
31.2408 181
31.26092 173
31.28103 220
31.30115 217
31.32126 224
31.34137 252
31.36149 235
31.3816 259
31.40171 233
31.42183 243
31.44194 213
31.46206 241
31.48217 197
31.50228 210
31.5224 166
31.54251 177
31.56262 200
31.58274 217
31.60285 185
31.62297 168
31.64308 197
31.66319 187
31.68331 178
31.70342 158
31.72353 184
31.74365 203
31.76376 155
31.78387 159
31.80399 159
31.8241 166
31.84422 150
31.86433 150
31.88444 177
31.90456 129
31.92467 149
31.94478 156
31.9649 162
31.98501 150
32.00513 166
32.02524 158
32.04535 175
32.06547 169
32.08558 182
32.10569 151
32.12581 159
32.14592 187
32.16604 159
32.18615 164
32.20626 137
32.22638 139
32.24649 152
32.2666 148
32.28672 159
32.30683 178
32.32694 192
32.34706 150
32.36717 171
32.38729 201
32.4074 176
32.42751 181
32.44763 190
32.46774 169
32.48785 168
32.50797 174
32.52808 159
32.5482 151
32.56831 153
32.58842 124
32.60854 145
32.62865 183
32.64876 143
32.66888 170
32.68899 141
32.7091 161
32.72922 148
32.74933 158
32.76945 145
32.78956 160
32.80967 156
32.82979 161
32.8499 164
32.87001 159
32.89013 124
32.91024 146
32.93036 158
32.95047 153
32.97058 139
32.9907 147
33.01081 140
33.03092 143
33.05104 146
33.07115 145
33.09127 135
33.11138 136
33.13149 133
33.15161 136
33.17172 141
33.19183 146
33.21195 129
33.23206 152
33.25217 154
33.27229 155
33.2924 145
33.31252 153
33.33263 115
33.35274 143
33.37286 146
33.39297 163
33.41308 142
33.4332 169
33.45331 142
33.47343 139
33.49354 144
33.51365 152
33.53377 154
33.55388 133
33.57399 142
33.59411 137
33.61422 156
33.63434 138
33.65445 128
33.67456 143
33.69468 138
33.71479 132
33.7349 176
33.75502 158
33.77513 188
33.79524 179
33.81536 176
33.83547 180
33.85559 200
33.8757 199
33.89581 187
33.91593 174
33.93604 162
33.95615 158
33.97627 181
33.99638 155
34.0165 161
34.03661 139
34.05672 138
34.07684 158
34.09695 148
34.11706 160
34.13718 163
34.15729 173
34.17741 174
34.19752 186
34.21763 193
34.23775 170
34.25786 180
34.27797 171
34.29809 171
34.3182 178
34.33831 186
34.35843 189
34.37854 153
34.39866 170
34.41877 158
34.43888 158
34.459 162
34.47911 168
34.49922 151
34.51934 174
34.53945 177
34.55957 166
34.57968 166
34.59979 177
34.61991 169
34.64002 151
34.66013 170
34.68025 188
34.70036 169
34.72047 161
34.74059 167
34.7607 176
34.78082 181
34.80093 157
34.82104 159
34.84116 178
34.86127 176
34.88138 188
34.9015 170
34.92161 185
34.94173 188
34.96184 201
34.98195 195
35.00207 203
35.02218 184
35.04229 165
35.06241 195
35.08252 185
35.10264 192
35.12275 200
35.14286 176
35.16298 187
35.18309 212
35.2032 220
35.22332 252
35.24343 261
35.26354 251
35.28366 266
35.30377 259
35.32389 259
35.344 236
35.36411 221
35.38423 231
35.40434 200
35.42445 196
35.44457 233
35.46468 216
35.4848 192
35.50491 226
35.52502 208
35.54514 235
35.56525 224
35.58536 203
35.60548 196
35.62559 199
35.64571 216
35.66582 201
35.68593 191
35.70605 167
35.72616 191
35.74627 189
35.76639 177
35.7865 186
35.80661 166
35.82673 178
35.84684 165
35.86696 167
35.88707 167
35.90718 170
35.9273 212
35.94741 212
35.96752 181
35.98764 192
36.00775 178
36.02787 168
36.04798 194
36.06809 209
36.08821 213
36.10832 220
36.12843 225
36.14855 234
36.16866 246
36.18878 298
36.20889 282
36.229 292
36.24912 310
36.26923 285
36.28934 298
36.30946 356
36.32957 393
36.34968 432
36.3698 471
36.38991 587
36.41003 736
36.43014 1006
36.45025 1225
36.47037 1614
36.49048 1968
36.51059 2238
36.53071 2531
36.55082 2360
36.57094 1893
36.59105 1508
36.61116 1315
36.63128 1244
36.65139 1108
36.6715 661
36.69162 428
36.71173 313
36.73184 292
36.75196 258
36.77207 261
36.79219 220
36.8123 228
36.83241 190
36.85253 208
36.87264 242
36.89275 214
36.91287 205
36.93298 210
36.9531 190
36.97321 210
36.99332 223
37.01344 230
37.03355 210
37.05366 202
37.07378 194
37.09389 161
37.11401 197
37.13412 183
37.15423 147
37.17435 163
37.19446 191
37.21457 192
37.23469 172
37.2548 177
37.27491 160
37.29503 156
37.31514 145
37.33526 152
37.35537 191
37.37548 189
37.3956 188
37.41571 166
37.43582 190
37.45594 164
37.47605 163
37.49617 180
37.51628 191
37.53639 184
37.55651 179
37.57662 176
37.59673 190
37.61685 192
37.63696 193
37.65708 206
37.67719 196
37.6973 172
37.71742 164
37.73753 169
37.75764 173
37.77776 154
37.79787 182
37.81798 169
37.8381 164
37.85821 158
37.87833 183
37.89844 147
37.91855 159
37.93867 185
37.95878 144
37.97889 162
37.99901 167
38.01912 160
38.03924 147
38.05935 138
38.07946 159
38.09958 170
38.11969 154
38.1398 160
38.15992 180
38.18003 152
38.20015 144
38.22026 163
38.24037 159
38.26049 167
38.2806 163
38.30071 132
38.32083 185
38.34094 156
38.36105 189
38.38117 175
38.40128 180
38.4214 187
38.44151 164
38.46162 143
38.48174 196
38.50185 173
38.52196 176
38.54208 186
38.56219 201
38.58231 200
38.60242 202
38.62253 173
38.64265 180
38.66276 187
38.68287 171
38.70299 163
38.7231 192
38.74321 144
38.76333 159
38.78344 165
38.80356 152
38.82367 169
38.84378 180
38.8639 184
38.88401 158
38.90412 156
38.92424 177
38.94435 180
38.96447 190
38.98458 189
39.00469 210
39.02481 219
39.04492 219
39.06503 216
39.08515 230
39.10526 229
39.12538 261
39.14549 264
39.1656 254
39.18572 279
39.20583 295
39.22594 298
39.24606 335
39.26617 382
39.28628 474
39.3064 542
39.32651 667
39.34663 841
39.36674 1079
39.38685 1326
39.40697 1776
39.42708 2098
39.44719 2146
39.46731 2241
39.48742 1922
39.50754 1405
39.52765 1252
39.54776 1196
39.56788 1161
39.58799 859
39.6081 606
39.62822 376
39.64833 303
39.66845 267
39.68856 224
39.70867 276
39.72879 187
39.7489 242
39.76901 241
39.78913 201
39.80924 208
39.82935 185
39.84947 159
39.86958 178
39.8897 190
39.90981 213
39.92992 201
39.95004 170
39.97015 216
39.99026 204
40.01038 205
40.03049 233
40.05061 232
40.07072 246
40.09083 298
40.11095 303
40.13106 343
40.15117 433
40.17129 485
40.1914 574
40.21152 779
40.23163 929
40.25174 1081
40.27186 1181
40.29197 1190
40.31208 980
40.3322 745
40.35231 625
40.37242 697
40.39254 621
40.41265 491
40.43277 325
40.45288 260
40.47299 216
40.49311 185
40.51322 202
40.53333 187
40.55345 192
40.57356 204
40.59368 171
40.61379 174
40.6339 154
40.65402 160
40.67413 185
40.69424 179
40.71436 165
40.73447 164
40.75458 172
40.7747 172
40.79481 163
40.81493 179
40.83504 178
40.85515 148
40.87527 152
40.89538 182
40.91549 175
40.93561 166
40.95572 177
40.97584 161
40.99595 164
41.01606 144
41.03618 147
41.05629 134
41.0764 139
41.09652 179
41.11663 168
41.13675 179
41.15686 146
41.17697 157
41.19709 150
41.2172 147
41.23731 151
41.25743 176
41.27754 165
41.29765 155
41.31777 156
41.33788 167
41.358 147
41.37811 127
41.39822 162
41.41834 152
41.43845 151
41.45856 150
41.47868 137
41.49879 149
41.51891 178
41.53902 163
41.55913 183
41.57925 159
41.59936 177
41.61947 160
41.63959 160
41.6597 174
41.67982 179
41.69993 193
41.72004 204
41.74016 197
41.76027 198
41.78038 244
41.8005 233
41.82061 241
41.84072 192
41.86084 211
41.88095 218
41.90107 229
41.92118 204
41.94129 198
41.96141 207
41.98152 206
42.00163 165
42.02175 185
42.04186 199
42.06198 215
42.08209 213
42.1022 209
42.12232 178
42.14243 246
42.16254 225
42.18266 236
42.20277 271
42.22289 309
42.243 350
42.26311 446
42.28323 503
42.30334 579
42.32345 719
42.34357 827
42.36368 946
42.38379 1199
42.40391 1442
42.42402 1645
42.44414 1616
42.46425 1359
42.48436 1151
42.50448 883
42.52459 864
42.5447 856
42.56482 734
42.58493 565
42.60505 367
42.62516 272
42.64527 236
42.66539 243
42.6855 228
42.70561 212
42.72573 224
42.74584 233
42.76595 198
42.78607 188
42.80618 211
42.8263 206
42.84641 182
42.86652 190
42.88664 202
42.90675 200
42.92686 188
42.94698 198
42.96709 219
42.98721 168
43.00732 177
43.02743 200
43.04755 182
43.06766 172
43.08777 166
43.10789 161
43.128 193
43.14812 172
43.16823 165
43.18834 162
43.20846 135
43.22857 150
43.24868 141
43.2688 155
43.28891 159
43.30902 151
43.32914 145
43.34925 134
43.36937 126
43.38948 143
43.40959 143
43.42971 115
43.44982 165
43.46993 149
43.49005 137
43.51016 144
43.53028 141
43.55039 130
43.5705 135
43.59062 163
43.61073 142
43.63084 130
43.65096 150
43.67107 144
43.69119 151
43.7113 146
43.73141 135
43.75153 107
43.77164 136
43.79175 156
43.81187 139
43.83198 146
43.85209 135
43.87221 145
43.89232 141
43.91244 161
43.93255 132
43.95266 147
43.97278 134
43.99289 140
44.013 132
44.03312 151
44.05323 142
44.07335 143
44.09346 129
44.11357 146
44.13369 148
44.1538 135
44.17391 132
44.19403 148
44.21414 144
44.23426 128
44.25437 152
44.27448 132
44.2946 142
44.31471 130
44.33482 148
44.35494 128
44.37505 139
44.39516 146
44.41528 140
44.43539 139
44.45551 126
44.47562 143
44.49573 136
44.51585 137
44.53596 166
44.55607 134
44.57619 140
44.5963 132
44.61642 135
44.63653 132
44.65664 172
44.67676 152
44.69687 140
44.71698 149
44.7371 142
44.75721 143
44.77732 120
44.79744 146
44.81755 174
44.83767 151
44.85778 177
44.87789 162
44.89801 148
44.91812 146
44.93823 149
44.95835 138
44.97846 168
44.99858 134
45.01869 146
45.0388 138
45.05892 165
45.07903 163
45.09914 148
45.11926 149
45.13937 143
45.15949 135
45.1796 156
45.19971 177
45.21983 139
45.23994 160
45.26005 148
45.28017 150
45.30028 168
45.32039 182
45.34051 158
45.36062 180
45.38074 177
45.40085 173
45.42096 204
45.44108 195
45.46119 203
45.4813 208
45.50142 201
45.52153 245
45.54165 230
45.56176 247
45.58187 285
45.60199 313
45.6221 358
45.64221 401
45.66233 491
45.68244 601
45.70256 721
45.72267 847
45.74278 940
45.7629 1038
45.78301 970
45.80312 1007
45.82324 796
45.84335 668
45.86346 571
45.88358 572
45.90369 582
45.92381 505
45.94392 402
45.96403 245
45.98415 182
46.00426 187
46.02437 167
46.04449 180
46.0646 158
46.08472 159
46.10483 164
46.12494 156
46.14506 155
46.16517 151
46.18528 146
46.2054 173
46.22551 163
46.24563 148
46.26574 140
46.28585 140
46.30597 143
46.32608 132
46.34619 143
46.36631 153
46.38642 150
46.40653 143
46.42665 124
46.44676 141
46.46688 145
46.48699 145
46.5071 124
46.52722 140
46.54733 130
46.56744 145
46.58756 134
46.60767 136
46.62779 123
46.6479 128
46.66801 124
46.68813 135
46.70824 144
46.72835 133
46.74847 152
46.76858 127
46.78869 151
46.80881 161
46.82892 134
46.84904 139
46.86915 140
46.88926 156
46.90938 154
46.92949 134
46.9496 149
46.96972 149
46.98983 123
47.00995 138
47.03006 146
47.05017 140
47.07029 132
47.0904 138
47.11051 126
47.13063 138
47.15074 161
47.17086 141
47.19097 157
47.21108 142
47.2312 145
47.25131 152
47.27142 139
47.29154 146
47.31165 123
47.33176 142
47.35188 144
47.37199 140
47.39211 157
47.41222 144
47.43233 165
47.45245 169
47.47256 170
47.49267 170
47.51279 146
47.5329 146
47.55302 160
47.57313 145
47.59324 140
47.61336 139
47.63347 159
47.65358 141
47.6737 132
47.69381 146
47.71393 154
47.73404 137
47.75415 139
47.77427 136
47.79438 117
47.81449 133
47.83461 129
47.85472 114
47.87483 130
47.89495 107
47.91506 136
47.93518 133
47.95529 140
47.9754 144
47.99552 138
48.01563 123
48.03574 142
48.05586 130
48.07597 131
48.09609 128
48.1162 124
48.13631 147
48.15643 127
48.17654 134
48.19665 154
48.21677 138
48.23688 148
48.257 144
48.27711 152
48.29722 158
48.31734 155
48.33745 152
48.35756 140
48.37768 150
48.39779 131
48.4179 159
48.43802 167
48.45813 164
48.47825 140
48.49836 123
48.51847 139
48.53859 136
48.5587 131
48.57881 147
48.59893 153
48.61904 145
48.63916 132
48.65927 145
48.67938 104
48.6995 159
48.71961 132
48.73972 131
48.75984 154
48.77995 133
48.80006 155
48.82018 145
48.84029 162
48.86041 154
48.88052 143
48.90063 150
48.92075 152
48.94086 164
48.96097 172
48.98109 160
49.0012 173
49.02132 181
49.04143 154
49.06154 137
49.08166 184
49.10177 172
49.12188 189
49.142 222
49.16211 207
49.18223 199
49.20234 178
49.22245 196
49.24257 187
49.26268 162
49.28279 163
49.30291 182
49.32302 167
49.34313 161
49.36325 159
49.38336 163
49.40348 140
49.42359 158
49.4437 138
49.46382 154
49.48393 130
49.50404 185
49.52416 184
49.54427 164
49.56439 185
49.5845 191
49.60461 204
49.62473 223
49.64484 200
49.66495 251
49.68507 266
49.70518 267
49.7253 260
49.74541 294
49.76552 322
49.78564 347
49.80575 360
49.82586 399
49.84598 418
49.86609 530
49.8862 516
49.90632 614
49.92643 683
49.94655 797
49.96666 929
49.98677 1157
50.00689 1391
50.027 1733
50.04711 2077
50.06723 2503
50.08734 3036
50.10746 3413
50.12757 3470
50.14768 2952
50.1678 2348
50.18791 1767
50.20802 1633
50.22814 1725
50.24825 1705
50.26837 1603
50.28848 1280
50.30859 830
50.32871 536
50.34882 424
50.36893 377
50.38905 302
50.40916 278
50.42927 269
50.44939 287
50.4695 254
50.48962 289
50.50973 276
50.52984 307
50.54996 260
50.57007 319
50.59018 288
50.6103 269
50.63041 291
50.65053 302
50.67064 247
50.69075 262
50.71087 237
50.73098 251
50.75109 222
50.77121 222
50.79132 197
50.81143 214
50.83155 183
50.85166 169
50.87178 187
50.89189 161
50.912 193
50.93212 165
50.95223 181
50.97234 178
50.99246 161
51.01257 166
51.03269 154
51.0528 159
51.07291 119
51.09303 145
51.11314 157
51.13325 156
51.15337 145
51.17348 153
51.1936 174
51.21371 158
51.23382 204
51.25394 216
51.27405 205
51.29416 189
51.31428 191
51.33439 202
51.3545 160
51.37462 141
51.39473 147
51.41485 140
51.43496 169
51.45507 160
51.47519 167
51.4953 154
51.51541 142
51.53553 129
51.55564 139
51.57576 144
51.59587 139
51.61598 124
51.6361 139
51.65621 148
51.67632 120
51.69644 129
51.71655 135
51.73667 141
51.75678 125
51.77689 118
51.79701 140
51.81712 119
51.83723 128
51.85735 100
51.87746 120
51.89757 117
51.91769 107
51.9378 129
51.95792 132
51.97803 100
51.99814 114
52.01826 115
52.03837 118
52.05848 123
52.0786 132
52.09871 127
52.11883 154
52.13894 129
52.15905 135
52.17917 138
52.19928 140
52.21939 142
52.23951 136
52.25962 109
52.27974 122
52.29985 139
52.31996 133
52.34008 144
52.36019 126
52.3803 123
52.40042 136
52.42053 108
52.44064 128
52.46076 117
52.48087 153
52.50099 114
52.5211 144
52.54121 139
52.56133 136
52.58144 126
52.60155 120
52.62167 135
52.64178 131
52.6619 146
52.68201 148
52.70212 143
52.72224 123
52.74235 154
52.76246 162
52.78258 151
52.80269 128
52.8228 161
52.84292 137
52.86303 136
52.88315 148
52.90326 142
52.92337 123
52.94349 142
52.9636 139
52.98371 131
53.00383 136
53.02394 151
53.04406 147
53.06417 135
53.08428 146
53.1044 139
53.12451 139
53.14462 121
53.16474 157
53.18485 115
53.20497 132
53.22508 140
53.24519 130
53.26531 139
53.28542 136
53.30553 131
53.32565 131
53.34576 127
53.36587 145
53.38599 140
53.4061 111
53.42622 121
53.44633 126
53.46644 97
53.48656 134
53.50667 107
53.52678 130
53.5469 127
53.56701 145
53.58713 133
53.60724 130
53.62735 132
53.64747 137
53.66758 125
53.68769 125
53.70781 139
53.72792 131
53.74804 122
53.76815 140
53.78826 142
53.80838 143
53.82849 135
53.8486 136
53.86872 118
53.88883 134
53.90894 126
53.92906 150
53.94917 128
53.96929 122
53.9894 121
54.00951 139
54.02963 123
54.04974 160
54.06985 151
54.08997 148
54.11008 110
54.1302 147
54.15031 138
54.17042 118
54.19054 134
54.21065 166
54.23076 146
54.25088 174
54.27099 177
54.29111 162
54.31122 157
54.33133 162
54.35145 173
54.37156 166
54.39167 173
54.41179 166
54.4319 170
54.45201 167
54.47213 181
54.49224 166
54.51236 208
54.53247 185
54.55258 205
54.5727 208
54.59281 218
54.61292 226
54.63304 248
54.65315 252
54.67327 295
54.69338 340
54.71349 407
54.73361 470
54.75372 533
54.77383 705
54.79395 741
54.81406 899
54.83417 1000
54.85429 1085
54.8744 940
54.89452 815
54.91463 591
54.93474 525
54.95486 551
54.97497 579
54.99508 580
55.0152 542
55.03531 450
55.05543 349
55.07554 276
55.09565 223
55.11577 257
55.13588 257
55.15599 285
55.17611 290
55.19622 289
55.21634 351
55.23645 411
55.25656 457
55.27668 522
55.29679 536
55.3169 538
55.33702 443
55.35713 415
55.37724 367
55.39736 378
55.41747 331
55.43759 286
55.4577 331
55.47781 294
55.49793 247
55.51804 201
55.53815 158
55.55827 167
55.57838 163
55.5985 141
55.61861 138
55.63872 124
55.65884 131
55.67895 132
55.69906 123
55.71918 118
55.73929 158
55.75941 154
55.77952 122
55.79963 143
55.81975 110
55.83986 137
55.85997 122
55.88009 117
55.9002 123
55.92031 115
55.94043 130
55.96054 143
55.98066 132
56.00077 118
56.02088 123
56.041 135
56.06111 144
56.08122 102
56.10134 121
56.12145 113
56.14157 122
56.16168 115
56.18179 131
56.20191 111
56.22202 105
56.24213 115
56.26225 132
56.28236 113
56.30248 112
56.32259 133
56.3427 101
56.36282 122
56.38293 90
56.40304 121
56.42316 112
56.44327 126
56.46338 132
56.4835 112
56.50361 107
56.52373 99
56.54384 107
56.56395 117
56.58407 84
56.60418 116
56.62429 116
56.64441 102
56.66452 130
56.68464 120
56.70475 94
56.72486 124
56.74498 109
56.76509 118
56.7852 115
56.80532 125
56.82543 110
56.84554 105
56.86566 108
56.88577 117
56.90589 132
56.926 135
56.94611 105
56.96623 138
56.98634 135
57.00645 125
57.02657 121
57.04668 132
57.0668 121
57.08691 138
57.10702 150
57.12714 175
57.14725 147
57.16736 184
57.18748 159
57.20759 163
57.22771 162
57.24782 183
57.26793 153
57.28805 140
57.30816 140
57.32827 164
57.34839 150
57.3685 151
57.38861 144
57.40873 145
57.42884 107
57.44896 132
57.46907 140
57.48918 144
57.5093 121
57.52941 152
57.54952 136
57.56964 129
57.58975 123
57.60987 118
57.62998 126
57.65009 130
57.67021 133
57.69032 132
57.71043 120
57.73055 123
57.75066 135
57.77078 120
57.79089 119
57.811 138
57.83112 116
57.85123 122
57.87134 114
57.89146 130
57.91157 122
57.93168 114
57.9518 117
57.97191 123
57.99203 137
58.01214 120
58.03225 138
58.05237 146
58.07248 124
58.09259 134
58.11271 120
58.13282 125
58.15294 125
58.17305 113
58.19316 124
58.21328 130
58.23339 132
58.2535 152
58.27362 134
58.29373 121
58.31385 120
58.33396 116
58.35407 114
58.37419 136
58.3943 132
58.41441 148
58.43453 133
58.45464 131
58.47475 167
58.49487 118
58.51498 124
58.5351 135
58.55521 132
58.57532 139
58.59544 155
58.61555 137
58.63566 126
58.65578 138
58.67589 148
58.69601 126
58.71612 117
58.73623 159
58.75635 144
58.77646 159
58.79657 140
58.81669 127
58.8368 119
58.85691 122
58.87703 130
58.89714 144
58.91726 135
58.93737 156
58.95748 140
58.9776 131
58.99771 117
59.01782 122
59.03794 128
59.05805 133
59.07817 109
59.09828 113
59.11839 133
59.13851 120
59.15862 132
59.17873 143
59.19885 122
59.21896 141
59.23908 124
59.25919 160
59.2793 117
59.29942 148
59.31953 126
59.33964 143
59.35976 154
59.37987 145
59.39998 133
59.4201 167
59.44021 149
59.46033 174
59.48044 156
59.50055 190
59.52067 201
59.54078 200
59.56089 200
59.58101 222
59.60112 267
59.62124 276
59.64135 312
59.66146 327
59.68158 352
59.70169 394
59.7218 417
59.74192 508
59.76203 611
59.78215 702
59.80226 834
59.82237 1033
59.84249 1259
59.8626 1476
59.88271 1747
59.90283 1958
59.92294 2028
59.94305 2026
59.96317 1808
59.98328 1433
60.0034 1061
60.02351 952
60.04362 974
60.06374 1018
60.08385 1025
60.10396 1031
60.12408 908
60.14419 702
60.16431 460
60.18442 330
60.20453 255
60.22465 247
60.24476 226
60.26487 214
60.28499 182
60.3051 180
60.32522 196
60.34533 171
60.36544 177
60.38556 157
60.40567 148
60.42578 147
60.4459 129
60.46601 152
60.48612 147
60.50624 152
60.52635 143
60.54647 166
60.56658 139
60.58669 129
60.60681 113
60.62692 135
60.64703 134
60.66715 132
60.68726 139
60.70738 127
60.72749 147
60.7476 167
60.76772 125
60.78783 157
60.80794 136
60.82806 125
60.84817 124
60.86828 112
60.8884 134
60.90851 151
60.92863 136
60.94874 123
60.96885 129
60.98897 133
61.00908 122
61.02919 119
61.04931 125
61.06942 126
61.08954 118
61.10965 119
61.12976 122
61.14988 133
61.16999 130
61.1901 114
61.21022 124
61.23033 122
61.25045 126
61.27056 125
61.29067 125
61.31079 121
61.3309 122
61.35101 141
61.37113 122
61.39124 135
61.41135 134
61.43147 149
61.45158 131
61.4717 118
61.49181 118
61.51192 138
61.53204 129
61.55215 139
61.57226 127
61.59238 156
61.61249 117
61.63261 143
61.65272 133
61.67283 140
61.69295 120
61.71306 147
61.73317 125
61.75329 141
61.7734 134
61.79352 130
61.81363 131
61.83374 143
61.85386 143
61.87397 145
61.89408 123
61.9142 143
61.93431 148
61.95442 143
61.97454 136
61.99465 135
62.01477 130
62.03488 151
62.05499 146
62.07511 134
62.09522 119
62.11533 143
62.13545 140
62.15556 150
62.17568 145
62.19579 142
62.2159 138
62.23602 144
62.25613 141
62.27624 143
62.29636 132
62.31647 118
62.33659 146
62.3567 129
62.37681 130
62.39693 131
62.41704 126
62.43715 127
62.45727 128
62.47738 143
62.49749 140
62.51761 120
62.53772 120
62.55784 122
62.57795 117
62.59806 117
62.61818 135
62.63829 121
62.6584 130
62.67852 128
62.69863 122
62.71875 134
62.73886 136
62.75897 122
62.77909 108
62.7992 120
62.81931 122
62.83943 131
62.85954 144
62.87965 124
62.89977 141
62.91988 116
62.94 137
62.96011 165
62.98022 125
63.00034 149
63.02045 119
63.04056 126
63.06068 121
63.08079 125
63.10091 140
63.12102 134
63.14113 141
63.16125 115
63.18136 116
63.20147 169
63.22159 108
63.2417 112
63.26182 124
63.28193 102
63.30204 125
63.32216 124
63.34227 137
63.36238 129
63.3825 134
63.40261 117
63.42272 143
63.44284 125
63.46295 151
63.48307 130
63.50318 131
63.52329 142
63.54341 141
63.56352 144
63.58363 132
63.60375 154
63.62386 174
63.64398 158
63.66409 168
63.6842 173
63.70432 174
63.72443 184
63.74454 203
63.76466 198
63.78477 214
63.80489 213
63.825 219
63.84511 228
63.86523 252
63.88534 292
63.90545 331
63.92557 333
63.94568 366
63.96579 419
63.98591 436
64.00602 483
64.02614 417
64.04625 377
64.06636 320
64.08648 271
64.10659 290
64.1267 278
64.14682 277
64.16693 267
64.18705 275
64.20716 263
64.22727 237
64.24739 209
64.2675 170
64.28761 160
64.30773 128
64.32784 142
64.34796 114
64.36807 105
64.38818 138
64.4083 129
64.42841 104
64.44852 106
64.46864 128
64.48875 134
64.50886 138
64.52898 107
64.54909 114
64.56921 111
64.58932 123
64.60943 117
64.62955 128
64.64966 121
64.66977 96
64.68989 119
64.71 104
64.73012 117
64.75023 104
64.77034 119
64.79046 94
64.81057 99
64.83068 122
64.8508 118
64.87091 116
64.89102 112
64.91114 117
64.93125 112
64.95137 138
64.97148 117
64.99159 148
65.01171 107
65.03182 127
65.05193 136
65.07205 120
65.09216 136
65.11228 136
65.13239 134
65.1525 143
65.17262 132
65.19273 136
65.21284 121
65.23296 136
65.25307 125
65.27319 143
65.2933 127
65.31341 131
65.33353 141
65.35364 142
65.37375 150
65.39387 128
65.41398 130
65.43409 168
65.45421 124
65.47432 141
65.49444 134
65.51455 142
65.53466 157
65.55478 133
65.57489 168
65.595 145
65.61512 156
65.63523 166
65.65535 162
65.67546 154
65.69557 192
65.71569 194
65.7358 204
65.75591 205
65.77603 184
65.79614 180
65.81626 179
65.83637 153
65.85648 143
65.8766 140
65.89671 190
65.91682 147
65.93694 153
65.95705 158
65.97716 167
65.99728 143
66.01739 116
66.03751 133
66.05762 117
66.07773 144
66.09785 128
66.11796 135
66.13807 131
66.15819 134
66.1783 129
66.19842 124
66.21853 116
66.23864 124
66.25876 110
66.27887 143
66.29898 121
66.3191 119
66.33921 131
66.35933 121
66.37944 132
66.39955 137
66.41967 111
66.43978 129
66.45989 134
66.48001 113
66.50012 149
66.52023 118
66.54035 127
66.56046 146
66.58058 128
66.60069 110
66.6208 121
66.64092 116
66.66103 147
66.68114 114
66.70126 140
66.72137 145
66.74149 123
66.7616 114
66.78171 146
66.80183 135
66.82194 137
66.84205 141
66.86217 149
66.88228 128
66.90239 127
66.92251 149
66.94262 138
66.96274 134
66.98285 137
67.00296 148
67.02308 151
67.04319 146
67.0633 148
67.08342 146
67.10353 141
67.12365 130
67.14376 155
67.16387 154
67.18399 134
67.2041 171
67.22421 174
67.24433 172
67.26444 151
67.28456 177
67.30467 173
67.32478 200
67.3449 202
67.36501 204
67.38512 200
67.40524 218
67.42535 246
67.44546 259
67.46558 267
67.48569 329
67.50581 348
67.52592 383
67.54603 409
67.56615 511
67.58626 579
67.60637 739
67.62649 776
67.6466 926
67.66672 1050
67.68683 1138
67.70694 1289
67.72706 1187
67.74717 1109
67.76728 863
67.7874 753
67.80751 706
67.82763 748
67.84774 758
67.86785 779
67.88797 802
67.90808 908
67.92819 894
67.94831 878
67.96842 833
67.98853 874
68.00865 958
68.02876 1029
68.04888 1186
68.06899 1324
68.0891 1438
68.10922 1533
68.12933 1568
68.14944 1520
68.16956 1370
68.18967 1214
68.20979 1173
68.2299 1233
68.25001 1389
68.27013 1459
68.29024 1466
68.31035 1398
68.33047 1197
68.35058 973
68.3707 716
68.39081 624
68.41092 569
68.43104 551
68.45115 567
68.47126 575
68.49138 559
68.51149 472
68.5316 354
68.55172 275
68.57183 243
68.59195 217
68.61206 225
68.63217 170
68.65229 173
68.6724 161
68.69251 182
68.71263 171
68.73274 153
68.75286 149
68.77297 157
68.79308 162
68.8132 160
68.83331 159
68.85342 136
68.87354 130
68.89365 135
68.91376 144
68.93388 137
68.95399 122
68.97411 151
68.99422 141
69.01433 134
69.03445 134
69.05456 133
69.07467 133
69.09479 131
69.1149 146
69.13502 136
69.15513 152
69.17524 137
69.19536 145
69.21547 126
69.23558 146
69.2557 129
69.27581 120
69.29593 157
69.31604 134
69.33615 153
69.35627 126
69.37638 135
69.39649 133
69.41661 124
69.43672 116
69.45683 125
69.47695 123
69.49706 114
69.51718 133
69.53729 134
69.5574 139
69.57752 121
69.59763 123
69.61774 127
69.63786 142
69.65797 135
69.67809 139
69.6982 132
69.71831 118
69.73843 132
69.75854 129
69.77865 144
69.79877 128
69.81888 134
69.839 138
69.85911 151
69.87922 107
69.89934 121
69.91945 106
69.93956 129
69.95968 115
69.97979 144
69.9999 117
70.02002 133
70.04013 109
70.06025 108
70.08036 116
70.10047 130
70.12059 112
70.1407 108
70.16081 123
70.18093 77
70.20104 114
70.22116 118
70.24127 99
70.26138 121
70.2815 116
70.30161 101
70.32172 105
70.34184 96
70.36195 116
70.38207 100
70.40218 121
70.42229 95
70.44241 83
70.46252 118
70.48263 102
70.50275 117
70.52286 92
70.54297 106
70.56309 106
70.5832 121
70.60332 100
70.62343 114
70.64354 65
70.66366 112
70.68377 102
70.70388 123
70.724 114
70.74411 113
70.76423 99
70.78434 114
70.80445 124
70.82457 116
70.84468 120
70.86479 107
70.88491 109
70.90502 127
70.92513 118
70.94525 113
70.96536 118
70.98548 117
71.00559 124
71.0257 107
71.04582 102
71.06593 105
71.08604 102
71.10616 128
71.12627 121
71.14639 122
71.1665 126
71.18661 121
71.20673 116
71.22684 142
71.24695 132
71.26707 99
71.28718 106
71.3073 136
71.32741 113
71.34752 121
71.36764 127
71.38775 117
71.40786 117
71.42798 124
71.44809 109
71.4682 120
71.48832 103
71.50843 109
71.52855 114
71.54866 129
71.56877 124
71.58889 107
71.609 111
71.62911 105
71.64923 109
71.66934 123
71.68946 109
71.70957 116
71.72968 110
71.7498 109
71.76991 132
71.79002 108
71.81014 108
71.83025 112
71.85037 104
71.87048 99
71.89059 111
71.91071 105
71.93082 118
71.95093 106
71.97105 103
71.99116 114
72.01127 108
72.03139 95
72.0515 102
72.07162 112
72.09173 103
72.11184 104
72.13196 106
72.15207 99
72.17218 129
72.1923 119
72.21241 102
72.23253 112
72.25264 109
72.27275 115
72.29287 99
72.31298 111
72.33309 120
72.35321 99
72.37332 113
72.39344 118
72.41355 100
72.43366 113
72.45378 102
72.47389 93
72.494 116
72.51412 128
72.53423 92
72.55434 90
72.57446 105
72.59457 95
72.61469 124
72.6348 113
72.65491 104
72.67503 114
72.69514 102
72.71525 113
72.73537 99
72.75548 118
72.7756 96
72.79571 116
72.81582 114
72.83594 124
72.85605 124
72.87616 104
72.89628 115
72.91639 110
72.9365 111
72.95662 121
72.97673 141
72.99685 130
73.01696 130
73.03707 140
73.05719 130
73.0773 140
73.09741 155
73.11753 147
73.13764 135
73.15776 149
73.17787 170
73.19798 154
73.2181 167
73.23821 186
73.25832 231
73.27844 216
73.29855 237
73.31867 274
73.33878 300
73.35889 328
73.37901 384
73.39912 427
73.41923 463
73.43935 475
73.45946 454
73.47957 411
73.49969 359
73.5198 265
73.53992 232
73.56003 236
73.58014 265
73.60026 265
73.62037 266
73.64048 272
73.6606 285
73.68071 290
73.70083 215
73.72094 192
73.74105 163
73.76117 159
73.78128 145
73.80139 126
73.82151 151
73.84162 128
73.86174 135
73.88185 127
73.90196 113
73.92208 129
73.94219 136
73.9623 135
73.98242 123
74.00253 132
74.02264 120
74.04276 136
74.06287 110
74.08299 104
74.1031 124
74.12321 120
74.14333 116
74.16344 103
74.18355 91
74.20367 132
74.22378 115
74.2439 113
74.26401 93
74.28412 126
74.30424 115
74.32435 112
74.34446 102
74.36458 108
74.38469 115
74.40481 109
74.42492 112
74.44503 113
74.46515 136
74.48526 108
74.50537 121
74.52549 114
74.5456 129
74.56571 134
74.58583 116
74.60594 117
74.62606 116
74.64617 109
74.66628 115
74.6864 122
74.70651 116
74.72662 114
74.74674 103
74.76685 141
74.78697 138
74.80708 115
74.82719 123
74.84731 131
74.86742 130
74.88753 109
74.90765 123
74.92776 108
74.94787 106
74.96799 114
74.9881 130
75.00822 114
