3.00117 21445
3.02128 20732
3.0414 20599
3.06151 19776
3.08162 19521
3.10174 18761
3.12185 18051
3.14197 18028
3.16208 16915
3.18219 16898
3.20231 16192
3.22242 15735
3.24253 15258
3.26265 14578
3.28276 14375
3.30288 14101
3.32299 13482
3.3431 13355
3.36322 12843
3.38333 12250
3.40344 11800
3.42356 11424
3.44367 11426
3.46379 10758
3.4839 10503
3.50401 9816
3.52413 9696
3.54424 9550
3.56435 9047
3.58447 8931
3.60458 8353
3.62469 8212
3.64481 8040
3.66492 7391
3.68504 7355
3.70515 6979
3.72526 6704
3.74538 6675
3.76549 5942
3.7856 5808
3.80572 5726
3.82583 5483
3.84595 5492
3.86606 5040
3.88617 4913
3.90629 4636
3.9264 4547
3.94651 4384
3.96663 4016
3.98674 3929
4.00686 3744
4.02697 3605
4.04708 3626
4.0672 3254
4.08731 3261
4.10742 3109
4.12754 2923
4.14765 2898
4.16776 2589
4.18788 2687
4.20799 2581
4.22811 2327
4.24822 2418
4.26833 2191
4.28845 2166
4.30856 2040
4.32867 1959
4.34879 2098
4.3689 1874
4.38902 2038
4.40913 1898
4.42924 1832
4.44936 1882
4.46947 1625
4.48958 1607
4.5097 1691
4.52981 1562
4.54992 1529
4.57004 1452
4.59015 1450
4.61027 1439
4.63038 1375
4.65049 1428
4.67061 1344
4.69072 1289
4.71083 1253
4.73095 1316
4.75106 1229
4.77118 1146
4.79129 1171
4.8114 1189
4.83152 1092
4.85163 1073
4.87174 1049
4.89186 1099
4.91197 1084
4.93209 1031
4.9522 1030
4.97231 961
4.99243 1025
5.01254 998
5.03265 936
5.05277 900
5.07288 864
5.09299 872
5.11311 846
5.13322 871
5.15334 853
5.17345 807
5.19356 812
5.21368 815
5.23379 793
5.2539 736
5.27402 768
5.29413 688
5.31425 744
5.33436 683
5.35447 671
5.37459 694
5.3947 659
5.41481 679
5.43493 678
5.45504 660
5.47516 624
5.49527 624
5.51538 674
5.5355 614
5.55561 615
5.57572 591
5.59584 627
5.61595 596
5.63606 586
5.65618 572
5.67629 554
5.69641 526
5.71652 520
5.73663 529
5.75675 507
5.77686 503
5.79697 522
5.81709 490
5.8372 473
5.85732 520
5.87743 475
5.89754 508
5.91766 490
5.93777 486
5.95788 540
5.978 498
5.99811 476
6.01823 522
6.03834 454
6.05845 445
6.07857 494
6.09868 479
6.11879 457
6.13891 454
6.15902 496
6.17913 434
6.19925 460
6.21936 458
6.23948 444
6.25959 423
6.2797 426
6.29982 397
6.31993 443
6.34004 451
6.36016 415
6.38027 409
6.40039 420
6.4205 445
6.44061 430
6.46073 469
6.48084 382
6.50095 405
6.52107 424
6.54118 417
6.56129 423
6.58141 388
6.60152 439
6.62164 434
6.64175 391
6.66186 389
6.68198 417
6.70209 426
6.7222 382
6.74232 418
6.76243 396
6.78255 418
6.80266 393
6.82277 412
6.84289 388
6.863 390
6.88311 399
6.90323 403
6.92334 392
6.94346 401
6.96357 414
6.98368 422
7.0038 420
7.02391 388
7.04402 370
7.06414 364
7.08425 376
7.10436 432
7.12448 377
7.14459 415
7.16471 377
7.18482 395
7.20493 372
7.22505 417
7.24516 340
7.26527 353
7.28539 403
7.3055 407
7.32562 371
7.34573 385
7.36584 364
7.38596 371
7.40607 392
7.42618 407
7.4463 375
7.46641 402
7.48653 420
7.50664 375
7.52675 377
7.54687 359
7.56698 357
7.58709 389
7.60721 387
7.62732 365
7.64743 401
7.66755 407
7.68766 358
7.70778 393
7.72789 419
7.748 395
7.76812 353
7.78823 368
7.80834 363
7.82846 388
7.84857 421
7.86869 376
7.8888 375
7.90891 348
7.92903 387
7.94914 328
7.96925 398
7.98937 414
8.00948 326
8.0296 359
8.04971 349
8.06982 359
8.08994 343
8.11005 376
8.13016 336
8.15028 373
8.17039 366
8.1905 407
8.21062 398
8.23073 401
8.25085 366
8.27096 380
8.29107 386
8.31119 362
8.3313 443
8.35141 349
8.37153 403
8.39164 347
8.41176 386
8.43187 376
8.45198 388
8.4721 379
8.49221 380
8.51232 370
8.53244 383
8.55255 380
8.57266 408
8.59278 415
8.61289 355
8.63301 389
8.65312 379
8.67323 343
8.69335 362
8.71346 366
8.73357 406
8.75369 369
8.7738 344
8.79392 381
8.81403 359
8.83414 388
8.85426 341
8.87437 366
8.89448 350
8.9146 367
8.93471 428
8.95483 369
8.97494 359
8.99505 353
9.01517 383
9.03528 319
9.05539 328
9.07551 336
9.09562 355
9.11573 353
9.13585 384
9.15596 339
9.17608 366
9.19619 323
9.2163 314
9.23642 324
9.25653 338
9.27664 370
9.29676 369
9.31687 360
9.33699 350
9.3571 378
9.37721 363
9.39733 375
9.41744 359
9.43755 365
9.45767 391
9.47778 351
9.4979 361
9.51801 340
9.53812 409
9.55824 383
9.57835 403
9.59846 352
9.61858 372
9.63869 351
9.6588 338
9.67892 323
9.69903 359
9.71915 379
9.73926 386
9.75937 376
9.77949 315
9.7996 366
9.81971 343
9.83983 354
9.85994 368
9.88006 354
9.90017 386
9.92028 309
9.9404 356
9.96051 333
9.98062 360
10.00074 368
10.02085 342
10.04097 342
10.06108 321
10.08119 339
10.10131 343
10.12142 350
10.14153 371
10.16165 369
10.18176 407
10.20187 388
10.22199 384
10.2421 323
10.26222 372
10.28233 402
10.30244 336
10.32256 340
10.34267 376
10.36278 350
10.3829 341
10.40301 340
10.42313 345
10.44324 382
10.46335 396
10.48347 360
10.50358 391
10.52369 346
10.54381 364
10.56392 377
10.58403 362
10.60415 367
10.62426 351
10.64438 358
10.66449 369
10.6846 365
10.70472 370
10.72483 393
10.74494 378
10.76506 374
10.78517 379
10.80529 330
10.8254 384
10.84551 370
10.86563 417
10.88574 355
10.90585 376
10.92597 366
10.94608 365
10.9662 370
10.98631 372
11.00642 391
11.02654 359
11.04665 400
11.06676 374
11.08688 342
11.10699 409
11.1271 393
11.14722 401
11.16733 382
11.18745 387
11.20756 395
11.22767 395
11.24779 391
11.2679 443
11.28801 398
11.30813 417
11.32824 448
11.34836 465
11.36847 428
11.38858 420
11.4087 451
11.42881 463
11.44892 456
11.46904 487
11.48915 499
11.50927 519
11.52938 494
11.54949 490
11.56961 534
11.58972 511
11.60983 522
11.62995 504
11.65006 563
11.67017 552
11.69029 596
11.7104 577
11.73052 554
11.75063 606
11.77074 584
11.79086 655
11.81097 637
11.83108 580
11.8512 634
11.87131 630
11.89143 689
11.91154 723
11.93165 797
11.95177 747
11.97188 792
11.99199 843
12.01211 860
12.03222 864
12.05234 881
12.07245 961
12.09256 943
12.11268 999
12.13279 1021
12.1529 1007
12.17302 959
12.19313 1052
12.21324 1023
12.23336 1007
12.25347 921
12.27359 865
12.2937 818
12.31381 779
12.33393 724
12.35404 647
12.37415 657
12.39427 628
12.41438 613
12.4345 584
12.45461 558
12.47472 490
12.49484 491
12.51495 467
12.53506 430
12.55518 469
12.57529 440
12.5954 419
12.61552 429
12.63563 412
12.65575 454
12.67586 428
12.69597 411
12.71609 418
12.7362 397
12.75631 409
12.77643 384
12.79654 425
12.81666 364
12.83677 381
12.85688 349
12.877 385
12.89711 347
12.91722 355
12.93734 338
12.95745 370
12.97757 358
12.99768 343
13.01779 365
13.03791 351
13.05802 333
13.07813 346
13.09825 304
13.11836 347
13.13847 324
13.15859 324
13.1787 327
13.19882 346
13.21893 285
13.23904 329
13.25916 313
13.27927 313
13.29938 281
13.3195 344
13.33961 320
13.35973 323
13.37984 334
13.39995 356
13.42007 336
13.44018 314
13.46029 293
13.48041 322
13.50052 315
13.52064 300
13.54075 308
13.56086 266
13.58098 324
13.60109 294
13.6212 281
13.64132 300
13.66143 274
13.68154 294
13.70166 285
13.72177 329
13.74189 279
13.762 264
13.78211 293
13.80223 282
13.82234 289
13.84245 302
13.86257 276
13.88268 294
13.9028 302
13.92291 312
13.94302 324
13.96314 294
13.98325 304
14.00336 304
14.02348 285
14.04359 293
14.06371 297
14.08382 291
14.10393 259
14.12405 253
14.14416 291
14.16427 288
14.18439 286
14.2045 306
14.22461 286
14.24473 288
14.26484 280
14.28496 277
14.30507 268
14.32518 282
14.3453 269
14.36541 260
14.38552 279
14.40564 280
14.42575 278
14.44587 286
14.46598 269
14.48609 265
14.50621 240
14.52632 260
14.54643 263
14.56655 303
14.58666 264
14.60677 298
14.62689 276
14.647 250
14.66712 267
14.68723 306
14.70734 308
14.72746 256
14.74757 320
14.76768 261
14.7878 286
14.80791 269
14.82803 249
14.84814 259
14.86825 267
14.88837 295
14.90848 290
14.92859 275
14.94871 291
14.96882 258
14.98894 254
15.00905 273
15.02916 272
15.04928 289
15.06939 271
15.0895 289
15.10962 256
15.12973 274
15.14984 268
15.16996 255
15.19007 298
15.21019 269
15.2303 279
15.25041 245
15.27053 298
15.29064 239
15.31075 262
15.33087 273
15.35098 264
15.3711 259
15.39121 282
15.41132 283
15.43144 255
15.45155 253
15.47166 246
15.49178 313
15.51189 261
15.53201 281
15.55212 263
15.57223 289
15.59235 290
15.61246 218
15.63257 258
15.65269 278
15.6728 273
15.69291 285
15.71303 269
15.73314 274
15.75326 275
15.77337 263
15.79348 271
15.8136 273
15.83371 244
15.85382 255
15.87394 261
15.89405 307
15.91417 256
15.93428 309
15.95439 253
15.97451 287
15.99462 246
16.01473 273
16.03485 250
16.05496 262
16.07508 242
16.09519 252
16.1153 269
16.13542 265
16.15553 262
16.17564 276
16.19576 300
16.21587 251
16.23598 256
16.2561 252
16.27621 270
16.29633 297
16.31644 230
16.33655 243
16.35667 252
16.37678 253
16.39689 253
16.41701 290
16.43712 281
16.45724 257
16.47735 238
16.49746 267
16.51758 238
16.53769 274
16.5578 283
16.57792 241
16.59803 262
16.61814 290
16.63826 250
16.65837 271
16.67849 258
16.6986 238
16.71871 263
16.73883 254
16.75894 261
16.77905 252
16.79917 242
16.81928 262
16.8394 259
16.85951 305
16.87962 274
16.89974 301
16.91985 285
16.93996 290
16.96008 272
16.98019 253
17.00031 258
17.02042 268
17.04053 259
17.06065 268
17.08076 259
17.10087 254
17.12099 269
17.1411 283
17.16121 277
17.18133 265
17.20144 265
17.22156 289
17.24167 241
17.26178 260
17.2819 251
17.30201 299
17.32212 254
17.34224 260
17.36235 284
17.38247 268
17.40258 244
17.42269 307
17.44281 268
17.46292 306
17.48303 262
17.50315 250
17.52326 250
17.54338 284
17.56349 320
17.5836 261
17.60372 246
17.62383 256
17.64394 258
17.66406 282
17.68417 249
17.70428 268
17.7244 293
17.74451 291
17.76463 278
17.78474 262
17.80485 268
17.82497 281
17.84508 264
17.86519 291
17.88531 265
17.90542 292
17.92554 271
17.94565 281
17.96576 270
17.98588 287
18.00599 268
18.0261 293
18.04622 266
18.06633 328
18.08645 280
18.10656 279
18.12667 273
18.14679 253
18.1669 279
18.18701 293
18.20713 266
18.22724 277
18.24735 294
18.26747 275
18.28758 318
18.3077 292
18.32781 275
18.34792 272
18.36804 274
18.38815 270
18.40826 288
18.42838 281
18.44849 289
18.46861 273
18.48872 268
18.50883 296
18.52895 280
18.54906 287
18.56917 280
18.58929 265
18.6094 290
18.62951 259
18.64963 281
18.66974 253
18.68986 315
18.70997 263
18.73008 270
18.7502 284
18.77031 272
18.79042 295
18.81054 277
18.83065 266
18.85077 263
18.87088 264
18.89099 325
18.91111 306
18.93122 291
18.95133 246
18.97145 293
18.99156 266
19.01168 306
19.03179 300
19.0519 293
19.07202 302
19.09213 293
19.11224 305
19.13236 318
19.15247 336
19.17258 334
19.1927 310
19.21281 354
19.23293 319
19.25304 332
19.27315 357
19.29327 365
19.31338 369
19.33349 396
19.35361 384
19.37372 416
19.39384 446
19.41395 445
19.43406 456
19.45418 484
19.47429 513
19.4944 619
19.51452 643
19.53463 663
19.55475 789
19.57486 790
19.59497 856
19.61509 966
19.6352 936
19.65531 982
19.67543 1127
19.69554 1079
19.71565 1164
19.73577 1165
19.75588 1140
19.776 1193
19.79611 1091
19.81622 1080
19.83634 1068
19.85645 1017
19.87656 1037
19.89668 974
19.91679 951
19.93691 982
19.95702 954
19.97713 1019
19.99725 982
20.01736 919
20.03747 945
20.05759 939
20.0777 972
20.09782 932
20.11793 922
20.13804 878
20.15816 909
20.17827 891
20.19838 917
20.2185 906
20.23861 907
20.25872 849
20.27884 908
20.29895 870
20.31907 926
20.33918 846
20.35929 904
20.37941 916
20.39952 967
20.41963 935
20.43975 971
20.45986 1011
20.47998 1083
20.50009 1153
20.5202 1285
20.54032 1317
20.56043 1556
20.58054 1717
20.60066 2058
20.62077 2209
20.64088 2547
20.661 2835
20.68111 3004
20.70123 2957
20.72134 2827
20.74145 2395
20.76157 2092
20.78168 1792
20.80179 1401
20.82191 1165
20.84202 998
20.86214 906
20.88225 842
20.90236 915
20.92248 851
20.94259 823
20.9627 824
20.98282 795
21.00293 773
21.02305 760
21.04316 803
21.06327 819
21.08339 814
21.1035 792
21.12361 723
21.14373 735
21.16384 763
21.18395 722
21.20407 781
21.22418 733
21.2443 717
21.26441 701
21.28452 744
21.30464 775
21.32475 725
21.34486 699
21.36498 747
21.38509 672
21.40521 705
21.42532 660
21.44543 651
21.46555 697
21.48566 653
21.50577 662
21.52589 630
21.546 637
21.56612 640
21.58623 629
21.60634 607
21.62646 638
21.64657 614
21.66668 608
21.6868 572
21.70691 599
21.72702 615
21.74714 621
21.76725 590
21.78737 604
21.80748 582
21.82759 613
21.84771 546
21.86782 499
21.88793 571
21.90805 584
21.92816 541
21.94828 555
21.96839 546
21.9885 619
22.00862 551
22.02873 544
22.04884 552
22.06896 571
22.08907 569
22.10919 500
22.1293 570
22.14941 528
22.16953 552
22.18964 517
22.20975 557
22.22987 545
22.24998 561
22.27009 519
22.29021 510
22.31032 494
22.33044 499
22.35055 508
22.37066 521
22.39078 534
22.41089 491
22.431 520
22.45112 488
22.47123 465
22.49135 487
22.51146 504
22.53157 499
22.55169 493
22.5718 568
22.59191 488
22.61203 530
22.63214 514
22.65225 501
22.67237 439
22.69248 505
22.7126 492
22.73271 498
22.75282 516
22.77294 516
22.79305 464
22.81316 487
22.83328 499
22.85339 463
22.87351 494
22.89362 492
22.91373 458
22.93385 475
22.95396 406
22.97407 455
22.99419 485
23.0143 527
23.03442 417
23.05453 478
23.07464 446
23.09476 481
23.11487 480
23.13498 470
23.1551 447
23.17521 424
23.19532 439
23.21544 488
23.23555 447
23.25567 488
23.27578 488
23.29589 471
23.31601 456
23.33612 452
23.35623 411
23.37635 452
23.39646 434
23.41658 452
23.43669 449
23.4568 459
23.47692 501
23.49703 482
23.51714 469
23.53726 461
23.55737 477
23.57749 530
23.5976 461
23.61771 456
23.63783 462
23.65794 460
23.67805 476
23.69817 475
23.71828 481
23.73839 490
23.75851 491
23.77862 496
23.79874 541
23.81885 540
23.83896 472
23.85908 476
23.87919 525
23.8993 528
23.91942 484
23.93953 484
23.95965 504
23.97976 489
23.99987 490
24.01999 514
24.0401 518
24.06021 525
24.08033 532
24.10044 518
24.12056 539
24.14067 556
24.16078 524
24.1809 550
24.20101 541
24.22112 530
24.24124 576
24.26135 579
24.28146 581
24.30158 566
24.32169 602
24.34181 613
24.36192 592
24.38203 580
24.40215 592
24.42226 645
24.44237 679
24.46249 698
24.4826 732
24.50272 748
24.52283 737
24.54294 818
24.56306 846
24.58317 798
24.60328 870
24.6234 893
24.64351 909
24.66362 947
24.68374 929
24.70385 956
24.72397 1019
24.74408 909
24.76419 979
24.78431 875
24.80442 855
24.82453 879
24.84465 834
24.86476 859
24.88488 785
24.90499 783
24.9251 793
24.94522 777
24.96533 786
24.98544 740
25.00556 813
25.02567 794
25.04579 829
25.0659 847
25.08601 848
25.10613 871
25.12624 908
25.14635 904
25.16647 868
25.18658 787
25.20669 777
25.22681 683
25.24692 731
25.26704 668
25.28715 619
25.30726 590
25.32738 634
25.34749 609
25.3676 565
25.38772 601
25.40783 553
25.42795 587
25.44806 543
25.46817 582
25.48829 535
25.5084 534
25.52851 549
25.54863 568
25.56874 573
25.58886 573
25.60897 539
25.62908 543
25.6492 588
25.66931 549
25.68942 571
25.70954 555
25.72965 513
25.74976 559
25.76988 567
25.78999 543
25.81011 574
25.83022 548
25.85033 590
25.87045 561
25.89056 554
25.91067 604
25.93079 585
25.9509 572
25.97102 633
25.99113 653
26.01124 642
26.03136 745
26.05147 726
26.07158 798
26.0917 788
26.11181 867
26.13193 921
26.15204 964
26.17215 1051
26.19227 1189
26.21238 1396
26.23249 1585
26.25261 1806
26.27272 2168
26.29283 2752
26.31295 3545
26.33306 4331
26.35318 5352
26.37329 6554
26.3934 7975
26.41352 9288
26.43363 10453
26.45374 11082
26.47386 11240
26.49397 10310
26.51409 9288
26.5342 7269
26.55431 5645
26.57443 4131
26.59454 3066
26.61465 2093
26.63477 1540
26.65488 1221
26.67499 983
26.69511 920
26.71522 913
26.73534 819
26.75545 754
26.77556 724
26.79568 638
26.81579 686
26.8359 627
26.85602 529
26.87613 538
26.89625 552
26.91636 553
26.93647 511
26.95659 563
26.9767 523
26.99681 521
27.01693 503
27.03704 524
27.05716 520
27.07727 504
27.09738 479
27.1175 520
27.13761 532
27.15772 518
27.17784 514
27.19795 536
27.21806 554
27.23818 524
27.25829 544
27.27841 561
27.29852 479
27.31863 537
27.33875 485
27.35886 489
27.37897 457
27.39909 449
27.4192 442
27.43932 461
27.45943 467
27.47954 419
27.49966 409
27.51977 463
27.53988 473
27.56 458
27.58011 376
27.60023 406
27.62034 403
27.64045 412
27.66057 397
27.68068 405
27.70079 443
27.72091 385
27.74102 378
27.76113 376
27.78125 394
27.80136 334
27.82148 370
27.84159 412
27.8617 411
27.88182 393
27.90193 358
27.92204 363
27.94216 376
27.96227 377
27.98239 400
28.0025 388
28.02261 411
28.04273 360
28.06284 357
28.08295 380
28.10307 394
28.12318 407
28.1433 355
28.16341 396
28.18352 357
28.20364 364
28.22375 354
28.24386 360
28.26398 358
28.28409 399
28.3042 353
28.32432 359
28.34443 387
28.36455 337
28.38466 363
28.40477 370
28.42489 351
28.445 368
28.46511 350
28.48523 373
28.50534 338
28.52546 334
28.54557 365
28.56568 345
28.5858 363
28.60591 364
28.62602 313
28.64614 381
28.66625 361
28.68636 363
28.70648 357
28.72659 333
28.74671 358
28.76682 346
28.78693 330
28.80705 317
28.82716 345
28.84727 337
28.86739 307
28.8875 350
28.90762 315
28.92773 347
28.94784 351
28.96796 330
28.98807 331
29.00818 327
29.0283 357
29.04841 308
29.06853 344
29.08864 315
29.10875 345
29.12887 338
29.14898 319
29.16909 323
29.18921 338
29.20932 339
29.22943 339
29.24955 324
29.26966 347
29.28978 341
29.30989 334
29.33 342
29.35012 313
29.37023 331
29.39034 354
29.41046 332
29.43057 346
29.45069 340
29.4708 325
29.49091 323
29.51103 350
29.53114 338
29.55125 343
29.57137 332
29.59148 363
29.6116 350
29.63171 356
29.65182 362
29.67194 356
29.69205 345
29.71216 318
29.73228 366
29.75239 340
29.7725 312
29.79262 338
29.81273 323
29.83285 305
29.85296 334
29.87307 291
29.89319 297
29.9133 324
29.93341 339
29.95353 350
29.97364 324
29.99376 330
30.01387 308
30.03398 332
30.0541 364
30.07421 355
30.09432 316
30.11444 351
30.13455 323
30.15467 310
30.17478 305
30.19489 329
30.21501 325
30.23512 330
30.25523 326
30.27535 311
30.29546 313
30.31557 285
30.33569 300
30.3558 296
30.37592 310
30.39603 313
30.41614 285
30.43626 332
30.45637 328
30.47648 287
30.4966 325
30.51671 336
30.53683 327
30.55694 301
30.57705 297
30.59717 318
30.61728 325
30.63739 296
30.65751 351
30.67762 302
30.69773 332
30.71785 341
30.73796 320
30.75808 310
30.77819 319
30.7983 309
30.81842 309
30.83853 267
30.85864 302
30.87876 306
30.89887 340
30.91899 320
30.9391 288
30.95921 287
30.97933 295
30.99944 324
31.01955 317
31.03967 315
31.05978 306
31.0799 323
31.10001 336
31.12012 350
31.14024 303
31.16035 314
31.18046 307
31.20058 311
31.22069 315
31.2408 278
31.26092 276
31.28103 318
31.30115 297
31.32126 304
31.34137 293
31.36149 302
31.3816 293
31.40171 272
31.42183 291
31.44194 304
31.46206 279
31.48217 310
31.50228 304
31.5224 332
31.54251 288
31.56262 276
31.58274 304
31.60285 305
31.62297 317
31.64308 312
31.66319 309
31.68331 302
31.70342 282
31.72353 297
31.74365 265
31.76376 272
31.78387 300
31.80399 293
31.8241 336
31.84422 335
31.86433 290
31.88444 287
31.90456 256
31.92467 297
31.94478 291
31.9649 311
31.98501 276
32.00513 321
32.02524 313
32.04535 270
32.06547 321
32.08558 297
32.10569 299
32.12581 306
32.14592 314
32.16604 283
32.18615 301
32.20626 302
32.22638 296
32.24649 285
32.2666 274
32.28672 285
32.30683 325
32.32694 281
32.34706 298
32.36717 309
32.38729 312
32.4074 287
32.42751 291
32.44763 323
32.46774 312
32.48785 330
32.50797 323
32.52808 305
32.5482 306
32.56831 309
32.58842 311
32.60854 289
32.62865 297
32.64876 300
32.66888 283
32.68899 298
32.7091 320
32.72922 306
32.74933 291
32.76945 336
32.78956 305
32.80967 284
32.82979 320
32.8499 292
32.87001 300
32.89013 331
32.91024 314
32.93036 295
32.95047 301
32.97058 320
32.9907 313
33.01081 330
33.03092 344
33.05104 334
33.07115 306
33.09127 306
33.11138 313
33.13149 327
33.15161 303
33.17172 325
33.19183 329
33.21195 310
33.23206 313
33.25217 278
33.27229 292
33.2924 296
33.31252 335
33.33263 291
33.35274 309
33.37286 295
33.39297 311
33.41308 317
33.4332 319
33.45331 305
33.47343 314
33.49354 288
33.51365 284
33.53377 301
33.55388 276
33.57399 262
33.59411 284
33.61422 301
33.63434 290
33.65445 313
33.67456 280
33.69468 309
33.71479 296
33.7349 317
33.75502 281
33.77513 303
33.79524 287
33.81536 315
33.83547 288
33.85559 287
33.8757 305
33.89581 317
33.91593 276
33.93604 325
33.95615 295
33.97627 303
33.99638 301
34.0165 311
34.03661 334
34.05672 313
34.07684 312
34.09695 346
34.11706 311
34.13718 323
34.15729 323
34.17741 345
34.19752 353
34.21763 356
34.23775 376
34.25786 383
34.27797 359
34.29809 356
34.3182 414
34.33831 387
34.35843 366
34.37854 425
34.39866 441
34.41877 447
34.43888 448
34.459 450
34.47911 499
34.49922 545
34.51934 499
34.53945 494
34.55957 539
34.57968 579
34.59979 524
34.61991 591
34.64002 583
34.66013 629
34.68025 637
34.70036 643
34.72047 620
34.74059 683
34.7607 623
34.78082 687
34.80093 661
34.82104 674
34.84116 629
34.86127 627
34.88138 604
34.9015 614
34.92161 593
34.94173 589
34.96184 559
34.98195 571
35.00207 535
35.02218 535
35.04229 571
35.06241 562
35.08252 517
35.10264 500
35.12275 558
35.14286 543
35.16298 537
35.18309 542
35.2032 521
35.22332 521
35.24343 590
35.26354 540
35.28366 549
35.30377 566
35.32389 578
35.344 574
35.36411 547
35.38423 509
35.40434 561
35.42445 600
35.44457 594
35.46468 578
35.4848 588
35.50491 581
35.52502 600
35.54514 578
35.56525 574
35.58536 566
35.60548 604
35.62559 610
35.64571 608
35.66582 604
35.68593 599
35.70605 628
35.72616 642
35.74627 569
35.76639 583
35.7865 587
35.80661 657
35.82673 585
35.84684 619
35.86696 608
35.88707 582
35.90718 595
35.9273 558
35.94741 570
35.96752 571
35.98764 577
36.00775 531
36.02787 550
36.04798 578
36.06809 508
36.08821 531
36.10832 575
36.12843 587
36.14855 585
36.16866 630
36.18878 682
36.20889 698
36.229 715
36.24912 807
36.26923 919
36.28934 957
36.30946 1056
36.32957 1087
36.34968 1131
36.3698 1151
36.38991 1109
36.41003 1065
36.43014 970
36.45025 858
36.47037 808
36.49048 735
36.51059 639
36.53071 604
36.55082 548
36.57094 551
36.59105 508
36.61116 496
36.63128 529
36.65139 502
36.6715 520
36.69162 533
36.71173 498
36.73184 486
36.75196 482
36.77207 482
36.79219 481
36.8123 485
36.83241 530
36.85253 470
36.87264 488
36.89275 486
36.91287 514
36.93298 484
36.9531 436
36.97321 483
36.99332 485
37.01344 452
37.03355 492
37.05366 479
37.07378 466
37.09389 460
37.11401 474
37.13412 460
37.15423 467
37.17435 507
37.19446 471
37.21457 505
37.23469 480
37.2548 498
37.27491 503
37.29503 466
37.31514 507
37.33526 478
37.35537 521
37.37548 531
37.3956 512
37.41571 502
37.43582 566
37.45594 527
37.47605 576
37.49617 528
37.51628 585
37.53639 576
37.55651 569
37.57662 523
37.59673 573
37.61685 550
37.63696 530
37.65708 539
37.67719 527
37.6973 551
37.71742 566
37.73753 567
37.75764 560
37.77776 502
37.79787 534
37.81798 534
37.8381 506
37.85821 541
37.87833 561
37.89844 567
37.91855 526
37.93867 510
37.95878 549
37.97889 518
37.99901 556
38.01912 566
38.03924 564
38.05935 590
38.07946 563
38.09958 619
38.11969 559
38.1398 587
38.15992 616
38.18003 599
38.20015 624
38.22026 647
38.24037 645
38.26049 604
38.2806 657
38.30071 625
38.32083 633
38.34094 626
38.36105 635
38.38117 629
38.40128 616
38.4214 647
38.44151 567
38.46162 569
38.48174 535
38.50185 534
38.52196 523
38.54208 529
38.56219 521
38.58231 466
38.60242 487
38.62253 494
38.64265 516
38.66276 454
38.68287 492
38.70299 496
38.7231 520
38.74321 492
38.76333 495
38.78344 491
38.80356 513
38.82367 503
38.84378 445
38.8639 465
38.88401 509
38.90412 471
38.92424 502
38.94435 500
38.96447 501
38.98458 500
39.00469 537
39.02481 572
39.04492 647
39.06503 545
39.08515 624
39.10526 601
39.12538 614
39.14549 728
39.1656 749
39.18572 842
39.20583 910
39.22594 915
39.24606 981
39.26617 982
39.28628 977
39.3064 1042
39.32651 995
39.34663 836
39.36674 792
39.38685 724
39.40697 682
39.42708 603
39.44719 552
39.46731 467
39.48742 428
39.50754 420
39.52765 405
39.54776 384
39.56788 357
39.58799 384
39.6081 399
39.62822 313
39.64833 393
39.66845 379
39.68856 349
39.70867 347
39.72879 352
39.7489 370
39.76901 341
39.78913 345
39.80924 351
39.82935 409
39.84947 428
39.86958 397
39.8897 401
39.90981 403
39.92992 431
39.95004 453
39.97015 470
39.99026 480
40.01038 520
40.03049 567
40.05061 596
40.07072 640
40.09083 700
40.11095 677
40.13106 612
40.15117 612
40.17129 570
40.1914 576
40.21152 555
40.23163 481
40.25174 405
40.27186 453
40.29197 416
40.31208 377
40.3322 395
40.35231 364
40.37242 352
40.39254 367
40.41265 377
40.43277 353
40.45288 332
40.47299 364
40.49311 376
40.51322 350
40.53333 353
40.55345 323
40.57356 345
40.59368 332
40.61379 342
40.6339 346
40.65402 339
40.67413 356
40.69424 343
40.71436 349
40.73447 363
40.75458 358
40.7747 355
40.79481 314
40.81493 348
40.83504 372
40.85515 345
40.87527 352
40.89538 325
40.91549 360
40.93561 373
40.95572 371
40.97584 343
40.99595 363
41.01606 362
41.03618 333
41.05629 362
41.0764 360
41.09652 362
41.11663 359
41.13675 345
41.15686 364
41.17697 371
41.19709 351
41.2172 313
41.23731 320
41.25743 344
41.27754 335
41.29765 323
41.31777 353
41.33788 317
41.358 336
41.37811 331
41.39822 335
41.41834 327
41.43845 347
41.45856 342
41.47868 331
41.49879 321
41.51891 330
41.53902 352
41.55913 300
41.57925 324
41.59936 329
41.61947 355
41.63959 333
41.6597 345
41.67982 313
41.69993 315
41.72004 331
41.74016 354
41.76027 330
41.78038 324
41.8005 345
41.82061 309
41.84072 324
41.86084 333
41.88095 344
41.90107 355
41.92118 325
41.94129 324
41.96141 345
41.98152 351
42.00163 338
42.02175 386
42.04186 431
42.06198 369
42.08209 427
42.1022 434
42.12232 528
42.14243 557
42.16254 560
42.18266 622
42.20277 680
42.22289 721
42.243 725
42.26311 752
42.28323 747
42.30334 705
42.32345 689
42.34357 547
42.36368 536
42.38379 492
42.40391 483
42.42402 445
42.44414 394
42.46425 347
42.48436 325
42.50448 351
42.52459 295
42.5447 326
42.56482 284
42.58493 274
42.60505 321
42.62516 303
42.64527 270
42.66539 294
42.6855 288
42.70561 301
42.72573 289
42.74584 287
42.76595 272
42.78607 305
42.80618 296
42.8263 261
42.84641 257
42.86652 263
42.88664 317
42.90675 281
42.92686 269
42.94698 310
42.96709 274
42.98721 283
43.00732 288
43.02743 295
43.04755 299
43.06766 286
43.08777 315
43.10789 293
43.128 308
43.14812 258
43.16823 278
43.18834 297
43.20846 253
43.22857 270
43.24868 286
43.2688 286
43.28891 290
43.30902 306
43.32914 296
43.34925 265
43.36937 263
43.38948 295
43.40959 284
43.42971 275
43.44982 275
43.46993 285
43.49005 287
43.51016 293
43.53028 281
43.55039 273
43.5705 268
43.59062 281
43.61073 271
43.63084 274
43.65096 276
43.67107 309
43.69119 291
43.7113 279
43.73141 290
43.75153 267
43.77164 260
43.79175 263
43.81187 277
43.83198 282
43.85209 278
43.87221 287
43.89232 253
43.91244 271
43.93255 263
43.95266 293
43.97278 297
43.99289 306
44.013 277
44.03312 261
44.05323 259
44.07335 275
44.09346 261
44.11357 323
44.13369 260
44.1538 299
44.17391 271
44.19403 252
44.21414 305
44.23426 290
44.25437 290
44.27448 267
44.2946 276
44.31471 290
44.33482 268
44.35494 315
44.37505 272
44.39516 278
44.41528 304
44.43539 277
44.45551 304
44.47562 272
44.49573 279
44.51585 307
44.53596 288
44.55607 271
44.57619 284
44.5963 267
44.61642 267
44.63653 267
44.65664 319
44.67676 287
44.69687 315
44.71698 326
44.7371 287
44.75721 281
44.77732 300
44.79744 328
44.81755 295
44.83767 308
44.85778 337
44.87789 303
44.89801 323
44.91812 317
44.93823 382
44.95835 354
44.97846 336
44.99858 327
45.01869 306
45.0388 331
45.05892 325
45.07903 328
45.09914 336
45.11926 366
45.13937 307
45.15949 356
45.1796 363
45.19971 332
45.21983 341
45.23994 318
45.26005 370
45.28017 389
45.30028 378
45.32039 379
45.34051 386
45.36062 370
45.38074 428
45.40085 386
45.42096 451
45.44108 459
45.46119 460
45.4813 498
45.50142 521
45.52153 510
45.54165 547
45.56176 618
45.58187 630
45.60199 618
45.6221 652
45.64221 587
45.66233 610
45.68244 538
45.70256 542
45.72267 453
45.74278 464
45.7629 449
45.78301 404
45.80312 395
45.82324 368
45.84335 333
45.86346 353
45.88358 342
45.90369 333
45.92381 376
45.94392 366
45.96403 302
45.98415 319
46.00426 339
46.02437 321
46.04449 314
46.0646 306
46.08472 361
46.10483 316
46.12494 345
46.14506 339
46.16517 311
46.18528 310
46.2054 347
46.22551 317
46.24563 292
46.26574 326
46.28585 308
46.30597 314
46.32608 326
46.34619 315
46.36631 334
46.38642 288
46.40653 332
46.42665 317
46.44676 323
46.46688 314
46.48699 340
46.5071 302
46.52722 331
46.54733 369
46.56744 313
46.58756 322
46.60767 326
46.62779 285
46.6479 341
46.66801 311
46.68813 298
46.70824 345
46.72835 303
46.74847 336
46.76858 292
46.78869 338
46.80881 308
46.82892 295
46.84904 330
46.86915 308
46.88926 336
46.90938 309
46.92949 312
46.9496 318
46.96972 297
46.98983 298
47.00995 271
47.03006 323
47.05017 279
47.07029 328
47.0904 297
47.11051 283
47.13063 316
47.15074 322
47.17086 300
47.19097 312
47.21108 311
47.2312 333
47.25131 293
47.27142 269
47.29154 298
47.31165 302
47.33176 315
47.35188 298
47.37199 296
47.39211 305
47.41222 295
47.43233 307
47.45245 328
47.47256 286
47.49267 342
47.51279 328
47.5329 333
47.55302 300
47.57313 322
47.59324 297
47.61336 345
47.63347 307
47.65358 315
47.6737 328
47.69381 322
47.71393 350
47.73404 343
47.75415 346
47.77427 327
47.79438 363
47.81449 346
47.83461 352
47.85472 376
47.87483 345
47.89495 371
47.91506 354
47.93518 349
47.95529 358
47.9754 301
47.99552 319
48.01563 290
48.03574 304
48.05586 315
48.07597 297
48.09609 286
48.1162 282
48.13631 306
48.15643 300
48.17654 297
48.19665 303
48.21677 304
48.23688 333
48.257 299
48.27711 297
48.29722 264
48.31734 296
48.33745 271
48.35756 277
48.37768 288
48.39779 283
48.4179 312
48.43802 296
48.45813 310
48.47825 319
48.49836 272
48.51847 290
48.53859 296
48.5587 302
48.57881 263
48.59893 314
48.61904 295
48.63916 286
48.65927 287
48.67938 290
48.6995 266
48.71961 298
48.73972 297
48.75984 288
48.77995 277
48.80006 293
48.82018 281
48.84029 275
48.86041 295
48.88052 257
48.90063 275
48.92075 268
48.94086 296
48.96097 288
48.98109 303
49.0012 277
49.02132 285
49.04143 271
49.06154 317
49.08166 314
49.10177 333
49.12188 316
49.142 272
49.16211 284
49.18223 266
49.20234 278
49.22245 293
49.24257 296
49.26268 304
49.28279 267
49.30291 300
49.32302 293
49.34313 241
49.36325 288
49.38336 318
49.40348 284
49.42359 304
49.4437 315
49.46382 307
49.48393 359
49.50404 313
49.52416 295
49.54427 327
49.56439 345
49.5845 354
49.60461 346
49.62473 374
49.64484 393
49.66495 440
49.68507 430
49.70518 459
49.7253 521
49.74541 512
49.76552 610
49.78564 671
49.80575 740
49.82586 887
49.84598 976
49.86609 1055
49.8862 1142
49.90632 1279
49.92643 1253
49.94655 1326
49.96666 1341
49.98677 1211
50.00689 1157
50.027 1062
50.04711 910
50.06723 852
50.08734 808
50.10746 694
50.12757 649
50.14768 526
50.1678 498
50.18791 450
50.20802 378
50.22814 363
50.24825 359
50.26837 338
50.28848 344
50.30859 333
50.32871 305
50.34882 315
50.36893 334
50.38905 332
50.40916 320
50.42927 318
50.44939 308
50.4695 349
50.48962 312
50.50973 324
50.52984 286
50.54996 317
50.57007 318
50.59018 319
50.6103 319
50.63041 282
50.65053 299
50.67064 272
50.69075 278
50.71087 288
50.73098 283
50.75109 290
50.77121 276
50.79132 276
50.81143 286
50.83155 314
50.85166 307
50.87178 265
50.89189 290
50.912 309
50.93212 277
50.95223 239
50.97234 316
50.99246 283
51.01257 290
51.03269 257
51.0528 271
51.07291 270
51.09303 249
51.11314 232
51.13325 266
51.15337 268
51.17348 284
51.1936 263
51.21371 271
51.23382 270
51.25394 248
51.27405 277
51.29416 249
51.31428 257
51.33439 270
51.3545 280
51.37462 291
51.39473 255
51.41485 275
51.43496 259
51.45507 275
51.47519 271
51.4953 260
51.51541 259
51.53553 243
51.55564 257
51.57576 235
51.59587 248
51.61598 263
51.6361 241
51.65621 273
51.67632 263
51.69644 247
51.71655 253
51.73667 263
51.75678 295
51.77689 284
51.79701 226
51.81712 250
51.83723 242
51.85735 259
51.87746 245
51.89757 248
51.91769 254
51.9378 257
51.95792 256
51.97803 249
51.99814 281
52.01826 246
52.03837 271
52.05848 256
52.0786 262
52.09871 268
52.11883 261
52.13894 253
52.15905 259
52.17917 250
52.19928 272
52.21939 267
52.23951 237
52.25962 249
52.27974 250
52.29985 259
52.31996 247
52.34008 276
52.36019 232
52.3803 277
52.40042 270
52.42053 255
52.44064 261
52.46076 263
52.48087 255
52.50099 263
52.5211 243
52.54121 273
52.56133 261
52.58144 260
52.60155 228
52.62167 253
52.64178 259
52.6619 267
52.68201 284
52.70212 259
52.72224 287
52.74235 267
52.76246 296
52.78258 269
52.80269 297
52.8228 294
52.84292 290
52.86303 275
52.88315 283
52.90326 298
52.92337 265
52.94349 269
52.9636 261
52.98371 294
53.00383 256
53.02394 292
53.04406 249
53.06417 258
53.08428 258
53.1044 279
53.12451 326
53.14462 260
53.16474 292
53.18485 313
53.20497 289
53.22508 277
53.24519 309
53.26531 314
53.28542 274
53.30553 289
53.32565 336
53.34576 295
53.36587 313
53.38599 335
53.4061 334
53.42622 321
53.44633 309
53.46644 343
53.48656 329
53.50667 345
53.52678 328
53.5469 361
53.56701 335
53.58713 314
53.60724 327
53.62735 325
53.64747 353
53.66758 372
53.68769 368
53.70781 343
53.72792 365
53.74804 377
53.76815 394
53.78826 374
53.80838 365
53.82849 411
53.8486 372
53.86872 391
53.88883 373
53.90894 366
53.92906 351
53.94917 354
53.96929 394
53.9894 397
54.00951 403
54.02963 411
54.04974 410
54.06985 452
54.08997 391
54.11008 432
54.1302 428
54.15031 419
54.17042 449
54.19054 412
54.21065 411
54.23076 420
54.25088 433
54.27099 436
54.29111 439
54.31122 406
54.33133 470
54.35145 419
54.37156 441
54.39167 489
54.41179 481
54.4319 460
54.45201 428
54.47213 506
54.49224 490
54.51236 490
54.53247 561
54.55258 527
54.5727 598
54.59281 563
54.61292 632
54.63304 697
54.65315 716
54.67327 721
54.69338 697
54.71349 697
54.73361 727
54.75372 672
54.77383 670
54.79395 608
54.81406 629
54.83417 553
54.85429 612
54.8744 579
54.89452 541
54.91463 522
54.93474 524
54.95486 512
54.97497 515
54.99508 527
55.0152 559
55.03531 491
55.05543 511
55.07554 538
55.09565 537
55.11577 549
55.13588 543
55.15599 537
55.17611 519
55.19622 506
55.21634 497
55.23645 452
55.25656 459
55.27668 448
55.29679 406
55.3169 456
55.33702 446
55.35713 397
55.37724 412
55.39736 409
55.41747 401
55.43759 392
55.4577 368
55.47781 383
55.49793 369
55.51804 362
55.53815 339
55.55827 393
55.57838 325
55.5985 376
55.61861 371
55.63872 319
55.65884 343
55.67895 359
55.69906 347
55.71918 326
55.73929 385
55.75941 378
55.77952 341
55.79963 322
55.81975 346
55.83986 341
55.85997 368
55.88009 337
55.9002 376
55.92031 347
55.94043 338
55.96054 318
55.98066 333
56.00077 316
56.02088 359
56.041 330
56.06111 366
56.08122 349
56.10134 369
56.12145 341
56.14157 332
56.16168 348
56.18179 377
56.20191 333
56.22202 345
56.24213 344
56.26225 367
56.28236 363
56.30248 348
56.32259 333
56.3427 354
56.36282 345
56.38293 348
56.40304 322
56.42316 350
56.44327 353
56.46338 347
56.4835 360
56.50361 358
56.52373 353
56.54384 346
56.56395 309
56.58407 336
56.60418 305
56.62429 322
56.64441 283
56.66452 349
56.68464 335
56.70475 305
56.72486 317
56.74498 335
56.76509 333
56.7852 316
56.80532 303
56.82543 312
56.84554 299
56.86566 307
56.88577 332
56.90589 286
56.926 317
56.94611 338
56.96623 329
56.98634 346
57.00645 302
57.02657 313
57.04668 305
57.0668 313
57.08691 290
57.10702 301
57.12714 284
57.14725 279
57.16736 319
57.18748 303
57.20759 311
57.22771 278
57.24782 305
57.26793 296
57.28805 277
57.30816 293
57.32827 305
57.34839 302
57.3685 294
57.38861 287
57.40873 318
57.42884 294
57.44896 333
57.46907 274
57.48918 267
57.5093 276
57.52941 283
57.54952 284
57.56964 316
57.58975 254
57.60987 306
57.62998 287
57.65009 259
57.67021 314
57.69032 269
57.71043 272
57.73055 264
57.75066 313
57.77078 295
57.79089 289
57.811 305
57.83112 277
57.85123 306
57.87134 285
57.89146 266
57.91157 276
57.93168 295
57.9518 275
57.97191 254
57.99203 282
58.01214 268
58.03225 290
58.05237 285
58.07248 261
58.09259 262
58.11271 267
58.13282 285
58.15294 317
58.17305 280
58.19316 263
58.21328 296
58.23339 276
58.2535 265
58.27362 293
58.29373 285
58.31385 283
58.33396 275
58.35407 281
58.37419 274
58.3943 281
58.41441 291
58.43453 276
58.45464 297
58.47475 305
58.49487 260
58.51498 291
58.5351 296
58.55521 286
58.57532 282
58.59544 276
58.61555 313
58.63566 259
58.65578 280
58.67589 292
58.69601 299
58.71612 280
58.73623 294
58.75635 254
58.77646 304
58.79657 279
58.81669 287
58.8368 266
58.85691 279
58.87703 298
58.89714 264
58.91726 293
58.93737 272
58.95748 267
58.9776 295
58.99771 311
59.01782 290
59.03794 304
59.05805 316
59.07817 331
59.09828 302
59.11839 269
59.13851 287
59.15862 308
59.17873 301
59.19885 304
59.21896 309
59.23908 332
59.25919 324
59.2793 317
59.29942 356
59.31953 319
59.33964 316
59.35976 336
59.37987 372
59.39998 357
59.4201 333
59.44021 378
59.46033 388
59.48044 387
59.50055 408
59.52067 448
59.54078 457
59.56089 528
59.58101 515
59.60112 555
59.62124 609
59.64135 654
59.66146 740
59.68158 788
59.70169 845
59.7218 868
59.74192 921
59.76203 1014
59.78215 995
59.80226 944
59.82237 887
59.84249 787
59.8626 770
59.88271 638
59.90283 680
59.92294 604
59.94305 591
59.96317 555
59.98328 510
60.0034 441
60.02351 443
60.04362 373
60.06374 342
60.08385 393
60.10396 322
60.12408 330
60.14419 338
60.16431 321
60.18442 317
60.20453 308
60.22465 310
60.24476 291
60.26487 275
60.28499 310
60.3051 283
60.32522 302
60.34533 293
60.36544 269
60.38556 307
60.40567 286
60.42578 277
60.4459 278
60.46601 298
60.48612 286
60.50624 301
60.52635 277
60.54647 295
60.56658 274
60.58669 297
60.60681 272
60.62692 285
60.64703 274
60.66715 282
60.68726 297
60.70738 265
60.72749 300
60.7476 287
60.76772 273
60.78783 288
60.80794 271
60.82806 287
60.84817 282
60.86828 262
60.8884 280
60.90851 259
60.92863 305
60.94874 287
60.96885 331
60.98897 265
61.00908 283
61.02919 255
61.04931 291
61.06942 301
61.08954 271
61.10965 282
61.12976 287
61.14988 280
61.16999 301
61.1901 321
61.21022 311
61.23033 305
61.25045 307
61.27056 308
61.29067 327
61.31079 298
61.3309 346
61.35101 316
61.37113 329
61.39124 359
61.41135 323
61.43147 342
61.45158 320
61.4717 340
61.49181 358
61.51192 351
61.53204 333
61.55215 365
61.57226 349
61.59238 394
61.61249 397
61.63261 397
61.65272 397
61.67283 415
61.69295 400
61.71306 402
61.73317 461
61.75329 441
61.7734 412
61.79352 442
61.81363 481
61.83374 485
61.85386 523
61.87397 531
61.89408 532
61.9142 530
61.93431 533
61.95442 548
61.97454 574
61.99465 574
62.01477 514
62.03488 619
62.05499 599
62.07511 555
62.09522 615
62.11533 573
62.13545 542
62.15556 582
62.17568 542
62.19579 593
62.2159 498
62.23602 479
62.25613 502
62.27624 481
62.29636 460
62.31647 494
62.33659 444
62.3567 429
62.37681 443
62.39693 440
62.41704 396
62.43715 387
62.45727 389
62.47738 379
62.49749 394
62.51761 362
62.53772 351
62.55784 370
62.57795 362
62.59806 361
62.61818 366
62.63829 335
62.6584 325
62.67852 304
62.69863 337
62.71875 304
62.73886 294
62.75897 328
62.77909 296
62.7992 341
62.81931 300
62.83943 301
62.85954 310
62.87965 314
62.89977 283
62.91988 303
62.94 330
62.96011 299
62.98022 317
63.00034 300
63.02045 305
63.04056 294
63.06068 269
63.08079 318
63.10091 341
63.12102 315
63.14113 303
63.16125 319
63.18136 324
63.20147 299
63.22159 316
63.2417 296
63.26182 332
63.28193 291
63.30204 320
63.32216 315
63.34227 335
63.36238 339
63.3825 343
63.40261 308
63.42272 338
63.44284 317
63.46295 349
63.48307 331
63.50318 317
63.52329 345
63.54341 345
63.56352 318
63.58363 369
63.60375 361
63.62386 354
63.64398 339
63.66409 353
63.6842 364
63.70432 345
63.72443 360
63.74454 398
63.76466 393
63.78477 423
63.80489 410
63.825 472
63.84511 432
63.86523 434
63.88534 417
63.90545 395
63.92557 376
63.94568 388
63.96579 383
63.98591 361
64.00602 359
64.02614 348
64.04625 329
64.06636 386
64.08648 302
64.10659 310
64.1267 317
64.14682 289
64.16693 302
64.18705 277
64.20716 257
64.22727 290
64.24739 264
64.2675 314
64.28761 269
64.30773 313
64.32784 312
64.34796 254
64.36807 291
64.38818 240
64.4083 281
64.42841 283
64.44852 262
64.46864 278
64.48875 269
64.50886 259
64.52898 252
64.54909 262
64.56921 271
64.58932 287
64.60943 288
64.62955 251
64.64966 292
64.66977 290
64.68989 289
64.71 283
64.73012 274
64.75023 258
64.77034 284
64.79046 273
64.81057 265
64.83068 259
64.8508 272
64.87091 297
64.89102 248
64.91114 271
64.93125 267
64.95137 245
64.97148 239
64.99159 263
65.01171 284
65.03182 252
65.05193 263
65.07205 285
65.09216 303
65.11228 287
65.13239 282
65.1525 263
65.17262 248
65.19273 265
65.21284 307
65.23296 271
65.25307 253
65.27319 270
65.2933 263
65.31341 283
65.33353 257
65.35364 287
65.37375 261
65.39387 283
65.41398 271
65.43409 287
65.45421 279
65.47432 275
65.49444 277
65.51455 284
65.53466 294
65.55478 279
65.57489 292
65.595 295
65.61512 296
65.63523 273
65.65535 303
65.67546 272
65.69557 280
65.71569 264
65.7358 283
65.75591 301
65.77603 280
65.79614 267
65.81626 263
65.83637 265
65.85648 269
65.8766 269
65.89671 236
65.91682 252
65.93694 262
65.95705 248
65.97716 257
65.99728 270
66.01739 275
66.03751 251
66.05762 266
66.07773 246
66.09785 276
66.11796 247
66.13807 269
66.15819 286
66.1783 266
66.19842 268
66.21853 286
66.23864 243
66.25876 254
66.27887 269
66.29898 242
66.3191 291
66.33921 276
66.35933 236
66.37944 259
66.39955 270
66.41967 237
66.43978 264
66.45989 238
66.48001 254
66.50012 264
66.52023 241
66.54035 277
66.56046 254
66.58058 264
66.60069 276
66.6208 277
66.64092 236
66.66103 261
66.68114 274
66.70126 272
66.72137 247
66.74149 269
66.7616 283
66.78171 280
66.80183 273
66.82194 271
66.84205 271
66.86217 244
66.88228 278
66.90239 262
66.92251 262
66.94262 276
66.96274 273
66.98285 269
67.00296 272
67.02308 290
67.04319 291
67.0633 266
67.08342 296
67.10353 298
67.12365 303
67.14376 288
67.16387 306
67.18399 314
67.2041 318
67.22421 325
67.24433 358
67.26444 386
67.28456 348
67.30467 376
67.32478 365
67.3449 389
67.36501 455
67.38512 493
67.40524 488
67.42535 509
67.44546 521
67.46558 591
67.48569 620
67.50581 675
67.52592 655
67.54603 748
67.56615 674
67.58626 685
67.60637 657
67.62649 671
67.6466 596
67.66672 591
67.68683 631
67.70694 604
67.72706 640
67.74717 660
67.76728 657
67.7874 658
67.80751 709
67.82763 705
67.84774 668
67.86785 759
67.88797 777
67.90808 799
67.92819 816
67.94831 892
67.96842 856
67.98853 899
68.00865 856
68.02876 902
68.04888 792
68.06899 819
68.0891 754
68.10922 832
68.12933 832
68.14944 760
68.16956 787
68.18967 648
68.20979 566
68.2299 570
68.25001 513
68.27013 486
68.29024 455
68.31035 414
68.33047 473
68.35058 404
68.3707 377
68.39081 389
68.41092 359
68.43104 347
68.45115 312
68.47126 317
68.49138 327
68.51149 318
68.5316 295
68.55172 275
68.57183 274
68.59195 313
68.61206 287
68.63217 288
68.65229 293
68.6724 301
68.69251 305
68.71263 301
68.73274 288
68.75286 287
68.77297 295
68.79308 287
68.8132 283
68.83331 309
68.85342 298
68.87354 289
68.89365 305
68.91376 280
68.93388 286
68.95399 281
68.97411 279
68.99422 287
69.01433 280
69.03445 275
69.05456 278
69.07467 267
69.09479 268
69.1149 284
69.13502 271
69.15513 276
69.17524 260
69.19536 266
69.21547 259
69.23558 250
69.2557 277
69.27581 291
69.29593 282
69.31604 292
69.33615 269
69.35627 282
69.37638 269
69.39649 244
69.41661 267
69.43672 276
69.45683 259
69.47695 253
69.49706 284
69.51718 277
69.53729 278
69.5574 280
69.57752 264
69.59763 273
69.61774 259
69.63786 262
69.65797 271
69.67809 255
69.6982 294
69.71831 271
69.73843 255
69.75854 261
69.77865 273
69.79877 288
69.81888 294
69.839 260
69.85911 286
69.87922 261
69.89934 265
69.91945 275
69.93956 249
69.95968 257
69.97979 252
69.9999 290
70.02002 287
70.04013 303
70.06025 254
70.08036 288
70.10047 284
70.12059 282
70.1407 287
70.16081 288
70.18093 260
70.20104 262
70.22116 292
70.24127 288
70.26138 240
70.2815 270
70.30161 253
70.32172 263
70.34184 265
70.36195 251
70.38207 283
70.40218 254
70.42229 265
70.44241 255
70.46252 251
70.48263 229
70.50275 252
70.52286 243
70.54297 282
70.56309 242
70.5832 273
70.60332 246
70.62343 257
70.64354 246
70.66366 299
70.68377 251
70.70388 274
70.724 264
70.74411 274
70.76423 231
70.78434 285
70.80445 257
70.82457 264
70.84468 249
70.86479 280
70.88491 232
70.90502 262
70.92513 264
70.94525 265
70.96536 247
70.98548 282
71.00559 260
71.0257 261
71.04582 265
71.06593 250
71.08604 266
71.10616 265
71.12627 262
71.14639 271
71.1665 275
71.18661 241
71.20673 261
71.22684 261
71.24695 233
71.26707 244
71.28718 229
71.3073 255
71.32741 253
71.34752 253
71.36764 243
71.38775 272
71.40786 265
71.42798 225
71.44809 286
71.4682 266
71.48832 264
71.50843 281
71.52855 254
71.54866 259
71.56877 269
71.58889 259
71.609 252
71.62911 251
71.64923 262
71.66934 280
71.68946 284
71.70957 283
71.72968 292
71.7498 260
71.76991 292
71.79002 289
71.81014 259
71.83025 263
71.85037 269
71.87048 275
71.89059 266
71.91071 261
71.93082 300
71.95093 234
71.97105 294
71.99116 247
72.01127 264
72.03139 278
72.0515 268
72.07162 290
72.09173 241
72.11184 296
72.13196 277
72.15207 276
72.17218 266
72.1923 263
72.21241 298
72.23253 263
72.25264 264
72.27275 291
72.29287 280
72.31298 261
72.33309 283
72.35321 269
72.37332 284
72.39344 270
72.41355 278
72.43366 267
72.45378 298
72.47389 301
72.494 266
72.51412 277
72.53423 274
72.55434 286
72.57446 276
72.59457 270
72.61469 278
72.6348 285
72.65491 309
72.67503 263
72.69514 279
72.71525 297
72.73537 272
72.75548 281
72.7756 290
72.79571 313
72.81582 310
72.83594 299
72.85605 310
72.87616 279
72.89628 312
72.91639 301
72.9365 296
72.95662 293
72.97673 311
72.99685 334
73.01696 358
73.03707 363
73.05719 298
73.0773 347
73.09741 373
73.11753 384
73.13764 410
73.15776 352
73.17787 382
73.19798 421
73.2181 435
73.23821 437
73.25832 466
73.27844 456
73.29855 479
73.31867 435
73.33878 447
73.35889 444
73.37901 425
73.39912 414
73.41923 378
73.43935 400
73.45946 385
73.47957 383
73.49969 398
73.5198 383
73.53992 372
73.56003 352
73.58014 322
73.60026 308
73.62037 309
73.64048 298
73.6606 306
73.68071 311
73.70083 313
73.72094 299
73.74105 306
73.76117 287
73.78128 300
73.80139 286
73.82151 277
73.84162 314
73.86174 279
73.88185 279
73.90196 288
73.92208 309
73.94219 326
73.9623 295
73.98242 279
74.00253 289
74.02264 306
74.04276 291
74.06287 294
74.08299 283
74.1031 305
74.12321 297
74.14333 267
74.16344 282
74.18355 289
74.20367 251
74.22378 275
74.2439 290
74.26401 261
74.28412 277
74.30424 246
74.32435 280
74.34446 259
74.36458 316
74.38469 283
74.40481 279
74.42492 292
74.44503 296
74.46515 281
74.48526 274
74.50537 276
74.52549 328
74.5456 286
74.56571 308
74.58583 275
74.60594 315
74.62606 265
74.64617 281
74.66628 298
74.6864 302
74.70651 283
74.72662 271
74.74674 289
74.76685 297
74.78697 305
74.80708 304
74.82719 280
74.84731 328
74.86742 300
74.88753 320
74.90765 314
74.92776 307
74.94787 313
74.96799 285
74.9881 287
75.00822 271
