3.00117 21567
3.02128 21318
3.0414 20562
3.06151 20079
3.08162 19535
3.10174 19032
3.12185 18771
3.14197 18024
3.16208 17569
3.18219 16762
3.20231 16543
3.22242 15994
3.24253 15595
3.26265 15019
3.28276 14428
3.30288 14063
3.32299 13678
3.3431 13180
3.36322 12786
3.38333 12230
3.40344 12012
3.42356 11854
3.44367 11151
3.46379 11076
3.4839 10637
3.50401 10118
3.52413 9941
3.54424 9553
3.56435 9396
3.58447 8832
3.60458 8616
3.62469 8277
3.64481 7858
3.66492 7823
3.68504 7480
3.70515 7091
3.72526 7014
3.74538 6400
3.76549 6393
3.7856 5903
3.80572 5908
3.82583 5889
3.84595 5495
3.86606 5270
3.88617 4899
3.90629 4783
3.9264 4726
3.94651 4417
3.96663 4271
3.98674 4086
4.00686 3791
4.02697 3792
4.04708 3674
4.0672 3531
4.08731 3286
4.10742 3116
4.12754 3052
4.14765 2912
4.16776 2726
4.18788 2574
4.20799 2499
4.22811 2589
4.24822 2446
4.26833 2337
4.28845 2308
4.30856 2104
4.32867 2132
4.34879 2084
4.3689 2001
4.38902 1974
4.40913 1861
4.42924 1865
4.44936 1843
4.46947 1735
4.48958 1756
4.5097 1642
4.52981 1647
4.54992 1539
4.57004 1558
4.59015 1594
4.61027 1536
4.63038 1549
4.65049 1612
4.67061 1416
4.69072 1490
4.71083 1313
4.73095 1305
4.75106 1316
4.77118 1222
4.79129 1273
4.8114 1172
4.83152 1239
4.85163 1135
4.87174 1164
4.89186 1093
4.91197 1131
4.93209 1054
4.9522 1170
4.97231 1030
4.99243 995
5.01254 995
5.03265 1016
5.05277 979
5.07288 892
5.09299 955
5.11311 931
5.13322 910
5.15334 890
5.17345 858
5.19356 839
5.21368 801
5.23379 796
5.2539 891
5.27402 806
5.29413 834
5.31425 800
5.33436 716
5.35447 755
5.37459 718
5.3947 693
5.41481 678
5.43493 745
5.45504 726
5.47516 644
5.49527 647
5.51538 630
5.5355 722
5.55561 698
5.57572 606
5.59584 620
5.61595 641
5.63606 635
5.65618 620
5.67629 603
5.69641 586
5.71652 607
5.73663 559
5.75675 608
5.77686 571
5.79697 584
5.81709 538
5.8372 561
5.85732 523
5.87743 551
5.89754 523
5.91766 501
5.93777 491
5.95788 493
5.978 545
5.99811 510
6.01823 490
6.03834 527
6.05845 514
6.07857 481
6.09868 505
6.11879 460
6.13891 470
6.15902 503
6.17913 511
6.19925 446
6.21936 476
6.23948 453
6.25959 412
6.2797 453
6.29982 465
6.31993 449
6.34004 441
6.36016 484
6.38027 445
6.40039 473
6.4205 436
6.44061 458
6.46073 424
6.48084 407
6.50095 480
6.52107 430
6.54118 388
6.56129 394
6.58141 457
6.60152 452
6.62164 418
6.64175 401
6.66186 428
6.68198 444
6.70209 407
6.7222 404
6.74232 386
6.76243 374
6.78255 406
6.80266 408
6.82277 426
6.84289 418
6.863 385
6.88311 409
6.90323 433
6.92334 384
6.94346 418
6.96357 419
6.98368 404
7.0038 359
7.02391 378
7.04402 375
7.06414 409
7.08425 382
7.10436 384
7.12448 391
7.14459 420
7.16471 393
7.18482 427
7.20493 390
7.22505 366
7.24516 389
7.26527 391
7.28539 371
7.3055 404
7.32562 400
7.34573 396
7.36584 373
7.38596 394
7.40607 408
7.42618 378
7.4463 388
7.46641 416
7.48653 377
7.50664 374
7.52675 425
7.54687 351
7.56698 377
7.58709 400
7.60721 372
7.62732 371
7.64743 355
7.66755 396
7.68766 342
7.70778 402
7.72789 434
7.748 387
7.76812 364
7.78823 404
7.80834 384
7.82846 388
7.84857 384
7.86869 367
7.8888 378
7.90891 379
7.92903 373
7.94914 399
7.96925 376
7.98937 374
8.00948 395
8.0296 407
8.04971 438
8.06982 423
8.08994 385
8.11005 368
8.13016 348
8.15028 399
8.17039 409
8.1905 410
8.21062 415
8.23073 418
8.25085 390
8.27096 384
8.29107 396
8.31119 405
8.3313 399
8.35141 384
8.37153 395
8.39164 446
8.41176 392
8.43187 416
8.45198 419
8.4721 406
8.49221 363
8.51232 435
8.53244 389
8.55255 417
8.57266 385
8.59278 386
8.61289 422
8.63301 403
8.65312 400
8.67323 407
8.69335 412
8.71346 409
8.73357 402
8.75369 387
8.7738 378
8.79392 407
8.81403 389
8.83414 386
8.85426 401
8.87437 364
8.89448 382
8.9146 399
8.93471 382
8.95483 334
8.97494 383
8.99505 353
9.01517 340
9.03528 355
9.05539 373
9.07551 375
9.09562 361
9.11573 311
9.13585 369
9.15596 343
9.17608 347
9.19619 323
9.2163 328
9.23642 371
9.25653 362
9.27664 342
9.29676 344
9.31687 320
9.33699 352
9.3571 326
9.37721 310
9.39733 319
9.41744 333
9.43755 362
9.45767 331
9.47778 332
9.4979 325
9.51801 305
9.53812 345
9.55824 343
9.57835 316
9.59846 314
9.61858 300
9.63869 319
9.6588 295
9.67892 297
9.69903 325
9.71915 281
9.73926 311
9.75937 307
9.77949 287
9.7996 284
9.81971 301
9.83983 287
9.85994 316
9.88006 331
9.90017 303
9.92028 296
9.9404 270
9.96051 330
9.98062 287
10.00074 326
10.02085 301
10.04097 305
10.06108 277
10.08119 306
10.10131 288
10.12142 312
10.14153 314
10.16165 261
10.18176 298
10.20187 287
10.22199 294
10.2421 275
10.26222 301
10.28233 248
10.30244 264
10.32256 281
10.34267 280
10.36278 286
10.3829 270
10.40301 307
10.42313 302
10.44324 299
10.46335 292
10.48347 295
10.50358 263
10.52369 273
10.54381 277
10.56392 276
10.58403 291
10.60415 255
10.62426 286
10.64438 298
10.66449 263
10.6846 300
10.70472 264
10.72483 285
10.74494 235
10.76506 250
10.78517 268
10.80529 271
10.8254 276
10.84551 292
10.86563 236
10.88574 271
10.90585 291
10.92597 268
10.94608 244
10.9662 262
10.98631 271
11.00642 273
11.02654 264
11.04665 273
11.06676 279
11.08688 251
11.10699 269
11.1271 256
11.14722 310
11.16733 292
11.18745 278
11.20756 257
11.22767 252
11.24779 277
11.2679 283
11.28801 258
11.30813 253
11.32824 276
11.34836 285
11.36847 297
11.38858 283
11.4087 261
11.42881 217
11.44892 239
11.46904 259
11.48915 271
11.50927 236
11.52938 265
11.54949 245
11.56961 237
11.58972 276
11.60983 245
11.62995 263
11.65006 275
11.67017 278
11.69029 239
11.7104 270
11.73052 271
11.75063 261
11.77074 260
11.79086 276
11.81097 203
11.83108 272
11.8512 234
11.87131 251
11.89143 264
11.91154 239
11.93165 264
11.95177 274
11.97188 251
11.99199 233
12.01211 244
12.03222 237
12.05234 266
12.07245 289
12.09256 258
12.11268 260
12.13279 279
12.1529 252
12.17302 285
12.19313 272
12.21324 241
12.23336 271
12.25347 260
12.27359 277
12.2937 274
12.31381 260
12.33393 261
12.35404 269
12.37415 254
12.39427 266
12.41438 242
12.4345 236
12.45461 271
12.47472 235
12.49484 243
12.51495 221
12.53506 261
12.55518 259
12.57529 244
12.5954 255
12.61552 278
12.63563 219
12.65575 223
12.67586 239
12.69597 258
12.71609 243
12.7362 269
12.75631 295
12.77643 240
12.79654 228
12.81666 269
12.83677 246
12.85688 281
12.877 258
12.89711 258
12.91722 288
12.93734 273
12.95745 236
12.97757 275
12.99768 254
13.01779 241
13.03791 260
13.05802 260
13.07813 250
13.09825 247
13.11836 265
13.13847 271
13.15859 279
13.1787 257
13.19882 262
13.21893 208
13.23904 269
13.25916 263
13.27927 225
13.29938 313
13.3195 270
13.33961 273
13.35973 288
13.37984 240
13.39995 252
13.42007 274
13.44018 251
13.46029 246
13.48041 237
13.50052 250
13.52064 269
13.54075 267
13.56086 288
13.58098 316
13.60109 330
13.6212 310
13.64132 321
13.66143 297
13.68154 309
13.70166 295
13.72177 286
13.74189 280
13.762 274
13.78211 322
13.80223 281
13.82234 292
13.84245 297
13.86257 265
13.88268 304
13.9028 279
13.92291 283
13.94302 263
13.96314 267
13.98325 255
14.00336 254
14.02348 263
14.04359 267
14.06371 229
14.08382 239
14.10393 236
14.12405 262
14.14416 266
14.16427 246
14.18439 204
14.2045 235
14.22461 254
14.24473 278
14.26484 219
14.28496 228
14.30507 210
14.32518 220
14.3453 246
14.36541 237
14.38552 229
14.40564 229
14.42575 226
14.44587 241
14.46598 230
14.48609 229
14.50621 239
14.52632 248
14.54643 218
14.56655 248
14.58666 232
14.60677 265
14.62689 217
14.647 234
14.66712 244
14.68723 239
14.70734 264
14.72746 250
14.74757 246
14.76768 246
14.7878 241
14.80791 217
14.82803 244
14.84814 230
14.86825 258
14.88837 266
14.90848 229
14.92859 245
14.94871 234
14.96882 230
14.98894 273
15.00905 281
15.02916 270
15.04928 269
15.06939 308
15.0895 257
15.10962 300
15.12973 267
15.14984 257
15.16996 241
15.19007 234
15.21019 242
15.2303 267
15.25041 227
15.27053 237
15.29064 229
15.31075 200
15.33087 242
15.35098 234
15.3711 226
15.39121 235
15.41132 220
15.43144 218
15.45155 220
15.47166 219
15.49178 224
15.51189 250
15.53201 268
15.55212 235
15.57223 229
15.59235 240
15.61246 241
15.63257 255
15.65269 241
15.6728 273
15.69291 256
15.71303 218
15.73314 236
15.75326 238
15.77337 244
15.79348 219
15.8136 198
15.83371 249
15.85382 221
15.87394 213
15.89405 238
15.91417 233
15.93428 258
15.95439 211
15.97451 232
15.99462 234
16.01473 227
16.03485 231
16.05496 222
16.07508 227
16.09519 245
16.1153 231
16.13542 244
16.15553 227
16.17564 212
16.19576 231
16.21587 244
16.23598 237
16.2561 262
16.27621 232
16.29633 257
16.31644 232
16.33655 239
16.35667 232
16.37678 249
16.39689 214
16.41701 228
16.43712 256
16.45724 260
16.47735 239
16.49746 254
16.51758 217
16.53769 231
16.5578 218
16.57792 236
16.59803 214
16.61814 241
16.63826 230
16.65837 225
16.67849 212
16.6986 218
16.71871 230
16.73883 217
16.75894 244
16.77905 252
16.79917 249
16.81928 248
16.8394 242
16.85951 227
16.87962 235
16.89974 233
16.91985 263
16.93996 248
16.96008 255
16.98019 239
17.00031 245
17.02042 242
17.04053 232
17.06065 229
17.08076 243
17.10087 217
17.12099 244
17.1411 241
17.16121 246
17.18133 226
17.20144 247
17.22156 227
17.24167 242
17.26178 250
17.2819 243
17.30201 255
17.32212 223
17.34224 252
17.36235 243
17.38247 225
17.40258 251
17.42269 236
17.44281 214
17.46292 256
17.48303 250
17.50315 243
17.52326 250
17.54338 244
17.56349 224
17.5836 236
17.60372 240
17.62383 255
17.64394 239
17.66406 249
17.68417 263
17.70428 227
17.7244 241
17.74451 220
17.76463 235
17.78474 253
17.80485 247
17.82497 257
17.84508 237
17.86519 224
17.88531 248
17.90542 251
17.92554 224
17.94565 258
17.96576 252
17.98588 244
18.00599 257
18.0261 300
18.04622 229
18.06633 233
18.08645 270
18.10656 247
18.12667 239
18.14679 237
18.1669 258
18.18701 213
18.20713 241
18.22724 249
18.24735 240
18.26747 224
18.28758 255
18.3077 252
18.32781 256
18.34792 254
18.36804 228
18.38815 246
18.40826 261
18.42838 243
18.44849 241
18.46861 243
18.48872 224
18.50883 239
18.52895 242
18.54906 219
18.56917 243
18.58929 251
18.6094 252
18.62951 264
18.64963 230
18.66974 270
18.68986 293
18.70997 249
18.73008 250
18.7502 234
18.77031 251
18.79042 266
18.81054 251
18.83065 269
18.85077 244
18.87088 264
18.89099 244
18.91111 250
18.93122 255
18.95133 265
18.97145 261
18.99156 243
19.01168 274
19.03179 221
19.0519 235
19.07202 279
19.09213 269
19.11224 268
19.13236 256
19.15247 284
19.17258 277
19.1927 293
19.21281 266
19.23293 298
19.25304 291
19.27315 313
19.29327 313
19.31338 283
19.33349 336
19.35361 331
19.37372 335
19.39384 339
19.41395 372
19.43406 341
19.45418 339
19.47429 371
19.4944 359
19.51452 425
19.53463 413
19.55475 441
19.57486 452
19.59497 453
19.61509 505
19.6352 559
19.65531 552
19.67543 498
19.69554 537
19.71565 561
19.73577 586
19.75588 605
19.776 581
19.79611 567
19.81622 603
19.83634 566
19.85645 568
19.87656 524
19.89668 511
19.91679 564
19.93691 524
19.95702 515
19.97713 524
19.99725 522
20.01736 494
20.03747 521
20.05759 487
20.0777 470
20.09782 489
20.11793 492
20.13804 501
20.15816 455
20.17827 454
20.19838 497
20.2185 419
20.23861 449
20.25872 415
20.27884 433
20.29895 447
20.31907 481
20.33918 446
20.35929 430
20.37941 435
20.39952 413
20.41963 471
20.43975 417
20.45986 440
20.47998 465
20.50009 459
20.5202 467
20.54032 525
20.56043 491
20.58054 537
20.60066 518
20.62077 606
20.64088 684
20.661 833
20.68111 998
20.70123 1298
20.72134 1752
20.74145 2273
20.76157 2816
20.78168 3343
20.80179 3901
20.82191 4146
20.84202 4134
20.86214 3784
20.88225 3092
20.90236 2286
20.92248 1773
20.94259 1311
20.9627 1059
20.98282 927
21.00293 830
21.02305 748
21.04316 670
21.06327 624
21.08339 560
21.1035 464
21.12361 480
21.14373 428
21.16384 407
21.18395 354
21.20407 387
21.22418 358
21.2443 377
21.26441 358
21.28452 333
21.30464 351
21.32475 348
21.34486 372
21.36498 337
21.38509 346
21.40521 360
21.42532 343
21.44543 346
21.46555 345
21.48566 339
21.50577 339
21.52589 338
21.546 322
21.56612 327
21.58623 360
21.60634 390
21.62646 321
21.64657 332
21.66668 342
21.6868 370
21.70691 317
21.72702 376
21.74714 385
21.76725 372
21.78737 394
21.80748 431
21.82759 406
21.84771 411
21.86782 450
21.88793 541
21.90805 552
21.92816 590
21.94828 628
21.96839 597
21.9885 606
22.00862 552
22.02873 554
22.04884 480
22.06896 376
22.08907 361
22.10919 352
22.1293 336
22.14941 323
22.16953 334
22.18964 358
22.20975 339
22.22987 339
22.24998 332
22.27009 346
22.29021 362
22.31032 328
22.33044 370
22.35055 349
22.37066 334
22.39078 332
22.41089 385
22.431 389
22.45112 390
22.47123 387
22.49135 414
22.51146 386
22.53157 382
22.55169 369
22.5718 374
22.59191 356
22.61203 317
22.63214 356
22.65225 323
22.67237 321
22.69248 340
22.7126 358
22.73271 343
22.75282 345
22.77294 330
22.79305 333
22.81316 362
22.83328 348
22.85339 381
22.87351 365
22.89362 372
22.91373 387
22.93385 381
22.95396 368
22.97407 369
22.99419 349
23.0143 340
23.03442 359
23.05453 362
23.07464 339
23.09476 341
23.11487 365
23.13498 335
23.1551 317
23.17521 383
23.19532 357
23.21544 377
23.23555 374
23.25567 334
23.27578 349
23.29589 340
23.31601 420
23.33612 441
23.35623 437
23.37635 433
23.39646 402
23.41658 457
23.43669 512
23.4568 501
23.47692 553
23.49703 592
23.51714 598
23.53726 672
23.55737 696
23.57749 643
23.5976 618
23.61771 593
23.63783 542
23.65794 536
23.67805 470
23.69817 466
23.71828 480
23.73839 489
23.75851 459
23.77862 435
23.79874 424
23.81885 498
23.83896 484
23.85908 507
23.87919 507
23.8993 402
23.91942 496
23.93953 451
23.95965 449
23.97976 443
23.99987 431
24.01999 435
24.0401 399
24.06021 373
24.08033 389
24.10044 336
24.12056 353
24.14067 358
24.16078 422
24.1809 430
24.20101 446
24.22112 461
24.24124 412
24.26135 469
24.28146 446
24.30158 455
24.32169 427
24.34181 425
24.36192 442
24.38203 409
24.40215 379
24.42226 392
24.44237 338
24.46249 357
24.4826 383
24.50272 369
24.52283 389
24.54294 378
24.56306 384
24.58317 337
24.60328 385
24.6234 380
24.64351 382
24.66362 384
24.68374 334
24.70385 336
24.72397 352
24.74408 364
24.76419 310
24.78431 365
24.80442 317
24.82453 366
24.84465 306
24.86476 342
24.88488 356
24.90499 319
24.9251 353
24.94522 347
24.96533 319
24.98544 335
25.00556 366
25.02567 360
25.04579 360
25.0659 411
25.08601 341
25.10613 356
25.12624 370
25.14635 409
25.16647 371
25.18658 374
25.20669 395
25.22681 343
25.24692 367
25.26704 380
25.28715 374
25.30726 340
25.32738 363
25.34749 371
25.3676 406
25.38772 390
25.40783 431
25.42795 403
25.44806 468
25.46817 485
25.48829 478
25.5084 460
25.52851 556
25.54863 610
25.56874 612
25.58886 590
25.60897 586
25.62908 600
25.6492 623
25.66931 588
25.68942 550
25.70954 550
25.72965 521
25.74976 566
25.76988 496
25.78999 502
25.81011 482
25.83022 487
25.85033 481
25.87045 471
25.89056 468
25.91067 499
25.93079 459
25.9509 461
25.97102 522
25.99113 520
26.01124 514
26.03136 523
26.05147 562
26.07158 552
26.0917 651
26.11181 607
26.13193 596
26.15204 661
26.17215 677
26.19227 722
26.21238 712
26.23249 780
26.25261 870
26.27272 910
26.29283 993
26.31295 1045
26.33306 1223
26.35318 1362
26.37329 1557
26.3934 1942
26.41352 2430
26.43363 3095
26.45374 4115
26.47386 5579
26.49397 7323
26.51409 9843
26.5342 12349
26.55431 15230
26.57443 17385
26.59454 18255
26.61465 17708
26.63477 15953
26.65488 13473
26.67499 10261
26.69511 7451
26.71522 5123
26.73534 3629
26.75545 2391
26.77556 1790
26.79568 1404
26.81579 1353
26.8359 1225
26.85602 1253
26.87613 1117
26.89625 1166
26.91636 1008
26.93647 944
26.95659 934
26.9767 929
26.99681 904
27.01693 925
27.03704 909
27.05716 905
27.07727 808
27.09738 804
27.1175 727
27.13761 667
27.15772 666
27.17784 622
27.19795 626
27.21806 590
27.23818 578
27.25829 521
27.27841 560
27.29852 606
27.31863 642
27.33875 669
27.35886 730
27.37897 738
27.39909 846
27.4192 974
27.43932 973
27.45943 1011
27.47954 1008
27.49966 919
27.51977 894
27.53988 862
27.56 832
27.58011 715
27.60023 699
27.62034 717
27.64045 699
27.66057 763
27.68068 789
27.70079 892
27.72091 910
27.74102 1016
27.76113 1004
27.78125 960
27.80136 973
27.82148 895
27.84159 897
27.8617 862
27.88182 837
27.90193 857
27.92204 813
27.94216 801
27.96227 767
27.98239 740
28.0025 695
28.02261 665
28.04273 572
28.06284 522
28.08295 472
28.10307 474
28.12318 442
28.1433 425
28.16341 448
28.18352 453
28.20364 476
28.22375 480
28.24386 457
28.26398 482
28.28409 444
28.3042 444
28.32432 435
28.34443 402
28.36455 433
28.38466 371
28.40477 394
28.42489 342
28.445 309
28.46511 343
28.48523 389
28.50534 333
28.52546 364
28.54557 363
28.56568 341
28.5858 391
28.60591 322
28.62602 372
28.64614 340
28.66625 378
28.68636 307
28.70648 337
28.72659 346
28.74671 338
28.76682 312
28.78693 325
28.80705 330
28.82716 328
28.84727 364
28.86739 328
28.8875 328
28.90762 334
28.92773 314
28.94784 313
28.96796 338
28.98807 319
29.00818 354
29.0283 335
29.04841 338
29.06853 326
29.08864 329
29.10875 304
29.12887 330
29.14898 339
29.16909 358
29.18921 307
29.20932 354
29.22943 317
29.24955 368
29.26966 316
29.28978 310
29.30989 340
29.33 312
29.35012 309
29.37023 321
29.39034 323
29.41046 356
29.43057 336
29.45069 367
29.4708 328
29.49091 364
29.51103 401
29.53114 323
29.55125 352
29.57137 393
29.59148 400
29.6116 417
29.63171 420
29.65182 429
29.67194 454
29.69205 480
29.71216 502
29.73228 490
29.75239 506
29.7725 509
29.79262 483
29.81273 507
29.83285 495
29.85296 503
29.87307 494
29.89319 467
29.9133 473
29.93341 439
29.95353 383
29.97364 390
29.99376 382
30.01387 353
30.03398 333
30.0541 350
30.07421 356
30.09432 342
30.11444 345
30.13455 355
30.15467 348
30.17478 335
30.19489 371
30.21501 358
30.23512 390
30.25523 411
30.27535 449
30.29546 410
30.31557 423
30.33569 495
30.3558 444
30.37592 436
30.39603 418
30.41614 390
30.43626 441
30.45637 414
30.47648 386
30.4966 400
30.51671 399
30.53683 361
30.55694 379
30.57705 383
30.59717 340
30.61728 347
30.63739 347
30.65751 421
30.67762 387
30.69773 391
30.71785 436
30.73796 416
30.75808 483
30.77819 479
30.7983 428
30.81842 403
30.83853 375
30.85864 395
30.87876 378
30.89887 346
30.91899 334
30.9391 323
30.95921 318
30.97933 266
30.99944 295
31.01955 298
31.03967 295
31.05978 269
31.0799 283
31.10001 287
31.12012 305
31.14024 299
31.16035 310
31.18046 312
31.20058 276
31.22069 305
31.2408 299
31.26092 313
31.28103 332
31.30115 315
31.32126 363
31.34137 356
31.36149 342
31.3816 328
31.40171 335
31.42183 304
31.44194 321
31.46206 279
31.48217 305
31.50228 288
31.5224 301
31.54251 293
31.56262 285
31.58274 287
31.60285 315
31.62297 288
31.64308 299
31.66319 313
31.68331 301
31.70342 305
31.72353 297
31.74365 289
31.76376 291
31.78387 282
31.80399 288
31.8241 280
31.84422 264
31.86433 264
31.88444 262
31.90456 274
31.92467 281
31.94478 277
31.9649 265
31.98501 287
32.00513 285
32.02524 296
32.04535 297
32.06547 344
32.08558 277
32.10569 297
32.12581 292
32.14592 321
32.16604 345
32.18615 320
32.20626 312
32.22638 356
32.24649 337
32.2666 322
32.28672 336
32.30683 337
32.32694 313
32.34706 346
32.36717 332
32.38729 265
32.4074 315
32.42751 295
32.44763 303
32.46774 289
32.48785 332
32.50797 323
32.52808 291
32.5482 297
32.56831 311
32.58842 292
32.60854 289
32.62865 293
32.64876 275
32.66888 272
32.68899 293
32.7091 286
32.72922 288
32.74933 264
32.76945 259
32.78956 295
32.80967 295
32.82979 262
32.8499 262
32.87001 278
32.89013 260
32.91024 264
32.93036 285
32.95047 298
32.97058 245
32.9907 272
33.01081 285
33.03092 283
33.05104 281
33.07115 290
33.09127 246
33.11138 288
33.13149 290
33.15161 249
33.17172 269
33.19183 282
33.21195 273
33.23206 294
33.25217 248
33.27229 293
33.2924 244
33.31252 216
33.33263 284
33.35274 253
33.37286 229
33.39297 250
33.41308 272
33.4332 235
33.45331 252
33.47343 232
33.49354 246
33.51365 258
33.53377 266
33.55388 252
33.57399 271
33.59411 258
33.61422 299
33.63434 297
33.65445 283
33.67456 279
33.69468 300
33.71479 302
33.7349 297
33.75502 289
33.77513 300
33.79524 304
33.81536 239
33.83547 304
33.85559 301
33.8757 296
33.89581 275
33.91593 274
33.93604 295
33.95615 305
33.97627 246
33.99638 254
34.0165 270
34.03661 285
34.05672 301
34.07684 277
34.09695 329
34.11706 290
34.13718 271
34.15729 315
34.17741 337
34.19752 330
34.21763 361
34.23775 369
34.25786 380
34.27797 373
34.29809 356
34.3182 390
34.33831 399
34.35843 424
34.37854 396
34.39866 458
34.41877 435
34.43888 422
34.459 417
34.47911 411
34.49922 471
34.51934 429
34.53945 439
34.55957 417
34.57968 432
34.59979 446
34.61991 452
34.64002 452
34.66013 489
34.68025 496
34.70036 515
34.72047 454
34.74059 512
34.7607 484
34.78082 521
34.80093 506
34.82104 477
34.84116 514
34.86127 488
34.88138 464
34.9015 466
34.92161 483
34.94173 432
34.96184 447
34.98195 446
35.00207 462
35.02218 481
35.04229 455
35.06241 436
35.08252 426
35.10264 455
35.12275 444
35.14286 449
35.16298 410
35.18309 473
35.2032 456
35.22332 420
35.24343 432
35.26354 452
35.28366 409
35.30377 429
35.32389 420
35.344 469
35.36411 379
35.38423 409
35.40434 379
35.42445 388
35.44457 423
35.46468 465
35.4848 445
35.50491 426
35.52502 382
35.54514 397
35.56525 408
35.58536 416
35.60548 375
35.62559 366
35.64571 357
35.66582 389
35.68593 345
35.70605 344
35.72616 361
35.74627 355
35.76639 339
35.7865 317
35.80661 331
35.82673 338
35.84684 325
35.86696 332
35.88707 360
35.90718 314
35.9273 372
35.94741 344
35.96752 308
35.98764 332
36.00775 392
36.02787 354
36.04798 352
36.06809 364
36.08821 334
36.10832 353
36.12843 330
36.14855 370
36.16866 351
36.18878 340
36.20889 377
36.229 404
36.24912 403
36.26923 416
36.28934 434
36.30946 513
36.32957 545
36.34968 659
36.3698 721
36.38991 824
36.41003 998
36.43014 1251
36.45025 1347
36.47037 1366
36.49048 1464
36.51059 1355
36.53071 1301
36.55082 1218
36.57094 1022
36.59105 939
36.61116 799
36.63128 662
36.65139 540
36.6715 435
36.69162 426
36.71173 392
36.73184 383
36.75196 344
36.77207 363
36.79219 358
36.8123 358
36.83241 332
36.85253 356
36.87264 327
36.89275 351
36.91287 366
36.93298 394
36.9531 363
36.97321 383
36.99332 376
37.01344 310
37.03355 355
37.05366 316
37.07378 321
37.09389 356
37.11401 350
37.13412 336
37.15423 334
37.17435 326
37.19446 381
37.21457 358
37.23469 344
37.2548 319
37.27491 322
37.29503 341
37.31514 292
37.33526 333
37.35537 327
37.37548 319
37.3956 323
37.41571 324
37.43582 344
37.45594 267
37.47605 307
37.49617 324
37.51628 312
37.53639 328
37.55651 340
37.57662 336
37.59673 322
37.61685 325
37.63696 304
37.65708 361
37.67719 327
37.6973 319
37.71742 365
37.73753 328
37.75764 325
37.77776 336
37.79787 301
37.81798 323
37.8381 306
37.85821 281
37.87833 314
37.89844 302
37.91855 264
37.93867 297
37.95878 294
37.97889 321
37.99901 299
38.01912 299
38.03924 275
38.05935 304
38.07946 296
38.09958 259
38.11969 286
38.1398 300
38.15992 285
38.18003 274
38.20015 253
38.22026 301
38.24037 291
38.26049 289
38.2806 307
38.30071 295
38.32083 274
38.34094 287
38.36105 315
38.38117 292
38.40128 297
38.4214 286
38.44151 300
38.46162 293
38.48174 293
38.50185 284
38.52196 255
38.54208 292
38.56219 290
38.58231 300
38.60242 295
38.62253 293
38.64265 295
38.66276 285
38.68287 274
38.70299 291
38.7231 264
38.74321 272
38.76333 284
38.78344 290
38.80356 266
38.82367 258
38.84378 257
38.8639 286
38.88401 257
38.90412 287
38.92424 261
38.94435 286
38.96447 294
38.98458 279
39.00469 282
39.02481 294
39.04492 300
39.06503 341
39.08515 326
39.10526 303
39.12538 350
39.14549 341
39.1656 365
39.18572 361
39.20583 418
39.22594 453
39.24606 470
39.26617 547
39.28628 603
39.3064 744
39.32651 832
39.34663 1043
39.36674 1142
39.38685 1345
39.40697 1336
39.42708 1296
39.44719 1210
39.46731 1094
39.48742 962
39.50754 814
39.52765 774
39.54776 717
39.56788 582
39.58799 460
39.6081 417
39.62822 353
39.64833 311
39.66845 290
39.68856 329
39.70867 347
39.72879 299
39.7489 339
39.76901 300
39.78913 265
39.80924 304
39.82935 287
39.84947 314
39.86958 326
39.8897 305
39.90981 297
39.92992 289
39.95004 323
39.97015 304
39.99026 324
40.01038 328
40.03049 325
40.05061 383
40.07072 365
40.09083 401
40.11095 479
40.13106 506
40.15117 543
40.17129 650
40.1914 701
40.21152 809
40.23163 793
40.25174 749
40.27186 704
40.29197 690
40.31208 626
40.3322 612
40.35231 527
40.37242 521
40.39254 392
40.41265 386
40.43277 293
40.45288 319
40.47299 334
40.49311 281
40.51322 286
40.53333 276
40.55345 290
40.57356 279
40.59368 287
40.61379 251
40.6339 293
40.65402 285
40.67413 275
40.69424 279
40.71436 271
40.73447 303
40.75458 273
40.7747 275
40.79481 269
40.81493 301
40.83504 275
40.85515 298
40.87527 274
40.89538 287
40.91549 290
40.93561 272
40.95572 285
40.97584 293
40.99595 258
41.01606 292
41.03618 296
41.05629 286
41.0764 296
41.09652 276
41.11663 311
41.13675 280
41.15686 294
41.17697 267
41.19709 288
41.2172 303
41.23731 240
41.25743 230
41.27754 303
41.29765 278
41.31777 264
41.33788 283
41.358 278
41.37811 294
41.39822 277
41.41834 277
41.43845 273
41.45856 258
41.47868 300
41.49879 306
41.51891 272
41.53902 312
41.55913 281
41.57925 312
41.59936 317
41.61947 331
41.63959 337
41.6597 319
41.67982 333
41.69993 360
41.72004 346
41.74016 389
41.76027 326
41.78038 343
41.8005 308
41.82061 336
41.84072 324
41.86084 299
41.88095 269
41.90107 321
41.92118 304
41.94129 289
41.96141 313
41.98152 281
42.00163 297
42.02175 279
42.04186 279
42.06198 300
42.08209 294
42.1022 298
42.12232 298
42.14243 359
42.16254 366
42.18266 361
42.20277 406
42.22289 444
42.243 480
42.26311 554
42.28323 623
42.30334 733
42.32345 834
42.34357 869
42.36368 1019
42.38379 1002
42.40391 1011
42.42402 958
42.44414 846
42.46425 796
42.48436 715
42.50448 676
42.52459 598
42.5447 520
42.56482 496
42.58493 374
42.60505 345
42.62516 342
42.64527 339
42.66539 337
42.6855 331
42.70561 350
42.72573 316
42.74584 309
42.76595 329
42.78607 331
42.80618 289
42.8263 298
42.84641 303
42.86652 289
42.88664 299
42.90675 299
42.92686 299
42.94698 255
42.96709 251
42.98721 279
43.00732 235
43.02743 253
43.04755 246
43.06766 282
43.08777 267
43.10789 273
43.128 241
43.14812 260
43.16823 244
43.18834 256
43.20846 272
43.22857 266
43.24868 217
43.2688 274
43.28891 241
43.30902 262
43.32914 233
43.34925 250
43.36937 241
43.38948 259
43.40959 261
43.42971 241
43.44982 239
43.46993 247
43.49005 235
43.51016 246
43.53028 245
43.55039 261
43.5705 237
43.59062 268
43.61073 256
43.63084 237
43.65096 292
43.67107 251
43.69119 249
43.7113 245
43.73141 248
43.75153 252
43.77164 245
43.79175 210
43.81187 219
43.83198 258
43.85209 223
43.87221 231
43.89232 225
43.91244 245
43.93255 256
43.95266 253
43.97278 246
43.99289 221
44.013 230
44.03312 261
44.05323 258
44.07335 268
44.09346 257
44.11357 284
44.13369 227
44.1538 249
44.17391 248
44.19403 220
44.21414 230
44.23426 253
44.25437 239
44.27448 227
44.2946 217
44.31471 230
44.33482 225
44.35494 229
44.37505 234
44.39516 233
44.41528 226
44.43539 257
44.45551 233
44.47562 240
44.49573 217
44.51585 228
44.53596 247
44.55607 226
44.57619 222
44.5963 214
44.61642 230
44.63653 250
44.65664 260
44.67676 239
44.69687 263
44.71698 227
44.7371 277
44.75721 261
44.77732 249
44.79744 248
44.81755 260
44.83767 268
44.85778 292
44.87789 267
44.89801 226
44.91812 252
44.93823 269
44.95835 282
44.97846 278
44.99858 276
45.01869 302
45.0388 290
45.05892 232
45.07903 274
45.09914 282
45.11926 285
45.13937 258
45.15949 246
45.1796 283
45.19971 232
45.21983 267
45.23994 276
45.26005 283
45.28017 263
45.30028 268
45.32039 255
45.34051 281
45.36062 272
45.38074 273
45.40085 282
45.42096 297
45.44108 295
45.46119 284
45.4813 291
45.50142 285
45.52153 344
45.54165 322
45.56176 368
45.58187 390
45.60199 419
45.6221 490
45.64221 537
45.66233 576
45.68244 672
45.70256 695
45.72267 795
45.74278 717
45.7629 715
45.78301 585
45.80312 599
45.82324 533
45.84335 521
45.86346 456
45.88358 472
45.90369 401
45.92381 336
45.94392 290
45.96403 295
45.98415 308
46.00426 256
46.02437 229
46.04449 243
46.0646 279
46.08472 226
46.10483 237
46.12494 243
46.14506 259
46.16517 219
46.18528 256
46.2054 235
46.22551 246
46.24563 249
46.26574 241
46.28585 236
46.30597 240
46.32608 260
46.34619 216
46.36631 251
46.38642 240
46.40653 209
46.42665 232
46.44676 213
46.46688 240
46.48699 248
46.5071 227
46.52722 247
46.54733 202
46.56744 245
46.58756 216
46.60767 226
46.62779 218
46.6479 220
46.66801 216
46.68813 231
46.70824 217
46.72835 221
46.74847 233
46.76858 222
46.78869 202
46.80881 213
46.82892 237
46.84904 213
46.86915 251
46.88926 248
46.90938 227
46.92949 232
46.9496 252
46.96972 255
46.98983 251
47.00995 235
47.03006 241
47.05017 248
47.07029 261
47.0904 270
47.11051 257
47.13063 292
47.15074 244
47.17086 240
47.19097 254
47.21108 247
47.2312 259
47.25131 256
47.27142 232
47.29154 272
47.31165 241
47.33176 242
47.35188 254
47.37199 237
47.39211 271
47.41222 237
47.43233 224
47.45245 274
47.47256 264
47.49267 258
47.51279 234
47.5329 218
47.55302 228
47.57313 218
47.59324 224
47.61336 223
47.63347 228
47.65358 237
47.6737 225
47.69381 210
47.71393 267
47.73404 255
47.75415 216
47.77427 217
47.79438 225
47.81449 223
47.83461 226
47.85472 211
47.87483 217
47.89495 207
47.91506 210
47.93518 230
47.95529 228
47.9754 229
47.99552 229
48.01563 228
48.03574 216
48.05586 226
48.07597 202
48.09609 233
48.1162 187
48.13631 224
48.15643 229
48.17654 202
48.19665 225
48.21677 243
48.23688 241
48.257 271
48.27711 233
48.29722 264
48.31734 234
48.33745 213
48.35756 215
48.37768 215
48.39779 247
48.4179 240
48.43802 257
48.45813 240
48.47825 234
48.49836 254
48.51847 200
48.53859 205
48.5587 227
48.57881 225
48.59893 225
48.61904 242
48.63916 267
48.65927 260
48.67938 240
48.6995 235
48.71961 256
48.73972 227
48.75984 216
48.77995 260
48.80006 301
48.82018 240
48.84029 229
48.86041 280
48.88052 253
48.90063 237
48.92075 258
48.94086 242
48.96097 258
48.98109 268
49.0012 285
49.02132 284
49.04143 251
49.06154 283
49.08166 290
49.10177 288
49.12188 278
49.142 250
49.16211 267
49.18223 230
49.20234 274
49.22245 221
49.24257 254
49.26268 238
49.28279 233
49.30291 247
49.32302 256
49.34313 262
49.36325 241
49.38336 220
49.40348 250
49.42359 240
49.4437 256
49.46382 267
49.48393 278
49.50404 285
49.52416 273
49.54427 274
49.56439 285
49.5845 264
49.60461 304
49.62473 291
49.64484 313
49.66495 278
49.68507 321
49.70518 338
49.7253 342
49.74541 371
49.76552 389
49.78564 413
49.80575 428
49.82586 473
49.84598 507
49.86609 547
49.8862 627
49.90632 666
49.92643 798
49.94655 845
49.96666 1111
49.98677 1260
50.00689 1527
50.027 1721
50.04711 1890
50.06723 1950
50.08734 2013
50.10746 1792
50.12757 1666
50.14768 1489
50.1678 1301
50.18791 1245
50.20802 1120
50.22814 954
50.24825 799
50.26837 650
50.28848 554
50.30859 417
50.32871 411
50.34882 337
50.36893 355
50.38905 333
50.40916 342
50.42927 361
50.44939 368
50.4695 379
50.48962 343
50.50973 371
50.52984 398
50.54996 388
50.57007 371
50.59018 387
50.6103 373
50.63041 359
50.65053 398
50.67064 365
50.69075 379
50.71087 368
50.73098 331
50.75109 329
50.77121 299
50.79132 290
50.81143 282
50.83155 268
50.85166 274
50.87178 254
50.89189 264
50.912 267
50.93212 222
50.95223 262
50.97234 230
50.99246 214
51.01257 205
51.03269 250
51.0528 228
51.07291 234
51.09303 267
51.11314 212
51.13325 232
51.15337 233
51.17348 250
51.1936 251
51.21371 265
51.23382 277
51.25394 252
51.27405 249
51.29416 262
51.31428 283
51.33439 244
51.3545 276
51.37462 255
51.39473 212
51.41485 254
51.43496 206
51.45507 253
51.47519 264
51.4953 220
51.51541 223
51.53553 251
51.55564 221
51.57576 229
51.59587 206
51.61598 219
51.6361 194
51.65621 223
51.67632 211
51.69644 168
51.71655 222
51.73667 216
51.75678 199
51.77689 219
51.79701 219
51.81712 214
51.83723 186
51.85735 212
51.87746 196
51.89757 203
51.91769 234
51.9378 222
51.95792 185
51.97803 213
51.99814 222
52.01826 238
52.03837 191
52.05848 216
52.0786 237
52.09871 232
52.11883 234
52.13894 203
52.15905 262
52.17917 218
52.19928 226
52.21939 248
52.23951 210
52.25962 218
52.27974 233
52.29985 215
52.31996 206
52.34008 232
52.36019 222
52.3803 232
52.40042 239
52.42053 230
52.44064 198
52.46076 216
52.48087 246
52.50099 243
52.5211 240
52.54121 232
52.56133 239
52.58144 228
52.60155 238
52.62167 202
52.64178 193
52.6619 233
52.68201 244
52.70212 222
52.72224 234
52.74235 251
52.76246 232
52.78258 213
52.80269 234
52.8228 253
52.84292 222
52.86303 261
52.88315 248
52.90326 234
52.92337 238
52.94349 253
52.9636 276
52.98371 254
53.00383 228
53.02394 233
53.04406 246
53.06417 274
53.08428 261
53.1044 244
53.12451 240
53.14462 257
53.16474 239
53.18485 272
53.20497 239
53.22508 252
53.24519 240
53.26531 275
53.28542 264
53.30553 299
53.32565 254
53.34576 255
53.36587 232
53.38599 264
53.4061 239
53.42622 240
53.44633 249
53.46644 248
53.48656 283
53.50667 242
53.52678 244
53.5469 258
53.56701 259
53.58713 255
53.60724 275
53.62735 249
53.64747 267
53.66758 234
53.68769 287
53.70781 270
53.72792 253
53.74804 252
53.76815 281
53.78826 274
53.80838 292
53.82849 254
53.8486 272
53.86872 252
53.88883 247
53.90894 271
53.92906 255
53.94917 258
53.96929 279
53.9894 251
54.00951 280
54.02963 237
54.04974 271
54.06985 261
54.08997 255
54.11008 283
54.1302 278
54.15031 244
54.17042 247
54.19054 247
54.21065 264
54.23076 233
54.25088 269
54.27099 279
54.29111 278
54.31122 249
54.33133 301
54.35145 252
54.37156 261
54.39167 266
54.41179 250
54.4319 278
54.45201 333
54.47213 294
54.49224 293
54.51236 306
54.53247 285
54.55258 281
54.5727 286
54.59281 323
54.61292 372
54.63304 346
54.65315 394
54.67327 420
54.69338 465
54.71349 526
54.73361 581
54.75372 634
54.77383 755
54.79395 784
54.81406 734
54.83417 755
54.85429 651
54.8744 560
54.89452 518
54.91463 524
54.93474 494
54.95486 508
54.97497 511
54.99508 418
55.0152 380
55.03531 380
55.05543 316
55.07554 391
55.09565 337
55.11577 361
55.13588 358
55.15599 402
55.17611 390
55.19622 381
55.21634 453
55.23645 496
55.25656 478
55.27668 445
55.29679 509
55.3169 405
55.33702 389
55.35713 360
55.37724 381
55.39736 356
55.41747 360
55.43759 345
55.4577 297
55.47781 311
55.49793 279
55.51804 278
55.53815 266
55.55827 276
55.57838 255
55.5985 280
55.61861 266
55.63872 265
55.65884 240
55.67895 245
55.69906 262
55.71918 235
55.73929 231
55.75941 231
55.77952 244
55.79963 241
55.81975 245
55.83986 252
55.85997 249
55.88009 251
55.9002 244
55.92031 254
55.94043 234
55.96054 282
55.98066 227
56.00077 254
56.02088 233
56.041 230
56.06111 221
56.08122 241
56.10134 242
56.12145 249
56.14157 231
56.16168 251
56.18179 266
56.20191 244
56.22202 238
56.24213 269
56.26225 221
56.28236 239
56.30248 218
56.32259 218
56.3427 217
56.36282 235
56.38293 246
56.40304 240
56.42316 243
56.44327 262
56.46338 231
56.4835 272
56.50361 239
56.52373 226
56.54384 220
56.56395 223
56.58407 260
56.60418 230
56.62429 221
56.64441 231
56.66452 252
56.68464 234
56.70475 235
56.72486 242
56.74498 219
56.76509 220
56.7852 238
56.80532 224
56.82543 227
56.84554 222
56.86566 227
56.88577 237
56.90589 218
56.926 223
56.94611 218
56.96623 242
56.98634 216
57.00645 237
57.02657 240
57.04668 234
57.0668 233
57.08691 234
57.10702 228
57.12714 234
57.14725 266
57.16736 238
57.18748 261
57.20759 255
57.22771 254
57.24782 242
57.26793 239
57.28805 232
57.30816 250
57.32827 207
57.34839 260
57.3685 249
57.38861 273
57.40873 257
57.42884 248
57.44896 234
57.46907 205
57.48918 243
57.5093 240
57.52941 246
57.54952 234
57.56964 205
57.58975 206
57.60987 250
57.62998 207
57.65009 222
57.67021 253
57.69032 221
57.71043 221
57.73055 240
57.75066 220
57.77078 246
57.79089 220
57.811 239
57.83112 217
57.85123 224
57.87134 232
57.89146 234
57.91157 216
57.93168 211
57.9518 213
57.97191 221
57.99203 202
58.01214 209
58.03225 222
58.05237 224
58.07248 232
58.09259 217
58.11271 212
58.13282 236
58.15294 225
58.17305 213
58.19316 226
58.21328 216
58.23339 234
58.2535 218
58.27362 223
58.29373 217
58.31385 232
58.33396 233
58.35407 223
58.37419 204
58.3943 226
58.41441 197
58.43453 217
58.45464 261
58.47475 216
58.49487 228
58.51498 220
58.5351 250
58.55521 232
58.57532 248
58.59544 240
58.61555 229
58.63566 212
58.65578 247
58.67589 249
58.69601 263
58.71612 224
58.73623 218
58.75635 250
58.77646 236
58.79657 247
58.81669 226
58.8368 197
58.85691 217
58.87703 199
58.89714 229
58.91726 226
58.93737 190
58.95748 197
58.9776 216
58.99771 234
59.01782 196
59.03794 231
59.05805 214
59.07817 236
59.09828 221
59.11839 237
59.13851 222
59.15862 228
59.17873 217
59.19885 224
59.21896 213
59.23908 227
59.25919 233
59.2793 228
59.29942 248
59.31953 248
59.33964 251
59.35976 228
59.37987 256
59.39998 249
59.4201 240
59.44021 253
59.46033 252
59.48044 251
59.50055 266
59.52067 263
59.54078 263
59.56089 303
59.58101 324
59.60112 309
59.62124 329
59.64135 392
59.66146 377
59.68158 413
59.70169 479
59.7218 526
59.74192 598
59.76203 717
59.78215 780
59.80226 909
59.82237 992
59.84249 1219
59.8626 1303
59.88271 1337
59.90283 1277
59.92294 1157
59.94305 1059
59.96317 959
59.98328 819
60.0034 832
60.02351 794
60.04362 788
60.06374 743
60.08385 666
60.10396 630
60.12408 510
60.14419 400
60.16431 355
60.18442 308
60.20453 265
60.22465 280
60.24476 271
60.26487 255
60.28499 232
60.3051 275
60.32522 259
60.34533 262
60.36544 284
60.38556 257
60.40567 263
60.42578 231
60.4459 246
60.46601 257
60.48612 239
60.50624 247
60.52635 252
60.54647 241
60.56658 254
60.58669 231
60.60681 222
60.62692 242
60.64703 243
60.66715 231
60.68726 231
60.70738 238
60.72749 226
60.7476 210
60.76772 245
60.78783 225
60.80794 227
60.82806 219
60.84817 214
60.86828 240
60.8884 225
60.90851 246
60.92863 251
60.94874 245
60.96885 215
60.98897 240
61.00908 226
61.02919 228
61.04931 262
61.06942 229
61.08954 227
61.10965 253
61.12976 225
61.14988 239
61.16999 288
61.1901 258
61.21022 248
61.23033 251
61.25045 298
61.27056 256
61.29067 263
61.31079 297
61.3309 284
61.35101 271
61.37113 250
61.39124 300
61.41135 290
61.43147 308
61.45158 272
61.4717 329
61.49181 295
61.51192 281
61.53204 285
61.55215 323
61.57226 297
61.59238 321
61.61249 343
61.63261 286
61.65272 346
61.67283 324
61.69295 309
61.71306 321
61.73317 302
61.75329 309
61.7734 273
61.79352 325
61.81363 284
61.83374 295
61.85386 311
61.87397 293
61.89408 319
61.9142 333
61.93431 293
61.95442 279
61.97454 313
61.99465 298
62.01477 288
62.03488 288
62.05499 282
62.07511 292
62.09522 255
62.11533 297
62.13545 268
62.15556 293
62.17568 258
62.19579 254
62.2159 240
62.23602 254
62.25613 280
62.27624 253
62.29636 252
62.31647 263
62.33659 237
62.3567 263
62.37681 272
62.39693 261
62.41704 258
62.43715 231
62.45727 243
62.47738 219
62.49749 239
62.51761 240
62.53772 220
62.55784 224
62.57795 223
62.59806 274
62.61818 247
62.63829 230
62.6584 231
62.67852 225
62.69863 220
62.71875 213
62.73886 213
62.75897 212
62.77909 241
62.7992 223
62.81931 255
62.83943 235
62.85954 218
62.87965 219
62.89977 216
62.91988 221
62.94 231
62.96011 210
62.98022 237
63.00034 223
63.02045 231
63.04056 219
63.06068 229
63.08079 203
63.10091 237
63.12102 214
63.14113 228
63.16125 231
63.18136 252
63.20147 224
63.22159 215
63.2417 211
63.26182 227
63.28193 212
63.30204 214
63.32216 209
63.34227 223
63.36238 198
63.3825 214
63.40261 236
63.42272 235
63.44284 231
63.46295 246
63.48307 246
63.50318 270
63.52329 266
63.54341 255
63.56352 227
63.58363 235
63.60375 253
63.62386 257
63.64398 245
63.66409 264
63.6842 220
63.70432 299
63.72443 262
63.74454 262
63.76466 268
63.78477 266
63.80489 284
63.825 284
63.84511 329
63.86523 359
63.88534 358
63.90545 408
63.92557 409
63.94568 435
63.96579 409
63.98591 401
64.00602 395
64.02614 361
64.04625 349
64.06636 358
64.08648 316
64.10659 307
64.1267 329
64.14682 338
64.16693 301
64.18705 286
64.20716 275
64.22727 262
64.24739 227
64.2675 207
64.28761 234
64.30773 219
64.32784 202
64.34796 199
64.36807 222
64.38818 199
64.4083 222
64.42841 208
64.44852 218
64.46864 217
64.48875 209
64.50886 224
64.52898 246
64.54909 215
64.56921 229
64.58932 213
64.60943 209
64.62955 224
64.64966 212
64.66977 232
64.68989 218
64.71 220
64.73012 212
64.75023 201
64.77034 226
64.79046 219
64.81057 207
64.83068 211
64.8508 214
64.87091 201
64.89102 212
64.91114 220
64.93125 203
64.95137 213
64.97148 190
64.99159 188
65.01171 231
65.03182 202
65.05193 224
65.07205 226
65.09216 201
65.11228 230
65.13239 224
65.1525 205
65.17262 223
65.19273 199
65.21284 197
65.23296 200
65.25307 225
65.27319 222
65.2933 238
65.31341 207
65.33353 234
65.35364 243
65.37375 250
65.39387 230
65.41398 230
65.43409 211
65.45421 211
65.47432 196
65.49444 214
65.51455 206
65.53466 203
65.55478 215
65.57489 243
65.595 230
65.61512 241
65.63523 224
65.65535 244
65.67546 271
65.69557 273
65.71569 226
65.7358 223
65.75591 251
65.77603 248
65.79614 231
65.81626 225
65.83637 219
65.85648 219
65.8766 211
65.89671 239
65.91682 208
65.93694 203
65.95705 209
65.97716 215
65.99728 208
66.01739 181
66.03751 216
66.05762 203
66.07773 208
66.09785 223
66.11796 199
66.13807 191
66.15819 201
66.1783 197
66.19842 191
66.21853 232
66.23864 216
66.25876 210
66.27887 233
66.29898 195
66.3191 218
66.33921 218
66.35933 224
66.37944 192
66.39955 220
66.41967 195
66.43978 203
66.45989 199
66.48001 231
66.50012 196
66.52023 184
66.54035 222
66.56046 194
66.58058 207
66.60069 202
66.6208 206
66.64092 235
66.66103 198
66.68114 195
66.70126 194
66.72137 214
66.74149 201
66.7616 197
66.78171 191
66.80183 209
66.82194 199
66.84205 206
66.86217 208
66.88228 198
66.90239 212
66.92251 203
66.94262 198
66.96274 234
66.98285 205
67.00296 244
67.02308 210
67.04319 210
67.0633 222
67.08342 205
67.10353 220
67.12365 203
67.14376 233
67.16387 225
67.18399 223
67.2041 235
67.22421 231
67.24433 242
67.26444 269
67.28456 265
67.30467 239
67.32478 245
67.3449 275
67.36501 255
67.38512 276
67.40524 280
67.42535 320
67.44546 312
67.46558 362
67.48569 382
67.50581 445
67.52592 441
67.54603 531
67.56615 543
67.58626 642
67.60637 752
67.62649 754
67.6466 889
67.66672 850
67.68683 818
67.70694 765
67.72706 697
67.74717 668
67.76728 592
67.7874 580
67.80751 652
67.82763 622
67.84774 723
67.86785 705
67.88797 735
67.90808 678
67.92819 698
67.94831 713
67.96842 743
67.98853 786
68.00865 914
68.02876 990
68.04888 1057
68.06899 1101
68.0891 1039
68.10922 1089
68.12933 976
68.14944 940
68.16956 907
68.18967 955
68.20979 989
68.2299 1073
68.25001 991
68.27013 954
68.29024 900
68.31035 763
68.33047 658
68.35058 567
68.3707 516
68.39081 510
68.41092 454
68.43104 479
68.45115 432
68.47126 422
68.49138 360
68.51149 336
68.5316 294
68.55172 292
68.57183 298
68.59195 244
68.61206 269
68.63217 239
68.65229 233
68.6724 239
68.69251 222
68.71263 227
68.73274 222
68.75286 235
68.77297 233
68.79308 239
68.8132 210
68.83331 224
68.85342 223
68.87354 224
68.89365 230
68.91376 200
68.93388 229
68.95399 211
68.97411 217
68.99422 224
69.01433 227
69.03445 215
69.05456 222
69.07467 216
69.09479 214
69.1149 225
69.13502 204
69.15513 207
69.17524 209
69.19536 216
69.21547 206
69.23558 223
69.2557 225
69.27581 207
69.29593 254
69.31604 207
69.33615 195
69.35627 201
69.37638 211
69.39649 201
69.41661 194
69.43672 208
69.45683 214
69.47695 213
69.49706 207
69.51718 225
69.53729 205
69.5574 211
69.57752 218
69.59763 231
69.61774 210
69.63786 203
69.65797 203
69.67809 197
69.6982 222
69.71831 212
69.73843 235
69.75854 206
69.77865 203
69.79877 233
69.81888 211
69.839 206
69.85911 181
69.87922 235
69.89934 187
69.91945 201
69.93956 194
69.95968 204
69.97979 206
69.9999 207
70.02002 198
70.04013 205
70.06025 185
70.08036 194
70.10047 207
70.12059 203
70.1407 195
70.16081 209
70.18093 186
70.20104 222
70.22116 203
70.24127 198
70.26138 219
70.2815 190
70.30161 201
70.32172 178
70.34184 188
70.36195 210
70.38207 206
70.40218 215
70.42229 186
70.44241 187
70.46252 207
70.48263 195
70.50275 221
70.52286 201
70.54297 196
70.56309 180
70.5832 183
70.60332 187
70.62343 173
70.64354 183
70.66366 190
70.68377 216
70.70388 200
70.724 177
70.74411 215
70.76423 211
70.78434 180
70.80445 209
70.82457 187
70.84468 208
70.86479 203
70.88491 213
70.90502 219
70.92513 178
70.94525 206
70.96536 201
70.98548 200
71.00559 186
71.0257 209
71.04582 195
71.06593 187
71.08604 197
71.10616 173
71.12627 181
71.14639 206
71.1665 185
71.18661 188
71.20673 216
71.22684 230
71.24695 166
71.26707 223
71.28718 199
71.3073 201
71.32741 180
71.34752 196
71.36764 203
71.38775 191
71.40786 189
71.42798 212
71.44809 190
71.4682 202
71.48832 213
71.50843 198
71.52855 190
71.54866 224
71.56877 191
71.58889 188
71.609 191
71.62911 194
71.64923 229
71.66934 219
71.68946 203
71.70957 221
71.72968 199
71.7498 227
71.76991 205
71.79002 194
71.81014 195
71.83025 210
71.85037 187
71.87048 204
71.89059 206
71.91071 219
71.93082 208
71.95093 194
71.97105 193
71.99116 208
72.01127 218
72.03139 179
72.0515 211
72.07162 188
72.09173 207
72.11184 218
72.13196 206
72.15207 212
72.17218 207
72.1923 200
72.21241 184
72.23253 217
72.25264 240
72.27275 202
72.29287 212
72.31298 195
72.33309 198
72.35321 188
72.37332 205
72.39344 215
72.41355 194
72.43366 214
72.45378 225
72.47389 211
72.494 226
72.51412 202
72.53423 196
72.55434 206
72.57446 217
72.59457 214
72.61469 222
72.6348 203
72.65491 230
72.67503 210
72.69514 209
72.71525 232
72.73537 221
72.75548 217
72.7756 230
72.79571 218
72.81582 220
72.83594 226
72.85605 217
72.87616 208
72.89628 216
72.91639 223
72.9365 213
72.95662 246
72.97673 208
72.99685 249
73.01696 204
73.03707 236
73.05719 231
73.0773 205
73.09741 249
73.11753 240
73.13764 233
73.15776 240
73.17787 274
73.19798 269
73.2181 286
73.23821 260
73.25832 266
73.27844 308
73.29855 330
73.31867 377
73.33878 439
73.35889 413
73.37901 407
73.39912 436
73.41923 407
73.43935 422
73.45946 355
73.47957 331
73.49969 332
73.5198 328
73.53992 323
73.56003 326
73.58014 311
73.60026 345
73.62037 314
73.64048 326
73.6606 280
73.68071 244
73.70083 226
73.72094 253
73.74105 238
73.76117 231
73.78128 212
73.80139 242
73.82151 203
73.84162 248
73.86174 222
73.88185 191
73.90196 221
73.92208 214
73.94219 218
73.9623 219
73.98242 221
74.00253 222
74.02264 215
74.04276 202
74.06287 204
74.08299 220
74.1031 226
74.12321 216
74.14333 178
74.16344 199
74.18355 191
74.20367 197
74.22378 220
74.2439 198
74.26401 202
74.28412 193
74.30424 191
74.32435 217
74.34446 232
74.36458 201
74.38469 195
74.40481 183
74.42492 194
74.44503 192
74.46515 187
74.48526 202
74.50537 191
74.52549 221
74.5456 201
74.56571 192
74.58583 195
74.60594 208
74.62606 204
74.64617 195
74.66628 209
74.6864 194
74.70651 225
74.72662 168
74.74674 201
74.76685 201
74.78697 242
74.80708 189
74.82719 213
74.84731 190
74.86742 211
74.88753 184
74.90765 195
74.92776 193
74.94787 196
74.96799 202
74.9881 188
75.00822 175
