3.00117 21286
3.02128 20335
3.0414 20202
3.06151 19547
3.08162 18982
3.10174 18257
3.12185 17817
3.14197 17781
3.16208 16553
3.18219 16567
3.20231 16139
3.22242 15360
3.24253 15087
3.26265 14836
3.28276 14316
3.30288 13781
3.32299 13403
3.3431 13016
3.36322 12654
3.38333 12373
3.40344 12134
3.42356 11326
3.44367 11253
3.46379 10568
3.4839 10457
3.50401 10190
3.52413 9667
3.54424 9590
3.56435 8716
3.58447 8926
3.60458 8536
3.62469 8163
3.64481 8202
3.66492 7500
3.68504 7353
3.70515 7062
3.72526 6745
3.74538 6568
3.76549 6238
3.7856 6295
3.80572 5828
3.82583 5555
3.84595 5371
3.86606 5198
3.88617 5247
3.90629 4844
3.9264 4587
3.94651 4433
3.96663 4139
3.98674 4257
4.00686 4130
4.02697 3727
4.04708 3649
4.0672 3472
4.08731 3490
4.10742 3447
4.12754 3201
4.14765 3078
4.16776 2947
4.18788 2950
4.20799 2829
4.22811 2741
4.24822 2598
4.26833 2526
4.28845 2449
4.30856 2539
4.32867 2269
4.34879 2298
4.3689 2233
4.38902 2139
4.40913 2284
4.42924 2028
4.44936 2032
4.46947 1995
4.48958 1981
4.5097 1960
4.52981 1861
4.54992 1873
4.57004 1782
4.59015 1744
4.61027 1763
4.63038 1796
4.65049 1786
4.67061 1620
4.69072 1572
4.71083 1649
4.73095 1526
4.75106 1629
4.77118 1499
4.79129 1499
4.8114 1549
4.83152 1376
4.85163 1434
4.87174 1381
4.89186 1408
4.91197 1407
4.93209 1315
4.9522 1368
4.97231 1383
4.99243 1340
5.01254 1251
5.03265 1222
5.05277 1217
5.07288 1254
5.09299 1240
5.11311 1236
5.13322 1148
5.15334 1172
5.17345 1127
5.19356 1098
5.21368 1186
5.23379 1063
5.2539 1121
5.27402 1177
5.29413 1072
5.31425 1114
5.33436 1018
5.35447 1007
5.37459 1034
5.3947 919
5.41481 1105
5.43493 961
5.45504 1012
5.47516 970
5.49527 978
5.51538 873
5.5355 932
5.55561 913
5.57572 888
5.59584 856
5.61595 848
5.63606 815
5.65618 840
5.67629 824
5.69641 829
5.71652 819
5.73663 826
5.75675 840
5.77686 777
5.79697 862
5.81709 758
5.8372 819
5.85732 764
5.87743 826
5.89754 774
5.91766 795
5.93777 757
5.95788 741
5.978 729
5.99811 770
6.01823 726
6.03834 704
6.05845 703
6.07857 739
6.09868 753
6.11879 741
6.13891 724
6.15902 716
6.17913 721
6.19925 659
6.21936 697
6.23948 658
6.25959 724
6.2797 686
6.29982 647
6.31993 704
6.34004 675
6.36016 623
6.38027 632
6.40039 689
6.4205 647
6.44061 675
6.46073 676
6.48084 646
6.50095 613
6.52107 637
6.54118 635
6.56129 570
6.58141 607
6.60152 608
6.62164 599
6.64175 563
6.66186 622
6.68198 634
6.70209 584
6.7222 581
6.74232 538
6.76243 625
6.78255 581
6.80266 592
6.82277 579
6.84289 584
6.863 514
6.88311 577
6.90323 598
6.92334 599
6.94346 570
6.96357 538
6.98368 575
7.0038 577
7.02391 577
7.04402 522
7.06414 566
7.08425 566
7.10436 587
7.12448 511
7.14459 477
7.16471 538
7.18482 562
7.20493 550
7.22505 566
7.24516 516
7.26527 546
7.28539 566
7.3055 523
7.32562 545
7.34573 533
7.36584 552
7.38596 585
7.40607 539
7.42618 533
7.4463 544
7.46641 543
7.48653 587
7.50664 510
7.52675 557
7.54687 505
7.56698 567
7.58709 486
7.60721 483
7.62732 519
7.64743 502
7.66755 481
7.68766 548
7.70778 545
7.72789 535
7.748 561
7.76812 501
7.78823 520
7.80834 520
7.82846 489
7.84857 546
7.86869 541
7.8888 502
7.90891 474
7.92903 523
7.94914 497
7.96925 527
7.98937 482
8.00948 507
8.0296 501
8.04971 535
8.06982 513
8.08994 538
8.11005 546
8.13016 539
8.15028 503
8.17039 471
8.1905 502
8.21062 518
8.23073 476
8.25085 480
8.27096 533
8.29107 549
8.31119 529
8.3313 537
8.35141 460
8.37153 468
8.39164 492
8.41176 479
8.43187 525
8.45198 520
8.4721 512
8.49221 532
8.51232 537
8.53244 534
8.55255 461
8.57266 529
8.59278 547
8.61289 502
8.63301 501
8.65312 505
8.67323 537
8.69335 549
8.71346 541
8.73357 421
8.75369 483
8.7738 529
8.79392 534
8.81403 457
8.83414 509
8.85426 530
8.87437 500
8.89448 500
8.9146 513
8.93471 472
8.95483 488
8.97494 473
8.99505 456
9.01517 500
9.03528 445
9.05539 465
9.07551 496
9.09562 412
9.11573 428
9.13585 430
9.15596 437
9.17608 424
9.19619 426
9.2163 472
9.23642 441
9.25653 471
9.27664 462
9.29676 453
9.31687 418
9.33699 380
9.3571 456
9.37721 424
9.39733 447
9.41744 388
9.43755 418
9.45767 432
9.47778 435
9.4979 400
9.51801 391
9.53812 408
9.55824 380
9.57835 375
9.59846 401
9.61858 430
9.63869 418
9.6588 404
9.67892 413
9.69903 397
9.71915 404
9.73926 389
9.75937 374
9.77949 377
9.7996 378
9.81971 367
9.83983 409
9.85994 387
9.88006 387
9.90017 378
9.92028 381
9.9404 356
9.96051 381
9.98062 360
10.00074 391
10.02085 382
10.04097 403
10.06108 382
10.08119 361
10.10131 288
10.12142 368
10.14153 363
10.16165 397
10.18176 373
10.20187 399
10.22199 392
10.2421 397
10.26222 339
10.28233 389
10.30244 403
10.32256 358
10.34267 359
10.36278 367
10.3829 383
10.40301 406
10.42313 429
10.44324 468
10.46335 389
10.48347 390
10.50358 414
10.52369 396
10.54381 409
10.56392 359
10.58403 368
10.60415 325
10.62426 364
10.64438 343
10.66449 340
10.6846 356
10.70472 322
10.72483 342
10.74494 365
10.76506 339
10.78517 354
10.80529 368
10.8254 336
10.84551 352
10.86563 347
10.88574 345
10.90585 333
10.92597 348
10.94608 350
10.9662 331
10.98631 337
11.00642 365
11.02654 353
11.04665 337
11.06676 347
11.08688 338
11.10699 350
11.1271 307
11.14722 360
11.16733 355
11.18745 343
11.20756 346
11.22767 329
11.24779 351
11.2679 297
11.28801 352
11.30813 319
11.32824 320
11.34836 324
11.36847 341
11.38858 329
11.4087 333
11.42881 314
11.44892 313
11.46904 342
11.48915 365
11.50927 331
11.52938 290
11.54949 332
11.56961 332
11.58972 339
11.60983 357
11.62995 285
11.65006 341
11.67017 337
11.69029 347
11.7104 287
11.73052 316
11.75063 327
11.77074 367
11.79086 379
11.81097 296
11.83108 335
11.8512 307
11.87131 334
11.89143 326
11.91154 359
11.93165 334
11.95177 320
11.97188 357
11.99199 352
12.01211 337
12.03222 339
12.05234 346
12.07245 354
12.09256 359
12.11268 318
12.13279 321
12.1529 352
12.17302 337
12.19313 340
12.21324 322
12.23336 287
12.25347 350
12.27359 349
12.2937 301
12.31381 330
12.33393 341
12.35404 405
12.37415 391
12.39427 346
12.41438 366
12.4345 325
12.45461 337
12.47472 329
12.49484 330
12.51495 305
12.53506 313
12.55518 322
12.57529 352
12.5954 325
12.61552 303
12.63563 340
12.65575 299
12.67586 293
12.69597 344
12.71609 334
12.7362 346
12.75631 358
12.77643 302
12.79654 345
12.81666 285
12.83677 327
12.85688 299
12.877 351
12.89711 318
12.91722 343
12.93734 301
12.95745 309
12.97757 300
12.99768 321
13.01779 309
13.03791 331
13.05802 347
13.07813 304
13.09825 301
13.11836 282
13.13847 321
13.15859 310
13.1787 355
13.19882 306
13.21893 304
13.23904 316
13.25916 335
13.27927 336
13.29938 317
13.3195 329
13.33961 357
13.35973 330
13.37984 293
13.39995 332
13.42007 339
13.44018 308
13.46029 327
13.48041 309
13.50052 344
13.52064 371
13.54075 374
13.56086 368
13.58098 381
13.60109 390
13.6212 407
13.64132 394
13.66143 408
13.68154 393
13.70166 387
13.72177 369
13.74189 400
13.762 363
13.78211 349
13.80223 411
13.82234 374
13.84245 371
13.86257 391
13.88268 353
13.9028 382
13.92291 323
13.94302 347
13.96314 344
13.98325 335
14.00336 308
14.02348 317
14.04359 312
14.06371 306
14.08382 342
14.10393 320
14.12405 294
14.14416 319
14.16427 313
14.18439 328
14.2045 301
14.22461 348
14.24473 318
14.26484 321
14.28496 303
14.30507 346
14.32518 322
14.3453 281
14.36541 307
14.38552 331
14.40564 276
14.42575 285
14.44587 282
14.46598 295
14.48609 333
14.50621 296
14.52632 302
14.54643 297
14.56655 374
14.58666 282
14.60677 312
14.62689 316
14.647 306
14.66712 290
14.68723 301
14.70734 311
14.72746 303
14.74757 329
14.76768 342
14.7878 316
14.80791 349
14.82803 299
14.84814 304
14.86825 321
14.88837 291
14.90848 329
14.92859 353
14.94871 320
14.96882 356
14.98894 319
15.00905 339
15.02916 307
15.04928 348
15.06939 334
15.0895 364
15.10962 347
15.12973 312
15.14984 334
15.16996 346
15.19007 327
15.21019 346
15.2303 320
15.25041 321
15.27053 337
15.29064 334
15.31075 349
15.33087 318
15.35098 306
15.3711 294
15.39121 314
15.41132 338
15.43144 294
15.45155 317
15.47166 288
15.49178 299
15.51189 309
15.53201 291
15.55212 273
15.57223 307
15.59235 303
15.61246 311
15.63257 276
15.65269 285
15.6728 313
15.69291 345
15.71303 344
15.73314 336
15.75326 353
15.77337 302
15.79348 333
15.8136 328
15.83371 319
15.85382 301
15.87394 309
15.89405 280
15.91417 299
15.93428 327
15.95439 324
15.97451 297
15.99462 332
16.01473 357
16.03485 294
16.05496 333
16.07508 322
16.09519 343
16.1153 322
16.13542 311
16.15553 294
16.17564 292
16.19576 325
16.21587 349
16.23598 301
16.2561 290
16.27621 297
16.29633 315
16.31644 309
16.33655 273
16.35667 307
16.37678 300
16.39689 316
16.41701 324
16.43712 329
16.45724 336
16.47735 317
16.49746 316
16.51758 278
16.53769 314
16.5578 303
16.57792 319
16.59803 317
16.61814 320
16.63826 312
16.65837 278
16.67849 309
16.6986 311
16.71871 323
16.73883 318
16.75894 292
16.77905 299
16.79917 305
16.81928 279
16.8394 287
16.85951 322
16.87962 308
16.89974 309
16.91985 313
16.93996 311
16.96008 336
16.98019 305
17.00031 323
17.02042 329
17.04053 320
17.06065 280
17.08076 320
17.10087 352
17.12099 293
17.1411 304
17.16121 344
17.18133 319
17.20144 294
17.22156 308
17.24167 295
17.26178 331
17.2819 312
17.30201 315
17.32212 314
17.34224 322
17.36235 328
17.38247 300
17.40258 344
17.42269 325
17.44281 325
17.46292 339
17.48303 292
17.50315 330
17.52326 328
17.54338 316
17.56349 315
17.5836 351
17.60372 308
17.62383 356
17.64394 357
17.66406 343
17.68417 347
17.70428 364
17.7244 337
17.74451 316
17.76463 354
17.78474 340
17.80485 340
17.82497 345
17.84508 330
17.86519 345
17.88531 369
17.90542 348
17.92554 330
17.94565 336
17.96576 317
17.98588 344
18.00599 319
18.0261 328
18.04622 320
18.06633 349
18.08645 338
18.10656 301
18.12667 331
18.14679 335
18.1669 349
18.18701 300
18.20713 289
18.22724 324
18.24735 331
18.26747 304
18.28758 368
18.3077 324
18.32781 311
18.34792 297
18.36804 313
18.38815 308
18.40826 306
18.42838 337
18.44849 340
18.46861 316
18.48872 327
18.50883 343
18.52895 330
18.54906 311
18.56917 310
18.58929 352
18.6094 311
18.62951 332
18.64963 332
18.66974 296
18.68986 310
18.70997 338
18.73008 354
18.7502 319
18.77031 366
18.79042 367
18.81054 340
18.83065 334
18.85077 332
18.87088 294
18.89099 364
18.91111 339
18.93122 334
18.95133 373
18.97145 349
18.99156 339
19.01168 365
19.03179 357
19.0519 352
19.07202 379
19.09213 329
19.11224 348
19.13236 378
19.15247 365
19.17258 347
19.1927 374
19.21281 389
19.23293 401
19.25304 441
19.27315 460
19.29327 429
19.31338 465
19.33349 458
19.35361 489
19.37372 488
19.39384 486
19.41395 505
19.43406 536
19.45418 546
19.47429 629
19.4944 584
19.51452 615
19.53463 675
19.55475 630
19.57486 643
19.59497 711
19.61509 653
19.6352 750
19.65531 713
19.67543 766
19.69554 710
19.71565 763
19.73577 770
19.75588 782
19.776 795
19.79611 796
19.81622 838
19.83634 834
19.85645 799
19.87656 757
19.89668 732
19.91679 755
19.93691 781
19.95702 710
19.97713 725
19.99725 706
20.01736 702
20.03747 678
20.05759 690
20.0777 690
20.09782 682
20.11793 649
20.13804 639
20.15816 686
20.17827 656
20.19838 607
20.2185 617
20.23861 620
20.25872 608
20.27884 599
20.29895 569
20.31907 580
20.33918 596
20.35929 623
20.37941 608
20.39952 581
20.41963 597
20.43975 579
20.45986 565
20.47998 575
20.50009 551
20.5202 601
20.54032 581
20.56043 609
20.58054 619
20.60066 572
20.62077 636
20.64088 665
20.661 712
20.68111 867
20.70123 933
20.72134 1134
20.74145 1385
20.76157 1783
20.78168 2133
20.80179 2257
20.82191 2348
20.84202 2229
20.86214 2025
20.88225 1647
20.90236 1349
20.92248 1112
20.94259 863
20.9627 774
20.98282 697
21.00293 666
21.02305 677
21.04316 663
21.06327 646
21.08339 569
21.1035 551
21.12361 550
21.14373 506
21.16384 546
21.18395 515
21.20407 473
21.22418 550
21.2443 485
21.26441 506
21.28452 455
21.30464 475
21.32475 490
21.34486 473
21.36498 494
21.38509 502
21.40521 495
21.42532 498
21.44543 503
21.46555 513
21.48566 508
21.50577 551
21.52589 506
21.546 578
21.56612 618
21.58623 602
21.60634 567
21.62646 648
21.64657 545
21.66668 543
21.6868 542
21.70691 551
21.72702 568
21.74714 510
21.76725 507
21.78737 547
21.80748 511
21.82759 555
21.84771 609
21.86782 584
21.88793 649
21.90805 673
21.92816 726
21.94828 743
21.96839 751
21.9885 790
22.00862 681
22.02873 630
22.04884 617
22.06896 549
22.08907 532
22.10919 431
22.1293 458
22.14941 457
22.16953 467
22.18964 462
22.20975 429
22.22987 436
22.24998 452
22.27009 416
22.29021 454
22.31032 427
22.33044 447
22.35055 453
22.37066 470
22.39078 442
22.41089 482
22.431 466
22.45112 492
22.47123 416
22.49135 452
22.51146 487
22.53157 473
22.55169 476
22.5718 462
22.59191 466
22.61203 450
22.63214 458
22.65225 447
22.67237 471
22.69248 458
22.7126 484
22.73271 497
22.75282 463
22.77294 554
22.79305 515
22.81316 507
22.83328 455
22.85339 546
22.87351 536
22.89362 546
22.91373 504
22.93385 515
22.95396 524
22.97407 507
22.99419 518
23.0143 507
23.03442 465
23.05453 486
23.07464 509
23.09476 525
23.11487 502
23.13498 492
23.1551 500
23.17521 492
23.19532 474
23.21544 480
23.23555 457
23.25567 463
23.27578 499
23.29589 446
23.31601 512
23.33612 444
23.35623 442
23.37635 470
23.39646 561
23.41658 548
23.43669 551
23.4568 601
23.47692 560
23.49703 611
23.51714 650
23.53726 696
23.55737 712
23.57749 708
23.5976 734
23.61771 721
23.63783 719
23.65794 645
23.67805 662
23.69817 628
23.71828 638
23.73839 620
23.75851 611
23.77862 618
23.79874 607
23.81885 589
23.83896 654
23.85908 586
23.87919 619
23.8993 612
23.91942 633
23.93953 632
23.95965 608
23.97976 573
23.99987 572
24.01999 569
24.0401 529
24.06021 575
24.08033 514
24.10044 556
24.12056 514
24.14067 549
24.16078 526
24.1809 610
24.20101 580
24.22112 614
24.24124 545
24.26135 586
24.28146 622
24.30158 567
24.32169 581
24.34181 565
24.36192 542
24.38203 530
24.40215 536
24.42226 514
24.44237 485
24.46249 482
24.4826 459
24.50272 493
24.52283 444
24.54294 513
24.56306 476
24.58317 495
24.60328 562
24.6234 500
24.64351 452
24.66362 476
24.68374 493
24.70385 474
24.72397 477
24.74408 428
24.76419 469
24.78431 428
24.80442 427
24.82453 425
24.84465 441
24.86476 489
24.88488 424
24.90499 479
24.9251 433
24.94522 487
24.96533 438
24.98544 476
25.00556 443
25.02567 473
25.04579 473
25.0659 464
25.08601 461
25.10613 468
25.12624 461
25.14635 484
25.16647 466
25.18658 449
25.20669 509
25.22681 450
25.24692 445
25.26704 483
25.28715 464
25.30726 484
25.32738 501
25.34749 517
25.3676 518
25.38772 490
25.40783 471
25.42795 496
25.44806 549
25.46817 563
25.48829 594
25.5084 600
25.52851 642
25.54863 690
25.56874 616
25.58886 646
25.60897 626
25.62908 619
25.6492 648
25.66931 646
25.68942 660
25.70954 600
25.72965 575
25.74976 602
25.76988 590
25.78999 604
25.81011 582
25.83022 558
25.85033 580
25.87045 552
25.89056 523
25.91067 506
25.93079 519
25.9509 573
25.97102 536
25.99113 508
26.01124 537
26.03136 549
26.05147 564
26.07158 615
26.0917 586
26.11181 567
26.13193 621
26.15204 596
26.17215 650
26.19227 734
26.21238 695
26.23249 715
26.25261 699
26.27272 783
26.29283 808
26.31295 891
26.33306 957
26.35318 1014
26.37329 1137
26.3934 1261
26.41352 1415
26.43363 1776
26.45374 2283
26.47386 2954
26.49397 3883
26.51409 5294
26.5342 6652
26.55431 8220
26.57443 9262
26.59454 9414
26.61465 9029
26.63477 7896
26.65488 6267
26.67499 4673
26.69511 3551
26.71522 2457
26.73534 1770
26.75545 1251
26.77556 1102
26.79568 978
26.81579 937
26.8359 869
26.85602 879
26.87613 879
26.89625 825
26.91636 853
26.93647 827
26.95659 763
26.9767 778
26.99681 766
27.01693 785
27.03704 790
27.05716 746
27.07727 779
27.09738 758
27.1175 745
27.13761 708
27.15772 699
27.17784 669
27.19795 647
27.21806 701
27.23818 719
27.25829 659
27.27841 750
27.29852 797
27.31863 832
27.33875 920
27.35886 957
27.37897 1164
27.39909 1143
27.4192 1163
27.43932 1279
27.45943 1162
27.47954 1175
27.49966 1034
27.51977 1050
27.53988 965
27.56 930
27.58011 970
27.60023 1013
27.62034 998
27.64045 1063
27.66057 1112
27.68068 1180
27.70079 1251
27.72091 1260
27.74102 1258
27.76113 1345
27.78125 1278
27.80136 1144
27.82148 1201
27.84159 1116
27.8617 1173
27.88182 1097
27.90193 1066
27.92204 1090
27.94216 1076
27.96227 977
27.98239 939
28.0025 822
28.02261 823
28.04273 727
28.06284 683
28.08295 650
28.10307 591
28.12318 631
28.1433 632
28.16341 605
28.18352 598
28.20364 615
28.22375 594
28.24386 584
28.26398 600
28.28409 575
28.3042 616
28.32432 571
28.34443 564
28.36455 603
28.38466 517
28.40477 571
28.42489 536
28.445 504
28.46511 505
28.48523 468
28.50534 518
28.52546 491
28.54557 500
28.56568 464
28.5858 434
28.60591 444
28.62602 422
28.64614 439
28.66625 437
28.68636 423
28.70648 428
28.72659 465
28.74671 438
28.76682 486
28.78693 419
28.80705 466
28.82716 472
28.84727 425
28.86739 456
28.8875 416
28.90762 408
28.92773 460
28.94784 458
28.96796 416
28.98807 443
29.00818 407
29.0283 440
29.04841 416
29.06853 448
29.08864 426
29.10875 421
29.12887 412
29.14898 414
29.16909 400
29.18921 479
29.20932 443
29.22943 416
29.24955 430
29.26966 495
29.28978 437
29.30989 472
29.33 449
29.35012 504
29.37023 495
29.39034 472
29.41046 496
29.43057 485
29.45069 464
29.4708 440
29.49091 467
29.51103 492
29.53114 466
29.55125 434
29.57137 462
29.59148 486
29.6116 520
29.63171 499
29.65182 540
29.67194 521
29.69205 532
29.71216 558
29.73228 494
29.75239 571
29.7725 557
29.79262 558
29.81273 560
29.83285 551
29.85296 527
29.87307 519
29.89319 562
29.9133 502
29.93341 517
29.95353 480
29.97364 478
29.99376 506
30.01387 477
30.03398 500
30.0541 517
30.07421 513
30.09432 456
30.11444 463
30.13455 499
30.15467 524
30.17478 509
30.19489 522
30.21501 520
30.23512 553
30.25523 546
30.27535 524
30.29546 618
30.31557 548
30.33569 621
30.3558 637
30.37592 590
30.39603 565
30.41614 527
30.43626 576
30.45637 584
30.47648 528
30.4966 578
30.51671 530
30.53683 472
30.55694 494
30.57705 496
30.59717 509
30.61728 503
30.63739 533
30.65751 514
30.67762 524
30.69773 538
30.71785 562
30.73796 598
30.75808 537
30.77819 563
30.7983 510
30.81842 540
30.83853 549
30.85864 462
30.87876 450
30.89887 499
30.91899 445
30.9391 459
30.95921 430
30.97933 420
30.99944 446
31.01955 471
31.03967 421
31.05978 401
31.0799 399
31.10001 403
31.12012 424
31.14024 409
31.16035 392
31.18046 408
31.20058 450
31.22069 447
31.2408 452
31.26092 458
31.28103 445
31.30115 440
31.32126 454
31.34137 465
31.36149 495
31.3816 413
31.40171 461
31.42183 421
31.44194 425
31.46206 411
31.48217 444
31.50228 405
31.5224 413
31.54251 378
31.56262 393
31.58274 390
31.60285 390
31.62297 363
31.64308 390
31.66319 377
31.68331 391
31.70342 404
31.72353 389
31.74365 366
31.76376 383
31.78387 365
31.80399 390
31.8241 368
31.84422 374
31.86433 394
31.88444 384
31.90456 419
31.92467 349
31.94478 362
31.9649 379
31.98501 404
32.00513 381
32.02524 376
32.04535 429
32.06547 408
32.08558 391
32.10569 394
32.12581 404
32.14592 409
32.16604 413
32.18615 399
32.20626 406
32.22638 426
32.24649 428
32.2666 439
32.28672 396
32.30683 447
32.32694 443
32.34706 434
32.36717 440
32.38729 450
32.4074 420
32.42751 430
32.44763 414
32.46774 442
32.48785 385
32.50797 423
32.52808 423
32.5482 420
32.56831 422
32.58842 400
32.60854 368
32.62865 400
32.64876 394
32.66888 428
32.68899 402
32.7091 403
32.72922 404
32.74933 391
32.76945 363
32.78956 391
32.80967 424
32.82979 412
32.8499 394
32.87001 395
32.89013 411
32.91024 396
32.93036 405
32.95047 426
32.97058 431
32.9907 447
33.01081 419
33.03092 406
33.05104 418
33.07115 422
33.09127 409
33.11138 390
33.13149 397
33.15161 390
33.17172 383
33.19183 404
33.21195 407
33.23206 360
33.25217 408
33.27229 388
33.2924 364
33.31252 399
33.33263 367
33.35274 358
33.37286 385
33.39297 381
33.41308 361
33.4332 377
33.45331 374
33.47343 369
33.49354 367
33.51365 374
33.53377 385
33.55388 391
33.57399 377
33.59411 370
33.61422 359
33.63434 395
33.65445 397
33.67456 357
33.69468 425
33.71479 409
33.7349 410
33.75502 404
33.77513 414
33.79524 410
33.81536 407
33.83547 382
33.85559 441
33.8757 413
33.89581 407
33.91593 423
33.93604 402
33.95615 395
33.97627 433
33.99638 401
34.0165 399
34.03661 413
34.05672 422
34.07684 427
34.09695 457
34.11706 425
34.13718 484
34.15729 478
34.17741 479
34.19752 497
34.21763 519
34.23775 513
34.25786 539
34.27797 534
34.29809 521
34.3182 568
34.33831 528
34.35843 579
34.37854 574
34.39866 550
34.41877 550
34.43888 555
34.459 588
34.47911 588
34.49922 654
34.51934 591
34.53945 576
34.55957 624
34.57968 603
34.59979 588
34.61991 623
34.64002 627
34.66013 636
34.68025 660
34.70036 646
34.72047 574
34.74059 643
34.7607 630
34.78082 618
34.80093 678
34.82104 665
34.84116 682
34.86127 658
34.88138 611
34.9015 633
34.92161 650
34.94173 645
34.96184 617
34.98195 609
35.00207 645
35.02218 622
35.04229 719
35.06241 654
35.08252 650
35.10264 625
35.12275 662
35.14286 728
35.16298 686
35.18309 678
35.2032 654
35.22332 669
35.24343 679
35.26354 678
35.28366 637
35.30377 639
35.32389 669
35.344 571
35.36411 604
35.38423 606
35.40434 606
35.42445 606
35.44457 613
35.46468 601
35.4848 607
35.50491 589
35.52502 565
35.54514 575
35.56525 552
35.58536 548
35.60548 557
35.62559 538
35.64571 521
35.66582 477
35.68593 485
35.70605 513
35.72616 495
35.74627 504
35.76639 458
35.7865 516
35.80661 509
35.82673 453
35.84684 463
35.86696 493
35.88707 478
35.90718 500
35.9273 506
35.94741 488
35.96752 465
35.98764 476
36.00775 449
36.02787 491
36.04798 499
36.06809 466
36.08821 439
36.10832 462
36.12843 496
36.14855 510
36.16866 454
36.18878 483
36.20889 470
36.229 473
36.24912 459
36.26923 497
36.28934 499
36.30946 548
36.32957 509
36.34968 607
36.3698 625
36.38991 747
36.41003 842
36.43014 871
36.45025 1009
36.47037 1018
36.49048 1039
36.51059 999
36.53071 943
36.55082 857
36.57094 830
36.59105 730
36.61116 711
36.63128 665
36.65139 531
36.6715 546
36.69162 529
36.71173 494
36.73184 520
36.75196 517
36.77207 476
36.79219 516
36.8123 519
36.83241 463
36.85253 492
36.87264 499
36.89275 507
36.91287 475
36.93298 513
36.9531 490
36.97321 471
36.99332 494
37.01344 506
37.03355 487
37.05366 487
37.07378 472
37.09389 478
37.11401 475
37.13412 499
37.15423 476
37.17435 474
37.19446 486
37.21457 479
37.23469 475
37.2548 477
37.27491 442
37.29503 474
37.31514 464
37.33526 444
37.35537 448
37.37548 449
37.3956 440
37.41571 470
37.43582 444
37.45594 481
37.47605 450
37.49617 444
37.51628 470
37.53639 510
37.55651 466
37.57662 495
37.59673 475
37.61685 450
37.63696 463
37.65708 462
37.67719 487
37.6973 432
37.71742 416
37.73753 413
37.75764 432
37.77776 414
37.79787 405
37.81798 408
37.8381 437
37.85821 416
37.87833 409
37.89844 425
37.91855 421
37.93867 387
37.95878 418
37.97889 394
37.99901 393
38.01912 391
38.03924 388
38.05935 391
38.07946 457
38.09958 410
38.11969 406
38.1398 420
38.15992 376
38.18003 407
38.20015 434
38.22026 386
38.24037 439
38.26049 450
38.2806 422
38.30071 432
38.32083 430
38.34094 404
38.36105 438
38.38117 435
38.40128 406
38.4214 433
38.44151 379
38.46162 407
38.48174 414
38.50185 436
38.52196 410
38.54208 438
38.56219 395
38.58231 402
38.60242 417
38.62253 395
38.64265 420
38.66276 395
38.68287 391
38.70299 375
38.7231 396
38.74321 384
38.76333 404
38.78344 401
38.80356 328
38.82367 341
38.84378 382
38.8639 406
38.88401 401
38.90412 363
38.92424 402
38.94435 371
38.96447 392
38.98458 396
39.00469 405
39.02481 400
39.04492 365
39.06503 416
39.08515 422
39.10526 427
39.12538 424
39.14549 418
39.1656 413
39.18572 398
39.20583 430
39.22594 479
39.24606 473
39.26617 515
39.28628 560
39.3064 609
39.32651 695
39.34663 779
39.36674 811
39.38685 860
39.40697 923
39.42708 922
39.44719 851
39.46731 717
39.48742 725
39.50754 651
39.52765 570
39.54776 548
39.56788 492
39.58799 500
39.6081 430
39.62822 394
39.64833 414
39.66845 423
39.68856 415
39.70867 383
39.72879 392
39.7489 397
39.76901 386
39.78913 400
39.80924 366
39.82935 387
39.84947 378
39.86958 399
39.8897 399
39.90981 418
39.92992 408
39.95004 407
39.97015 438
39.99026 380
40.01038 419
40.03049 407
40.05061 395
40.07072 429
40.09083 433
40.11095 489
40.13106 519
40.15117 493
40.17129 614
40.1914 630
40.21152 659
40.23163 610
40.25174 643
40.27186 640
40.29197 595
40.31208 545
40.3322 529
40.35231 482
40.37242 498
40.39254 435
40.41265 397
40.43277 426
40.45288 404
40.47299 395
40.49311 425
40.51322 367
40.53333 366
40.55345 410
40.57356 424
40.59368 385
40.61379 342
40.6339 421
40.65402 379
40.67413 390
40.69424 433
40.71436 380
40.73447 369
40.75458 398
40.7747 433
40.79481 398
40.81493 385
40.83504 405
40.85515 411
40.87527 345
40.89538 364
40.91549 389
40.93561 367
40.95572 368
40.97584 414
40.99595 378
41.01606 370
41.03618 348
41.05629 362
41.0764 373
41.09652 378
41.11663 374
41.13675 387
41.15686 389
41.17697 402
41.19709 387
41.2172 376
41.23731 386
41.25743 402
41.27754 384
41.29765 359
41.31777 384
41.33788 360
41.358 348
41.37811 357
41.39822 358
41.41834 384
41.43845 389
41.45856 421
41.47868 404
41.49879 392
41.51891 395
41.53902 438
41.55913 402
41.57925 371
41.59936 457
41.61947 439
41.63959 481
41.6597 414
41.67982 472
41.69993 444
41.72004 465
41.74016 442
41.76027 439
41.78038 426
41.8005 477
41.82061 399
41.84072 418
41.86084 399
41.88095 382
41.90107 409
41.92118 372
41.94129 424
41.96141 380
41.98152 362
42.00163 374
42.02175 383
42.04186 375
42.06198 362
42.08209 402
42.1022 373
42.12232 375
42.14243 442
42.16254 383
42.18266 414
42.20277 445
42.22289 490
42.243 442
42.26311 482
42.28323 535
42.30334 580
42.32345 633
42.34357 704
42.36368 753
42.38379 711
42.40391 780
42.42402 703
42.44414 711
42.46425 590
42.48436 607
42.50448 543
42.52459 515
42.5447 475
42.56482 442
42.58493 433
42.60505 392
42.62516 406
42.64527 415
42.66539 416
42.6855 378
42.70561 401
42.72573 408
42.74584 422
42.76595 404
42.78607 381
42.80618 410
42.8263 371
42.84641 397
42.86652 386
42.88664 359
42.90675 404
42.92686 394
42.94698 359
42.96709 428
42.98721 344
43.00732 387
43.02743 407
43.04755 356
43.06766 362
43.08777 367
43.10789 378
43.128 374
43.14812 366
43.16823 356
43.18834 348
43.20846 360
43.22857 356
43.24868 366
43.2688 377
43.28891 350
43.30902 344
43.32914 350
43.34925 342
43.36937 353
43.38948 353
43.40959 313
43.42971 338
43.44982 356
43.46993 352
43.49005 353
43.51016 351
43.53028 364
43.55039 335
43.5705 343
43.59062 344
43.61073 366
43.63084 351
43.65096 356
43.67107 359
43.69119 344
43.7113 357
43.73141 389
43.75153 359
43.77164 305
43.79175 340
43.81187 355
43.83198 358
43.85209 347
43.87221 341
43.89232 329
43.91244 321
43.93255 382
43.95266 369
43.97278 364
43.99289 345
44.013 330
44.03312 336
44.05323 357
44.07335 387
44.09346 350
44.11357 351
44.13369 392
44.1538 382
44.17391 340
44.19403 346
44.21414 354
44.23426 355
44.25437 341
44.27448 364
44.2946 362
44.31471 357
44.33482 376
44.35494 366
44.37505 358
44.39516 360
44.41528 341
44.43539 346
44.45551 355
44.47562 324
44.49573 310
44.51585 365
44.53596 334
44.55607 348
44.57619 381
44.5963 322
44.61642 371
44.63653 335
44.65664 344
44.67676 346
44.69687 323
44.71698 361
44.7371 365
44.75721 342
44.77732 357
44.79744 402
44.81755 311
44.83767 336
44.85778 355
44.87789 349
44.89801 345
44.91812 347
44.93823 336
44.95835 360
44.97846 391
44.99858 388
45.01869 385
45.0388 368
45.05892 379
45.07903 340
45.09914 383
45.11926 326
45.13937 362
45.15949 349
45.1796 335
45.19971 353
45.21983 351
45.23994 344
45.26005 361
45.28017 319
45.30028 347
45.32039 367
45.34051 374
45.36062 360
45.38074 368
45.40085 399
45.42096 362
45.44108 393
45.46119 362
45.4813 355
45.50142 375
45.52153 375
45.54165 404
45.56176 417
45.58187 443
45.60199 417
45.6221 450
45.64221 492
45.66233 511
45.68244 539
45.70256 555
45.72267 540
45.74278 631
45.7629 535
45.78301 519
45.80312 503
45.82324 456
45.84335 457
45.86346 469
45.88358 444
45.90369 427
45.92381 371
45.94392 400
45.96403 394
45.98415 349
46.00426 372
46.02437 346
46.04449 339
46.0646 353
46.08472 325
46.10483 354
46.12494 343
46.14506 355
46.16517 340
46.18528 322
46.2054 336
46.22551 306
46.24563 368
46.26574 372
46.28585 390
46.30597 360
46.32608 378
46.34619 335
46.36631 328
46.38642 295
46.40653 336
46.42665 336
46.44676 356
46.46688 320
46.48699 355
46.5071 362
46.52722 338
46.54733 359
46.56744 328
46.58756 324
46.60767 330
46.62779 375
46.6479 315
46.66801 330
46.68813 301
46.70824 327
46.72835 334
46.74847 310
46.76858 331
46.78869 338
46.80881 314
46.82892 314
46.84904 321
46.86915 336
46.88926 340
46.90938 333
46.92949 348
46.9496 320
46.96972 290
46.98983 317
47.00995 345
47.03006 337
47.05017 326
47.07029 322
47.0904 327
47.11051 329
47.13063 337
47.15074 320
47.17086 331
47.19097 338
47.21108 371
47.2312 328
47.25131 321
47.27142 293
47.29154 342
47.31165 314
47.33176 331
47.35188 338
47.37199 372
47.39211 357
47.41222 319
47.43233 349
47.45245 306
47.47256 379
47.49267 346
47.51279 336
47.5329 333
47.55302 335
47.57313 280
47.59324 318
47.61336 335
47.63347 307
47.65358 301
47.6737 314
47.69381 311
47.71393 333
47.73404 303
47.75415 320
47.77427 323
47.79438 310
47.81449 339
47.83461 316
47.85472 311
47.87483 341
47.89495 332
47.91506 309
47.93518 329
47.95529 287
47.9754 329
47.99552 293
48.01563 306
48.03574 311
48.05586 339
48.07597 313
48.09609 331
48.1162 319
48.13631 296
48.15643 321
48.17654 320
48.19665 361
48.21677 302
48.23688 369
48.257 304
48.27711 348
48.29722 313
48.31734 348
48.33745 353
48.35756 338
48.37768 348
48.39779 342
48.4179 370
48.43802 349
48.45813 300
48.47825 343
48.49836 335
48.51847 355
48.53859 339
48.5587 353
48.57881 351
48.59893 354
48.61904 363
48.63916 359
48.65927 353
48.67938 320
48.6995 356
48.71961 347
48.73972 376
48.75984 361
48.77995 312
48.80006 335
48.82018 318
48.84029 347
48.86041 339
48.88052 347
48.90063 345
48.92075 334
48.94086 373
48.96097 389
48.98109 325
49.0012 354
49.02132 363
49.04143 373
49.06154 367
49.08166 359
49.10177 353
49.12188 368
49.142 380
49.16211 383
49.18223 352
49.20234 354
49.22245 359
49.24257 352
49.26268 355
49.28279 366
49.30291 345
49.32302 371
49.34313 342
49.36325 357
49.38336 354
49.40348 368
49.42359 357
49.4437 339
49.46382 340
49.48393 325
49.50404 344
49.52416 329
49.54427 354
49.56439 350
49.5845 359
49.60461 342
49.62473 358
49.64484 376
49.66495 374
49.68507 407
49.70518 373
49.7253 397
49.74541 401
49.76552 407
49.78564 403
49.80575 418
49.82586 498
49.84598 479
49.86609 486
49.8862 508
49.90632 572
49.92643 588
49.94655 621
49.96666 708
49.98677 817
50.00689 912
50.027 1053
50.04711 1148
50.06723 1193
50.08734 1154
50.10746 1132
50.12757 978
50.14768 925
50.1678 826
50.18791 776
50.20802 730
50.22814 709
50.24825 596
50.26837 579
50.28848 487
50.30859 438
50.32871 383
50.34882 381
50.36893 390
50.38905 406
50.40916 374
50.42927 410
50.44939 404
50.4695 378
50.48962 378
50.50973 451
50.52984 381
50.54996 421
50.57007 408
50.59018 390
50.6103 433
50.63041 423
50.65053 399
50.67064 411
50.69075 406
50.71087 401
50.73098 365
50.75109 367
50.77121 406
50.79132 371
50.81143 340
50.83155 349
50.85166 362
50.87178 390
50.89189 416
50.912 358
50.93212 397
50.95223 374
50.97234 346
50.99246 355
51.01257 363
51.03269 347
51.0528 384
51.07291 352
51.09303 355
51.11314 344
51.13325 350
51.15337 357
51.17348 329
51.1936 336
51.21371 344
51.23382 333
51.25394 335
51.27405 362
51.29416 377
51.31428 340
51.33439 337
51.3545 332
51.37462 305
51.39473 344
51.41485 334
51.43496 320
51.45507 311
51.47519 304
51.4953 293
51.51541 318
51.53553 311
51.55564 317
51.57576 291
51.59587 333
51.61598 294
51.6361 299
51.65621 290
51.67632 297
51.69644 280
51.71655 335
51.73667 327
51.75678 298
51.77689 303
51.79701 294
51.81712 293
51.83723 287
51.85735 312
51.87746 300
51.89757 301
51.91769 301
51.9378 285
51.95792 323
51.97803 300
51.99814 280
52.01826 302
52.03837 285
52.05848 323
52.0786 290
52.09871 286
52.11883 297
52.13894 302
52.15905 326
52.17917 299
52.19928 282
52.21939 354
52.23951 330
52.25962 332
52.27974 307
52.29985 290
52.31996 292
52.34008 343
52.36019 333
52.3803 347
52.40042 317
52.42053 301
52.44064 337
52.46076 303
52.48087 295
52.50099 323
52.5211 341
52.54121 321
52.56133 338
52.58144 344
52.60155 315
52.62167 336
52.64178 314
52.6619 344
52.68201 317
52.70212 336
52.72224 344
52.74235 347
52.76246 312
52.78258 367
52.80269 338
52.8228 337
52.84292 370
52.86303 308
52.88315 358
52.90326 340
52.92337 346
52.94349 343
52.9636 323
52.98371 327
53.00383 316
53.02394 358
53.04406 340
53.06417 370
53.08428 357
53.1044 355
53.12451 366
53.14462 350
53.16474 369
53.18485 332
53.20497 360
53.22508 367
53.24519 380
53.26531 323
53.28542 364
53.30553 334
53.32565 345
53.34576 327
53.36587 337
53.38599 365
53.4061 383
53.42622 322
53.44633 356
53.46644 367
53.48656 361
53.50667 372
53.52678 352
53.5469 347
53.56701 351
53.58713 380
53.60724 350
53.62735 361
53.64747 334
53.66758 338
53.68769 379
53.70781 352
53.72792 350
53.74804 384
53.76815 371
53.78826 391
53.80838 353
53.82849 403
53.8486 376
53.86872 374
53.88883 400
53.90894 408
53.92906 370
53.94917 372
53.96929 370
53.9894 385
54.00951 376
54.02963 407
54.04974 353
54.06985 382
54.08997 346
54.11008 396
54.1302 354
54.15031 384
54.17042 380
54.19054 397
54.21065 364
54.23076 354
54.25088 364
54.27099 367
54.29111 386
54.31122 353
54.33133 391
54.35145 385
54.37156 359
54.39167 365
54.41179 357
54.4319 421
54.45201 363
54.47213 371
54.49224 412
54.51236 426
54.53247 372
54.55258 425
54.5727 396
54.59281 382
54.61292 391
54.63304 391
54.65315 402
54.67327 415
54.69338 457
54.71349 498
54.73361 523
54.75372 605
54.77383 595
54.79395 587
54.81406 604
54.83417 589
54.85429 531
54.8744 497
54.89452 507
54.91463 519
54.93474 536
54.95486 496
54.97497 501
54.99508 399
55.0152 412
55.03531 415
55.05543 402
55.07554 371
55.09565 401
55.11577 371
55.13588 356
55.15599 393
55.17611 428
55.19622 391
55.21634 445
55.23645 479
55.25656 458
55.27668 415
55.29679 417
55.3169 450
55.33702 411
55.35713 407
55.37724 393
55.39736 378
55.41747 393
55.43759 402
55.4577 385
55.47781 376
55.49793 341
55.51804 355
55.53815 401
55.55827 353
55.57838 363
55.5985 381
55.61861 349
55.63872 342
55.65884 352
55.67895 343
55.69906 361
55.71918 336
55.73929 384
55.75941 302
55.77952 320
55.79963 349
55.81975 343
55.83986 340
55.85997 350
55.88009 362
55.9002 349
55.92031 353
55.94043 345
55.96054 359
55.98066 330
56.00077 374
56.02088 375
56.041 327
56.06111 317
56.08122 326
56.10134 305
56.12145 391
56.14157 315
56.16168 359
56.18179 360
56.20191 353
56.22202 351
56.24213 351
56.26225 328
56.28236 365
56.30248 303
56.32259 333
56.3427 346
56.36282 352
56.38293 330
56.40304 347
56.42316 367
56.44327 325
56.46338 313
56.4835 347
56.50361 357
56.52373 322
56.54384 341
56.56395 320
56.58407 299
56.60418 328
56.62429 338
56.64441 339
56.66452 336
56.68464 368
56.70475 358
56.72486 337
56.74498 358
56.76509 368
56.7852 329
56.80532 316
56.82543 344
56.84554 366
56.86566 341
56.88577 342
56.90589 355
56.926 310
56.94611 365
56.96623 310
56.98634 375
57.00645 318
57.02657 339
57.04668 322
57.0668 302
57.08691 342
57.10702 344
57.12714 346
57.14725 328
57.16736 337
57.18748 335
57.20759 306
57.22771 340
57.24782 307
57.26793 350
57.28805 384
57.30816 329
57.32827 365
57.34839 371
57.3685 366
57.38861 363
57.40873 321
57.42884 322
57.44896 340
57.46907 325
57.48918 334
57.5093 347
57.52941 363
57.54952 306
57.56964 322
57.58975 332
57.60987 337
57.62998 338
57.65009 341
57.67021 313
57.69032 316
57.71043 320
57.73055 302
57.75066 292
57.77078 306
57.79089 327
57.811 362
57.83112 285
57.85123 350
57.87134 322
57.89146 304
57.91157 317
57.93168 333
57.9518 291
57.97191 311
57.99203 314
58.01214 306
58.03225 311
58.05237 329
58.07248 325
58.09259 333
58.11271 320
58.13282 316
58.15294 333
58.17305 313
58.19316 332
58.21328 294
58.23339 293
58.2535 299
58.27362 350
58.29373 304
58.31385 319
58.33396 321
58.35407 346
58.37419 329
58.3943 307
58.41441 316
58.43453 340
58.45464 306
58.47475 343
58.49487 311
58.51498 329
58.5351 342
58.55521 297
58.57532 328
58.59544 340
58.61555 330
58.63566 352
58.65578 329
58.67589 345
58.69601 346
58.71612 341
58.73623 333
58.75635 342
58.77646 327
58.79657 329
58.81669 322
58.8368 326
58.85691 275
58.87703 312
58.89714 310
58.91726 306
58.93737 326
58.95748 312
58.9776 304
58.99771 309
59.01782 304
59.03794 362
59.05805 281
59.07817 335
59.09828 314
59.11839 284
59.13851 317
59.15862 314
59.17873 290
59.19885 320
59.21896 329
59.23908 309
59.25919 334
59.2793 341
59.29942 339
59.31953 341
59.33964 329
59.35976 286
59.37987 335
59.39998 323
59.4201 367
59.44021 342
59.46033 332
59.48044 319
59.50055 345
59.52067 318
59.54078 315
59.56089 365
59.58101 348
59.60112 381
59.62124 382
59.64135 341
59.66146 357
59.68158 411
59.70169 400
59.7218 433
59.74192 502
59.76203 544
59.78215 598
59.80226 642
59.82237 718
59.84249 780
59.8626 863
59.88271 862
59.90283 824
59.92294 742
59.94305 740
59.96317 669
59.98328 582
60.0034 565
60.02351 629
60.04362 600
60.06374 617
60.08385 570
60.10396 474
60.12408 387
60.14419 354
60.16431 356
60.18442 344
60.20453 375
60.22465 351
60.24476 340
60.26487 344
60.28499 356
60.3051 359
60.32522 336
60.34533 329
60.36544 338
60.38556 318
60.40567 322
60.42578 379
60.4459 358
60.46601 319
60.48612 326
60.50624 353
60.52635 330
60.54647 337
60.56658 333
60.58669 333
60.60681 349
60.62692 337
60.64703 305
60.66715 364
60.68726 320
60.70738 315
60.72749 364
60.7476 348
60.76772 337
60.78783 300
60.80794 316
60.82806 351
60.84817 366
60.86828 331
60.8884 378
60.90851 340
60.92863 347
60.94874 333
60.96885 351
60.98897 339
61.00908 338
61.02919 366
61.04931 394
61.06942 354
61.08954 388
61.10965 370
61.12976 407
61.14988 370
61.16999 374
61.1901 399
61.21022 413
61.23033 397
61.25045 414
61.27056 399
61.29067 394
61.31079 391
61.3309 366
61.35101 422
61.37113 386
61.39124 402
61.41135 397
61.43147 433
61.45158 414
61.4717 439
61.49181 438
61.51192 461
61.53204 428
61.55215 485
61.57226 442
61.59238 412
61.61249 455
61.63261 444
61.65272 429
61.67283 467
61.69295 444
61.71306 425
61.73317 427
61.75329 448
61.7734 446
61.79352 395
61.81363 406
61.83374 453
61.85386 425
61.87397 429
61.89408 427
61.9142 403
61.93431 446
61.95442 419
61.97454 431
61.99465 428
62.01477 409
62.03488 410
62.05499 404
62.07511 431
62.09522 435
62.11533 438
62.13545 434
62.15556 389
62.17568 392
62.19579 375
62.2159 396
62.23602 408
62.25613 390
62.27624 410
62.29636 382
62.31647 383
62.33659 354
62.3567 370
62.37681 358
62.39693 371
62.41704 356
62.43715 366
62.45727 366
62.47738 367
62.49749 339
62.51761 345
62.53772 363
62.55784 365
62.57795 342
62.59806 354
62.61818 383
62.63829 347
62.6584 348
62.67852 344
62.69863 354
62.71875 330
62.73886 289
62.75897 336
62.77909 341
62.7992 344
62.81931 348
62.83943 351
62.85954 330
62.87965 308
62.89977 338
62.91988 341
62.94 364
62.96011 342
62.98022 330
63.00034 326
63.02045 342
63.04056 326
63.06068 322
63.08079 291
63.10091 312
63.12102 306
63.14113 327
63.16125 324
63.18136 307
63.20147 336
63.22159 310
63.2417 295
63.26182 304
63.28193 339
63.30204 307
63.32216 306
63.34227 304
63.36238 316
63.3825 320
63.40261 322
63.42272 354
63.44284 350
63.46295 309
63.48307 333
63.50318 319
63.52329 334
63.54341 348
63.56352 351
63.58363 326
63.60375 332
63.62386 345
63.64398 341
63.66409 371
63.6842 343
63.70432 352
63.72443 332
63.74454 357
63.76466 356
63.78477 370
63.80489 368
63.825 337
63.84511 393
63.86523 412
63.88534 389
63.90545 390
63.92557 416
63.94568 423
63.96579 406
63.98591 431
64.00602 429
64.02614 383
64.04625 375
64.06636 372
64.08648 368
64.10659 362
64.1267 355
64.14682 365
64.16693 350
64.18705 367
64.20716 375
64.22727 324
64.24739 323
64.2675 336
64.28761 333
64.30773 283
64.32784 296
64.34796 315
64.36807 276
64.38818 335
64.4083 310
64.42841 287
64.44852 320
64.46864 295
64.48875 301
64.50886 318
64.52898 307
64.54909 340
64.56921 314
64.58932 299
64.60943 310
64.62955 312
64.64966 319
64.66977 311
64.68989 296
64.71 322
64.73012 297
64.75023 276
64.77034 293
64.79046 304
64.81057 313
64.83068 318
64.8508 324
64.87091 311
64.89102 323
64.91114 303
64.93125 281
64.95137 284
64.97148 330
64.99159 315
65.01171 302
65.03182 306
65.05193 339
65.07205 304
65.09216 301
65.11228 318
65.13239 305
65.1525 271
65.17262 287
65.19273 324
65.21284 307
65.23296 294
65.25307 300
65.27319 301
65.2933 325
65.31341 274
65.33353 314
65.35364 324
65.37375 288
65.39387 290
65.41398 302
65.43409 296
65.45421 301
65.47432 278
65.49444 281
65.51455 293
65.53466 297
65.55478 290
65.57489 289
65.595 286
65.61512 294
65.63523 311
65.65535 325
65.67546 311
65.69557 297
65.71569 317
65.7358 317
65.75591 304
65.77603 292
65.79614 294
65.81626 305
65.83637 316
65.85648 284
65.8766 290
65.89671 307
65.91682 325
65.93694 271
65.95705 317
65.97716 326
65.99728 286
66.01739 277
66.03751 317
66.05762 262
66.07773 289
66.09785 289
66.11796 296
66.13807 289
66.15819 310
66.1783 329
66.19842 273
66.21853 310
66.23864 292
66.25876 329
66.27887 327
66.29898 284
66.3191 302
66.33921 293
66.35933 294
66.37944 295
66.39955 264
66.41967 303
66.43978 274
66.45989 297
66.48001 298
66.50012 302
66.52023 285
66.54035 288
66.56046 293
66.58058 296
66.60069 273
66.6208 271
66.64092 305
66.66103 280
66.68114 276
66.70126 297
66.72137 277
66.74149 292
66.7616 315
66.78171 299
66.80183 279
66.82194 275
66.84205 304
66.86217 297
66.88228 284
66.90239 300
66.92251 311
66.94262 303
66.96274 328
66.98285 293
67.00296 314
67.02308 294
67.04319 283
67.0633 296
67.08342 299
67.10353 297
67.12365 295
67.14376 313
67.16387 301
67.18399 287
67.2041 313
67.22421 316
67.24433 320
67.26444 315
67.28456 331
67.30467 313
67.32478 334
67.3449 333
67.36501 312
67.38512 319
67.40524 318
67.42535 343
67.44546 327
67.46558 339
67.48569 377
67.50581 382
67.52592 400
67.54603 409
67.56615 454
67.58626 473
67.60637 557
67.62649 588
67.6466 567
67.66672 655
67.68683 668
67.70694 559
67.72706 528
67.74717 502
67.76728 522
67.7874 492
67.80751 479
67.82763 512
67.84774 523
67.86785 509
67.88797 514
67.90808 535
67.92819 510
67.94831 536
67.96842 573
67.98853 551
68.00865 666
68.02876 673
68.04888 805
68.06899 767
68.0891 702
68.10922 711
68.12933 671
68.14944 694
68.16956 641
68.18967 645
68.20979 670
68.2299 737
68.25001 686
68.27013 685
68.29024 696
68.31035 566
68.33047 554
68.35058 487
68.3707 449
68.39081 464
68.41092 462
68.43104 440
68.45115 438
68.47126 388
68.49138 365
68.51149 365
68.5316 357
68.55172 341
68.57183 310
68.59195 345
68.61206 329
68.63217 307
68.65229 319
68.6724 326
68.69251 317
68.71263 326
68.73274 277
68.75286 326
68.77297 310
68.79308 297
68.8132 317
68.83331 316
68.85342 289
68.87354 280
68.89365 297
68.91376 325
68.93388 316
68.95399 288
68.97411 336
68.99422 283
69.01433 297
69.03445 313
69.05456 309
69.07467 294
69.09479 314
69.1149 308
69.13502 311
69.15513 312
69.17524 285
69.19536 282
69.21547 280
69.23558 302
69.2557 336
69.27581 325
69.29593 303
69.31604 322
69.33615 297
69.35627 321
69.37638 316
69.39649 288
69.41661 292
69.43672 296
69.45683 317
69.47695 327
69.49706 297
69.51718 315
69.53729 340
69.5574 288
69.57752 300
69.59763 299
69.61774 267
69.63786 303
69.65797 293
69.67809 297
69.6982 296
69.71831 324
69.73843 313
69.75854 270
69.77865 306
69.79877 307
69.81888 291
69.839 302
69.85911 323
69.87922 308
69.89934 325
69.91945 298
69.93956 319
69.95968 305
69.97979 316
69.9999 293
70.02002 285
70.04013 325
70.06025 298
70.08036 301
70.10047 306
70.12059 311
70.1407 295
70.16081 278
70.18093 286
70.20104 299
70.22116 313
70.24127 290
70.26138 303
70.2815 263
70.30161 300
70.32172 259
70.34184 240
70.36195 324
70.38207 262
70.40218 297
70.42229 267
70.44241 291
70.46252 266
70.48263 270
70.50275 274
70.52286 276
70.54297 299
70.56309 286
70.5832 292
70.60332 316
70.62343 269
70.64354 290
70.66366 271
70.68377 295
70.70388 309
70.724 278
70.74411 296
70.76423 272
70.78434 261
70.80445 273
70.82457 282
70.84468 283
70.86479 290
70.88491 324
70.90502 297
70.92513 273
70.94525 296
70.96536 292
70.98548 278
71.00559 284
71.0257 320
71.04582 286
71.06593 302
71.08604 296
71.10616 299
71.12627 312
71.14639 291
71.1665 293
71.18661 279
71.20673 295
71.22684 296
71.24695 290
71.26707 267
71.28718 303
71.3073 283
71.32741 290
71.34752 298
71.36764 318
71.38775 292
71.40786 301
71.42798 299
71.44809 331
71.4682 297
71.48832 300
71.50843 311
71.52855 297
71.54866 285
71.56877 304
71.58889 296
71.609 274
71.62911 290
71.64923 276
71.66934 290
71.68946 288
71.70957 299
71.72968 301
71.7498 296
71.76991 302
71.79002 285
71.81014 275
71.83025 293
71.85037 309
71.87048 322
71.89059 316
71.91071 299
71.93082 288
71.95093 315
71.97105 284
71.99116 340
72.01127 290
72.03139 284
72.0515 325
72.07162 292
72.09173 320
72.11184 312
72.13196 314
72.15207 304
72.17218 333
72.1923 299
72.21241 309
72.23253 327
72.25264 324
72.27275 301
72.29287 325
72.31298 315
72.33309 304
72.35321 332
72.37332 344
72.39344 302
72.41355 313
72.43366 300
72.45378 322
72.47389 291
72.494 354
72.51412 321
72.53423 330
72.55434 303
72.57446 281
72.59457 351
72.61469 345
72.6348 308
72.65491 337
72.67503 322
72.69514 313
72.71525 302
72.73537 305
72.75548 308
72.7756 304
72.79571 315
72.81582 314
72.83594 331
72.85605 304
72.87616 318
72.89628 336
72.91639 319
72.9365 337
72.95662 307
72.97673 328
72.99685 316
73.01696 325
73.03707 304
73.05719 339
73.0773 339
73.09741 332
73.11753 343
73.13764 347
73.15776 345
73.17787 334
73.19798 335
73.2181 295
73.23821 350
73.25832 321
73.27844 365
73.29855 364
73.31867 379
73.33878 427
73.35889 438
73.37901 401
73.39912 445
73.41923 402
73.43935 422
73.45946 396
73.47957 370
73.49969 349
73.5198 365
73.53992 343
73.56003 339
73.58014 359
73.60026 361
73.62037 377
73.64048 361
73.6606 387
73.68071 366
73.70083 310
73.72094 341
73.74105 299
73.76117 326
73.78128 311
73.80139 285
73.82151 321
73.84162 323
73.86174 325
73.88185 289
73.90196 320
73.92208 319
73.94219 317
73.9623 327
73.98242 293
74.00253 285
74.02264 299
74.04276 299
74.06287 331
74.08299 303
74.1031 318
74.12321 296
74.14333 310
74.16344 301
74.18355 298
74.20367 325
74.22378 296
74.2439 290
74.26401 298
74.28412 305
74.30424 318
74.32435 306
74.34446 282
74.36458 306
74.38469 297
74.40481 317
74.42492 302
74.44503 319
74.46515 301
74.48526 328
74.50537 302
74.52549 282
74.5456 294
74.56571 299
74.58583 295
74.60594 305
74.62606 291
74.64617 322
74.66628 302
74.6864 298
74.70651 281
74.72662 289
74.74674 291
74.76685 294
74.78697 302
74.80708 312
74.82719 301
74.84731 317
74.86742 324
74.88753 260
74.90765 294
74.92776 308
74.94787 290
74.96799 284
74.9881 289
75.00822 314
