3.00117 22929.8002410288
3.02128 22456.3451398016
3.0414 22205
3.06151 21640.4516519529
3.08162 20492.524090309
3.10174 20623.9355272596
3.12185 20039.8665760998
3.14197 19460.6753666916
3.16208 18957.6799593982
3.18219 18185.3174762677
3.20231 17733.7842749883
3.22242 17250.572369604
3.24253 16874.3671669084
3.26265 16333.4500019204
3.28276 15753.8793782358
3.30288 15461.2223920142
3.32299 15094.3190565312
3.3431 14471
3.36322 14461.4687986373
3.38333 13464.9516510112
3.40344 13276.5868179686
3.42356 12829.7408919229
3.44367 12633.3438875297
3.46379 12161.3528718378
3.4839 11514
3.50401 11417.8182726632
3.52413 10779.3242795363
3.54424 10649.7513359061
3.56435 10246.6067086912
3.58447 9655.40433469947
3.60458 9654.04586481073
3.62469 9366.20455512712
3.64481 9018.89362449947
3.66492 8770.48389616466
3.68504 8143.32935928973
3.70515 8116.77247557562
3.72526 7693.28838400707
3.74538 7195.07959455658
3.76549 7348.03322120488
3.7856 6917
3.80572 6581.71548745605
3.82583 6288.62075841856
3.84595 6132.89071183838
3.86606 6046.5898220919
3.88617 5606.521318591
3.90629 5425.08487451229
3.9264 5206
3.94651 5140.99639198367
3.96663 5018.45671810764
3.98674 4612.75774769063
4.00686 4717.10802089903
4.02697 4340.71499455769
4.04708 4069.97069537988
4.0672 4139
4.08731 3657.85493609427
4.10742 3678.02759543763
4.12754 3524.5639223306
4.14765 3410.87864708821
4.16776 3464.3133441462
4.18788 3128.26411289847
4.20799 3043.02198246701
4.22811 2934.93186758458
4.24822 2843.99517956017
4.26833 2829.76330181234
4.28845 2592.71506317605
4.30856 2601.13656204182
4.32867 2430.14750924953
4.34879 2496.92486454126
4.3689 2540
4.38902 2240.78486388206
4.40913 2206.05907112434
4.42924 2226.02588402274
4.44936 2228.05090182664
4.46947 2145.22903912032
4.48958 1983.09467720097
4.5097 1987
4.52981 2005.96291916102
4.54992 1921.04027982463
4.57004 2002.8085261547
4.59015 1763.31811428427
4.61027 1834.84342161504
4.63038 1834.07841737195
4.65049 1751.0205547899
4.67061 1738.97955324126
4.69072 1641.87910106987
4.71083 1575.052715102
4.73095 1644.97423649356
4.75106 1568.02958738174
4.77118 1617.01381992424
4.79129 1487.08567926533
4.8114 1398
4.83152 1500.02735433924
4.85163 1427.90076048054
4.87174 1424.02161282601
4.89186 1389.18551997975
4.91197 1304.99186980442
4.93209 1383.97232766788
4.9522 1383
4.97231 1393.97520635571
4.99243 1282.84050744071
5.01254 1238.01934321437
5.03265 1249.08386610406
5.05277 1200.97864229767
5.07288 1249.02383309984
5.09299 1153.03088088796
5.11311 1168.01448202699
5.13322 1168.99351398312
5.15334 1159.94612119257
5.17345 1105.81474261632
5.19356 1044.04453189035
5.21368 1057.97940728232
5.23379 1075.98232044434
5.2539 1105
5.27402 1046.96526750749
5.29413 1032.91894322515
5.31425 950.910228267559
5.33436 987.873451524523
5.35447 1012.0527633719
5.37459 961.001357163951
5.3947 996
5.41481 924.951266890018
5.43493 878.059505574155
5.45504 941.979849820996
5.47516 873.027870327477
5.49527 914.025992973657
5.51538 832.038599148354
5.5355 866
5.55561 847.986914553927
5.57572 865.07372796583
5.59584 920.898154379279
5.61595 798.172915622628
5.63606 828.892750949726
5.65618 834.037839940982
5.67629 802.989834305577
5.69641 839.987100793703
5.71652 770.987164282263
5.73663 829.06705729362
5.75675 799.800228177545
5.77686 724.075605952961
5.79697 731.956522895941
5.81709 761.982413220929
5.8372 785
5.85732 736.936135506236
5.87743 697.006551115088
5.89754 735.081512381486
5.91766 734.113555659593
5.93777 672.002585026045
5.95788 719.978625655023
5.978 706
5.99811 753.002712251957
6.01823 706.944844515679
6.03834 702.985362416406
6.05845 681.028358953627
6.07857 684.00586531871
6.09868 671.999833615269
6.11879 682.001397178167
6.13891 666.998070388399
6.15902 677.003364681194
6.17913 660.958590749252
6.19925 636.969135180425
6.21936 655.876469828207
6.23948 711.014084613839
6.25959 660.99508344422
6.2797 703
6.29982 588.972624931006
6.31993 673.104979959954
6.34004 664.947575746486
6.36016 638.138263646173
6.38027 584.903489647447
6.40039 714.979696143532
6.4205 639
6.44061 635.992665245286
6.46073 601.015990369686
6.48084 651.03443308826
6.50095 621.049230741517
6.52107 646.925729646484
6.54118 666.044116695377
6.56129 596.012482584271
6.58141 639.03161675299
6.60152 663.974844552799
6.62164 623.985022057844
6.64175 646.004436181583
6.66186 609.088145685657
6.68198 573.043066861887
6.70209 547.982877805012
6.7222 624
6.74232 632.986836049845
6.76243 629.014213539108
6.78255 629.91566366257
6.80266 587.993546434971
6.82277 629.968310584323
6.84289 606.016865118942
6.863 603
6.88311 638.999560317226
6.90323 597.932833033314
6.92334 582.020080464525
6.94346 598.984965509432
6.96357 595.997715876966
6.98368 596.022585868515
7.0038 562
7.02391 578.009497551652
7.04402 587.011143507327
7.06414 611.070006573499
7.08425 634.027545547083
7.10436 603.029919810754
7.12448 608.006983627871
7.14459 578.015835163295
7.16471 569.008633597177
7.18482 605.043244418095
7.20493 629.987660234659
7.22505 593.891421054062
7.24516 572.975961463067
7.26527 603.961806046029
7.28539 596.022550801628
7.3055 566
7.32562 621.955975808623
7.34573 506.936719289496
7.36584 568.104817923892
7.38596 566.97704131877
7.40607 601.00020957243
7.42618 558.037455832594
7.4463 550
7.46641 550.011477581037
7.48653 577.991139608427
7.50664 540.946999765
7.52675 552.907202735769
7.54687 588.968177804381
7.56698 590.011388808284
7.58709 573.011678522332
7.60721 557.003173600125
7.62732 570.992024443447
7.64743 532.930620371618
7.66755 518.087436378819
7.68766 564.002447286646
7.70778 529.994570230825
7.72789 580.984970528415
7.748 561
7.76812 544.994791087039
7.78823 549.027189720732
7.80834 564.984867184387
7.82846 550.96385507775
7.84857 588.989576001762
7.86869 559.01083430169
7.8888 550
7.90891 505.003605568612
7.92903 556.038739808374
7.94914 537.975197702285
7.96925 549.985487983283
7.98937 539.01163254691
8.00948 545.986769907642
8.0296 543
8.04971 512.009165435192
8.06982 565.025701917245
8.08994 554.008125979726
8.11005 582.022702915354
8.13016 570.979547775153
8.15028 587.035127659232
8.17039 517.01533006033
8.1905 555
8.21062 585.988003485209
8.23073 557.992030247257
8.25085 570.971540979002
8.27096 540.999700560992
8.29107 557.04619666108
8.31119 500.997968138051
8.3313 573
8.35141 572.98103198299
8.37153 539.986639936268
8.39164 545.986266037304
8.41176 539.927518209679
8.43187 595.983380780621
8.45198 548.056235927798
8.4721 536
8.49221 577.001848903222
8.51232 560.02203292175
8.53244 594.923877994043
8.55255 497.142795591424
8.57266 520.907690391406
8.59278 539.002173677856
8.61289 546.979877736451
8.63301 593.00112359672
8.65312 558.98645266168
8.67323 562.943748329127
8.69335 516.087749292416
8.71346 601.973321228648
8.73357 534.052814495489
8.75369 580.967824542082
8.7738 603
8.79392 572.977213891901
8.81403 562.982262747111
8.83414 553.020779041552
8.85426 574.988122855866
8.87437 558.029047680419
8.89448 551.997160177663
8.9146 546
8.93471 529.019992645109
8.95483 584.976456143361
8.97494 520.996733548875
8.99505 584.945185109757
9.01517 523.120059743364
9.03528 500.952503479565
9.05539 568.986486835483
9.07551 548.993917062031
9.09562 559.994891038082
9.11573 531.972594270051
9.13585 527.956906052312
9.15596 504.986607198214
9.17608 530.003456498062
9.19619 499.005322511145
9.2163 513
9.23642 484.987954914002
9.25653 507.052869600371
9.27664 520.9568695284
9.29676 490.993217992411
9.31687 527.95635997884
9.33699 537.989671227173
9.3571 560
9.37721 520.996727486748
9.39733 550.018915585714
9.41744 522.923492171467
9.43755 502.999256860131
9.45767 525.930692639879
9.47778 554.032973472937
9.4979 482
9.51801 509.039939706025
9.53812 564.973450139841
9.55824 479.878845289583
9.57835 498.174055599785
9.59846 555.982802655491
9.61858 522.03296064058
9.63869 520.990621465726
9.6588 534
9.67892 510.976626626274
9.69903 507.02895676247
9.71915 522.954984234417
9.73926 479.061183543193
9.75937 487.945684222158
9.77949 512.00795112781
9.7996 473
9.81971 504.030563319627
9.83983 555.026215614352
9.85994 529.892437238637
9.88006 488.00398569686
9.90017 515.9693710607
9.92028 514.998978959928
9.9404 526
9.96051 523.000795756967
9.98062 537.021193745424
10.00074 545.964451725532
10.02085 507.098104993402
10.04097 490.983627673105
10.06108 507.004602481303
10.08119 493.991722675896
10.10131 532.006443661711
10.12142 513.991472037476
10.14153 531.027551178538
10.16165 530.964234798503
10.18176 500.106499218975
10.20187 454.998749856753
10.22199 506.964809819587
10.2421 532
10.26222 452.978976279214
10.28233 511.111753540046
10.30244 526.887220194035
10.32256 460.001587463583
10.34267 517.95011083386
10.36278 491.039381186278
10.3829 486
10.40301 533.024828787896
10.42313 549.945274189963
10.44324 498.989093669402
10.46335 530.996123573328
10.48347 493.02783518672
10.50358 518.963343583
10.52369 528.011799075267
10.54381 514.021479858738
10.56392 568.97420127956
10.58403 484.959933195406
10.60415 538.101748174602
10.62426 522.051464759034
10.64438 522.982681649006
10.66449 527.014343554846
10.6846 486
10.70472 503.008705751918
10.72483 500.029684524915
10.74494 524.95581113668
10.76506 464.076691561473
10.78517 490.888400165698
10.80529 546.007381086683
10.8254 491
10.84551 523.003375594297
10.86563 493.995569039664
10.88574 528.040670890778
10.90585 530.920575325569
10.92597 569.038058525365
10.94608 504.010419951368
10.9662 555
10.98631 510.96584796879
11.00642 483.033541046361
11.02654 542.053675195467
11.04665 519.083355300904
11.06676 509.978001151315
11.08688 526.986957109991
11.10699 518.019624010483
11.1271 481
11.14722 526.036188119061
11.16733 536.018791847727
11.18745 559.030654293332
11.20756 559.98023010454
11.22767 576.997291175858
11.24779 545.030853461666
11.2679 505
11.28801 571.009225383073
11.30813 532.969177644236
11.32824 548.996809045927
11.34836 531.952146307793
11.36847 574.029181023554
11.38858 511.008302417704
11.4087 560
11.42881 508.980156569761
11.44892 532.064874888176
11.46904 594.067882345637
11.48915 596.024448986338
11.50927 581.050633078535
11.52938 540.02223368534
11.54949 542.995431764372
11.56961 550.007764899318
11.58972 582.045217342001
11.60983 613.991908544711
11.62995 583.955241870811
11.65006 593.965335217053
11.67017 599.009934941503
11.69029 589.002839766477
11.7104 588
11.73052 586.01074910617
11.75063 598.990062199847
11.77074 579.995418973397
11.79086 595.986516967086
11.81097 586.010255939745
11.83108 596.976478974632
11.8512 623
11.87131 637.001659795473
11.89143 632.990121595908
11.91154 643.082060322803
11.93165 688.976802147489
11.95177 670.992320965523
11.97188 686.038840371511
11.99199 610.015775776994
12.01211 644.019757461516
12.03222 657.013648832477
12.05234 691.092563935757
12.07245 715.943061737577
12.09256 669.041327113538
12.11268 677.010635950043
12.13279 658.983293331342
12.1529 733
12.17302 727.996580114258
12.19313 747.017443511744
12.21324 743.003129967283
12.23336 752.006020399522
12.25347 745.970954403338
12.27359 769.011954306554
12.2937 715
12.31381 731.989034026027
12.33393 693.057365641733
12.35404 784.049556425141
12.37415 723.118677470376
12.39427 722.029787346507
12.41438 670.031152219729
12.4345 666
12.45461 627.998598796783
12.47472 653.998336681225
12.49484 618.964867539826
12.51495 625.036124925663
12.53506 593.004068541235
12.55518 608.028509314803
12.57529 547.010518744023
12.5954 566
12.61552 529.018714330946
12.63563 597.046299083288
12.65575 561.889625017119
12.67586 544.024256650755
12.69597 536.972406506692
12.71609 558.009932036168
12.7362 521
12.75631 561.989088140775
12.77643 481.936056642675
12.79654 513.093391400765
12.81666 528.013934870167
12.83677 514.024171691964
12.85688 501.009168114002
12.877 495
12.89711 494.002037349801
12.91722 496.993618835857
12.93734 487.001073134254
12.95745 492.026551803481
12.97757 463.044353654096
12.99768 453.984575303233
13.01779 471.004180256276
13.03791 443.9941331683
13.05802 473.061412399408
13.07813 518.984914923555
13.09825 481.006040147085
13.11836 519.993189384763
13.13847 469.07788936613
13.15859 456.991932152046
13.1787 480
13.19882 481.978014222965
13.21893 465.034575181583
13.23904 501.979376736393
13.25916 453.034619330981
13.27927 493.916117813496
13.29938 503.057072540747
13.3195 423
13.33961 448.024867303662
13.35973 473.98859801548
13.37984 455.002811774525
13.39995 473.995213943268
13.42007 447.049338650854
13.44018 439.971853189056
13.46029 480.989189211231
13.48041 483.006901928717
13.50052 503.99186632202
13.52064 479.013423376919
13.54075 515.03628444669
13.56086 503.980612582534
13.58098 543.966891679451
13.60109 551.000896252034
13.6212 563
13.64132 590.997917803365
13.66143 559.952575755158
13.68154 545.988643709175
13.70166 541.9986430502
13.72177 537.035728991408
13.74189 495.022764139131
13.762 474
13.78211 519.022776454815
13.80223 517.896572958802
13.82234 433.952487182331
13.84245 482.85207945766
13.86257 500.024105559025
13.88268 468.039393536138
13.9028 439
13.92291 447.00517388169
13.94302 448.996846524604
13.96314 443.986588509472
13.98325 433.044015076742
14.00336 429.929160156624
14.02348 474.002059509924
14.04359 438.001538248301
14.06371 457.983220955785
14.08382 391.999850008764
14.10393 464.078731998413
14.12405 451.922183411877
14.14416 432.046413425828
14.16427 419.956888972384
14.18439 463.998284578578
14.2045 438
14.22461 487.009907211174
14.24473 446.904124013587
14.26484 400.958444525016
14.28496 406.944769541216
14.30507 429.00915156783
14.32518 408.997032550981
14.3453 451
14.36541 473.975993418559
14.38552 399.979996175601
14.40564 438.041718910794
14.42575 409.09091427469
14.44587 400.978688093273
14.46598 415.999722028974
14.48609 408.995681404265
14.50621 432.006435405989
14.52632 435.017442812661
14.54643 466.0283981354
14.56655 448.870884492596
14.58666 411.94687269888
14.60677 456.04998664096
14.62689 376.998522121817
14.647 460
14.66712 404.947481380094
14.68723 410.041830486066
14.70734 435.061146437928
14.72746 459.00828682314
14.74757 433.030298947356
14.76768 429.004693911999
14.7878 418
14.80791 428.012427397605
14.82803 441.966910220268
14.84814 394.929230448586
14.86825 395.934285022119
14.88837 420.988134607636
14.90848 415.998092863978
14.92859 419.010770710901
14.94871 393.007859292451
14.96882 446.039399649674
14.98894 447.981363480827
15.00905 444.98729140197
15.02916 428.05958604666
15.04928 409.980018488311
15.06939 456.981884285375
15.0895 471
15.10962 487.987416106803
15.12973 463.013691418585
15.14984 496.000394496051
15.16996 473.954242928693
15.19007 530.980852009854
15.21019 471.041201420334
15.2303 426
15.25041 470.032619979362
15.27053 512.992645609033
15.29064 468.902021661886
15.31075 443.019416204256
15.33087 440.009176742122
15.35098 429.009526477998
15.3711 430
15.39121 456.016340482985
15.41132 481.007132650092
15.43144 462.919070845079
15.45155 424.037616497376
15.47166 430.989020233518
15.49178 422.012804133908
15.51189 424.986088891841
15.53201 457.002945465184
15.55212 428.960436677693
15.57223 404.99578689324
15.59235 416.030329267096
15.61246 421.990171651899
15.63257 418.03884286239
15.65269 389.998343410708
15.6728 420
15.69291 412.9955872693
15.71303 420.025220946048
15.73314 431.996551034458
15.75326 427.972224869521
15.77337 445.022527183456
15.79348 407.016242847158
15.8136 428
15.83371 430.985738674771
15.85382 412.03727718433
15.87394 468.985890186869
15.89405 403.088937911123
15.91417 423.977159874448
15.93428 413.992445451245
15.95439 451.98099327479
15.97451 450.975405174595
15.99462 395.991579189202
16.01473 433.04412005196
16.03485 427.965176064927
16.05496 428.971361720737
16.07508 431.034340339558
16.09519 380.011522501635
16.1153 396
16.13542 406.012798952377
16.15553 436.069511727493
16.17564 465.961783373587
16.19576 419.040672293545
16.21587 436.978626117667
16.23598 424.021632433978
16.2561 412
16.27621 422.012465096768
16.29633 438.974710164466
16.31644 421.078816620586
16.33655 488.979764872441
16.35667 431.063190025292
16.37678 435.997957271598
16.39689 416.005387160245
16.41701 435.019023219349
16.43712 461.995848661162
16.45724 435.962836656938
16.47735 430.965250569565
16.49746 417.959144369028
16.51758 457.987222440596
16.53769 436.008833211181
16.5578 443
16.57792 434.962224339344
16.59803 400.014429803124
16.61814 436.005141054753
16.63826 415.944452111173
16.65837 486.942258489995
16.67849 459.026497519433
16.6986 431
16.71871 448.998655344154
16.73883 423.975047066964
16.75894 422.983525517942
16.77905 412.958180375743
16.79917 443.994106410026
16.81928 422.005367847523
16.8394 448
16.85951 440.972298071826
16.87962 387.010180878411
16.89974 435.999911830759
16.91985 383.054309812414
16.93996 413.957284943754
16.96008 411.976927113868
16.98019 456.992700083959
17.00031 428.984691295301
17.02042 421.000515612471
17.04053 420.002542743676
17.06065 425.011674242876
17.08076 422.028677277231
17.10087 410.983630319466
17.12099 424.011758775945
17.1411 392
17.16121 466.02137795083
17.18133 439.918296848688
17.20144 410.01614150524
17.22156 437.967887501932
17.24167 431.014728989786
17.26178 423.021543608773
17.2819 405
17.30201 454.020099795246
17.32212 461.990782931728
17.34224 451.981341147281
17.36235 439.054725208758
17.38247 421.988690218294
17.40258 445.98756146175
17.42269 445.992791180852
17.44281 481.017157388643
17.46292 484.964630078974
17.48303 437.968045298616
17.50315 446.010993488108
17.52326 441.968936804982
17.54338 467.003942596305
17.56349 433.013238322571
17.5836 434
17.60372 446.019997043984
17.62383 469.019797159645
17.64394 472.00946503584
17.66406 476.022450842605
17.68417 457.00690740375
17.70428 463.009277797579
17.7244 430
17.74451 432.03595847137
17.76463 510.989240035824
17.78474 434.930034797638
17.80485 468.945903567897
17.82497 441.050194378377
17.84508 440.971389447887
17.86519 471.994286708472
17.88531 464.998698185198
17.90542 467.987084813174
17.92554 455.048853257251
17.94565 485.92293445163
17.96576 421.998990296163
17.98588 477.994771090176
18.00599 425.006116019104
18.0261 472
18.04622 439.95429793298
18.06633 423.016545790825
18.08645 455.116419721435
18.10656 482.042695654662
18.12667 435.031714712684
18.14679 455.985991900542
18.1669 454
18.18701 414.993347661632
18.20713 427.01041634296
18.22724 429.054493244359
18.24735 463.021580537282
18.26747 423.01605297494
18.28758 460.954803412267
18.3077 477
18.32781 458.992216327033
18.34792 443.972653651056
18.36804 419.011142205796
18.38815 439.024570886644
18.40826 404.0219863518
18.42838 427.979389309525
18.44849 427.001391007165
18.46861 442.016161096705
18.48872 474.013781384161
18.50883 472.003010257404
18.52895 467.900561730712
18.54906 415.025486588502
18.56917 446.95727266269
18.58929 442.010239071908
18.6094 444
18.62951 486.988281895785
18.64963 429.006600857339
18.66974 487.012805540606
18.68986 442.976234640396
18.70997 505.000121855316
18.73008 437.028897354879
18.7502 477
18.77031 457.98218387686
18.79042 445.015304244905
18.81054 462.978730070565
18.83065 442.94702252288
18.85077 481.030711399238
18.87088 420.00752768471
18.89099 474.983828341028
18.91111 463.003310012153
18.93122 498.009970814691
18.95133 475.988184147193
18.97145 482.94213877334
18.99156 442.00181118417
19.01168 478.984960840652
19.03179 466.99226718776
19.0519 501
19.07202 467.02989030636
19.09213 533.985858396694
19.11224 455.948700648901
19.13236 502.961446822759
19.15247 465.037036750289
19.17258 487.965508561821
19.1927 503
19.21281 501.001911600468
19.23293 513.021675089522
19.25304 517.978133734287
19.27315 489.104950123543
19.29327 459.990907111011
19.31338 489.979557784819
19.33349 489.000594724904
19.35361 509.020521536182
19.37372 545.004155336766
19.39384 527.997872856895
19.41395 552.053201259705
19.43406 564.947833415316
19.45418 581.039317217787
19.47429 522.996964946693
19.4944 597
19.51452 599.973278598768
19.53463 593.048639802907
19.55475 637.019017813292
19.57486 617.976893032411
19.59497 666.94654017773
19.61509 670.997857575674
19.6352 703
19.65531 750.006317150207
19.67543 735.989795798178
19.69554 756.065396213564
19.71565 790.90072670582
19.73577 820.001466452209
19.75588 828.922221416563
19.776 942
19.79611 915.98370105098
19.81622 925.026162849377
19.83634 961.124730385741
19.85645 1026.92951922198
19.87656 1005.08861313952
19.89668 982.982213838634
19.91679 1028.97770911801
19.93691 1028.97058374224
19.95702 962.993727923973
19.97713 1005.01887469598
19.99725 981.023541618094
20.01736 1006.09393582777
20.03747 915.027722705881
20.05759 988.965303237891
20.0777 987
20.09782 950.994264777763
20.11793 950.93970443863
20.13804 904.052131070168
20.15816 977.967833872005
20.17827 913.095948044719
20.19838 921.927607772252
20.2185 979
20.23861 882.963449017584
20.25872 882.031997663894
20.27884 899.991657609797
20.29895 871.119454768496
20.31907 839.975228290704
20.33918 881.985791722587
20.35929 853.017176862928
20.37941 830.985485447343
20.39952 807.013156107296
20.41963 842.014089435477
20.43975 836.089300530466
20.45986 896.976746652967
20.47998 852.034834639411
20.50009 856.995867215817
20.5202 835
20.54032 807.038542607926
20.56043 869.999265274705
20.58054 804.913749162689
20.60066 831.88147077248
20.62077 869.999990741143
20.64088 864.960541274553
20.661 928
20.68111 879.97262299871
20.70123 868.037581404303
20.72134 909.082568659493
20.74145 953.835587369604
20.76157 1030.91147818907
20.78168 1056.99417591937
20.80179 1084.96052997332
20.82191 1204.05852408442
20.84202 1254.96009214351
20.86214 1179.94142517989
20.88225 1205.02116947334
20.90236 1128.31738794039
20.92248 966.086116148811
20.94259 966.988932516137
20.9627 969
20.98282 977.984798776663
21.00293 949.996269097799
21.02305 983.100880834543
21.04316 1012.94265826396
21.06327 1033.00935450973
21.08339 1012.00324454129
21.1035 1018
21.12361 983.986661176917
21.14373 979.004439140844
21.16384 977.993823765535
21.18395 972.028507895769
21.20407 973.944793020221
21.22418 1014.01065522546
21.2443 947
21.26441 909.999065537615
21.28452 935.046185676163
21.30464 962.950483904252
21.32475 899.135137224674
21.34486 881.006591639794
21.36498 887.965730546278
21.38509 917.013215132349
21.40521 859.994047112445
21.42532 898.017537847282
21.44543 873.974994339457
21.46555 884.018794740282
21.48566 886.949618813535
21.50577 928.961221644886
21.52589 937.98809596304
21.546 966
21.56612 925.983050474245
21.58623 960.091269916029
21.60634 996.970881002889
21.62646 953.046442426533
21.64657 931.133621383416
21.66668 814.034897434572
21.6868 874
21.70691 866.980526258486
21.72702 823.9485585474
21.74714 780.976097844441
21.76725 792.983100460389
21.78737 771.067224066232
21.80748 725.030324024388
21.82759 738.964772738995
21.84771 817.011453046201
21.86782 775.948144297353
21.88793 741.941050673536
21.90805 711.037748676284
21.92816 770.869965114199
21.94828 809.980216581362
21.96839 816.004850255489
21.9885 796
22.00862 774.978220054015
22.02873 750.963256084726
22.04884 731.982874120887
22.06896 729.013614345725
22.08907 705.066982497078
22.10919 664.004229932851
22.1293 696
22.14941 705.963781933574
22.16953 617.003643627862
22.18964 717.192936044723
22.20975 718.216595478462
22.22987 627.027924622229
22.24998 667.988717102978
22.27009 626.014644349867
22.29021 636.005146459082
22.31032 633.008934049732
22.33044 656.027473387485
22.35055 645.93672257468
22.37066 635.9445268321
22.39078 683.972190504906
22.41089 676.009729252345
22.431 669
22.45112 667.974398214486
22.47123 642.024725147485
22.49135 680.996707697833
22.51146 630.093553089693
22.53157 632.931873274389
22.55169 678.994457585054
22.5718 666
22.59191 704.014103697137
22.61203 701.978563994942
22.63214 681.926474882086
22.65225 649.984153278097
22.67237 684.96923062306
22.69248 659.061336025655
22.7126 617
22.73271 682.020927666378
22.75282 672.97756155479
22.77294 675.054209826933
22.79305 696.043402292492
22.81316 656.028869985602
22.83328 690.940233871285
22.85339 721.015351536544
22.87351 662.989847742214
22.89362 690.019570178564
22.91373 695.056204701641
22.93385 750.024505591622
22.95396 710.06370377902
22.97407 699.051599493641
22.99419 648.007695908047
23.0143 678
23.03442 691.010889087394
23.05453 692.951981490009
23.07464 655.019122699944
23.09476 688.042351631805
23.11487 628.008359900931
23.13498 692.942138805177
23.1551 687
23.17521 640.992789559986
23.19532 662.032800028655
23.21544 664.909427706866
23.23555 604.060786189017
23.25567 630.937870068064
23.27578 666.953419199136
23.29589 696.016867569383
23.31601 630.99057246128
23.33612 674.043721426446
23.35623 662.908872489785
23.37635 611.027971191847
23.39646 678.87321538555
23.41658 703.98768403176
23.43669 729.980174792968
23.4568 776
23.47692 812.029247279178
23.49703 838.036148222171
23.51714 874.1189934747
23.53726 930.97010433468
23.55737 923.956063885197
23.57749 968.010997743501
23.5976 906
23.61771 957.98583844817
23.63783 841.875429916395
23.65794 861.14353197811
23.67805 909.010732753413
23.69817 857.100300978579
23.71828 814.011761741196
23.73839 832.978956104797
23.75851 858.988814916561
23.77862 792.927852719148
23.79874 757.01331735698
23.81885 761.882844668523
23.83896 703.954617424278
23.85908 781.983928200774
23.87919 691.062717170061
23.8993 622
23.91942 684.071856946359
23.93953 717.98616759312
23.95965 699.024130507638
23.97976 728.993183332185
23.99987 702.021711202027
24.01999 704.010146098426
24.0401 667
24.06021 692.009830725355
24.08033 691.002613895713
24.10044 677.863039459347
24.12056 612.920696995489
24.14067 711.982185869922
24.16078 623.056487836096
24.1809 640
24.20101 609.009614803448
24.22112 684.05574835306
24.24124 683.962777658882
24.26135 676.012726977947
24.28146 674.975511768805
24.30158 688.008188110758
24.32169 668.000143109855
24.34181 690.007613446732
24.36192 687.999003355935
24.38203 691.992130454879
24.40215 677.980155600509
24.42226 692.920450365009
24.44237 728.003083730154
24.46249 694.014115015635
24.4826 704
24.50272 751.02490454985
24.52283 741.955396714928
24.54294 735.092700545525
24.56306 804.936416611754
24.58317 791.010527414415
24.60328 783.069428780508
24.6234 694
24.64351 779.037621520473
24.66362 782.968908292892
24.68374 772.056589904921
24.70385 815.959705875236
24.72397 786.076748041007
24.74408 750.008354768733
24.76419 756.002556093844
24.78431 744.005476164537
24.80442 783.042001208932
24.82453 780.89694765312
24.84465 715.074328962584
24.86476 807.939674334291
24.88488 745.061280916952
24.90499 745.985060339828
24.9251 764
24.94522 751.994480723045
24.96533 753.990833804588
24.98544 751.053943628259
25.00556 790.983274839021
25.02567 768.015023784981
25.04579 766.021535865121
25.0659 708
25.08601 766.014945446119
25.10613 748.999146854394
25.12624 763.933220311914
25.14635 704.992313937321
25.16647 767.950314206664
25.18658 741.027825038013
25.20669 751.984819308239
25.22681 755.975529112555
25.24692 689.980280970907
25.26704 720.041224493954
25.28715 716.036507638227
25.30726 744.014920140509
25.32738 689.0653976462
25.34749 673.969945332958
25.3676 750
25.38772 672.909608330674
25.40783 641.044528383626
25.42795 692.071607168226
25.44806 687.014309912564
25.46817 697.973420927755
25.48829 704.006497335421
25.5084 682
25.52851 693.016977380201
25.54863 720.990989861073
25.56874 702.033498016532
25.58886 742.991148285829
25.60897 726.940262687206
25.62908 814.949275521846
25.6492 793
25.66931 795.035713498228
25.68942 896.067263272793
25.70954 899.945239929356
25.72965 879.020793862304
25.74976 862.104875182332
25.76988 794.035290346126
25.78999 793.006268152628
25.81011 751.980055950625
25.83022 725.97215910758
25.85033 691.958176119643
25.87045 678.997960802114
25.89056 678.021042260592
25.91067 653.051915176226
25.93079 627.001613474835
25.9509 651
25.97102 672.974516754258
25.99113 628.991932724604
26.01124 656.999096100684
26.03136 631.96765115085
26.05147 659.087195628267
26.07158 558.003914015817
26.0917 643
26.11181 585.992957311214
26.13193 648.069123981908
26.15204 622.879298130431
26.17215 592.92199888942
26.19227 638.029207328536
26.21238 571.018506558616
26.23249 628.966848762086
26.25261 651.997528036487
26.27272 641.992293566834
26.29283 651.049293791702
26.31295 684.004174858139
26.33306 668.971996536077
26.35318 710.977168028707
26.37329 708.992920731221
26.3934 743
26.41352 744.026323962605
26.43363 798.064595174879
26.45374 834.140007549731
26.47386 926.878117631591
26.49397 1000.72481564155
26.51409 1262.89637957763
26.5342 1413
26.55431 1782.2360914509
26.57443 2197.35063119953
26.59454 2302.28740425518
26.61465 2471.97290853755
26.63477 2303.27704029171
26.65488 2137.27185333507
26.67499 1761.17258633789
26.69511 1514.89786567669
26.71522 1278.72327046966
26.73534 1008.60155477915
26.75545 902.880672687515
26.77556 867.065648211125
26.79568 831.035297708328
26.81579 806.004044656548
26.8359 809
26.85602 809.009320668711
26.87613 811.954597302073
26.89625 777.040392248468
26.91636 832.943752819356
26.93647 821.99207069345
26.95659 838.017263638399
26.9767 771
26.99681 817.024534935356
27.01693 829.998555136416
27.03704 805.843596357808
27.05716 738.915062331822
27.07727 856.908420015192
27.09738 834.999530740226
27.1175 874
27.13761 800.973803993001
27.15772 811.034106215689
27.17784 825.981059039406
27.19795 805.034970400284
27.21806 810.958488967516
27.23818 827.003467903214
27.25829 813.998916269513
27.27841 844.022750501903
27.29852 894.054627416818
27.31863 917.935131850413
27.33875 878.176301404915
27.35886 1035.77533429431
27.37897 1076.89095426176
27.39909 1204.94952558053
27.4192 1262
27.43932 1381.12140894347
27.45943 1447.9903225494
27.47954 1390.8674596437
27.49966 1329.16544825887
27.51977 1241.07439316103
27.53988 1233.00581234447
27.56 1187
27.58011 1109.99601704804
27.60023 1126.91160166363
27.62034 1017.93696666473
27.64045 1085.84445261217
27.66057 1080.04854995268
27.68068 1064.99527933207
27.70079 1077.99629319046
27.72091 1095.02761346501
27.74102 1135.94477962483
27.76113 1021.92100976702
27.78125 1039.94956045774
27.80136 946.1854367083
27.82148 884.073761334484
27.84159 824.986717611271
27.8617 878
27.88182 736.913518936852
27.90193 745.000287556218
27.92204 710.009769372191
27.94216 735.098881160743
27.96227 635.046386256328
27.98239 676.001842855948
28.0025 614
28.02261 655.00446858591
28.04273 614.976177297883
28.06284 621.912701838991
28.08295 548.022614408546
28.10307 594.00518836131
28.12318 515.075186181693
28.1433 499
28.16341 529.017399180907
28.18352 545.980527278715
28.20364 516.00844922821
28.22375 571.194394404042
28.24386 620.010488395724
28.26398 564.078184466469
28.28409 524.98275965716
28.3042 587
28.32432 541.98151916853
28.34443 567.008733061717
28.36455 534.935099484046
28.38466 539.965033582706
28.40477 542.034439192695
28.42489 507.011975866531
28.445 521
28.46511 565.987866728576
28.48523 499.967383106788
28.50534 538.056425334281
28.52546 526.026864650119
28.54557 520.042339373253
28.56568 486.989933791918
28.5858 515
28.60591 450.995719787953
28.62602 507.037799575246
28.64614 496.988925722608
28.66625 518.950024148724
28.68636 527.964008295781
28.70648 555.981652053052
28.72659 548.015809351494
28.74671 522.003367251353
28.76682 544.995784239574
28.78693 506.947742198537
28.80705 510.09836040203
28.82716 543.030311563278
28.84727 494.040102174646
28.86739 500.003260544117
28.8875 481
28.90762 511.986217513509
28.92773 463.98517085485
28.94784 506.071676296628
28.96796 503.034102799115
28.98807 493.009827646564
29.00818 495.977685747265
29.0283 517
29.04841 493.006730732668
29.06853 532.003204398704
29.08864 488.931264008018
29.10875 489.97493053172
29.12887 491.994915448228
29.14898 499.993749318776
29.16909 501.99926382267
29.18921 499.993926534014
29.20932 489.008311364187
29.22943 517.044646083134
29.24955 526.964846688464
29.26966 503.030342451754
29.28978 503.993700092353
29.30989 503.00502731036
29.33 494
29.35012 509.01157355318
29.37023 512.004929496969
29.39034 519.010309354871
29.41046 503.100893538737
29.43057 455.986833627173
29.45069 518.9687109248
29.4708 532
29.49091 499.003448677829
29.51103 533.011571797617
29.53114 510.995541623624
29.55125 528.034220829792
29.57137 485.030684024863
29.59148 510.955465757881
29.6116 540
29.63171 528.991757548206
29.65182 523.008801258728
29.67194 555.118064924459
29.69205 607.014682353535
29.71216 578.02784389942
29.73228 597.976994961563
29.75239 599.007712263185
29.7725 578
29.79262 591.075477501466
29.81273 683.048967477329
29.83285 643.878937426648
29.85296 649.875193652928
29.87307 703.037475244859
29.89319 623.021187459168
29.9133 648
29.93341 636.981517476626
29.95353 591.925609697668
29.97364 567.053045187828
29.99376 628.893270233474
30.01387 637.047379489538
30.03398 599.01631707686
30.0541 607
30.07421 605.002781208188
30.09432 611.985522897535
30.11444 584.985164580916
30.13455 588.06813490148
30.15467 534.053234958282
30.17478 534.989177787045
30.19489 542.990486445654
30.21501 553.984857868331
30.23512 498.970681173671
30.25523 516.051557678451
30.27535 534.998105964315
30.29546 536.937857818743
30.31557 570.028716988297
30.33569 515.00984745239
30.3558 548
30.37592 556.013262778084
30.39603 569.970686546526
30.41614 535.004057280956
30.43626 577.930104841518
30.45637 564.083239811226
30.47648 512.009752672758
30.4966 545
30.51671 548.985013036436
30.53683 513.984777081761
30.55694 535.058106982972
30.57705 557.937629211223
30.59717 575.014696908069
30.61728 541.036276802006
30.63739 545.965856321536
30.65751 630.014273835043
30.67762 598.975510950899
30.69773 614.03275012126
30.71785 614.962017913844
30.73796 614.916613978818
30.75808 662.011391199075
30.77819 613.000907930098
30.7983 659
30.81842 615.972551712726
30.83853 621.985027915556
30.85864 587.967203327912
30.87876 599.980265499338
30.89887 584.052435685795
30.91899 551.008092286872
30.9391 549
30.95921 536.9968450785
30.97933 550.049677087022
30.99944 563.908742495643
31.01955 500.991435783908
31.03967 566.938434648047
31.05978 543.041959612549
31.0799 515
31.10001 492.001611172547
31.12012 517.021522149296
31.14024 511.940511053784
31.16035 487.972527150702
31.18046 514.016166824053
31.20058 479.005105199791
31.22069 506.996266278228
31.2408 483
31.26092 496.01075671525
31.28103 477.931979182628
31.30115 437.993707831258
31.32126 465.960850450766
31.34137 465.988534779148
31.36149 478.007207348256
31.3816 444
31.40171 466.020501058319
31.42183 484.9608123877
31.44194 448.019136388656
31.46206 501.92369027766
31.48217 490.055777037166
31.50228 450.044481466245
31.5224 419
31.54251 446.009868488197
31.56262 447.001380182111
31.58274 467.075041174172
31.60285 493.035737280561
31.62297 456.019938780789
31.64308 468.007343755107
31.66319 437.006963663546
31.68331 461.021053143171
31.70342 491.006631105967
31.72353 467.928147000494
31.74365 442.097045144844
31.76376 509.964497400818
31.78387 470.040087883485
31.80399 478.0032930161
31.8241 445
31.84422 447.000275641096
31.86433 450.05304530531
31.88444 497.015377375629
31.90456 456.095685919788
31.92467 442.965856831333
31.94478 470.001639839199
31.9649 471
31.98501 561.001486771261
32.00513 482.934287077627
32.02524 509.03530208749
32.04535 472.147858989962
32.06547 449.935507404976
32.08558 506.011774229421
32.10569 439.01417480606
32.12581 469.007283142584
32.14592 466.050563526856
32.16604 538.984446624125
32.18615 458.896724622561
32.20626 495.91078312949
32.22638 514.970001088944
32.24649 542.013652466514
32.2666 482
32.28672 531.070997406245
32.30683 565.978544301378
32.32694 541.031717315988
32.34706 579.020942469541
32.36717 541.956877748679
32.38729 613.001820161561
32.4074 529
32.42751 539.998587967256
32.44763 500.97073918235
32.46774 514.007075579374
32.48785 505.949524529852
32.50797 543.992412816284
32.52808 509.031186371362
32.5482 521
32.56831 569.003167604238
32.58842 532.95938683624
32.60854 522.031913128146
32.62865 536.035566577916
32.64876 500.049398856178
32.66888 496.006567201384
32.68899 484.99690573866
32.7091 503
32.72922 492.004101421818
32.74933 510.002906626603
32.76945 485.925105400384
32.78956 487.895885498137
32.80967 546.994309124104
32.82979 492.027380509504
32.8499 490
32.87001 539.007179482603
32.89013 518.975836200141
32.91024 525.016931862725
32.93036 518.041202321417
32.95047 487.059068308364
32.97058 463.983075594496
32.9907 524
33.01081 578.999351757933
33.03092 541.976923476487
33.05104 527.882753470955
33.07115 465.922687509602
33.09127 566.922927444493
33.11138 527.05388981167
33.13149 513.997014802732
33.15161 526.013489378736
33.17172 551.999545676686
33.19183 533.997902346441
33.21195 541.940666620384
33.23206 498.021868101886
33.25217 524.974461297575
33.27229 518.997166074724
33.2924 543
33.31252 526.962064361109
33.33263 492.982698045309
33.35274 518.114984901949
33.37286 565.007761103572
33.39297 527.023387447181
33.41308 553.966848174759
33.4332 554
33.45331 509.990615540834
33.47343 520.015107726669
33.49354 513.980595994094
33.51365 514.965643688103
33.53377 536.965012182775
33.55388 539.035353858106
33.57399 480.025928439449
33.59411 477.028861155466
33.61422 556.047877306747
33.63434 540.882948150191
33.65445 492.995232121393
33.67456 525.95728706315
33.69468 506.044821043146
33.71479 477.992620578169
33.7349 510
33.75502 483.00983492517
33.77513 531.039023185482
33.79524 507.920746304539
33.81536 491.967688555568
33.83547 508.037090971689
33.85559 465.99725460742
33.8757 519
33.89581 503.982948123818
33.91593 490.021640648524
33.93604 522.060618609949
33.95615 531.033396330947
33.97627 507.032598240025
33.99638 490.022116568317
34.0165 475
34.03661 513.015956458868
34.05672 511.967983301867
34.07684 487.037134003748
34.09695 535.927386620576
34.11706 528.025278017288
34.13718 528.002400229517
34.15729 524.993358638675
34.17741 553.011918179816
34.19752 556.986818451781
34.21763 538.98057799527
34.23775 541.043310354778
34.25786 561.975723104005
34.27797 565.98722961277
34.29809 575.003715886166
34.3182 550
34.33831 550.01943803151
34.35843 588.981054881409
34.37854 544.992707638322
34.39866 591.928407889408
34.41877 585.030628127197
34.43888 572.013764619132
34.459 564
34.47911 591.009630711846
34.49922 599.014594600243
34.51934 620.017901124769
34.53945 617.984460037091
34.55957 629.010581053381
34.57968 635.924216361229
34.59979 726.003428600703
34.61991 630.968541383025
34.64002 665.076828329231
34.66013 710.991502450294
34.68025 674.938437520346
34.70036 692.899446239774
34.72047 738.978329982848
34.74059 726.004635074397
34.7607 743
34.78082 786.049994808663
34.80093 822.001788318823
34.82104 801.98553622762
34.84116 800.075397059912
34.86127 769.906116610579
34.88138 865.019274882636
34.9015 754
34.92161 823.011996248931
34.94173 780.021020131877
34.96184 836.924528445346
34.98195 717.125795428708
35.00207 780.891671288147
35.02218 786.032546757437
35.04229 761.000788567201
35.06241 780.010433533956
35.08252 793.01358816374
35.10264 798.962886204521
35.12275 768.971997506522
35.14286 781.974740388297
35.16298 785.988593897804
35.18309 802.997798481819
35.2032 785
35.22332 766.013078612903
35.24343 781.956139603083
35.26354 735.022211082504
35.28366 787.995033619623
35.30377 721.094562092769
35.32389 717.979730153496
35.344 750
35.36411 718.0051851566
35.38423 766.02859404977
35.40434 727.885505824327
35.42445 702.945007658729
35.44457 732.02781904926
35.46468 674.034010274479
35.4848 688
35.50491 695.00220548662
35.52502 714.036960001307
35.54514 747.005907753488
35.56525 723.054438058154
35.58536 710.052277289284
35.60548 681.995919274889
35.62559 713.989205501228
35.64571 704.989126564363
35.66582 705.038621704909
35.68593 754.020447723213
35.70605 729.952931338404
35.72616 731.013613764297
35.74627 705.042576015655
35.76639 678.018933644707
35.7865 650
35.80661 699.018869102009
35.82673 707.005126595432
35.84684 710.968857969936
35.86696 685.013208451786
35.88707 692.021724187729
35.90718 657.018857831938
35.9273 672
35.94741 703.01788404042
35.96752 715.958113923194
35.98764 648.940876664623
36.00775 677.883660796883
36.02787 703.988746354481
36.04798 692.034575464081
36.06809 654.00917402508
36.08821 653.997231040596
36.10832 650.028543037323
36.12843 693.01184415413
36.14855 663.953420613547
36.16866 675.968179510553
36.18878 673.018100836313
36.20889 655.003057445286
36.229 663
36.24912 666.99120973363
36.26923 651.984409872252
36.28934 653.01730902167
36.30946 678.888126767733
36.32957 727.017767184087
36.34968 658.070718439019
36.3698 649
36.38991 716.999678464304
36.41003 662.973641046583
36.43014 702.053345935471
36.45025 695.976832511568
36.47037 748.88574853549
36.49048 807.979728330727
36.51059 792.014334971028
36.53071 779.003945929017
36.55082 784.976196008223
36.57094 739.941587198606
36.59105 744.046468678815
36.61116 741.083838852658
36.63128 691.009005769778
36.65139 721.989493995829
36.6715 706
36.69162 692.01044435159
36.71173 722.054509468974
36.73184 729.914959596372
36.75196 664.077587105464
36.77207 679.926456848109
36.79219 725.986225700411
36.8123 724
36.83241 696.998624746402
36.85253 716.022504246149
36.87264 710.968751549361
36.89275 697.022706104986
36.91287 684.042655175938
36.93298 657.993507260764
36.9531 685
36.97321 660.99072243003
36.99332 673.033246855308
37.01344 700.003934819665
37.03355 686.998385544339
37.05366 708.955492143685
37.07378 709.023905716349
37.09389 665.028913728033
37.11401 636.01869923895
37.13412 703.021757999256
37.15423 670.969609853991
37.17435 682.999449480017
37.19446 644.118081408254
37.21457 605.989689323572
37.23469 648.976958808711
37.2548 663
37.27491 644.011719559515
37.29503 684.989513450514
37.31514 624.8946203909
37.33526 619.952388633988
37.35537 643.978415984234
37.37548 639.024532247317
37.3956 618
37.41571 635.995311792936
37.43582 593.959531985524
37.45594 593.086186066695
37.47605 635.024266478873
37.49617 594.997730527881
37.51628 649.951924611627
37.53639 641.02819303971
37.55651 589.99927611044
37.57662 625.014543295311
37.59673 620.049063506847
37.61685 681.055030972541
37.63696 644.098035285323
37.65708 631.972068228888
37.67719 654.016522561489
37.6973 601
37.71742 665.018289083229
37.73753 618.952405964424
37.75764 633.026841262345
37.77776 622.025755078011
37.79787 614.027867852198
37.81798 612.939662845425
37.8381 695
37.85821 635.966840243907
37.87833 619.029895878362
37.89844 634.967334477034
37.91855 588.116650974208
37.93867 572.972589726045
37.95878 607.966994727904
37.97889 618.007961846825
37.99901 593.994496228769
38.01912 611.039156002714
38.03924 632.941430690085
38.05935 588.022432356104
38.07946 630.030904111039
38.09958 573.98900799121
38.11969 646.989043926898
38.1398 603
38.15992 654.046681296307
38.18003 644.925375186325
38.20015 605.015068957195
38.22026 647.931140504949
38.24037 653.996677462738
38.26049 653.014179084393
38.2806 615
38.30071 645.012498243536
38.32083 627.91570848149
38.34094 580.011412737089
38.36105 627.917316620744
38.38117 622.019240485209
38.40128 621.999638096629
38.4214 612
38.44151 619.03229152196
38.46162 685.981030596981
38.48174 593.872556389381
38.50185 601.941742884512
38.52196 613.939090323545
38.54208 650.999059287044
38.56219 614.0170123145
38.58231 598.989955457497
38.60242 571.988966040003
38.62253 589.051784506561
38.64265 618.025646251423
38.66276 614.002111828773
38.68287 620.995700941354
38.70299 613.006668234549
38.7231 598
38.74321 575.987749533483
38.76333 569.044503863915
38.78344 603.979094007538
38.80356 565.99333765903
38.82367 615.950327206226
38.84378 604.022125207459
38.8639 588
38.88401 561.003238425249
38.90412 596.0262333493
38.92424 589.949993892825
38.94435 565.046205025285
38.96447 555.007876486194
38.98458 573.933754617211
39.00469 637.007580611819
39.02481 549.961517635064
39.04492 543.042707876206
39.06503 583.007052726372
39.08515 543.852767887918
39.10526 515.937941251495
39.12538 572.978396646914
39.14549 543.018327246477
39.1656 539
39.18572 568.017064595982
39.20583 553.92921184119
39.22594 513.01492726423
39.24606 559.930215636601
39.26617 546.073235424369
39.28628 519.958860839358
39.3064 603
39.32651 598.989280889145
39.34663 598.025336404828
39.36674 611.985409459508
39.38685 597.969358622666
39.40697 636.950815056187
39.42708 633.038822319183
39.44719 585.016277587947
39.46731 570.991955793554
39.48742 562.028253780033
39.50754 612.051157239809
39.52765 590.888775945868
39.54776 552.052653218337
39.56788 553.960179656281
39.58799 584.018798136618
39.6081 496
39.62822 497.027418940516
39.64833 514.009549289383
39.66845 521.046853620009
39.68856 540.007626540697
39.70867 519.014410178658
39.72879 519.010283743806
39.7489 498
39.76901 547.995081382239
39.78913 490.983725084761
39.80924 541.065819401227
39.82935 510.159207399782
39.84947 475.958097931881
39.86958 529.988799072431
39.8897 502
39.90981 542.00198947491
39.92992 503.984754828454
39.95004 527.024801856259
39.97015 516.989051153182
39.99026 546.940776447567
40.01038 558.997373120351
40.03049 545.023005100552
40.05061 504.008692929321
40.07072 562.027357253091
40.09083 533.943666959063
40.11095 512.941639043266
40.13106 504.911490926752
40.15117 570.970853737626
40.17129 546.998075122091
40.1914 591
40.21152 573.977346760854
40.23163 579.045150795098
40.25174 600.965748158579
40.27186 548.107181078639
40.29197 539.925240068696
40.31208 598.993902143016
40.3322 551
40.35231 559.019401654511
40.37242 579.972346579854
40.39254 522.928360135813
40.41265 524.982685373037
40.43277 524.978574970625
40.45288 540.019356585083
40.47299 502.002666278363
40.49311 537.015805699601
40.51322 536.98322866248
40.53333 517.968084463459
40.55345 509.04596176993
40.57356 535.003142881135
40.59368 519.979441983609
40.61379 572.983702022177
40.6339 555
40.65402 505.953062047758
40.67413 481.020047570388
40.69424 519.065087660044
40.71436 518.0660810142
40.73447 488.985011493327
40.75458 526.980378200053
40.7747 504
40.79481 492.025121053916
40.81493 562.023578153083
40.83504 506.862062501939
40.85515 493.857271929923
40.87527 568.961434805187
40.89538 530.052026040219
40.91549 522.977463759371
40.93561 571.998450267719
40.95572 521.964171504144
40.97584 527.02455149808
40.99595 537.078699624632
41.01606 569.025890316142
41.03618 519.033593531918
41.05629 522.995039118379
41.0764 529
41.09652 563.01448735938
41.11663 545.953302159501
41.13675 527.006558453766
41.15686 547.94706269735
41.17697 562.006297909899
41.19709 551.99879667977
41.2172 553
41.23731 499.985831782007
41.25743 510.026113584796
41.27754 531.102492124117
41.29765 572.093571584701
41.31777 485.058246661188
41.33788 529.933082503259
41.358 553
41.37811 503.979591983008
41.39822 500.031078973925
41.41834 537.030122498794
41.43845 519.086135021864
41.45856 507.927567150935
41.47868 556.997439195816
41.49879 513.015646719723
41.51891 534.02696288067
41.53902 580.015530627101
41.55913 569.986882639754
41.57925 570.98158008525
41.59936 552.030719326984
41.61947 557.954818797438
41.63959 586.001899436749
41.6597 571
41.67982 623.018336085014
41.69993 587.929661887329
41.72004 562.980446581364
41.74016 566.953457153786
41.76027 582.039896875835
41.78038 524.044897084134
41.8005 520
41.82061 526.984887684677
41.84072 490.010328861364
41.86084 524.96611179103
41.88095 454.123705117182
41.90107 468.927957205613
41.92118 499.008494311659
41.94129 463.01587460896
41.96141 459.008041074364
41.98152 474.000235384154
42.00163 461.987782561923
42.02175 459.976478001548
42.04186 452.962307437561
42.06198 483.99436701423
42.08209 469.995257070056
42.1022 503
42.12232 474.95312938653
42.14243 439.979614435679
42.16254 457.095492577735
42.18266 499.003198833616
42.20277 476.973174863582
42.22289 524.996352083248
42.243 482
42.26311 487.003795517319
42.28323 486.020459017831
42.30334 515.043167986073
42.32345 508.085420298883
42.34357 484.961627831985
42.36368 531.996855684621
42.38379 493.007010005357
42.40391 526.01746498912
42.42402 536.002538184328
42.44414 547.035265726398
42.46425 555.966479832273
42.48436 528.041057201837
42.50448 517.02062752519
42.52459 498.991751686059
42.5447 540
42.56482 513.935438771652
42.58493 460.998880709802
42.60505 490.997954764835
42.62516 468.94466245425
42.64527 528.994701954218
42.66539 459.035529375684
42.6855 443
42.70561 468.000808092958
42.72573 450.989976010915
42.74584 456.984816606297
42.76595 438.996715206999
42.78607 470.933876869566
42.80618 495.010515003021
42.8263 466
42.84641 472.004438894672
42.86652 481.026010018845
42.88664 510.001047524364
42.90675 481.069740512967
42.92686 483.932908474685
42.94698 520.987152089318
42.96709 503.014041427365
42.98721 485.997521289136
43.00732 493.018092217697
43.02743 490.921161010707
43.04755 425.979959467188
43.06766 480.890831439004
43.08777 493.015950734996
43.10789 481.005954846747
43.128 480
43.14812 506.008623712856
43.16823 482.932216064324
43.18834 457.051827125083
43.20846 509.956491607987
43.22857 476.084874587123
43.24868 441.001321192855
43.2688 459
43.28891 446.987740041426
43.30902 441.033477327864
43.32914 472.936424190589
43.34925 402.055853306165
43.36937 444.943276902205
43.38948 436.027325171839
43.40959 430.985128465349
43.42971 462.994401222987
43.44982 424.997033678201
43.46993 461.02597780491
43.49005 442.967950685045
43.51016 444.033182932327
43.53028 416.998249924964
43.55039 449.986324348198
43.5705 453
43.59062 445.975402246101
43.61073 425.027704733383
43.63084 477.087143937301
43.65096 483.039442007354
43.67107 462.014468840963
43.69119 465.996276395342
43.7113 471
43.73141 483.008250936322
43.75153 491.984911272579
43.77164 465.945670701683
43.79175 447.038330725082
43.81187 429.032448997066
43.83198 427.954892138676
43.85209 475.010847192704
43.87221 419.007547887806
43.89232 500.036202860387
43.91244 455.900299138362
43.93255 453.058249160313
43.95266 472.985385475819
43.97278 461.028851371628
43.99289 446.984724775957
44.013 500
44.03312 476.967252317983
44.05323 472.036936483588
44.07335 493.962584427807
44.09346 472.924025535218
44.11357 530.044200609929
44.13369 434.017866316429
44.1538 483
44.17391 452.98215992337
44.19403 457.049831401556
44.21414 489.020626361262
44.23426 479.017589272053
44.25437 471.043206045545
44.27448 438.995258602144
44.2946 465
44.31471 422.990354167682
44.33482 444.022912101315
44.35494 450.016355792874
44.37505 457.041947517582
44.39516 429.007397037029
44.41528 439.022438706833
44.43539 401.993503297498
44.45551 461.017971292256
44.47562 453.998275218633
44.49573 473.010316585702
44.51585 457.964999451045
44.53596 459.979326058774
44.55607 469.987244062675
44.57619 466.01320630701
44.5963 439
44.61642 466.007658864124
44.63653 449.996035468227
44.65664 466.006127558686
44.67676 454.989346440227
44.69687 469.023067949328
44.71698 439.988373024382
44.7371 480
44.75721 432.980846058356
44.77732 437.023568697493
44.79744 458.037352632716
44.81755 469.007183785728
44.83767 466.970671475328
44.85778 491.009796032013
44.87789 456.006507886825
44.89801 468.998046337119
44.91812 449.00766758963
44.93823 490.05416966422
44.95835 492.947510226556
44.97846 465.052994198157
44.99858 453.989111740745
45.01869 473.995153045663
45.0388 478
45.05892 492.958899412442
45.07903 437.029753764089
45.09914 516.061981046928
45.11926 468.101810305682
45.13937 474.924417142488
45.15949 517.002327992966
45.1796 478
45.19971 491.008907033438
45.21983 493.998724114054
45.23994 494.995081996602
45.26005 482.062309019819
45.28017 468.962965566354
45.30028 508.993500909981
45.32039 476.014791259705
45.34051 482.015615817692
45.36062 512.012091779991
45.38074 499.947992899766
45.40085 483.013442802976
45.42096 501.979176260104
45.44108 498.999386807067
45.46119 497.013893628054
45.4813 462
45.50142 490.006185023996
45.52153 460.957823085396
45.54165 468.102107141677
45.56176 503.020034552157
45.58187 469.992709037411
45.60199 510.992960758638
45.6221 494
45.64221 533.004800738298
45.66233 491.917479161416
45.68244 474.069113824469
45.70256 527.952320008037
45.72267 515.012044000248
45.74278 519.01865353448
45.7629 493
45.78301 540.006413483003
45.80312 508.979192417513
45.82324 518.00972260843
45.84335 510.981783569567
45.86346 523.038241621582
45.88358 482.017007147829
45.90369 503.984849229897
45.92381 511.992658379393
45.94392 484.971689572976
45.96403 468.999430138831
45.98415 482.052505235518
46.00426 498.988500516511
46.02437 494.012565126695
46.04449 498.986123110587
46.0646 529
46.08472 489.938282162556
46.10483 449.009576826627
46.12494 490.073051928216
46.14506 495.03050017102
46.16517 474.035130939473
46.18528 470.962755037035
46.2054 521
46.22551 495.989674682086
46.24563 503.021672398132
46.26574 497.937420581171
46.28585 454.087744453183
46.30597 449.956822470749
46.32608 481.996679547014
46.34619 471.988123805256
46.36631 511.995532566838
46.38642 457.970022039992
46.40653 486.077293998864
46.42665 518.007248119281
46.44676 498.054460022844
46.46688 484.992335789227
46.48699 497.003257235781
46.5071 478
46.52722 485.983426967585
46.54733 442.94612700542
46.56744 449.100114338041
46.58756 489.054300608765
46.60767 429.002269748525
46.62779 492.977725124655
46.6479 469
46.66801 443.017745960035
46.68813 503.025263655737
46.70824 468.948548624224
46.72835 474.993698168654
46.74847 466.985241060595
46.76858 494.982317447355
46.78869 493.001441278699
46.80881 484.98198709918
46.82892 435.976789556393
46.84904 446.025245271957
46.86915 456.08095407999
46.88926 490.021898059047
46.90938 448.012670086615
46.92949 476.988662071986
46.9496 476
46.96972 495.008779761495
46.98983 486.988061584868
47.00995 480.95315817118
47.03006 451.048536014119
47.05017 449.964685591711
47.07029 477.994742784927
47.0904 479
47.11051 512.003472097274
47.13063 489.975981383381
47.15074 495.013067306703
47.17086 482.067518442399
47.19097 451.004045053469
47.21108 467.997471664623
47.2312 452
47.25131 470.01037855307
47.27142 475.992888061364
47.29154 470.015378378644
47.31165 493.925479346753
47.33176 499.081011962822
47.35188 455.980804617398
47.37199 512.997392611636
47.39211 459.986046581665
47.41222 476.999153732872
47.43233 453.015399881111
47.45245 501.079282726971
47.47256 485.083122783824
47.49267 469.937089607432
47.51279 522.008096589111
47.5329 448
47.55302 466.019763606112
47.57313 459.998911351623
47.59324 476.02621059124
47.61336 477.001984933925
47.63347 476.013791303004
47.65358 453.03378265326
47.6737 430
47.69381 468.025145386995
47.71393 505.023391884445
47.73404 492.923465662433
47.75415 449.073104154931
47.77427 455.932263384263
47.79438 499.999391406044
47.81449 463.013223663286
47.83461 479.021234225867
47.85472 497.960951937879
47.87483 439.995703486573
47.89495 488.05267351483
47.91506 467.996054132151
47.93518 494.011166757286
47.95529 450.005432252027
47.9754 479
47.99552 442.950937977759
48.01563 432.069583464211
48.03574 492.020050865642
48.05586 449.070925372589
48.07597 447.003359000892
48.09609 431.004627737882
48.1162 441
48.13631 460.00520562651
48.15643 460.995021611016
48.17654 462.017709429357
48.19665 474.976098847547
48.21677 473.021536456163
48.23688 460.993849010074
48.257 473
48.27711 442.990774651779
48.29722 448.009606964328
48.31734 453.019733695701
48.33745 463.996809488323
48.35756 450.027267972607
48.37768 442.009745458264
48.39779 424.012491202164
48.4179 418
48.43802 471.012972820355
48.45813 461.05732398487
48.47825 524.988933097846
48.49836 446.129878664259
48.51847 441.974620829634
48.53859 448.996937054231
48.5587 451
48.57881 438.009623615716
48.59893 480.036243629169
48.61904 469.958675799694
48.63916 449.067476026758
48.65927 423.97210557189
48.67938 473.96637293302
48.6995 473
48.71961 470.992133239716
48.73972 447.994986257533
48.75984 470.065896378245
48.77995 487.026221325363
48.80006 458.053857189973
48.82018 460.959534748229
48.84029 487.024261188408
48.86041 418.012795945016
48.88052 517.035991782256
48.90063 457.923989449065
48.92075 462.007115594448
48.94086 443.010839584246
48.96097 451.020883311349
48.98109 432.984274188113
49.0012 502
49.02132 479.947855578009
49.04143 443.99292389332
49.06154 453.987165154995
49.08166 431.016483588844
49.10177 441.99441319583
49.12188 442.970784130611
49.142 490
49.16211 470.982135460019
49.18223 450.001592933523
49.20234 463.015466530997
49.22245 462.983161795332
49.24257 475.993973142828
49.26268 467.010785136711
49.28279 456.010285218681
49.30291 438.003275732939
49.32302 462.012336307371
49.34313 450.974181610359
49.36325 445.014552360454
49.38336 447.035786639142
49.40348 432.970044244106
49.42359 481.000321278196
49.4437 433
49.46382 464.058914941447
49.48393 499.987213647482
49.50404 455.901916954741
49.52416 427.025675951246
49.54427 435.938391756676
49.56439 483.990772871394
49.5845 467
49.60461 459.999538411837
49.62473 471.056962150651
49.64484 504.966820130066
49.66495 459.018106858453
49.68507 482.034425376023
49.70518 412.040893962694
49.7253 436
49.74541 464.000038851622
49.76552 451.998434622488
49.78564 472.060351041146
49.80575 482.933217115474
49.82586 452.960155255582
49.84598 506.981231037327
49.86609 476.013080766818
49.8862 489
49.90632 518.022969946768
49.92643 533.010930865668
49.94655 525.929099518822
49.96666 507.93706677821
49.98677 568.953623052406
50.00689 563.993827134486
50.027 586
50.04711 544.023130231188
50.06723 647.04001264761
50.08734 583.931177030174
50.10746 620.933815743537
50.12757 623.968017347489
50.14768 644.049827943482
50.1678 538
50.18791 528.008397123639
50.20802 533.999126606824
50.22814 534.009215215768
50.24825 545.954760754872
50.26837 550.044005552733
50.28848 488.073588877091
50.30859 452.982932129374
50.32871 503.992263560623
50.34882 433.970828056066
50.36893 474.064466824356
50.38905 477.970960267033
50.40916 470.016763032106
50.42927 460.012667071187
50.44939 457.996841862854
50.4695 474
50.48962 491.995359103491
50.50973 474.994768323335
50.52984 496.061436088086
50.54996 518.976617637814
50.57007 515.031568646333
50.59018 501.978176634814
50.6103 546
50.63041 528.977207449923
50.65053 501.033049388653
50.67064 546.016983148467
50.69075 513.050042682108
50.71087 529.964272708395
50.73098 542.9857451773
50.75109 550.010565542213
50.77121 522.003852779283
50.79132 569.04716629214
50.81143 583.982840085709
50.83155 561.943903935589
50.85166 558.946902344813
50.87178 592.991212633084
50.89189 580.997951572959
50.912 599
50.93212 564.977413462415
50.95223 567.003442333719
50.97234 550.943016228536
50.99246 539.937898691314
51.01257 594.946485387704
51.03269 578.030034786736
51.0528 508
51.07291 478.992162209241
51.09303 472.015327633043
51.11314 500.075289833744
51.13325 521.036654802574
51.15337 492.004521492431
51.17348 505.021217054394
51.1936 453
51.21371 461.001563948793
51.23382 436.967944831091
51.25394 430.06536482771
51.27405 480.919446019371
51.29416 469.090962114996
51.31428 412.055960475944
51.33439 381.995204657836
51.3545 420
51.37462 444.010005272473
51.39473 443.985307697439
51.41485 433.998256284619
51.43496 441.986806254019
51.45507 451.958068938072
51.47519 474.01151089432
51.4953 424
51.51541 442.002416939198
51.53553 420.986481980117
51.55564 436.02702734658
51.57576 436.000596450564
51.59587 433.031975222155
51.61598 411.985968022763
51.6361 452
51.65621 450.006319908924
51.67632 470.984502326961
51.69644 425.955120324838
51.71655 440.960722915503
51.73667 435.020168990573
51.75678 433.982797268595
51.77689 444.014284971399
51.79701 397.994886635213
51.81712 430.02784622562
51.83723 421.955475908674
51.85735 406.048220521434
51.87746 444.958025415651
51.89757 445.976273236141
51.91769 462.016825325736
51.9378 404
51.95792 439.993762690849
51.97803 388.979469273973
51.99814 427.045196426084
52.01826 414.00413429809
52.03837 443.945543290365
52.05848 458.011779163697
52.0786 432
52.09871 423.00339824462
52.11883 452.086194899177
52.13894 484.896711505928
52.15905 400.014251683882
52.17917 474.93274911895
52.19928 443.044964046498
52.21939 431.996664052054
52.23951 450.019567471097
52.25962 472.959127337844
52.27974 404.979764501773
52.29985 451.041004964201
52.31996 418.033288626108
52.34008 444.96774088613
52.36019 450.008446721279
52.3803 431
52.40042 446.030615789587
52.42053 479.040877164157
52.44064 480.929377101235
52.46076 436.028009455821
52.48087 444.027970829572
52.50099 409.994380844719
52.5211 454
52.54121 417.999427080404
52.56133 466.055602129996
52.58144 461.967771447786
52.60155 458.983827133128
52.62167 458.032404207609
52.64178 423.027360915352
52.6619 426
52.68201 460.999440051513
52.70212 439.007760891021
52.72224 479.047927943781
52.74235 472.013002742401
52.76246 470.060200841569
52.78258 434.984561520426
52.80269 480.999529303974
52.8228 435
52.84292 466.030572355111
52.86303 460.961274762167
52.88315 443.010102440696
52.90326 454.022270770698
52.92337 430.993013221507
52.94349 472.975533143829
52.9636 499
52.98371 495.003305820959
53.00383 494.938527466328
53.02394 437.973871601547
53.04406 475.927478471917
53.06417 483.992345855931
53.08428 500.982063241768
53.1044 508
53.12451 494.992487755372
53.14462 487.002635299423
53.16474 504.062871924569
53.18485 523.052433385901
53.20497 473.060106048122
53.22508 467.983052244167
53.24519 504.966162871314
53.26531 560.994907716008
53.28542 501.963942965004
53.30553 525.070871807026
53.32565 545.945737733471
53.34576 500.069543008196
53.36587 499.964214380816
53.38599 527.988618093224
53.4061 536
53.42622 517.977156899905
53.44633 505.009481516765
53.46644 528.055132229705
53.48656 525.113332681448
53.50667 473.943138412636
53.52678 574.946427166516
53.5469 540
53.56701 507.982920247764
53.58713 483.032063224974
53.60724 527.011319290792
53.62735 500.975804527553
53.64747 552.950441965368
53.66758 536.037145271535
53.68769 521.988469513476
53.70781 550.994762547565
53.72792 513.9948540069
53.74804 536.978787573822
53.76815 497.998511785922
53.78826 535.980088067851
53.80838 508.009475757985
53.82849 540.978613336831
53.8486 561
53.86872 542.976964944701
53.88883 524.98221432764
53.90894 514.973821852783
53.92906 508.967095338721
53.94917 532.002894697216
53.96929 511.001265243592
53.9894 528
54.00951 506.995123098969
54.02963 521.027147526783
54.04974 521.964050748592
54.06985 512.925504230612
54.08997 558.986327858497
54.11008 528.021176969456
54.1302 548
54.15031 584.008824110786
54.17042 572.96129376816
54.19054 522.910012972603
54.21065 507.938038261971
54.23076 549.946870567076
54.25088 542.029287061175
54.27099 516.00539750918
54.29111 522.006359503991
54.31122 533.010646647968
54.33133 543.011066099886
54.35145 545.99653417671
54.37156 543.997718171135
54.39167 547.995801433214
54.41179 548.000190186861
54.4319 547
54.45201 536.992288285469
54.47213 522.991484090844
54.49224 527.016733370339
54.51236 531.007851638231
54.53247 533.957789800278
54.55258 574.977479463239
54.5727 559
54.59281 520.995108623483
54.61292 528.993096272309
54.63304 516.044922007332
54.65315 563.94699502747
54.67327 548.017976904319
54.69338 559.985260227191
54.71349 560.00557203263
54.73361 538.983588087204
54.75372 516.011129487604
54.77383 550.031941321512
54.79395 552.027555056248
54.81406 570.011452233796
54.83417 547.004710724968
54.85429 563.001405205481
54.8744 539
54.89452 557.02279314095
54.91463 563.98925478837
54.93474 551.981729352221
54.95486 546.019806831418
54.97497 539.980470654793
54.99508 552.024374620806
55.0152 514
55.03531 550.996499081043
55.05543 505.995459245458
55.07554 547.015229912865
55.09565 516.986419637286
55.11577 554.012863117694
55.13588 493.042398967853
55.15599 505.982638490303
55.17611 521.99499632387
55.19622 512.023222742386
55.21634 547.989575005039
55.23645 500.910661907047
55.25656 507.94245399214
55.27668 531.986751688847
55.29679 532.005028780087
55.3169 526
55.33702 536.988533993757
55.35713 500.942970238162
55.37724 494.070732102045
55.39736 542.956946739281
55.41747 508.120072704254
55.43759 452.984861467891
55.4577 527
55.47781 478.992824055229
55.49793 522.04078393798
55.51804 509.995574243511
55.53815 526.016089080548
55.55827 489.051888209817
55.57838 492.953800592191
55.5985 535
55.61861 482.988229638085
55.63872 505.017873385398
55.65884 491.957551772559
55.67895 480.018590060787
55.69906 479.969382142085
55.71918 491.021088387376
55.73929 461.992271581017
55.75941 501.995952396275
55.77952 444.965984480446
55.79963 469.068914615647
55.81975 492.983604393325
55.83986 479.974019062417
55.85997 511.983011602549
55.88009 487.018580500374
55.9002 462
55.92031 464.007990602948
55.94043 474.980070333676
55.96054 450.99643195568
55.98066 474.959538262729
56.00077 477.998067975788
56.02088 483.001503258899
56.041 482
56.06111 510.007627448496
56.08122 498.972937472656
56.10134 479.00096499551
56.12145 486.03391330997
56.14157 458.013180901381
56.16168 473.987270621988
56.18179 471.001643235885
56.20191 481.010658807088
56.22202 484.959747849811
56.24213 437.012371861474
56.26225 479.981605287196
56.28236 430.993557610487
56.30248 493.963664709485
56.32259 473.011528743702
56.3427 477
56.36282 469.9934699381
56.38293 471.004652596555
56.40304 487.089904253196
56.42316 521.067569014718
56.44327 450.030767344131
56.46338 490.974203936038
56.4835 468
56.50361 476.022334508229
56.52373 507.95412443284
56.54384 443.963482374106
56.56395 479.950203152166
56.58407 458.029334575011
56.60418 465.983538001939
56.62429 484.982868125779
56.64441 507.985882555906
56.66452 454.989036232345
56.68464 498.085030861129
56.70475 494.899776478647
56.72486 464.961289517713
56.74498 505.007255282038
56.76509 464.995059114883
56.7852 513
56.80532 444.964632680487
56.82543 481.082392813951
56.84554 510.019168365319
56.86566 492.120272400918
56.88577 432.997983736841
56.90589 481.987819595918
56.926 461
56.94611 470.000305814046
56.96623 451.978755233316
56.98634 447.980923590679
57.00645 441.944006037176
57.02657 480.972514403803
57.04668 460.041748140802
57.0668 415
57.08691 404.033823365004
57.10702 492.007573614807
57.12714 423.922739486817
57.14725 442.997881230114
57.16736 420.947011091661
57.18748 493.955204972251
57.20759 482.011717472011
57.22771 474.996126806804
57.24782 461.994686734517
57.26793 461.985342999381
57.28805 434.909173907322
57.30816 420.934547765559
57.32827 474.962592426974
57.34839 463.003400544345
57.3685 467
57.38861 427.994349890164
57.40873 454.042121008128
57.42884 467.030551232
57.44896 475.052965464203
57.46907 439.984976198858
57.48918 479.999012124771
57.5093 433
57.52941 453.028429480724
57.54952 495.995163719282
57.56964 455.94248377913
57.58975 457.983627340716
57.60987 447.036149346983
57.62998 426.005593493338
57.65009 432.997702397636
57.67021 435.007049383165
57.69032 459.016659503568
57.71043 465.013135125713
57.73055 469.952783396431
57.75066 433.056893148739
57.77078 442.94763399914
57.79089 488.008516981756
57.811 427
57.83112 449.027859189902
57.85123 452.99675005567
57.87134 456.003430619287
57.89146 459.967814879153
57.91157 467.049924395177
57.93168 419.005065257522
57.9518 460
57.97191 452.988515995532
57.99203 451.049103173293
58.01214 490.005220476603
58.03225 454.084884318432
58.05237 448.983527600457
58.07248 458.995160160402
58.09259 456.004705445783
58.11271 453.00746353528
58.13282 477.012418449366
58.15294 471.984052335146
58.17305 472.01153356574
58.19316 474.00898032167
58.21328 464.010533482328
58.23339 467.98565014487
58.2535 485
58.27362 416.985786483183
58.29373 472.090212575993
58.31385 471.843626965734
58.33396 406.013259733395
58.35407 453.946133771463
58.37419 458.989304824728
58.3943 490
58.41441 435.983020077262
58.43453 438.996560982666
58.45464 428.038286215631
58.47475 471.94032550896
58.49487 463.01557899139
58.51498 464.006200178358
58.5351 454
58.55521 479.008735156664
58.57532 469.96942202095
58.59544 440.982806822927
58.61555 457.927516009895
58.63566 474.017931676492
58.65578 466.966048063431
58.67589 518.996352562483
58.69601 479.987922391851
58.71612 486.993949679215
58.73623 462.99626628337
58.75635 482.003112779674
58.77646 453.064299864102
58.79657 436.014607477026
58.81669 428.00178414591
58.8368 430
58.85691 436.001544662893
58.87703 439.01263774825
58.89714 449.004088291744
58.91726 445.991471445441
58.93737 463.961563851369
58.95748 478.011249456254
58.9776 461
58.99771 482.991945187559
59.01782 438.988114237024
59.03794 470.050117784203
59.05805 468.004728432139
59.07817 471.021992662017
59.09828 447.99904653464
59.11839 474.988678650942
59.13851 479.000516024235
59.15862 481.994147547532
59.17873 459.94836449945
59.19885 434.000747154307
59.21896 456.951649427053
59.23908 474.974805625674
59.25919 494.007259260081
59.2793 458
59.29942 464.999008019314
59.31953 458.032501030449
59.33964 484.948281417069
59.35976 435.967428726008
59.37987 505.964492285931
59.39998 462.032884889851
59.4201 482
59.44021 494.993468468197
59.46033 463.943572760969
59.48044 446.034757770402
59.50055 489.886804340826
59.52067 503.043054118227
59.54078 458.025681704203
59.56089 464.991068772969
59.58101 471.9979924663
59.60112 460.986242190292
59.62124 448.980790009127
59.64135 456.093464908566
59.66146 512.898901557728
59.68158 511.075949668582
59.70169 423.007521637101
59.7218 490
59.74192 504.966825629392
59.76203 468.995112643269
59.78215 498.063954154442
59.80226 502.001470290908
59.82237 511.971578692075
59.84249 540.979356458732
59.8626 570
59.88271 535.993911139868
59.90283 551.004578899625
59.92294 539.017529287859
59.94305 563.005964706955
59.96317 530.039091287126
59.98328 521.018801938559
60.0034 493
60.02351 509.009700924659
60.04362 514.997122422412
60.06374 506.97219803274
60.08385 498.973158975305
60.10396 522.962575236229
60.12408 504.070486340479
60.14419 433.00259038248
60.16431 484.01563261437
60.18442 480.02024776129
60.20453 514.970573925419
60.22465 439.845919724678
60.24476 435.938841416886
60.26487 458.009982803365
60.28499 437.000366691911
60.3051 461
60.32522 464.007295912336
60.34533 466.955335641922
60.36544 430.020353172461
60.38556 470.998336929573
60.40567 428.029527862115
60.42578 460.952236130673
60.4459 473
60.46601 430.004059642591
60.48612 480.025628954935
60.50624 464.987306602407
60.52635 473.052486545278
60.54647 429.025346037721
60.56658 449.980310256282
60.58669 455.990619321671
60.60681 478.995880385146
60.62692 440.969311547726
60.64703 441.026562493028
60.66715 462.056534177877
60.68726 478.989876192986
60.70738 477.995315203313
60.72749 482.007430726963
60.7476 462
60.76772 472.959684130538
60.78783 413.011618838911
60.80794 481.067544281827
60.82806 455.034757325499
60.84817 470.991187146949
60.86828 458.994068673308
60.8884 470
60.90851 414.996803841471
60.92863 470.08766653828
60.94874 489.992434812756
60.96885 488.966881002243
60.98897 495.051454499697
61.00908 444.010087063464
61.02919 463.010548309012
61.04931 414.002554050151
61.06942 477.042681529407
61.08954 475.012110758107
61.10965 508.064796521662
61.12976 509.016690818022
61.14988 498.022501515221
61.16999 471.007513088455
61.1901 466
61.21022 453.013138793618
61.23033 494.066231268765
61.25045 507.935572155097
61.27056 468.036951563337
61.29067 489.930650712666
61.31079 514.014631332571
61.3309 463
61.35101 500.012989228363
61.37113 498.015196229952
61.39124 536.08239240411
61.41135 540.123534639624
61.43147 480.015933685913
61.45158 520.965224778511
61.4717 523
61.49181 525.990154517262
61.51192 503.01908271919
61.53204 557.072161277764
61.55215 548.072692615208
61.57226 523.042599792932
61.59238 520.96640753463
61.61249 554.010346215737
61.63261 497.990367030879
61.65272 539.053212360615
61.67283 550.946688697374
61.69295 501.945790214858
61.71306 525.904910794329
61.73317 561.984288618919
61.75329 550.008788052365
61.7734 541
61.79352 544.010950859681
61.81363 566.050553962305
61.83374 595.012967339272
61.85386 578.047368005396
61.87397 571.970466745331
61.89408 603.977648900515
61.9142 606
61.93431 602.000911154864
61.95442 608.006220457288
61.97454 621.060112392906
61.99465 629.158748361186
62.01477 555.954810392867
62.03488 659.965241772204
62.05499 597.023158877011
62.07511 616.009544114069
62.09522 611.011619257768
62.11533 636.995815047871
62.13545 623.088158346498
62.15556 677.037800463992
62.17568 603.019567759309
62.19579 658.978416920668
62.2159 643
62.23602 616.966111954478
62.25613 595.03893222612
62.27624 648.045817758395
62.29636 629.032086702615
62.31647 641.964997834704
62.33659 649.008811892796
62.3567 629
62.37681 646.988949093994
62.39693 579.900394033943
62.41704 554.020786380546
62.43715 590.856887218649
62.45727 623.050704501627
62.47738 558.020063776939
62.49749 580.007281322383
62.51761 534.00342465684
62.53772 580.990326949415
62.55784 519.97962821223
62.57795 565.008419113241
62.59806 513.048021324318
62.61818 534.996694692914
62.63829 499.01545720573
62.6584 502
62.67852 520.006236819043
62.69863 507.956548451921
62.71875 476.953066639075
62.73886 480.953044092698
62.75897 511.956032650015
62.77909 514.021078231547
62.7992 462
62.81931 496.013818663207
62.83943 485.95617331367
62.85954 468.011379220434
62.87965 488.961814079169
62.89977 477.059981195109
62.91988 446.980547390384
62.94 500
62.96011 489.99336799457
62.98022 497.013636663616
63.00034 501.989006640263
63.02045 486.060691162777
63.04056 469.985502279198
63.06068 490.99004528914
63.08079 480.00857783411
63.10091 472.000987683463
63.12102 479.006279832589
63.14113 482.00411036608
63.16125 477.949301205142
63.18136 448.045682062975
63.20147 447.966446565516
63.22159 480.984149243813
63.2417 497
63.26182 480.979965185909
63.28193 472.012720965579
63.30204 479.966352363051
63.32216 459.95399343143
63.34227 502.01410300669
63.36238 446.026742242559
63.3825 477
63.40261 484.988500686828
63.42272 461.00272038225
63.44284 479.994549138259
63.46295 453.038846044429
63.48307 466.960803260312
63.50318 492.96967834931
63.52329 507.014005147915
63.54341 456.987208463324
63.56352 469.017055444041
63.58363 467.98518582091
63.60375 459.988927249547
63.62386 466.951034109084
63.64398 484.021952351993
63.66409 439.010029600669
63.6842 472
63.70432 513.978625249063
63.72443 455.956768972759
63.74454 481.077113975182
63.76466 498.000398859832
63.78477 486.034627550532
63.80489 468.996979810846
63.825 492
63.84511 492.999252141181
63.86523 491.983805633819
63.88534 477.999702446011
63.90545 488.993988862994
63.92557 483.987358232998
63.94568 502.994422227183
63.96579 505.982501838639
63.98591 552.000279840015
64.00602 498.941677081997
64.02614 472.994109597385
64.04625 487.086226032518
64.06636 515.019551643858
64.08648 481.013512746848
64.10659 493.999478207782
64.1267 478
64.14682 491.991277808135
64.16693 453.943959110527
64.18705 444.037643121714
64.20716 476.909117455944
64.22727 499.049454560437
64.24739 439.013270791536
64.2675 468
64.28761 490.99776672117
64.30773 469.965876513032
64.32784 444.916292738596
64.34796 408.983263692869
64.36807 454.942198211667
64.38818 463.001177751564
64.4083 459
64.42841 451.026408205714
64.44852 520.995713947172
64.46864 435.838250307632
64.48875 437.800222260809
64.50886 512.023587246592
64.52898 439.028767890761
64.54909 476.988913236739
64.56921 449.986490321273
64.58932 449.002448197679
64.60943 443.998931974098
64.62955 450.00857956495
64.64966 456.948828382384
64.66977 488.984275791646
64.68989 462.026179726677
64.71 434
64.73012 493.005268365346
64.75023 444.964777501299
64.77034 465.010815705541
64.79046 438.037611125148
64.81057 462.904142320443
64.83068 510.022071481443
64.8508 437
64.87091 442.015206440518
64.89102 446.960925773096
64.91114 400.000922299238
64.93125 443.929876150749
64.95137 439.990122509137
64.97148 453.027569158514
64.99159 403.00327073264
65.01171 454.028284154826
65.03182 471.986068914002
65.05193 453.998635963144
65.07205 463.984455584289
65.09216 445.996185264571
65.11228 453.034153605543
65.13239 400.999718076963
65.1525 449
65.17262 423.988897226994
65.19273 434.974483705903
65.21284 409.068467208768
65.23296 477.984021185898
65.25307 418.059683652194
65.27319 435.987259225513
65.2933 428
65.31341 415.02067310788
65.33353 465.970546084113
65.35364 405.013694270398
65.37375 480.908593340256
65.39387 441.068670641977
65.41398 440.972872541122
65.43409 455.010520039993
65.45421 406.977830714336
65.47432 405.04929530599
65.49444 465.040741650033
65.51455 444.970294665234
65.53466 461.963788136213
65.55478 457.024737812008
65.57489 433.002810802995
65.595 437
65.61512 417.00803258805
65.63523 440.988713593058
65.65535 417.054815764391
65.67546 471.975614441124
65.69557 428.057238117239
65.71569 429.992545739293
65.7358 435
65.75591 437.004303018272
65.77603 450.016518799811
65.79614 457.014020230822
65.81626 458.030270074574
65.83637 433.027112636919
65.85648 435.978339704629
65.8766 469
65.89671 473.968259214463
65.91682 400.009129002821
65.93694 466.00674466993
65.95705 402.041162229592
65.97716 455.934702100048
65.99728 429.033086747011
66.01739 421.002366795616
66.03751 410.999145486947
66.05762 423.01758988097
66.07773 435.004461637828
66.09785 434.00825992188
66.11796 440.996622767172
66.13807 432.024080291279
66.15819 427.988126260346
66.1783 457
66.19842 417.963982080391
66.21853 423.070789520437
66.23864 458.93938427505
66.25876 402.97091503139
66.27887 478.95176473464
66.29898 436.044179016397
66.3191 438
66.33921 444.991267312231
66.35933 423.004490299489
66.37944 437.96951608464
66.39955 394.070558388653
66.41967 415.906054492656
66.43978 471.989714193373
66.45989 431.029358838108
66.48001 395.998896623235
66.50012 422.040755328559
66.52023 452.00948448209
66.54035 434.931376989091
66.56046 415.013515269859
66.58058 427.966191601946
66.60069 457.001599050805
66.6208 421
66.64092 406.018291047381
66.66103 430.997856811386
66.68114 408.992357222498
66.70126 435.937273483003
66.72137 453.981295545881
66.74149 452.016714560321
66.7616 402
66.78171 405.01434972747
66.80183 442.057767081543
66.82194 453.926725740711
66.84205 408.975777045435
66.86217 459.976145367106
66.88228 427.01927440357
66.90239 441.996324371345
66.92251 439.012873322704
66.94262 481.006152578287
66.96274 435.880834163352
66.98285 401.991318920051
67.00296 413.984229944881
67.02308 420.971416652818
67.04319 452.004437118772
67.0633 415
67.08342 438.010578619143
67.10353 431.024282232249
67.12365 459.97610254845
67.14376 419.02736653571
67.16387 431.03300574648
67.18399 385.998239366825
67.2041 437
67.22421 413.988550043838
67.24433 426.049710294461
67.26444 444.96566117157
67.28456 410.023983765395
67.30467 439.924358124314
67.32478 462.034533623165
67.3449 412
67.36501 459.003878505429
67.38512 429.01514436924
67.40524 483.006957189581
67.42535 423.116472519657
67.44546 421.997917319562
67.46558 423.954567858068
67.48569 488.991486396969
67.50581 449.982122052124
67.52592 450.009742257216
67.54603 449.995136658064
67.56615 457.060463412387
67.58626 481.002188676893
67.60637 461.012118656223
67.62649 487.972929415015
67.6466 525
67.66672 474.977302032603
67.68683 510.09585386969
67.70694 554.005750207541
67.72706 521.084588645074
67.74717 493.023228944576
67.76728 482.01226713673
67.7874 480
67.80751 513.000865363134
67.82763 492.004655588511
67.84774 518.002043596804
67.86785 486.062135074395
67.88797 490.9731472389
67.90808 497.013982103897
67.92819 480.995865959797
67.94831 504.000852370982
67.96842 471.957922065625
67.98853 463.066527973795
68.00865 532.110105922404
68.02876 536.005953940629
68.04888 536.02046984151
68.06899 510.994842617518
68.0891 557
68.10922 552.947802065623
68.12933 502.004164677735
68.14944 546.041202512906
68.16956 512.109908739571
68.18967 478.005300553917
68.20979 500.982003210786
68.2299 529
68.25001 522.991359112459
68.27013 506.987590602295
68.29024 513.041266058733
68.31035 524.058659324804
68.33047 475.060171408065
68.35058 472.968454077458
68.3707 498
68.39081 441.97313810539
68.41092 441.062495162415
68.43104 504.983662660565
68.45115 431.85618564172
68.47126 429.970705132376
68.49138 437.982847515536
68.51149 457.001346554262
68.5316 434
68.55172 437.016042073403
68.57183 443.975853748084
68.59195 421.001259500866
68.61206 441.983795368019
68.63217 430.009204486784
68.65229 433.005251283917
68.6724 417
68.69251 436.992479975862
68.71263 412.053857742173
68.73274 481.006359450162
68.75286 416.072519811107
68.77297 434.992593068133
68.79308 409.004211897019
68.8132 442
68.83331 450.999488335836
68.85342 440.968447500301
68.87354 411.01568423095
68.89365 448.9404240619
68.91376 435.06331321683
68.93388 424.968780358549
68.95399 470.992983224804
68.97411 450.995189990904
68.99422 456.98274091115
69.01433 414.956573629125
69.03445 418.042179478957
69.05456 425.017385957899
69.07467 408.018042032281
69.09479 414.986560576279
69.1149 442
69.13502 425.982217534862
69.15513 429.039747243095
69.17524 459.02077496363
69.19536 448.022592777372
69.21547 448.99254269265
69.23558 455.984738824807
69.2557 471
69.27581 438.967773319013
69.29593 390.024783650329
69.31604 450.063337859234
69.33615 422.118590173307
69.35627 391.026910594882
69.37638 387.982426425543
69.39649 413.991900845097
69.41661 426.015558041988
69.43672 456.987708585196
69.45683 418.995462863364
69.47695 451.016875142057
69.49706 420.041849727547
69.51718 428.988619696516
69.53729 419.013794359015
69.5574 400
69.57752 427.001571557012
69.59763 404.994013923854
69.61774 420.99330651733
69.63786 393.03640232199
69.65797 403.961639925794
69.67809 419.003276032141
69.6982 409
69.71831 438.000376501624
69.73843 417.007824275646
69.75854 443.993068989072
69.77865 409.03756813194
69.79877 428.971713746574
69.81888 417.036458960156
69.839 389
69.85911 420.007295580556
69.87922 416.014473438939
69.89934 440.980472959058
69.91945 409.008344315804
69.93956 444.983413600803
69.95968 411.030632502817
69.97979 413.989160922382
69.9999 431
70.02002 430.011848757238
70.04013 451.013217230511
70.06025 437.941550981771
70.08036 419.021206148617
70.10047 414.008387840855
70.12059 407.001418841738
70.1407 414
70.16081 432.004858173712
70.18093 436.014796109966
70.20104 449.003236271548
70.22116 431.062065137713
70.24127 411.981662239102
70.26138 440.988252941421
70.2815 431
70.30161 434.989922228081
70.32172 402.999374747869
70.34184 430.015737110627
70.36195 406.054371772138
70.38207 409.970803375505
70.40218 426.993524943524
70.42229 421.006231748216
70.44241 409.996327434585
70.46252 419.035922786284
70.48263 450.979096135494
70.50275 404.944355121778
70.52286 425.943307215316
70.54297 426.042644941621
70.56309 397.999005593442
70.5832 418
70.60332 390.991068231985
70.62343 408.01429782007
70.64354 401.001068840006
70.66366 421.940302648889
70.68377 436.023442425934
70.70388 406.014877753708
70.724 415
70.74411 414.996165788898
70.76423 417.036522553691
70.78434 433.934030623727
70.80445 387.947203334857
70.82457 449.010022281901
70.84468 378.023722377052
70.86479 428.979226004031
70.88491 417.988487537956
70.90502 422.029782942528
70.92513 434.931903879804
70.94525 370.998389687304
70.96536 429.934078848725
70.98548 402.038886283432
71.00559 402.978984014936
71.0257 447
71.04582 411.96499481916
71.06593 409.032709430443
71.08604 436.03905191889
71.10616 427.091975718305
71.12627 386.972666282656
71.14639 440.992810145683
71.1665 401
71.18661 412.017330324551
71.20673 429.972601642374
71.22684 397.992840387004
71.24695 415.030306106871
71.26707 382.988864570199
71.28718 436.952234276326
71.3073 438
71.32741 392.978923550478
71.34752 381.032775124585
71.36764 434.067135515845
71.38775 428.066920673608
71.40786 411.984511034529
71.42798 427.007429251469
71.44809 396.012835875137
71.4682 394
71.48832 416.039007025346
71.50843 449.999315170731
71.52855 421.951213466625
71.54866 418.033485301602
71.56877 395.986404131668
71.58889 428.993482275437
71.609 415
71.62911 433.008389001118
71.64923 431.982063919657
71.66934 423.00239650829
71.68946 431.985801770067
71.70957 429.017607126506
71.72968 424.981013179044
71.7498 450
71.76991 427.998306656703
71.79002 448.009309802426
71.81014 425.920038756263
71.83025 404.944150986273
71.85037 445.98438586952
71.87048 417.027891038869
71.89059 425.979303072095
71.91071 461.998255423308
71.93082 423.966476086124
71.95093 414.996104205386
71.97105 414.035261476725
71.99116 436.976609144172
72.01127 434.997612273427
72.03139 443.998610181995
72.0515 437
72.07162 448.036131284704
72.09173 485.00828923011
72.11184 454.92470987653
72.13196 434.013861974271
72.15207 428.022323827663
72.17218 409.008100455738
72.1923 412
72.21241 411.008132844429
72.23253 445.051059169759
72.25264 452.945554380193
72.27275 418.013869680396
72.29287 439.983821240582
72.31298 422.025535807026
72.33309 414.991631546039
72.35321 439.004622794697
72.37332 436.008916361898
72.39344 444.945963747399
72.41355 408.03830505077
72.43366 462.961424792878
72.45378 426.03899680287
72.47389 424.988362935378
72.494 450
72.51412 452.990413484153
72.53423 439.986500075012
72.55434 435.989763567235
72.57446 428.012494142531
72.59457 425.999489162542
72.61469 420.009500336784
72.6348 410
72.65491 454.004350857026
72.67503 422.96395153829
72.69514 436.067959999722
72.71525 459.011407384811
72.73537 431.046190274583
72.75548 425.970808363307
72.7756 459
72.79571 426.992063620492
72.81582 430.982554759804
72.83594 401.015995426291
72.85605 437.984438288141
72.87616 402.059892040742
72.89628 415.952340675747
72.91639 452.00579879522
72.9365 409
72.95662 416.995197649117
72.97673 401.025869874776
72.99685 448.071490093228
73.01696 437.048483730365
73.03707 425.996039726204
73.05719 444.98127875516
73.0773 467
73.09741 416.999680572723
73.11753 464.035669901435
73.13764 436.929581875229
73.15776 424.004380566936
73.17787 435.93822798792
73.19798 476.007481808776
73.2181 425
73.23821 421.009269259188
73.25832 432.99349196015
73.27844 428.056801348974
73.29855 474.955163591472
73.31867 458.016271653243
73.33878 470.986553618638
73.35889 472.000565173554
73.37901 468.992550131238
73.39912 452.001017691947
73.41923 478.056749036107
73.43935 485.872395029196
73.45946 422.995257763965
73.47957 475.981704772737
73.49969 443.994016387998
73.5198 502
73.53992 464.980820412806
73.56003 487.02210211353
73.58014 472.967857165147
73.60026 461.055644027808
73.62037 426.01902375186
73.64048 444.969435734846
73.6606 462
73.68071 450.997994564168
73.70083 459.013912878709
73.72094 452.945563315096
73.74105 423.019079340483
73.76117 433.002605996627
73.78128 417.003240397287
73.80139 437.985234293272
73.82151 456.00074817846
73.84162 445.9883329568
73.86174 438.988886190173
73.88185 426.942832437851
73.90196 409.978935097384
73.92208 437.986313464278
73.94219 431.00126092797
73.9623 442
73.98242 442.002043815286
74.00253 437.957313027605
74.02264 417.0742664869
74.04276 480.984263865849
74.06287 419.094585751855
74.08299 410.982367643755
74.1031 458
74.12321 461.981959664506
74.14333 430.033826272628
74.16344 479.99991256575
74.18355 437.003441436134
74.20367 480.987293197002
74.22378 443.014310716386
74.2439 475
74.26401 467.983092736207
74.28412 440.000135402699
74.30424 465.048915261319
74.32435 469.028646702807
74.34446 452.03499190699
74.36458 438.011105325947
74.38469 431.998903335518
74.40481 446.013097289526
74.42492 462.985532427177
74.44503 429.975678035382
74.46515 443.049601760163
74.48526 443.048569553297
74.50537 421.978162669867
74.52549 460.990266067854
74.5456 445
74.56571 441.00793346244
74.58583 462.016545122989
74.60594 446.915457779959
74.62606 408.999711264201
74.64617 434.990604906372
74.66628 425.974289129584
74.6864 469
74.70651 405.972977747597
74.72662 406.036133761494
74.74674 445.051958372391
74.76685 437.118374065549
74.78697 399.956208018168
74.80708 465.983342634148
74.82719 427.007462325256
74.84731 443.98862146546
74.86742 385.983409055274
74.88753 426.053555358885
74.90765 426.989893253233
74.92776 427.032897048769
74.94787 405.989154030196
74.96799 430.001886159074
74.9881 394
75.00822 398.019925069351
