3.00117 20615.2347485566
3.02128 19808.7597019305
3.0414 19260
3.06151 19144.7502002111
3.08162 18395.5986295093
3.10174 18225.7315312639
3.12185 17152.9182379592
3.14197 16878.4711479994
3.16208 16241.6920298048
3.18219 15805.0604463592
3.20231 15611.6482908283
3.22242 14651.4918388304
3.24253 14634.7337708249
3.26265 14055.598357741
3.28276 13748.4440065341
3.30288 13355.6406396413
3.32299 12688.1892107709
3.3431 12576
3.36322 12058.1878614631
3.38333 11329.5517807042
3.40344 11292.447322364
3.42356 10680.0641294622
3.44367 10464.0957589803
3.46379 10316.14845723
3.4839 9906
3.50401 9487.7400778134
3.52413 8981.60274715473
3.54424 8899.65174015286
3.56435 8466.43956904376
3.58447 8029.17614463324
3.60458 7993.36552510095
3.62469 7437.09293823486
3.64481 7588.95077378295
3.66492 6999.27329338382
3.68504 6608.15702965935
3.70515 6766.29928521028
3.72526 6107.896481163
3.74538 6109.88267478012
3.76549 6011.15410316698
3.7856 5667
3.80572 5517.66127844625
3.82583 5033.50577862801
3.84595 4919.68298740824
3.86606 4673.47611632905
3.88617 4573.92705743319
3.90629 4587.1070760552
3.9264 4237
3.94651 4201.9272361143
3.96663 3871.53426550488
3.98674 3785.28858258112
4.00686 3882.4720138107
4.02697 3419.43915175331
4.04708 3435.92619239388
4.0672 3334
4.08731 3082.94890624038
4.10742 3064.86227045483
4.12754 2807.66329496921
4.14765 2790.02153307325
4.16776 2699.24221088863
4.18788 2623.00540086929
4.20799 2616.05268729992
4.22811 2435.9345343808
4.24822 2423.05342967291
4.26833 2417.79497828133
4.28845 2242.88877772308
4.30856 2297.09121000214
4.32867 2101.29455803876
4.34879 2044.96074693515
4.3689 2133
4.38902 2036.9882023215
4.40913 2077.85913530037
4.42924 1885.87141639119
4.44936 1975.90738594982
4.46947 1900.1188585637
4.48958 1906.93555699584
4.5097 1918
4.52981 1735.96278271812
4.54992 1801.07398788248
4.57004 1775.79485861439
4.59015 1697.92691930921
4.61027 1746.15498337101
4.63038 1556.03875869977
4.65049 1690.95337700415
4.67061 1631.94639534215
4.69072 1573.98661222428
4.71083 1580.0085340146
4.73095 1536.69960034875
4.75106 1423.98014507744
4.77118 1519.96937532631
4.79129 1464.00636014133
4.8114 1520
4.83152 1461.92619849532
4.85163 1420.96962370665
4.87174 1429.11305460288
4.89186 1517.83464087684
4.91197 1516.19251712916
4.93209 1338.052809206
4.9522 1366
4.97231 1416.96476988244
4.99243 1288.92349489383
5.01254 1360.21074703667
5.03265 1407.04653322484
5.05277 1354.0740033115
5.07288 1323.03483072212
5.09299 1301.98328416195
5.11311 1350.99222616257
5.13322 1293.00172013031
5.15334 1356.04777174166
5.17345 1315.92666009995
5.19356 1319.03349400113
5.21368 1267.04960444828
5.23379 1256.98497150045
5.2539 1299
5.27402 1294.98424331896
5.29413 1284.99473123738
5.31425 1293.05983567058
5.33436 1303.07673204852
5.35447 1231.08324144545
5.37459 1234.97144622197
5.3947 1288
5.41481 1237.98188623622
5.43493 1252.06086498466
5.45504 1304.14209055011
5.47516 1367.95839054252
5.49527 1335.09356909508
5.51538 1286.01592742799
5.5355 1291
5.55561 1278.00691893505
5.57572 1305.99491973413
5.59584 1270.97087999415
5.61595 1292.93900984368
5.63606 1292.04068409278
5.65618 1275.99362957302
5.67629 1311.97278763936
5.69641 1367.02375480844
5.71652 1391.99427132188
5.73663 1367.96739471328
5.75675 1351.93325214103
5.77686 1330.96369711899
5.79697 1353.0640418759
5.81709 1262.02637665841
5.8372 1292
5.85732 1329.9692886453
5.87743 1295.09016165351
5.89754 1397.98760376956
5.91766 1263.25919083092
5.93777 1232.95038134818
5.95788 1254.02992595563
5.978 1204
5.99811 1243.99930303166
6.01823 1184.92252363132
6.03834 1173.99873417677
6.05845 1163.02825898003
6.07857 1159.99381541086
6.09868 1172.97541132768
6.11879 1197.99454877916
6.13891 1189.99129476995
6.15902 1149.91540307004
6.17913 1061.96044258709
6.19925 1094.05853088102
6.21936 1075.05684460256
6.23948 1057.02013000029
6.25959 1048.98434462968
6.2797 1089
6.29982 1018.91797047342
6.31993 980.019022084102
6.34004 989.889748633982
6.36016 910.001201942606
6.38027 967.015676453168
6.40039 889.009794481747
6.4205 956
6.44061 940.975575973962
6.46073 914.021332425608
6.48084 930.924496227762
6.50095 847.156079767745
6.52107 837.984285040058
6.54118 841.994539804503
6.56129 847.002728864
6.58141 835.999251773186
6.60152 824.945753918213
6.62164 772.054913047151
6.64175 842.997177163158
6.66186 758.12865647154
6.68198 756.997789800851
6.70209 745.990194516688
6.7222 781
6.74232 724.954145837729
6.76243 718.007051146566
6.78255 704.918170797924
6.80266 674.009778059397
6.82277 703.925672123354
6.84289 720.02803873185
6.863 634
6.88311 664.012435084177
6.90323 650.977731243244
6.92334 655.015581753786
6.94346 644.073934316246
6.96357 611.982245280221
6.98368 648.99578882253
7.0038 624
7.02391 639.969714812452
7.04402 539.984043027748
7.06414 612.082519995959
7.08425 591.985198629957
7.10436 624.058766807481
7.12448 544.030915196367
7.14459 583.983304392118
7.16471 570.988990299102
7.18482 561.9890952951
7.20493 545.986478955382
7.22505 551.035578310849
7.24516 555.041952170098
7.26527 531.98062513812
7.28539 566.997594638478
7.3055 546
7.32562 579.995196583425
7.34573 523.915292530094
7.36584 501.996117153435
7.38596 515.91966769016
7.40607 554.005527223946
7.42618 523.004202450095
7.4463 546
7.46641 512.994324975021
7.48653 533.015372155558
7.50664 500.868441538228
7.52675 453.956695531209
7.54687 524.897512369571
7.56698 534.051679033117
7.58709 475.005290315739
7.60721 513.015570291236
7.62732 508.987354518652
7.64743 485.908178470426
7.66755 428.039222701737
7.68766 496.937728044881
7.70778 465.030138027433
7.72789 483.974703834888
7.748 509
7.76812 440.98510379081
7.78823 481.026042905556
7.80834 457.991774565069
7.82846 483.9842535847
7.84857 455.054603096495
7.86869 444.989349411365
7.8888 468
7.90891 436.997619598084
7.92903 454.985550793942
7.94914 425.014463741387
7.96925 464.97411137987
7.98937 432.041685002937
8.00948 433.991806684025
8.0296 443
8.04971 459.979007138392
8.06982 387.975833003239
8.08994 427.080939392325
8.11005 431.983280176608
8.13016 428.021398676496
8.15028 420.983256307084
8.17039 452.990884642788
8.1905 448
8.21062 445.997001252694
8.23073 454.058461410012
8.25085 483.901271861891
8.27096 414.000550523584
8.29107 468.01004063168
8.31119 392.018991498704
8.3313 429
8.35141 431.994295342164
8.37153 420.969349382022
8.39164 402.007135391037
8.41176 426.952300600004
8.43187 426.041246137082
8.45198 396.006232017353
8.4721 414
8.49221 416.000046075348
8.51232 420.001104141717
8.53244 413.978968335631
8.55255 406.001895674872
8.57266 403.038341598185
8.59278 386.979133671046
8.61289 423.00238258189
8.63301 388.000675767651
8.65312 420.993530830117
8.67323 373.97374223451
8.69335 406.080179079819
8.71346 410.006998551595
8.73357 410.009494736901
8.75369 399.001978181386
8.7738 404
8.79392 399.990000480863
8.81403 384.968535775711
8.83414 378.056596040372
8.85426 413.0176178591
8.87437 370.025796421684
8.89448 395.973428297574
8.9146 392
8.93471 385.017091544405
8.95483 423.973186956818
8.97494 369.984252243485
8.99505 413.951695433723
9.01517 388.023520798129
9.03528 395.013395021956
9.05539 357.011574468049
9.07551 366.009687082378
9.09562 372.99334969705
9.11573 358.979417897184
9.13585 356.02715699373
9.15596 379.934624743637
9.17608 392.034406366569
9.19619 337.011592425241
9.2163 353
9.23642 348.013496911085
9.25653 378.01519680119
9.27664 369.01698385162
9.29676 392.004883882723
9.31687 368.002770830836
9.33699 390.996694085419
9.3571 375
9.37721 396.011542938724
9.39733 394.956438117109
9.41744 368.01887263981
9.43755 396.014398623773
9.45767 362.006434591176
9.47778 389.995222191748
9.4979 357
9.51801 353.00155395521
9.53812 367.047016673391
9.55824 414.987798307072
9.57835 360.897130396559
9.59846 351.039913861769
9.61858 336.950305638884
9.63869 422.982104138376
9.6588 381
9.67892 356.009785014689
9.69903 372.997619763887
9.71915 354.983609440922
9.73926 366.980208028739
9.75937 363.013749260022
9.77949 360.995562483534
9.7996 376
9.81971 373.990080853444
9.83983 355.006380974889
9.85994 377.023925206505
9.88006 367.032396350143
9.90017 358.005767561353
9.92028 359.989365078446
9.9404 379
9.96051 391.99454542167
9.98062 370.995784416852
10.00074 378.978040475819
10.02085 348.050675949388
10.04097 353.973605859773
10.06108 366.993473232193
10.08119 374.99049502731
10.10131 392.997495079304
10.12142 370.989028382828
10.14153 373.988388125833
10.16165 350.955312984892
10.18176 361.913484231611
10.20187 398.022387129739
10.22199 346.015434044928
10.2421 364
10.26222 369.954844029015
10.28233 314.996028496088
10.30244 370.112489483896
10.32256 381.050835205841
10.34267 355.994957596889
10.36278 373.012118450943
10.3829 343
10.40301 381.004998027112
10.42313 354.983881756448
10.44324 375.030693720236
10.46335 368.029459328974
10.48347 368.979269526976
10.50358 385.989858247303
10.52369 379.012240353395
10.54381 352.99467085836
10.56392 354.995518780804
10.58403 337.9756125418
10.60415 343.084600697898
10.62426 381.976040183673
10.64438 360.031341800052
10.66449 335.013424864468
10.6846 317
10.70472 352.036025560143
10.72483 359.960579899521
10.74494 323.970706881553
10.76506 336.967693438482
10.78517 343.98547055762
10.80529 354.002091740771
10.8254 339
10.84551 343.001362920992
10.86563 343.013322543363
10.88574 358.013186412774
10.90585 349.043113177149
10.92597 337.995877190484
10.94608 350.987890338676
10.9662 347
10.98631 314.988838348425
11.00642 323.042047852902
11.02654 373.054651102402
11.04665 355.139012215412
11.06676 315.949927383349
11.08688 375.982544665878
11.10699 336.017468315462
11.1271 335
11.14722 332.023464414122
11.16733 374.034214029475
11.18745 362.943956400175
11.20756 343.050768014599
11.22767 331.952489326057
11.24779 366.016491485355
11.2679 304
11.28801 386.012651279112
11.30813 327.930093062707
11.32824 335.018636925364
11.34836 341.898298849377
11.36847 401.023910135934
11.38858 329.025284009267
11.4087 361
11.42881 313.995575137479
11.44892 359.032271597896
11.46904 361.039880410397
11.48915 406.922933356564
11.50927 401.036179178246
11.52938 378.020783978273
11.54949 348.025474717367
11.56961 312.013842695453
11.58972 369.002997755585
11.60983 314.953416575132
11.62995 327.997829343881
11.65006 299.02624730066
11.67017 322.942213729751
11.69029 347.997381930166
11.7104 333
11.73052 316.017532442724
11.75063 357.046841707259
11.77074 365.007314842626
11.79086 371.008260139249
11.81097 349.05231808425
11.83108 320.008534238369
11.8512 336
11.87131 363.008256386225
11.89143 358.958670695808
11.91154 324.960333500061
11.93165 332.927046457481
11.95177 350.033435257035
11.97188 316.987523625937
11.99199 366.988563868115
12.01211 339.982394025129
12.03222 332.013624566761
12.05234 343.985320837459
12.07245 316.926794529419
12.09256 314.924345607802
12.11268 358.996656555955
12.13279 323.013553351805
12.1529 332
12.17302 341.98592066734
12.19313 327.025341691373
12.21324 357.988882033736
12.23336 313.072115288823
12.25347 319.945012521453
12.27359 357.988221376528
12.2937 361
12.31381 350.994710889855
12.33393 334.959712626992
12.35404 310.997186542853
12.37415 333.926779868965
12.39427 348.008195832502
12.41438 334.007285877986
12.4345 345
12.45461 360.992716435657
12.47472 323.969914751952
12.49484 319.019319146406
12.51495 330.969458199239
12.53506 338.997934487398
12.55518 331.016259578704
12.57529 311.00976456173
12.5954 307
12.61552 335.000176006546
12.63563 305.960081248133
12.65575 306.049697347261
12.67586 326.980732666418
12.69597 323.011827118002
12.71609 324.992031003788
12.7362 341
12.75631 336.012821112247
12.77643 364.956806439618
12.79654 300.969301389981
12.81666 339.969192539417
12.83677 320.980091985905
12.85688 371.973273560477
12.877 348
12.89711 321.990828430633
12.91722 304.984406421693
12.93734 298.018255817515
12.95745 313.985378517987
12.97757 318.954953562984
12.99768 350.01864860023
13.01779 297.010417766834
13.03791 327.016608421378
13.05802 324.971396438043
13.07813 300.000865990733
13.09825 317.006412489435
13.11836 305.986029229961
13.13847 326.005470127135
13.15859 299.006529332429
13.1787 310
13.19882 310.013468894662
13.21893 337.02806129927
13.23904 332.960395703585
13.25916 317.992257619217
13.27927 334.984349533177
13.29938 331.006718067255
13.3195 330
13.33961 331.000321354608
13.35973 330.998342408233
13.37984 327.989615722943
13.39995 318.041930072165
13.42007 290.061413560936
13.44018 269.962722205978
13.46029 339.979609783072
13.48041 325.983429507436
13.50052 305.99037532706
13.52064 298.982133350863
13.54075 293.01640417057
13.56086 303.010715035245
13.58098 296.973249377245
13.60109 337.000150860867
13.6212 291
13.64132 283.012497004199
13.66143 295.007934497618
13.68154 296.010209606132
13.70166 307.974105518006
13.72177 309.027280407268
13.74189 287.001369772496
13.762 304
13.78211 306.001369521844
13.80223 311.998124449371
13.82234 307.010393794191
13.84245 322.967131922063
13.86257 324.010713556577
13.88268 308.029271114195
13.9028 294
13.92291 353.012281122695
13.94302 316.93547508969
13.96314 279.025510964109
13.98325 327.885149330932
14.00336 340.029522877135
14.02348 321.007558845891
14.04359 318.010361352289
14.06371 289.998997291937
14.08382 320.034829588031
14.10393 322.941589075481
14.12405 288.063418143364
14.14416 347.976069815201
14.16427 295.078965777947
14.18439 284.994789172071
14.2045 297
14.22461 308.996933882729
14.24473 302.033970553642
14.26484 325.93280339955
14.28496 251.079714755698
14.30507 286.884273118297
14.32518 337.012196254102
14.3453 294
14.36541 324.000913970865
14.38552 281.963833958842
14.40564 291.08910425397
14.42575 337.938319123597
14.44587 334.02296213864
14.46598 319.020067171385
14.48609 294.011897978853
14.50621 283.00389866211
14.52632 299.007552859918
14.54643 303.032496237472
14.56655 322.943583886814
14.58666 277.017749729322
14.60677 305.988560270308
14.62689 288.992783358309
14.647 329
14.66712 293.987557999558
14.68723 310.98951111539
14.70734 277.984850840374
14.72746 308.937901170769
14.74757 314.014026809611
14.76768 310.98760793747
14.7878 320
14.80791 281.995325820535
14.82803 302.009181729114
14.84814 284.987208595455
14.86825 298.97396606754
14.88837 298.990230506626
14.90848 315.985775782989
14.92859 308.018249499815
14.94871 279.010727716135
14.96882 334.028406029288
14.98894 316.95625693068
15.00905 308.961444023166
15.02916 288.999771224954
15.04928 314.96702083611
15.06939 330.004834910781
15.0895 308
15.10962 308.004495444738
15.12973 309.000155176051
15.14984 298.936324816286
15.16996 260.037271313207
15.19007 271.960764973892
15.21019 294.990795719755
15.2303 305
15.25041 294.993335825132
15.27053 293.028215632046
15.29064 317.007699430647
15.31075 299.040459879075
15.33087 297.993656183172
15.35098 299.997784701192
15.3711 307
15.39121 314.993727215594
15.41132 302.021484101175
15.43144 329.942812718827
15.45155 266.035605667128
15.47166 310.941850767239
15.49178 290.030057886654
15.51189 289.985744351097
15.53201 322.005714020621
15.55212 316.003323033916
15.57223 329.998832761318
15.59235 307.939367934431
15.61246 301.971451887845
15.63257 318.99983474887
15.65269 304.004292793994
15.6728 308
15.69291 298.994033428049
15.71303 294.006859277355
15.73314 294.963412931052
15.75326 280.940495710884
15.77337 340.945095267522
15.79348 320.059437275541
15.8136 287
15.83371 358.006119932624
15.85382 304.964433555867
15.87394 313.997751590184
15.89405 296.959656057477
15.91417 336.992369631079
15.93428 305.012327582448
15.95439 329.988407573349
15.97451 321.985166730727
15.99462 305.020912624707
16.01473 344.017736526902
16.03485 317.925763012509
16.05496 315.95320221647
16.07508 337.007095460863
16.09519 304.015342776508
16.1153 302
16.13542 334.018776087122
16.15553 332.987937507635
16.17564 323.9670267069
16.19576 306.012848319491
16.21587 304.025949558525
16.23598 280.001877853593
16.2561 315
16.27621 344.98290796316
16.29633 277.953117128535
16.31644 295.020789370464
16.33655 284.973651392833
16.35667 312.998489153176
16.37678 291.993477417794
16.39689 327.991244039945
16.41701 307.985627736093
16.43712 301.016966982597
16.45724 329.047276117406
16.47735 326.914674070791
16.49746 293.98299195305
16.51758 339.960878117907
16.53769 338.016798626782
16.5578 306
16.57792 334.046194846352
16.59803 355.955748870194
16.61814 295.916083283595
16.63826 311.868499996972
16.65837 374.977969389404
16.67849 347.009788873523
16.6986 348
16.71871 309.988466082779
16.73883 315.016186698148
16.75894 317.001477223322
16.77905 323.96750934579
16.79917 334.003099619759
16.81928 322.010602467319
16.8394 324
16.85951 330.989501775339
16.87962 313.036552047367
16.89974 367.970642414282
16.91985 294.085401767749
16.93996 328.929715715405
16.96008 331.992813289042
16.98019 339.017011503895
17.00031 294.007830166779
17.02042 357.025294250482
17.04053 321.949629330354
17.06065 325.034299562505
17.08076 334.965318972173
17.10087 348.021885676429
17.12099 323.995792818364
17.1411 356
17.16121 331.998247327159
17.18133 354.005030791179
17.20144 334.99764472172
17.22156 358.967827900147
17.24167 339.07695929697
17.26178 296.995776724087
17.2819 342
17.30201 342.980334716204
17.32212 307.009775223448
17.34224 352.05457113892
17.36235 337.073243937785
17.38247 322.995011232389
17.40258 337.981164941612
17.42269 351.996054557596
17.44281 352.997196207165
17.46292 340.981688313933
17.48303 332.024300209525
17.50315 366.070760352839
17.52326 372.020328345309
17.54338 357.014648925271
17.56349 343.008902357347
17.5836 329
17.60372 347.020549870379
17.62383 354.98957277591
17.64394 339.972536888564
17.66406 341.954009446722
17.68417 359.032271914382
17.70428 326.981452592078
17.7244 382
17.74451 344.986264174585
17.76463 353.011643658255
17.78474 340.968655976173
17.80485 336.982048758022
17.82497 346.992634033614
17.84508 350.985004414712
17.86519 368.001129325134
17.88531 346.991084149921
17.90542 342.999020007114
17.92554 345.031622890788
17.94565 359.971349197272
17.96576 339.969924787456
17.98588 374.006864487878
18.00599 332.00563224862
18.0261 368
18.04622 370.991960422821
18.06633 369.001887803998
18.08645 361.940219302581
18.10656 336.007897722305
18.12667 345.016162199642
18.14679 329.98534303379
18.1669 383
18.18701 346.997027030462
18.20713 375.994145190998
18.22724 337.988683722875
18.24735 371.963927571301
18.26747 351.019872494094
18.28758 360.994347812512
18.3077 354
18.32781 351.984451213037
18.34792 316.011297460255
18.36804 359.013927447475
18.38815 329.993462756471
18.40826 368.975319240468
18.42838 334.039608772891
18.44849 326.989630763618
18.46861 355.009623329868
18.48872 357.994752278705
18.50883 356.00709742783
18.52895 373.077995575987
18.54906 402.979000438187
18.56917 393.020711685834
18.58929 391.994056588205
18.6094 407
18.62951 391.978031067019
18.64963 342.965069677243
18.66974 356.05986499265
18.68986 379.972492950389
18.70997 382.01146212978
18.73008 376.99209347977
18.7502 389
18.77031 369.991932547605
18.79042 378.034945621907
18.81054 414.015423274956
18.83065 383.126363864249
18.85077 346.012342322415
18.87088 369.955613452197
18.89099 397.00857244157
18.91111 354.989790889165
18.93122 376.036289693361
18.95133 394.99191134271
18.97145 384.022693735197
18.99156 412.954744865609
19.01168 408.028148164649
19.03179 376.010178779504
19.0519 383
19.07202 420.011967415873
19.09213 399.951647971926
19.11224 387.037084663219
19.13236 425.92941125971
19.15247 430.047567870716
19.17258 391.012689984041
19.1927 413
19.21281 417.983502884701
19.23293 381.007405391663
19.25304 434.12288462038
19.27315 466.985938382927
19.29327 457.02356878083
19.31338 448.996481993108
19.33349 463.988766207566
19.35361 485.007022899063
19.37372 504.040764834969
19.39384 545.003987551302
19.41395 518.989088070422
19.43406 543.975170459254
19.45418 549.952878917562
19.47429 622.982636988646
19.4944 599
19.51452 596.043355839229
19.53463 670.117527254962
19.55475 728.092871338694
19.57486 731.089821668392
19.59497 680.996816575405
19.61509 752.949214321179
19.6352 827
19.65531 818.993190450501
19.67543 818.00056062277
19.69554 828.078078232554
19.71565 874.966905007361
19.73577 858.00413444341
19.75588 862.041086686915
19.776 806
19.79611 858.991713894587
19.81622 776.967349580241
19.83634 822.074200397602
19.85645 821.954297640201
19.87656 870.928784907769
19.89668 852.070841347832
19.91679 785.004351995515
19.93691 831.021383790258
19.95702 821.94787136738
19.97713 764.952970501017
19.99725 760.9891909579
20.01736 741.045549042428
20.03747 744.928349497638
20.05759 788.014154948144
20.0777 733
20.09782 822.010322204437
20.11793 748.964079236897
20.13804 803.058718866943
20.15816 766.084826558737
20.17827 754.008721226473
20.19838 742.005990080738
20.2185 755
20.23861 780.995749905644
20.25872 760.016174150457
20.27884 802.013225667117
20.29895 769.039133735923
20.31907 794.947390491463
20.33918 812.993335358778
20.35929 817.996511004819
20.37941 834.014055828436
20.39952 855.993986846539
20.41963 830.980289389725
20.43975 859.169572406293
20.45986 916.009622554175
20.47998 886.965567227318
20.50009 978.972586893418
20.5202 959
20.54032 961.046364888219
20.56043 1004.9858890951
20.58054 990.155279119196
20.60066 1146.75777544488
20.62077 1210.85611283405
20.64088 1355.88126788644
20.661 1433
20.68111 1559.05956300312
20.70123 1683.26667308355
20.72134 1925.52568914169
20.74145 2174.41019901922
20.76157 2418.60346981675
20.78168 2662.83667833565
20.80179 2741.9764892665
20.82191 2775.99297955986
20.84202 2661.77002871895
20.86214 2412.70039136895
20.88225 2308.44076848786
20.90236 1925.81533029222
20.92248 1620.1978086607
20.94259 1461.09337888178
20.9627 1260
20.98282 1197.92043565773
21.00293 1074.84313806957
21.02305 1034.02190490567
21.04316 1032.11661834789
21.06327 951.034607487291
21.08339 974.01154391059
21.1035 900
21.12361 926.013414850733
21.14373 911.947689885485
21.16384 883.974600643238
21.18395 876.053813408157
21.20407 849.008137822978
21.22418 868.977857075026
21.2443 859
21.26441 811.008973013069
21.28452 876.032386843328
21.30464 863.015043593246
21.32475 892.036818373626
21.34486 836.058235107023
21.36498 863.952847190419
21.38509 900.98279076644
21.40521 906.97174535529
21.42532 862.075232867351
21.44543 1012.1042822502
21.46555 935.666216435845
21.48566 856.99479600299
21.50577 915.903407376732
21.52589 963.9703720464
21.546 1027
21.56612 1010.96137402903
21.58623 998.057209744798
21.60634 1062.07722070289
21.62646 1032.18130139582
21.64657 968.930177666247
21.66668 1077.95906593524
21.6868 1025
21.70691 1058.03502259419
21.72702 1109.01312922225
21.74714 1073.84982423835
21.76725 997.115679526348
21.78737 1017.85950471377
21.80748 1116.9706528266
21.82759 1070.02770245007
21.84771 1066.02003877658
21.86782 1094.96965891405
21.88793 1022.92898269713
21.90805 1020.99786797538
21.92816 1005.00579913178
21.94828 1009.0233007961
21.96839 948.036944369809
21.9885 899
22.00862 902.977341127656
22.02873 861.984254656278
22.04884 861.884823379306
22.06896 777.024438837224
22.08907 835.95568030862
22.10919 800.018454514835
22.1293 778
22.14941 708.992602804093
22.16953 755.068473473927
22.18964 768.016123391185
22.20975 768.097346635411
22.22987 704.064586845042
22.24998 687.030787331326
22.27009 640.012375740061
22.29021 663.029048490922
22.31032 694.956434496731
22.33044 606.897497853164
22.35055 630.138294306232
22.37066 671.952764936358
22.39078 677.010056052982
22.41089 662.006579219826
22.431 666
22.45112 693.989207037665
22.47123 646.934555927057
22.49135 622.933713083988
22.51146 597.992761337768
22.53157 631.941385675803
22.55169 646.008307406361
22.5718 613
22.59191 602.001111571159
22.61203 609.012619212468
22.63214 618.023780752609
22.65225 631.968749387748
22.67237 630.039289060839
22.69248 597.01204029301
22.7126 617
22.73271 633.990393409352
22.75282 597.984680021741
22.77294 599.958155118483
22.79305 564.005708345258
22.81316 597.95160396556
22.83328 597.992816854855
22.85339 616.998118228084
22.87351 592.981441573453
22.89362 564.98952850293
22.91373 560.975303297051
22.93385 537.989195659598
22.95396 554.968391025717
22.97407 561.981038219493
22.99419 565.018279084447
23.0143 517
23.03442 567.045018571196
23.05453 573.985710629262
23.07464 572.016015150571
23.09476 581.003306492757
23.11487 567.024560563165
23.13498 551.022390920783
23.1551 537
23.17521 577.017144506732
23.19532 594.016513747446
23.21544 592.894591560716
23.23555 517.087298289869
23.25567 542.934591780637
23.27578 557.02016822837
23.29589 531.997804335459
23.31601 553.996761695712
23.33612 520.988569039806
23.35623 548.051740304273
23.37635 566.019267395082
23.39646 565.029153765403
23.41658 542.020992868243
23.43669 528.005954629502
23.4568 529
23.47692 545.946243018296
23.49703 476.040202879414
23.51714 579.091593554204
23.53726 531.091090637296
23.55737 542.956498475847
23.57749 545.014352973014
23.5976 517
23.61771 550.005179012953
23.63783 527.97452130643
23.65794 514.906362120458
23.67805 472.899600976042
23.69817 564.946943737022
23.71828 513.061723086942
23.73839 499.991268302922
23.75851 512.995880010575
23.77862 502.021452511426
23.79874 547.048086511729
23.81885 531.928773774045
23.83896 515.010887454245
23.85908 520.982334614536
23.87919 527.014718691229
23.8993 486
23.91942 524.037620247835
23.93953 527.968480418869
23.95965 518.071363668856
23.97976 559.995567018493
23.99987 511.087807002181
24.01999 493.982557173151
24.0401 541
24.06021 511.992668857234
24.08033 516.967979258923
24.10044 472.966775701105
24.12056 493.961938622594
24.14067 508.928282800316
24.16078 554.031359559807
24.1809 475
24.20101 525.019198123234
24.22112 511.980085140279
24.24124 505.969165345508
24.26135 492.937953302081
24.28146 532.012545390913
24.30158 493.996208129468
24.32169 533.003048314367
24.34181 479.989496246089
24.36192 516.039612231944
24.38203 514.950289928988
24.40215 480.970981631069
24.42226 500.92467477457
24.44237 527.998320423397
24.46249 508.010510092531
24.4826 487
24.50272 443.987643599109
24.52283 473.070929752207
24.54294 510.040435348028
24.56306 493.136297205203
24.58317 432.965959519497
24.60328 509.972532815661
24.6234 466
24.64351 477.004442054065
24.66362 480.03991978288
24.68374 522.937487371528
24.70385 450.010442706209
24.72397 516.95474804511
24.74408 481.023630481247
24.76419 499.993255296737
24.78431 482.987833502255
24.80442 467.988374821281
24.82453 467.034687558578
24.84465 508.096736604765
24.86476 523.021917335213
24.88488 496.030881966849
24.90499 471.010357266314
24.9251 455
24.94522 457.013576273202
24.96533 483.057007305981
24.98544 514.009093841619
25.00556 488.081999587333
25.02567 473.939666199892
25.04579 537.985538126793
25.0659 516
25.08601 509.003240548089
25.10613 510.984411785175
25.12624 505.046269737597
25.14635 532.048729424245
25.16647 475.051985027523
25.18658 497.943629824169
25.20669 556.973100655097
25.22681 578.985102619073
25.24692 526.97576855863
25.26704 543.038924762843
25.28715 535.93256990085
25.30726 511.013851729488
25.32738 519.992829872499
25.34749 516.003410609587
25.3676 510
25.38772 507.018899716912
25.40783 540.035670233229
25.42795 534.923379685086
25.44806 502.028737002607
25.46817 509.979258148937
25.48829 518.995107045023
25.5084 528
25.52851 517.992087570158
25.54863 524.076042683669
25.56874 585.026476287763
25.58886 556.016146205518
25.60897 591.940036716209
25.62908 592.04427172715
25.6492 553
25.66931 612.010101744213
25.68942 588.002591613505
25.70954 631.05265969933
25.72965 605.142190905852
25.74976 577.913925598904
25.76988 658.954822141442
25.78999 648.007302838444
25.81011 659.006622640468
25.83022 646.958540055236
25.85033 601.973579503899
25.87045 633.176272918772
25.89056 697.956842466537
25.91067 671.066090413172
25.93079 655.98533272785
25.9509 700
25.97102 684.001680936145
25.99113 713.028676589219
26.01124 713.016544204389
26.03136 752.866804911489
26.05147 805.00073370907
26.07158 780.980677133517
26.0917 860
26.11181 901.996720808675
26.13193 909.128309825576
26.15204 1034.11784156843
26.17215 1020.96824720239
26.19227 1105.84326168496
26.21238 1191.9203456516
26.23249 1255.98764908128
26.25261 1269.02577485122
26.27272 1401.20220429972
26.29283 1618.27238719482
26.31295 1786.55138668504
26.33306 2039.61418322038
26.35318 2211.72378987904
26.37329 2609.7984162099
26.3934 3040
26.41352 3700.51930938092
26.43363 4192.16303719934
26.45374 5262.07710618974
26.47386 6203.85893332074
26.49397 7443.22050523271
26.51409 8688.20172834376
26.5342 10439
26.55431 11372.4784318291
26.57443 12331.6839120734
26.59454 12233.574945167
26.61465 11974.6730738706
26.63477 10796.1011759533
26.65488 9364.51686513308
26.67499 7811.71788749755
26.69511 6450.2834916939
26.71522 4960.66309695562
26.73534 3855.07728832246
26.75545 2991.26481144283
26.77556 2468.79954236671
26.79568 2098.37031530729
26.81579 1741.14458117806
26.8359 1545
26.85602 1419.82671405043
26.87613 1221.77911050194
26.89625 1142.83999492225
26.91636 1058.17015434246
26.93647 997.045691105205
26.95659 966.033961431115
26.9767 869
26.99681 827.987697233525
27.01693 780.873231485458
27.03704 683.86524641734
27.05716 675.918480903651
27.07727 715.999815480435
27.09738 675.043877645907
27.1175 651
27.13761 639.00552620086
27.15772 663.010312739382
27.17784 650.966808011955
27.19795 643.008783757268
27.21806 629.069631538288
27.23818 588.021197377369
27.25829 592.993984322373
27.27841 589.98950531615
27.29852 556.964434023526
27.31863 527.967307012024
27.33875 529.098372259339
27.35886 576.979200406487
27.37897 555.005653612592
27.39909 577.996277411901
27.4192 563
27.43932 575.995038404848
27.45943 543.947616813985
27.47954 525.990977565698
27.49966 525.007314448856
27.51977 524.975741089453
27.53988 545.998457352205
27.56 526
27.58011 533.018311707056
27.60023 561.970194354201
27.62034 508.941716652423
27.64045 519.972238645378
27.66057 511.013713802904
27.68068 513.992460312862
27.70079 524.989625310283
27.72091 539.993510307094
27.74102 516.004261802846
27.76113 539.994093174082
27.78125 492.856262296625
27.80136 471.937790089652
27.82148 523.974151476445
27.84159 499.026871805839
27.8617 462
27.88182 499.037165571595
27.90193 509.985501837903
27.92204 484.919105779092
27.94216 462.937524384814
27.96227 519.969768557522
27.98239 500.999023541431
28.0025 521
28.02261 449.972892048861
28.04273 458.080997867159
28.06284 507.016875889438
28.08295 485.017888757764
28.10307 506.969830781418
28.12318 505.01354716666
28.1433 492
28.16341 476.986272875835
28.18352 455.010033266925
28.20364 471.944853979879
28.22375 417.973469502184
28.24386 465.896266250943
28.26398 486.991175365
28.28409 491.006226356611
28.3042 487
28.32432 545.009406968764
28.34443 495.921743877084
28.36455 491.095932595416
28.38466 521.053320890747
28.40477 458.04563745726
28.42489 483.981232232328
28.445 493
28.46511 466.986517928279
28.48523 462.04610045358
28.50534 497.993399437488
28.52546 453.087982952716
28.54557 451.936608336456
28.56568 497.990993390973
28.5858 468
28.60591 480.029251627401
28.62602 520.95442800027
28.64614 429.94857380675
28.66625 477.949899322981
28.68636 439.054940877785
28.70648 450.991039163083
28.72659 442.998217160498
28.74671 457.998807327616
28.76682 442.00293027605
28.78693 463.008547377478
28.80705 434.882833476034
28.82716 415.917052542591
28.84727 482.963379326369
28.86739 448.021578114305
28.8875 430
28.90762 415.987293042554
28.92773 423.059917935595
28.94784 479.08235622719
28.96796 484.045338158713
28.98807 451.051301937654
29.00818 430.001751265103
29.0283 448
29.04841 464.988805394968
29.06853 415.942758255098
29.08864 409.016238347236
29.10875 425.911795993727
29.12887 453.027260399982
29.14898 404.027912537801
29.16909 424.976962307382
29.18921 448.988914741862
29.20932 405.985827816403
29.22943 432.042502635059
29.24955 429.930723869358
29.26966 413.942595002944
29.28978 456.009418066554
29.30989 408.004346162671
29.33 457
29.35012 457.969648990363
29.37023 428.986134619253
29.39034 432.985672068204
29.41046 411.031219514462
29.43057 415.971470305368
29.45069 430.001918417882
29.4708 421
29.49091 445.001696342309
29.51103 415.940165689006
29.53114 401.049929911465
29.55125 444.93435829104
29.57137 424.092341387044
29.59148 384.95891603566
29.6116 457
29.63171 388.994928359949
29.65182 450.024651403204
29.67194 396.870088149613
29.69205 386.111367411629
29.71216 435.993945336375
29.73228 402.009287369284
29.75239 420.006870517125
29.7725 383
29.79262 437.033928405545
29.81273 415.932249982254
29.83285 395.053668712496
29.85296 430.991994814408
29.87307 395.056525292931
29.89319 386.992340481355
29.9133 415
29.93341 437.996400996881
29.95353 411.975667509442
29.97364 421.04308176169
29.99376 430.032425306563
30.01387 401.024703194098
30.03398 406.986709820633
30.0541 409
30.07421 401.010089008444
30.09432 437.015753126141
30.11444 414.916802187232
30.13455 379.055182208143
30.15467 392.903183254707
30.17478 452.018490129223
30.19489 381.012990578863
30.21501 420.013357341274
30.23512 398.97264117821
30.25523 388.985377539912
30.27535 387.076515923876
30.29546 429.981022109244
30.31557 409.004873868435
30.33569 427.002824855
30.3558 391
30.37592 386.997642052578
30.39603 385.029021841954
30.41614 416.023331822352
30.43626 404.018520421178
30.45637 403.020083410281
30.47648 383.996794966541
30.4966 402
30.51671 384.003518871101
30.53683 407.988502846666
30.55694 375.998939423063
30.57705 404.998118206128
30.59717 373.017068170243
30.61728 395.982285503536
30.63739 386.010304346128
30.65751 379.007009931473
30.67762 396.997373586183
30.69773 377.9900956614
30.71785 394.050617870647
30.73796 407.970130529396
30.75808 413.02348962931
30.77819 370.017128477181
30.7983 375
30.81842 431.028028425076
30.83853 415.944438731494
30.85864 394.019423276475
30.87876 413.021530942441
30.89887 386.9814966177
30.91899 419.010507574839
30.9391 353
30.95921 382.014610704188
30.97933 379.989926099863
30.99944 391.049256123588
31.01955 411.991117765085
31.03967 389.067383392101
31.05978 354.993899330697
31.0799 383
31.10001 356.995192343126
31.12012 377.018277371299
31.14024 376.992256427741
31.16035 375.021734960638
31.18046 360.023992035197
31.20058 366.967293052755
31.22069 399.999775150919
31.2408 373
31.26092 379.002861745819
31.28103 368.989537996624
31.30115 374.025477640627
31.32126 382.984219402082
31.34137 389.991185612887
31.36149 389.006733434299
31.3816 369
31.40171 367.003218102564
31.42183 377.019207217878
31.44194 381.974160802001
31.46206 370.958152400272
31.48217 403.012044650179
31.50228 353.04217338328
31.5224 364
31.54251 412.990150071552
31.56262 347.970689085046
31.58274 365.993730521691
31.60285 336.977397236631
31.62297 389.942296435632
31.64308 369.067182673239
31.66319 309.005666636505
31.68331 349.026328598402
31.70342 372.99161891832
31.72353 349.975608584924
31.74365 349.004723343548
31.76376 348.988627144892
31.78387 358.992240108795
31.80399 359.99674754319
31.8241 372
31.84422 370.995911917552
31.86433 364.981771002242
31.88444 351.991918374665
31.90456 355.00301577887
31.92467 342.029602584837
31.94478 328.000125617909
31.9649 338
31.98501 341.003030504736
32.00513 346.991594529092
32.02524 341.032622372722
32.04535 377.918701077971
32.06547 371.085593178726
32.08558 315.989039269201
32.10569 367.998045597121
32.12581 312.982320066068
32.14592 329.0213338144
32.16604 330.001395168624
32.18615 335.992073922225
32.20626 335.940588438482
32.22638 370.014285966085
32.24649 321.008549454266
32.2666 350
32.28672 340.985229927519
32.30683 341.014123117774
32.32694 353.025944916493
32.34706 355.038951764148
32.36717 328.014540433726
32.38729 337.996334714863
32.4074 338
32.42751 351.996807028788
32.44763 327.978174202239
32.46774 324.968220079389
32.48785 295.050232769369
32.50797 301.958316804896
32.52808 331.980761252431
32.5482 339
32.56831 340.992267872227
32.58842 324.011301796358
32.60854 360.054209248739
32.62865 346.134531329938
32.64876 296.999564963867
32.66888 339.965553411879
32.68899 346.994358987643
32.7091 372
32.72922 353.945818201838
32.74933 313.037041602197
32.76945 371.016190554084
32.78956 321.053354040174
32.80967 337.001568743814
32.82979 305.00833856258
32.8499 319
32.87001 314.995219185506
32.89013 317.027458449109
32.91024 331.974221112632
32.93036 313.951475272444
32.95047 368.960527049142
32.97058 347.030702497993
32.9907 333
33.01081 319.996959499773
33.03092 333.035339775033
33.05104 364.998074666725
33.07115 335.063319081191
33.09127 328.012015219344
33.11138 321.981456171915
33.13149 351.997325058842
33.15161 339.005454442612
33.17172 356.965990968758
33.19183 289.967952030082
33.21195 328.083395059234
33.23206 313.086650606139
33.25217 277.018414205557
33.27229 302.968828964688
33.2924 345
33.31252 280.006097346992
33.33263 345.01541995766
33.35274 301.029967837419
33.37286 377.94454208033
33.39297 328.068634703583
33.41308 334.973242641144
33.4332 353
33.45331 355.991406892773
33.47343 325.962263885545
33.49354 319.015011381957
33.51365 330.975080755306
33.53377 332.01300549907
33.55388 326.987175885953
33.57399 345.001953745086
33.59411 315.98502325446
33.61422 304.00141143207
33.63434 310.012871685406
33.65445 307.961801129783
33.67456 300.944594765996
33.69468 342.991096542946
33.71479 320.003217727771
33.7349 337
33.75502 318.004983331107
33.77513 341.994394918002
33.79524 318.019521405831
33.81536 351.017138971603
33.83547 318.959064480037
33.85559 384.001317396442
33.8757 308
33.89581 326.013693473859
33.91593 336.035190658714
33.93604 365.996553761486
33.95615 342.989149825191
33.97627 377.969848209434
33.99638 353.054709272077
34.0165 318
34.03661 362.001208810366
34.05672 328.000292139034
34.07684 361.993123317561
34.09695 324.988628711373
34.11706 371.969872651768
34.13718 335.034455502498
34.15729 344.978931579804
34.17741 382.003041344117
34.19752 363.990167151829
34.21763 368.991781799916
34.23775 363.071908078553
34.25786 398.045982548716
34.27797 341.00399744745
34.29809 393.989418145299
34.3182 370
34.33831 417.014554365504
34.35843 402.966033301836
34.37854 406.057597641015
34.39866 430.024122377068
34.41877 393.029330259607
34.43888 414.954727707274
34.459 456
34.47911 448.97526669732
34.49922 402.010266411956
34.51934 454.047097868885
34.53945 443.948390576272
34.55957 483.029805596875
34.57968 411.039211525402
34.59979 447.964009995329
34.61991 492.997963830979
34.64002 451.956142717991
34.66013 439.027662072205
34.68025 470.059944727037
34.70036 478.990357652959
34.72047 473.051684896173
34.74059 438.993091176375
34.7607 489
34.78082 474.986327415479
34.80093 482.010650674678
34.82104 472.95841038486
34.84116 464.949416590835
34.86127 503.98168687658
34.88138 464.076797697675
34.9015 412
34.92161 467.001767713059
34.94173 422.997112068661
34.96184 482.098993487543
34.98195 483.042608358345
35.00207 471.021566955578
35.02218 452.017960116566
35.04229 442.99869066975
35.06241 455.008202972357
35.08252 466.000390934321
35.10264 459.993834854136
35.12275 458.977700362973
35.14286 449.982182082611
35.16298 475.975966682173
35.18309 483.003259369324
35.2032 476
35.22332 479.989209702787
35.24343 452.958479000693
35.26354 452.076175523645
35.28366 494.999164585465
35.30377 453.055679348029
35.32389 447.996182603897
35.344 456
35.36411 466.993586954444
35.38423 445.004497177351
35.40434 462.978156181078
35.42445 427.032031945968
35.44457 456.93351814602
35.46468 477.015266922154
35.4848 453
35.50491 482.005084798222
35.52502 466.996028153916
35.54514 487.041511047758
35.56525 503.922383126537
35.58536 525.063551456211
35.60548 464.022772054021
35.62559 496.980461836598
35.64571 507.998896189416
35.66582 503.990665811993
35.68593 496.005582412437
35.70605 501.971269158903
35.72616 493.927845117004
35.74627 543.015687805003
35.76639 481.016244091294
35.7865 499
35.80661 488.008591741749
35.82673 528.013219555589
35.84684 504.995981755328
35.86696 527.007690553164
35.88707 502.983006491893
35.90718 550.970148073082
35.9273 552
35.94741 571.985058932719
35.96752 504.963435834572
35.98764 525.072252405292
36.00775 527.105349230687
36.02787 493.940175413919
36.04798 559.02235162789
36.06809 471.009322965851
36.08821 546.028930212446
36.10832 535.980930520601
36.12843 538.996410840306
36.14855 532.041706205454
36.16866 564.973791719032
36.18878 548.021553548555
36.20889 537.005219870816
36.229 541
36.24912 604.040718728175
36.26923 613.01414315972
36.28934 641.064250827287
36.30946 655.025352046766
36.32957 661.878574491736
36.34968 787.914684918092
36.3698 798
36.38991 817.032575981666
36.41003 907.121131264034
36.43014 953.035075248197
36.45025 960.974973113311
36.47037 982.952404002306
36.49048 1005.00562638833
36.51059 971.022440318438
36.53071 935.989610361362
36.55082 909.945890020295
36.57094 838.895153675966
36.59105 791.779282935968
36.61116 682.124042693842
36.63128 680.993859344586
36.65139 649.030540387227
36.6715 590
36.69162 568.955714555482
36.71173 510.961860749328
36.73184 525.02995653284
36.75196 515.044787155926
36.77207 497.013398262396
36.79219 490.008287287937
36.8123 467
36.83241 472.010029126834
36.85253 482.972664580959
36.87264 444.944059404422
36.89275 432.05454096542
36.91287 399.03254004081
36.93298 405.969157834936
36.9531 444
36.97321 453.991149023466
36.99332 419.966590845702
37.01344 410.040238157683
37.03355 435.005971397138
37.05366 411.015382334032
37.07378 425.993954554617
37.09389 417.99778055581
37.11401 438.005983631548
37.13412 427.977458049651
37.15423 406.978477729581
37.17435 406.035927163174
37.19446 421.996866582106
37.21457 404.040072043085
37.23469 384.004050077295
37.2548 384
37.27491 396.023214963214
37.29503 439.972998613345
37.31514 378.948720156713
37.33526 414.908721167207
37.35537 426.025159928499
37.37548 400.023129789256
37.3956 392
37.41571 401.998989982964
37.43582 389.994307212278
37.45594 392.995928954815
37.47605 385.995228462783
37.49617 397.986044850734
37.51628 393.01817966672
37.53639 380.993640602791
37.55651 410.008979132531
37.57662 403.984011939518
37.59673 382.948040122184
37.61685 355.020777486079
37.63696 403.872662234483
37.65708 427.048491784382
37.67719 351.013772753627
37.6973 391
37.71742 402.978410442255
37.73753 377.99466334744
37.75764 386.976395763788
37.77776 364.975921656159
37.79787 400.991676043845
37.81798 378.992182583947
37.8381 415
37.85821 371.976105042119
37.87833 362.042495807483
37.89844 396.012476020796
37.91855 373.05078490505
37.93867 373.985894361838
37.95878 381.990498130051
37.97889 390.99833554424
37.99901 394.006515168159
38.01912 404.986339933544
38.03924 377.987559480146
38.05935 385.955116000542
38.07946 353.987062869928
38.09958 389.995846797315
38.11969 358.005495067796
38.1398 381
38.15992 360.968398830503
38.18003 361.080961983037
38.20015 417.964895262967
38.22026 354.037264119186
38.24037 388.00093824674
38.26049 346.00117905492
38.2806 386
38.30071 346.994605893065
38.32083 374.00505850108
38.34094 342.970069862065
38.36105 356.985707102872
38.38117 349.980407838962
38.40128 378.992435687171
38.4214 365
38.44151 384.000474211146
38.46162 367.000511986202
38.48174 387.01209690422
38.50185 371.031716782786
38.52196 367.029878347342
38.54208 346.002053229131
38.56219 371.981016716949
38.58231 385.984760835031
38.60242 336.979416321233
38.62253 347.999345378134
38.64265 334.033232688309
38.66276 373.950696413896
38.68287 361.047338544606
38.70299 338.002890170602
38.7231 349
38.74321 352.987644627446
38.76333 324.008147050713
38.78344 360.048371603901
38.80356 359.989663734658
38.82367 381.969050946415
38.84378 383.018976055257
38.8639 355
38.88401 351.012177276534
38.90412 391.035306365897
38.92424 399.96109767351
38.94435 366.079463541137
38.96447 351.994545717149
38.98458 367.976939687122
39.00469 382.003171786887
39.02481 370.004183817547
39.04492 397.017720064503
39.06503 387.961525517929
39.08515 384.115477263636
39.10526 443.984453391234
39.12538 425.952412263235
39.14549 522.981306029418
39.1656 484
39.18572 518.043044650139
39.20583 546.054926075166
39.22594 592.062924348333
39.24606 607.955495879158
39.26617 655.894775879702
39.28628 733.92688628717
39.3064 797
39.32651 865.042324239172
39.34663 956.116560668918
39.36674 1004.03843798117
39.38685 1005.02113762082
39.40697 1013.93353948633
39.42708 1041.06146908453
39.44719 920.039271973112
39.46731 918.004163908093
39.48742 881.931597060343
39.50754 795.801949007961
39.52765 694.765588188688
39.54776 621.094435802854
39.56788 597.008871158332
39.58799 573.03032078801
39.6081 488
39.62822 458.012731506585
39.64833 467.944840442824
39.66845 403.93228981114
39.68856 425.960247481241
39.70867 418.015875694542
39.72879 416.003705776525
39.7489 414
39.76901 447.994859017344
39.78913 405.983356561482
39.80924 436.038452603393
39.82935 412.118949832123
39.84947 378.998321790597
39.86958 399.99297566732
39.8897 379
39.90981 378.0219041359
39.92992 423.988207847898
39.95004 372.976464655425
39.97015 417.898305575182
39.99026 421.015612801165
40.01038 431.967652585215
40.03049 458.005614795271
40.05061 428.000390571761
40.07072 457.005237593371
40.09083 460.110618004465
40.11095 565.056169223777
40.13106 503.070722095425
40.15117 549.888595343709
40.17129 590.001051187839
40.1914 573
40.21152 597.011237098117
40.23163 586.990650263599
40.25174 587.97376826815
40.27186 555.072849628948
40.29197 532.011987921685
40.31208 532.997394785251
40.3322 516
40.35231 445.969241566345
40.37242 429.036690709797
40.39254 469.97287692835
40.41265 403.14876113404
40.43277 385.998082306148
40.45288 387.990529240583
40.47299 398.001687444515
40.49311 389.003536184988
40.51322 392.96016439193
40.53333 340.008817140414
40.55345 398.079204303216
40.57356 369.091963261571
40.59368 346.999919866904
40.61379 359.990667507125
40.6339 364
40.65402 337.008796270798
40.67413 374.028313885934
40.69424 360.974196468451
40.71436 361.012051065833
40.73447 354.971265941758
40.75458 377.022995720317
40.7747 329
40.79481 364.00109830767
40.81493 322.966558957813
40.83504 347.073232351889
40.85515 363.012239017678
40.87527 352.999006197904
40.89538 369.976960595011
40.91549 377.010590894698
40.93561 342.990598002347
40.95572 343.997969497603
40.97584 335.006050258958
40.99595 352.034951794639
41.01606 354.998680622108
41.03618 353.013726063596
41.05629 336.001208839085
41.0764 347
41.09652 343.001545455573
41.11663 351.000546875197
41.13675 342.992331911593
41.15686 347.994086838865
41.17697 340.026542100553
41.19709 329.99292692002
41.2172 361
41.23731 358.988738683378
41.25743 326.947263832673
41.27754 306.010052792985
41.29765 335.896019744439
41.31777 363.997849456824
41.33788 345.020242240396
41.358 330
41.37811 309.000329195883
41.39822 328.013419676925
41.41834 325.992675864307
41.43845 332.959903682898
41.45856 345.007676322146
41.47868 332.003498570625
41.49879 353.977684191871
41.51891 386.994522829876
41.53902 335.945325526585
41.55913 318.035761357517
41.57925 364.107837420185
41.59936 376.046822792012
41.61947 339.036452168477
41.63959 336.997973535218
41.6597 337
41.67982 344.008516061122
41.69993 355.026390607146
41.72004 374.021377726166
41.74016 365.060711807584
41.76027 330.030736387733
41.78038 332.983358440142
41.8005 349
41.82061 348.994402808566
41.84072 339.004354405804
41.86084 347.981627028877
41.88095 337.926840488875
41.90107 384.99638235266
41.92118 345.017663664261
41.94129 372.98387261131
41.96141 372.986101001209
41.98152 352.016289438112
42.00163 386.002370552039
42.02175 349.927811978895
42.04186 368.874109323472
42.06198 431.978322852942
42.08209 422.99412528897
42.1022 449
42.12232 408.015534953563
42.14243 479.068676856236
42.16254 463.936108296827
42.18266 464.919945700555
42.20277 522.928125510018
42.22289 545.994884215899
42.243 566
42.26311 625.033650482879
42.28323 668.997875517846
42.30334 668.133181959152
42.32345 765.940260076484
42.34357 707.069330798625
42.36368 722.967544358481
42.38379 730.00749059615
42.40391 718.006316075285
42.42402 730.967447835662
42.44414 670.954276514306
42.46425 680.93800107141
42.48436 599.18405898224
42.50448 555.97943929611
42.52459 595.001240940628
42.5447 523
42.56482 430.949112329128
42.58493 426.034927318613
42.60505 442.983988596249
42.62516 416.054679603188
42.64527 401.01404763276
42.66539 394.000453492144
42.6855 388
42.70561 353.992421704779
42.72573 368.040260779997
42.74584 380.976648947434
42.76595 354.054256465412
42.78607 347.999718485507
42.80618 338.02682829739
42.8263 316
42.84641 347.003437473126
42.86652 317.966661329157
42.88664 312.044264486876
42.90675 336.996521851244
42.92686 319.013902124602
42.94698 328.997640974802
42.96709 321.99675115594
42.98721 339.000720089926
43.00732 323.993644797598
43.02743 326.982321635655
43.04755 305.999231166103
43.06766 322.003705957689
43.08777 304.992966694889
43.10789 328.998111431365
43.128 310
43.14812 325.003633781859
43.16823 307.976302171513
43.18834 297.958003543305
43.20846 283.943689987136
43.22857 329.994038428559
43.24868 289.028743865673
43.2688 305
43.28891 324.995555764886
43.30902 299.984329213105
43.32914 302.006000038548
43.34925 296.020510690258
43.36937 294.986592580336
43.38948 312.976890865905
43.40959 322.010389985293
43.42971 293.000215585419
43.44982 321.016174746498
43.46993 318.014090060991
43.49005 341.015118485113
43.51016 311.108354572786
43.53028 276.980104141528
43.55039 334.977027478756
43.5705 333
43.59062 303.004531335415
43.61073 330.014336980539
43.63084 314.985719357953
43.65096 323.997885500509
43.67107 311.013530713067
43.69119 315.994461002303
43.7113 325
43.73141 335.009882662556
43.75153 346.970133252235
43.77164 302.928222642839
43.79175 295.971633404537
43.81187 311.973728491723
43.83198 321.006764927955
43.85209 303.008616619444
43.87221 296.000535935322
43.89232 301.006981056359
43.91244 310.025619115631
43.93255 309.921420107035
43.95266 277.965124872294
43.97278 327.984430881942
43.99289 296.012903823677
44.013 302
44.03312 307.018520121929
44.05323 326.985829742057
44.07335 292.943165124721
44.09346 303.936621911046
44.11357 331.981451680601
44.13369 329.003190911084
44.1538 333
44.17391 337.984265351516
44.19403 298.007879320761
44.21414 331.985766415564
44.23426 286.02463379112
44.25437 328.928532260976
44.27448 333.037863861003
44.2946 288
44.31471 297.001911979734
44.33482 292.014968509435
44.35494 328.057890696266
44.37505 329.05083769488
44.39516 300.062410339048
44.41528 281.995168571708
44.43539 305.985171142345
44.45551 319.994968640148
44.47562 305.007597227944
44.49573 323.987547691188
44.51585 295.996452492326
44.53596 323.972126007222
44.55607 306.036856866534
44.57619 294.002600895234
44.5963 295
44.61642 305.990930765339
44.63653 293.026606712504
44.65664 325.996002537644
44.67676 289.042840884327
44.69687 306.953247948115
44.71698 319.013721195543
44.7371 297
44.75721 300.991972539695
44.77732 278.013469811037
44.79744 320.038073479698
44.81755 304.030036226955
44.83767 306.019239001455
44.85778 285.990324296843
44.87789 327.980192829105
44.89801 330.983091731444
44.91812 286.973252085184
44.93823 295.050289610565
44.95835 329.045194394748
44.97846 322.050494188059
44.99858 301.997666141005
45.01869 316.001054973038
45.0388 296
45.05892 308.025280377525
45.07903 330.01817307593
45.09914 324.953746280319
45.11926 303.994159917263
45.13937 325.978070172896
45.15949 319.008257202253
45.1796 313
45.19971 336.008270250213
45.21983 338.998102558457
45.23994 329.941123437931
45.26005 299.993024264644
45.28017 332.958979871099
45.30028 334.01060574737
45.32039 326.002885660167
45.34051 323.000425557426
45.36062 331.017312590508
45.38074 350.021015145513
45.40085 359.060460501205
45.42096 381.02954036727
45.44108 342.015954532117
45.46119 365.983157283342
45.4813 391
45.50142 421.020674149466
45.52153 411.928576665137
45.54165 367.021367326076
45.56176 427.878337193188
45.58187 454.984519620078
45.60199 467.991307690398
45.6221 492
45.64221 516.001788703125
45.66233 513.026708639312
45.68244 550.053769010559
45.70256 548.041726124062
45.72267 528.013733562558
45.74278 530.993360735583
45.7629 527
45.78301 497.988229745799
45.80312 480.977266407861
45.82324 466.038016672724
45.84335 482.125179120164
45.86346 389.096623095937
45.88358 405.984203295271
45.90369 393.999984216212
45.92381 395.977070966603
45.94392 323.974342675012
45.96403 349.012725978233
45.98415 330.023651981965
46.00426 365.99128924701
46.02437 332.031599851962
46.04449 333.009384660036
46.0646 302
46.08472 334.998199048819
46.10483 290.951198798389
46.12494 304.079410532883
46.14506 323.061540980804
46.16517 277.991657929376
46.18528 319.00382116023
46.2054 273
46.22551 306.99378550866
46.24563 253.996740686557
46.26574 313.079221334567
46.28585 299.054779510591
46.30597 307.950634998661
46.32608 318.053104845505
46.34619 249.99666036489
46.36631 324.022006720956
46.38642 302.9752007836
46.40653 307.006840426203
46.42665 292.941496183382
46.44676 280.977003406533
46.46688 305.983683889661
46.48699 296.015963276028
46.5071 277
46.52722 320.003928098487
46.54733 282.965547760537
46.56744 294.021153041432
46.58756 286.020586116066
46.60767 284.994392741596
46.62779 288.997866599856
46.6479 288
46.66801 272.99769403493
46.68813 271.973795585996
46.70824 255.041402714834
46.72835 304.918112584624
46.74847 292.062305953196
46.76858 259.003743394586
46.78869 274.997197518867
46.80881 264.999640864945
46.82892 281.015248314501
46.84904 291.034644157853
46.86915 307.99024805631
46.88926 282.056795094535
46.90938 272.986778619203
46.92949 290.998868430406
46.9496 277
46.96972 285.020999657782
46.98983 299.992388391447
47.00995 286.005476820479
47.03006 301.995442087179
47.05017 280.043866437244
47.07029 269.99040922655
47.0904 293
47.11051 263.998997785868
47.13063 292.020791190142
47.15074 285.0180898487
47.17086 307.010770826432
47.19097 270.048540222206
47.21108 269.975744980204
47.2312 301
47.25131 300.978613522476
47.27142 250.994064583711
47.29154 292.079799350936
47.31165 302.004099788874
47.33176 295.049207074828
47.35188 257.034073131813
47.37199 245.992704469171
47.39211 271.008705579479
47.41222 279.01422958419
47.43233 293.99150957611
47.45245 263.908587326805
47.47256 248.964561639753
47.49267 286.948243804553
47.51279 295.009168164795
47.5329 265
47.55302 257.011891997822
47.57313 274.009119571278
47.59324 273.022951422769
47.61336 294.979000899737
47.63347 277.06250301957
47.65358 253.966127040925
47.6737 319
47.69381 297.986295374554
47.71393 294.005812705582
47.73404 293.99989856134
47.75415 294.00913567023
47.77427 284.022699179233
47.79438 265.022335878718
47.81449 253.992538781066
47.83461 292.021579913044
47.85472 303.96157873292
47.87483 257.008902468457
47.89495 309.074983561249
47.91506 289.060841081101
47.93518 275.009806525718
47.95529 267.996538400115
47.9754 284
47.99552 273.975212541172
48.01563 263.041364873422
48.03574 308.032382817532
48.05586 293.005609609918
48.07597 304.025348110854
48.09609 266.004965168489
48.1162 288
48.13631 270.994798211646
48.15643 284.031394918617
48.17654 291.978594977118
48.19665 267.071489536057
48.21677 255.973220703816
48.23688 282.995256517241
48.257 271
48.27711 293.997852382622
48.29722 263.988107474853
48.31734 271.972556548776
48.33745 249.054518345178
48.35756 304.950553514368
48.37768 283.019559097387
48.39779 293.989665740707
48.4179 301
48.43802 289.002092396486
48.45813 295.979254950334
48.47825 270.998494425385
48.49836 293.979498621967
48.51847 280.020429930262
48.53859 281.995820834882
48.5587 291
48.57881 301.999684712265
48.59893 290.98425882373
48.61904 285.989781317921
48.63916 280.003668283188
48.65927 281.999151280944
48.67938 279.003395075691
48.6995 277
48.71961 270.993577020678
48.73972 266.020483245969
48.75984 291.987254416161
48.77995 268.965211584316
48.80006 315.955457096679
48.82018 293.030960067734
48.84029 287.990987649434
48.86041 298.988336263203
48.88052 265.006587042831
48.90063 305.022648397618
48.92075 274.906351303055
48.94086 259.0046481198
48.96097 275.925052668774
48.98109 323.003365130586
49.0012 266
49.02132 257.020815193447
49.04143 274.994548597249
49.06154 260.005090686688
49.08166 283.959803547252
49.10177 278.044030736137
49.12188 255.986147648161
49.142 298
49.16211 298.990375242945
49.18223 284.002718654924
49.20234 293.994354038474
49.22245 288.939320866012
49.24257 323.011777179451
49.26268 287.995551497696
49.28279 326.99911478797
49.30291 284.989834116011
49.32302 308.023023270453
49.34313 307.995188644363
49.36325 307.974512485231
49.38336 294.989590356477
49.40348 310.004587508977
49.42359 300.984434826678
49.4437 346
49.46382 290.98947022908
49.48393 337.042339708888
49.50404 317.955774056527
49.52416 330.9158764727
49.54427 359.035690336905
49.56439 307.009045044352
49.5845 349
49.60461 380.986954909148
49.62473 340.016894368423
49.64484 399.070498222754
49.66495 389.015195000805
49.68507 417.93178031308
49.70518 450.990854266627
49.7253 444
49.74541 455.010035346797
49.76552 474.013576007389
49.78564 495.090146717826
49.80575 556.127840774781
49.82586 606.832535345128
49.84598 705.939254099659
49.86609 735.970729649881
49.8862 811
49.90632 807.079790758522
49.92643 974.224312491204
49.94655 1028.9602264608
49.96666 1038.7855263335
49.98677 1198.859101153
50.00689 1214.97845277357
50.027 1315
50.04711 1331.99311174577
50.06723 1327.01649528571
50.08734 1307.79603121497
50.10746 1160.20004563242
50.12757 1130.04149303672
50.14768 1071.05492104292
50.1678 1037
50.18791 973.943290615675
50.20802 848.922769506185
50.22814 815.901860335574
50.24825 719.283179079746
50.26837 627.091295030772
50.28848 590.028610747131
50.30859 548.030265820947
50.32871 490.987650399274
50.34882 488.983289022476
50.36893 452.967003947008
50.38905 444.933642488275
50.40916 398.071164143048
50.42927 393.974410528694
50.44939 405.005944033378
50.4695 379
50.48962 371.970230203288
50.50973 333.998324132385
50.52984 367.039251490184
50.54996 356.023334983784
50.57007 355.01317151918
50.59018 343.988976314685
50.6103 365
50.63041 329.984793991909
50.65053 330.034314372074
50.67064 339.93745998723
50.69075 290.042128454919
50.71087 315.959081101721
50.73098 316.014622213525
50.75109 311.990340576846
50.77121 335.998474860882
50.79132 302.965909719378
50.81143 293.016739186565
50.83155 310.026090212332
50.85166 309.010399266436
50.87178 298.025475776158
50.89189 279.989706051425
50.912 328
50.93212 317.962552297128
50.95223 279.960897642335
50.97234 272.009100899765
50.99246 282.966590878826
51.01257 295.004259324773
51.03269 281.005593452895
51.0528 277
51.07291 274.00742970663
51.09303 292.991674212268
51.11314 274.014347454944
51.13325 304.968792020442
51.15337 286.032033103808
51.17348 274.019582623514
51.1936 255
51.21371 286.013291059889
51.23382 285.978921961116
51.25394 263.984074947286
51.27405 271.972219441341
51.29416 276.995392207283
51.31428 278.002394322274
51.33439 273.002324120177
51.3545 270
51.37462 265.995327987943
51.39473 261.996556838984
51.41485 267.042238731503
51.43496 292.946069674405
51.45507 307.008457367692
51.47519 281.020029951052
51.4953 251
51.51541 280.021000376855
51.53553 304.991523595428
51.55564 273.924905736815
51.57576 251.010171199039
51.59587 258.979872088001
51.61598 267.000843982035
51.6361 259
51.65621 249.995036409994
51.67632 257.043780074278
51.69644 302.986053223485
51.71655 250.091135863042
51.73667 262.949623224718
51.75678 284.993533009805
51.77689 285.995359275742
51.79701 292.990118826991
51.81712 267.013022221791
51.83723 297.974105294791
51.85735 245.982638794555
51.87746 292.939925845653
51.89757 272.053629611617
51.91769 257.995733680282
51.9378 271
51.95792 257.997247729862
51.97803 270.014342404252
51.99814 273.01847112229
52.01826 285.003635463109
52.03837 279.971792445397
52.05848 308.004914792466
52.0786 276
52.09871 282.986889929775
52.11883 246.039343706577
52.13894 319.058546947474
52.15905 283.081779241517
52.17917 277.035685920061
52.19928 239.003355888448
52.21939 274.984484447837
52.23951 275.994848646206
52.25962 269.995291522487
52.27974 262.980641772895
52.29985 260.034032300318
52.31996 282.970472563112
52.34008 282.007198806821
52.36019 281.994462012725
52.3803 293
52.40042 272.97927412201
52.42053 262.996573635759
52.44064 261.994115211305
52.46076 256.013528759971
52.48087 257.972851702499
52.50099 278.998549108349
52.5211 257
52.54121 239.004164671302
52.56133 269.052817174915
52.58144 290.005950786909
52.60155 281.028142446199
52.62167 279.981651775853
52.64178 287.019828025816
52.6619 252
52.68201 269.01573913697
52.70212 283.985893768193
52.72224 255.972112585476
52.74235 261.989347780807
52.76246 259.98221211899
52.78258 279.986247446938
52.80269 285.993133481135
52.8228 298
52.84292 266.989501374347
52.86303 286.032007228157
52.88315 282.931893339671
52.90326 258.985762465806
52.92337 295.943395218517
52.94349 300.017802091802
52.9636 261
52.98371 294.008172708917
53.00383 273.959488545741
53.02394 264.004492310578
53.04406 283.904884966776
53.06417 333.975717158036
53.08428 301.061218726641
53.1044 257
53.12451 296.025205375223
53.14462 321.993343042435
53.16474 299.976115916332
53.18485 305.983299406768
53.20497 298.031005511799
53.22508 282.992588685399
53.24519 308.988133356729
53.26531 311.992110385976
53.28542 297.003576550294
53.30553 318.029233000256
53.32565 313.922639265047
53.34576 280.017851363226
53.36587 300.957796515044
53.38599 318.993605889998
53.4061 328
53.42622 319.984866555946
53.44633 305.990296738225
53.46644 304.992575340463
53.48656 298.999061149157
53.50667 310.97035848081
53.52678 322.010877165191
53.5469 302
53.56701 318.005449588508
53.58713 320.019663356445
53.60724 333.968957870052
53.62735 303.996657315887
53.64747 333.984670019659
53.66758 307.03307171224
53.68769 295.995685634387
53.70781 310.003722253875
53.72792 305.991401376071
53.74804 305.024121733571
53.76815 309.930750060939
53.78826 283.928110634777
53.80838 355.978750863116
53.82849 317.011089296314
53.8486 334
53.86872 305.982370856945
53.88883 327.072149325844
53.90894 352.930955883257
53.92906 290.040041012631
53.94917 328.93484488475
53.96929 341.999217668216
53.9894 344
54.00951 328.9895339434
54.02963 308.97617731905
54.04974 294.965982836175
54.06985 292.909951125994
54.08997 346.958047559803
54.11008 342.99842005591
54.1302 359
54.15031 336.987307564734
54.17042 326.001610179698
54.19054 325.972213962021
54.21065 314.947324224191
54.23076 344.033303716776
54.25088 296.010647989313
54.27099 341.973463855499
54.29111 357.991698938521
54.31122 329.977502436029
54.33133 330.034678584945
54.35145 357.026729628967
54.37156 344.048098281535
54.39167 324.019377537722
54.41179 330.981582272165
54.4319 371
54.45201 358.010330322143
54.47213 403.010682610758
54.49224 379.026397297285
54.51236 427.971286510613
54.53247 387.070523437263
54.55258 382.960713964376
54.5727 431
54.59281 427.004064080636
54.61292 455.018210591872
54.63304 456.011036162287
54.65315 471.97420180001
54.67327 475.980811497301
54.69338 501.972017455571
54.71349 528.983260664193
54.73361 557.001119721852
54.75372 544.002287179303
54.77383 570.041319249798
54.79395 569.912399165603
54.81406 532.001295926419
54.83417 557.001245440269
54.85429 520.015783863095
54.8744 512
54.89452 501.003679573269
54.91463 507.970890480953
54.93474 472.980385738306
54.95486 488.996201105892
54.97497 470.01014065832
54.99508 473.022720583141
55.0152 428
55.03531 431.003807173943
55.05543 423.9776684656
55.07554 416.014377122061
55.09565 425.027111559093
55.11577 409.972561634643
55.13588 448.990921735996
55.15599 424.006315167522
55.17611 441.008755880347
55.19622 441.99623624851
55.21634 447.030983514311
55.23645 453.943993960103
55.25656 421.0067336767
55.27668 438.011656014248
55.29679 399.007773192475
55.3169 412
55.33702 380.977180856939
55.35713 391.048929281258
55.37724 413.981716117072
55.39736 384.033477799877
55.41747 384.019789532462
55.43759 357.005471874757
55.4577 364
55.47781 345.994569181915
55.49793 346.993225996254
55.51804 330.96810088642
55.53815 324.993217701785
55.55827 330.992229891064
55.57838 341.972703065759
55.5985 361
55.61861 300.974988986938
55.63872 297.034096533164
55.65884 330.000445309682
55.67895 307.012753721675
55.69906 324.9894454109
55.71918 313.994921230813
55.73929 326.011332705931
55.75941 283.99809063089
55.77952 315.00524599916
55.79963 281.964983595085
55.81975 290.034274244372
55.83986 289.021177422555
55.85997 286.970574399237
55.88009 310.00268075354
55.9002 293
55.92031 339.006343217032
55.94043 307.961180421092
55.96054 306.991038681785
55.98066 297.972060302116
56.00077 323.005423670129
56.02088 295.008219378932
56.041 306
56.06111 279.00903162004
56.08122 334.025843050848
56.10134 305.917782680397
56.12145 279.062933186365
56.14157 274.925532873464
56.16168 339.991675813561
56.18179 283.029355657506
56.20191 269.007296369854
56.22202 286.009272215953
56.24213 297.047844755926
56.26225 329.986287257335
56.28236 294.03765950696
56.30248 302.002580359403
56.32259 279.007789518398
56.3427 279
56.36282 274.015807062747
56.38293 303.018444942066
56.40304 289.965134972404
56.42316 284.992508073832
56.44327 289.996176007741
56.46338 285.013906354159
56.4835 276
56.50361 301.008160551493
56.52373 305.014883724163
56.54384 318.995554421561
56.56395 298.054324716939
56.58407 293.978037599786
56.60418 310.001138939248
56.62429 299.996042908916
56.64441 322.002613113036
56.66452 299.971077759482
56.68464 282.988186195233
56.70475 290.057094910218
56.72486 314.980232606873
56.74498 301.029757653745
56.76509 284.990169677858
56.7852 327
56.80532 319.970295624515
56.82543 295.996513482824
56.84554 305.994696731424
56.86566 283.051239676333
56.88577 281.949532629066
56.90589 320.997893118052
56.926 295
56.94611 313.009190093983
56.96623 314.996622979388
56.98634 319.01714878079
57.00645 323.02038884013
57.02657 309.008687636277
57.04668 307.016488840724
57.0668 293
57.08691 339.007834355244
57.10702 316.984771110511
57.12714 328.025053580806
57.14725 314.108906734842
57.16736 269.028389305657
57.18748 290.968713679203
57.20759 304.003259371946
57.22771 280.982496034929
57.24782 266.03318778059
57.26793 317.014805084237
57.28805 285.966764403085
57.30816 306.973059605456
57.32827 299.002712296911
57.34839 305.006144806201
57.3685 267
57.38861 252.016103243587
57.40873 302.03027601802
57.42884 272.8986616744
57.44896 250.939336047719
57.46907 306.95341421424
57.48918 302.002067106776
57.5093 308
57.52941 260.979545265414
57.54952 261.043319967368
57.56964 304.997990259437
57.58975 266.060464747618
57.60987 280.960701691871
57.62998 293.000070322038
57.65009 289.000988697434
57.67021 292.002494185039
57.69032 288.981996196142
57.71043 276.028898786458
57.73055 303.964545651092
57.75066 264.990776784575
57.77078 305.001146339151
57.79089 269.992461077028
57.811 320
57.83112 245.971514561761
57.85123 286.041162814539
57.87134 277.022001710759
57.89146 310.994131165251
57.91157 284.0030932336
57.93168 319.968081406748
57.9518 314
57.97191 273.987408718693
57.99203 272.017137627356
58.01214 282.006755270444
58.03225 280.995274019802
58.05237 286.994090539232
58.07248 286.002701749044
58.09259 290.990598082803
58.11271 318.011479806577
58.13282 318.972864282583
58.15294 282.962091408969
58.17305 280.974348113226
58.19316 262.999214605886
58.21328 283.982276165086
58.23339 279.011750289102
58.2535 256
58.27362 265.01069730993
58.29373 270.009317738202
58.31385 281.030618575132
58.33396 282.038671306643
58.35407 258.005342498058
58.37419 276.990771527333
58.3943 275
58.41441 262.007483402971
58.43453 282.975298262669
58.45464 247.011753535764
58.47475 290.958489919218
58.49487 271.001131004975
58.51498 298.989861751886
58.5351 270
58.55521 255.014587570659
58.57532 309.042431427318
58.59544 302.888247491986
58.61555 248.994257457325
58.63566 297.93584830265
58.65578 287.016835127775
58.67589 286.99876518887
58.69601 281.996012324594
58.71612 278.002583937768
58.73623 281.996483489479
58.75635 271.972053209318
58.77646 273.953807599437
58.79657 296.014362932731
58.81669 262.010165077455
58.8368 273
58.85691 288.004498064987
58.87703 289.988758034553
58.89714 279.994122246949
58.91726 282.009185959953
58.93737 276.981459882182
58.95748 300.988268866744
58.9776 291
58.99771 274.99015083902
59.01782 264.015625780618
59.03794 298.051912612092
59.05805 298.044976371676
59.07817 290.962479617716
59.09828 323.007643328006
59.11839 284.007556180332
59.13851 304.00563978693
59.15862 298.011694479073
59.17873 328.020538049561
59.19885 309.922810591512
59.21896 301.935685195043
59.23908 342.999195904437
59.25919 304.014596860062
59.2793 319
59.29942 348.986219720582
59.31953 310.980140287334
59.33964 336.056469071725
59.35976 340.026310453348
59.37987 334.968135198989
59.39998 364.99737297547
59.4201 343
59.44021 365.014085292659
59.46033 390.052956053403
59.48044 407.917814563519
59.50055 346.004921157274
59.52067 406.930783991083
59.54078 410.98843402125
59.56089 450.980570448981
59.58101 473.009039877032
59.60112 498.02915563561
59.62124 513.975223023768
59.64135 503.088017508533
59.66146 586.822666519874
59.68158 632.005648712482
59.70169 609.000065134868
59.7218 652
59.74192 717.059264292636
59.76203 761.033650484895
59.78215 762.970313094279
59.80226 768.902705447547
59.82237 836.943014281456
59.84249 839.994180620026
59.8626 859
59.88271 814.994598409683
59.90283 840.008140179307
59.92294 812.965659524837
59.94305 812.050337811767
59.96317 758.099140195735
59.98328 697.058689830321
60.0034 662
60.02351 680.976875393461
60.04362 585.943708840794
60.06374 583.964238793228
60.08385 526.126743720881
60.10396 515.96384480854
60.12408 520.039705929619
60.14419 460.013100125814
60.16431 466.993080369167
60.18442 415.950060494454
60.20453 404.038563454245
60.22465 428.964947359107
60.24476 376.105647748718
60.26487 357.97927949033
60.28499 376.999835684244
60.3051 354
60.32522 331.973458851807
60.34533 304.980361109043
60.36544 311.032759835539
60.38556 323.991657340895
60.40567 321.005057048552
60.42578 321.996666734458
60.4459 325
60.46601 314.983941755684
60.48612 280.995149687023
60.50624 306.049627410707
60.52635 310.019797144461
60.54647 304.994373535058
60.56658 307.016085670257
60.58669 285.998018270366
60.60681 309.003050821379
60.62692 299.01036081339
60.64703 328.013927081733
60.66715 299.888017103926
60.68726 273.982180976673
60.70738 309.960731253201
60.72749 325.006874871635
60.7476 303
60.76772 306.980297567855
60.78783 277.00926373529
60.80794 320.068262607918
60.82806 320.028783319989
60.84817 307.023225770219
60.86828 294.001277205082
60.8884 305
60.90851 310.996898365862
60.92863 313.05129452215
60.94874 351.983874941435
60.96885 307.04903693914
60.98897 323.995385700015
61.00908 300.013465270058
61.02919 313.989576750903
61.04931 320.99636899715
61.06942 318.020161277205
61.08954 343.99060142971
61.10965 310.943431626826
61.12976 312.994408731462
61.14988 316.970534996734
61.16999 359.990239904361
61.1901 352
61.21022 352.971546173541
61.23033 313.000423853337
61.25045 352.061638010254
61.27056 349.97745248673
61.29067 382.966166564144
61.31079 375.01336018765
61.3309 356
61.35101 365.992303434492
61.37113 337.001569540335
61.39124 369.040928676453
61.41135 364.005897824323
61.43147 372.003316910564
61.45158 366.979786696783
61.4717 397
61.49181 361.99078189511
61.51192 368.994419632135
61.53204 349.003794890261
61.55215 375.953223553133
61.57226 377.98063505949
61.59238 391.012763558973
61.61249 358.009100265758
61.63261 358.994989535696
61.65272 340.004501796933
61.67283 382.091308568573
61.69295 406.879490890494
61.71306 329.051836586363
61.73317 359.981689679584
61.75329 335.002369137763
61.7734 358
61.79352 321.96287748554
61.81363 321.056213029966
61.83374 363.019499542906
61.85386 342.027417789302
61.87397 336.053055252755
61.89408 290.996845466493
61.9142 344
61.93431 349.993805259531
61.95442 337.985335986089
61.97454 322.980897478329
61.99465 321.987149154448
62.01477 329.985146900254
62.03488 337.996995067093
62.05499 336.001990848427
62.07511 324.987055220776
62.09522 306.018007982997
62.11533 336.984686841283
62.13545 292.959354786933
62.15556 324.921380488659
62.17568 328.036616446303
62.19579 287.003038463783
62.2159 319
62.23602 318.965709244246
62.25613 282.993556342015
62.27624 309.043794711797
62.29636 303.047012937276
62.31647 284.999287850373
62.33659 298.995246948564
62.3567 300
62.37681 316.008074051584
62.39693 315.965246483369
62.41704 283.961778483881
62.43715 298.878456218109
62.45727 339.017041543446
62.47738 291.026656464354
62.49749 303.993322213306
62.51761 300.000055666415
62.53772 307.998182105576
62.55784 290.960434015521
62.57795 284.023511279469
62.59806 295.011741950001
62.61818 279.000895008047
62.63829 293.996803815214
62.6584 280
62.67852 277.029579304677
62.69863 319.029798229874
62.71875 301.913252885183
62.73886 276.018337986625
62.75897 277.00436466557
62.77909 273.992560352033
62.7992 302
62.81931 294.98794238371
62.83943 277.005844111969
62.85954 290.993440657177
62.87965 272.014006639374
62.89977 281.00617327748
62.91988 266.992774083111
62.94 289
62.96011 259.988031420565
62.98022 268.034211674592
63.00034 299.007014206069
63.02045 275.067931751254
63.04056 269.962565057525
63.06068 294.98821617063
63.08079 285.010499094137
63.10091 262.98835928588
63.12102 255.024617569498
63.14113 287.99928529216
63.16125 258.972478409986
63.18136 279.958820163739
63.20147 277.026499839588
63.22159 263.000291019595
63.2417 271
63.26182 268.007332103724
63.28193 285.015725631209
63.30204 278.966902447269
63.32216 262.025516300285
63.34227 268.943173301144
63.36238 300.02551057881
63.3825 251
63.40261 306.000156295862
63.42272 247.978836558195
63.44284 289.067779123918
63.46295 285.010191292207
63.48307 297.986438564512
63.50318 284.034999195527
63.52329 258.992691415861
63.54341 301.013565386288
63.56352 285.957296901971
63.58363 263.045444052816
63.60375 326.103092092871
63.62386 319.056462204668
63.64398 297.014986850536
63.66409 289.999217158735
63.6842 299
63.70432 320.029317403925
63.72443 337.976658568674
63.74454 319.059642697445
63.76466 372.999141298791
63.78477 326.016548623617
63.80489 368.984326094796
63.825 361
63.84511 364.998179595985
63.86523 359.027776117316
63.88534 394.032646620971
63.90545 387.993337639743
63.92557 399.018284198104
63.94568 368.013434269015
63.96579 381.992469312182
63.98591 382.99898276378
64.00602 377.981139932339
64.02614 360.017654980306
64.04625 388.034187099572
64.06636 368.078940099894
64.08648 339.001911033075
64.10659 355.994426310956
64.1267 346
64.14682 327.992365008806
64.16693 333.020359149098
64.18705 336.950397949432
64.20716 301.058874321897
64.22727 290.003530002445
64.24739 290.995527640151
64.2675 292
64.28761 265.011700441648
64.30773 324.044184592552
64.32784 297.913627236362
64.34796 275.005512401445
64.36807 281.989818315116
64.38818 284.994531840864
64.4083 290
64.42841 269.984471133198
64.44852 253.01862506798
64.46864 285.002818499391
64.48875 259.015737394928
64.50886 285.946537457758
64.52898 295.990097963111
64.54909 300.012261411961
64.56921 260.991913187792
64.58932 269.999765605349
64.60943 257.007650354836
64.62955 281.032037533955
64.64966 268.046942732472
64.66977 255.990275493941
64.68989 270.996826671476
64.71 259
64.73012 256.040562205185
64.75023 304.997104430719
64.77034 256.939438654559
64.79046 266.980738735808
64.81057 258.007742972813
64.83068 267.986065475286
64.8508 274
64.87091 270.001676563357
64.89102 281.010331335584
64.91114 281.982189062256
64.93125 272.003778180843
64.95137 280.981983941874
64.97148 286.004746589248
64.99159 271.011408181032
65.01171 251.99727724796
65.03182 262.017781474092
65.05193 265.964090866976
65.07205 241.038102003022
65.09216 289.931289854467
65.11228 288.012717081739
65.13239 287.994698631107
65.1525 284
65.17262 247.03380354261
65.19273 321.025820348046
65.21284 259.871028880037
65.23296 248.948182792555
65.25307 274.991105525777
65.27319 265.999349956022
65.2933 283
65.31341 284.000730434162
65.33353 285.985542704703
65.35364 270.996426706927
65.37375 281.987994762308
65.39387 276.999277924706
65.41398 284.000797100118
65.43409 281.991165512467
65.45421 305.997851514103
65.47432 281.999440206231
65.49444 309.0312486644
65.51455 290.911486767595
65.53466 276.939114106374
65.55478 323.98777004914
65.57489 294.014216107892
65.595 292
65.61512 294.004530023749
65.63523 295.981768468772
65.65535 274.968222641404
65.67546 289.910224433466
65.69557 330.999725264261
65.71569 291.021128034903
65.7358 278
65.75591 289.998263112712
65.77603 284.031722403168
65.79614 316.999288829357
65.81626 280.062720119077
65.83637 288.936360557463
65.85648 324.0071790259
65.8766 288
65.89671 304.006629167926
65.91682 297.993190809278
65.93694 296.986198020778
65.95705 286.995936237416
65.97716 292.028917686994
65.99728 269.994326935724
66.01739 290.007163655687
66.03751 246.99156080744
66.05762 273.031263422516
66.07773 287.016737057925
66.09785 294.974330666455
66.11796 269.047240538414
66.13807 270.950057840277
66.15819 304.002652260635
66.1783 263
66.19842 258.011478122865
66.21853 268.007304835071
66.23864 274.033589741729
66.25876 289.018887568723
66.27887 261.026887408727
66.29898 265.987640873442
66.3191 266
66.33921 251.004670368627
66.35933 275.009198835821
66.37944 256.967639259515
66.39955 255.995204931714
66.41967 257.982628826334
66.43978 270.006503847519
66.45989 255.995720903368
66.48001 280.001012652665
66.50012 258.992201232605
66.52023 266.985681044757
66.54035 253.070093090852
66.56046 297.026168778414
66.58058 247.990823966208
66.60069 315.983593134724
66.6208 283
66.64092 272.982247134009
66.66103 246.99898033978
66.68114 276.05935761524
66.70126 292.96200667388
66.72137 305.02905946701
66.74149 265.012406878838
66.7616 271
66.78171 277.997557269282
66.80183 271.003641410903
66.82194 284.026366014442
66.84205 291.981501390342
66.86217 299.99275273492
66.88228 301.996849655514
66.90239 298.011698800453
66.92251 287.022886050903
66.94262 345.983647332463
66.96274 267.925211516653
66.98285 306.118372439287
67.00296 318.999940882232
67.02308 319.009001252179
67.04319 307.998410749131
67.0633 313
67.08342 281.002950214102
67.10353 310.001657178441
67.12365 286.018417953352
67.14376 334.912516615164
67.16387 357.951735775254
67.18399 387.008656183034
67.2041 336
67.22421 351.011900579331
67.24433 359.002829869143
67.26444 359.991015032531
67.28456 356.979831291462
67.30467 380.959793075381
67.32478 401.982974293306
67.3449 406
67.36501 401.030547398893
67.38512 489.023722590695
67.40524 434.890204644438
67.42535 432.928043203086
67.44546 469.911267419281
67.46558 518.949608204018
67.48569 554.99609563023
67.50581 547.001028390639
67.52592 575.04376333814
67.54603 624.079179996206
67.56615 656.974315722324
67.58626 620.047025396447
67.60637 641.910406298366
67.62649 694.995884574366
67.6466 676
67.66672 712.006640623308
67.68683 694.027024370102
67.70694 744.034227068114
67.72706 698.1480136837
67.74717 657.966201641646
67.76728 703.001635364173
67.7874 680
67.80751 777.011267259183
67.82763 713.941743262433
67.84774 748.09370284499
67.86785 755.065398559584
67.88797 724.020968152914
67.90808 750.930075339104
67.92819 832.970278521041
67.94831 847.990955607988
67.96842 833.012949432689
67.98853 877.079556895619
68.00865 909.004115351955
68.02876 886.065276774819
68.04888 875.969429248803
68.06899 919.994177833987
68.0891 907
68.10922 937.980068507629
68.12933 863.903288457163
68.14944 850.030943182962
68.16956 857.036393606696
68.18967 822.039419901962
68.20979 815.00108504095
68.2299 805
68.25001 782.984957789143
68.27013 736.899664576256
68.29024 674.95046121633
68.31035 676.039561399557
68.33047 626.086716670888
68.35058 576.051384895268
68.3707 534
68.39081 545.001935425897
68.41092 520.95688527529
68.43104 485.984999838709
68.45115 484.914571474459
68.47126 435.015557399467
68.49138 456.020904845709
68.51149 387.025837977096
68.5316 378
68.55172 354.977242576575
68.57183 346.001297343675
68.59195 358.070897912001
68.61206 380.025787311763
68.63217 343.032588843103
68.65229 346.000938136768
68.6724 332
68.69251 334.991751748932
68.71263 301.970034393694
68.73274 303.002137402046
68.75286 297.992420371022
68.77297 309.993003969239
68.79308 304.004460230487
68.8132 305
68.83331 299.999793963205
68.85342 297.982516950731
68.87354 277.003346186223
68.89365 291.025119407308
68.91376 262.012396852336
68.93388 275.013210017927
68.95399 245.994307009627
68.97411 301.022563361446
68.99422 299.969115594519
69.01433 269.978750406381
69.03445 277.047669310941
69.05456 284.040546290424
69.07467 252.018970197987
69.09479 266.990045784645
69.1149 273
69.13502 271.009421093336
69.15513 289.021712884114
69.17524 289.978607074452
69.19536 278.00886399172
69.21547 277.015358320871
69.23558 256.020197095535
69.2557 254
69.27581 280.001190116168
69.29593 254.956555208626
69.31604 242.000296735178
69.33615 254.929520905186
69.35627 278.008453904765
69.37638 246.032273901534
69.39649 238.990861113912
69.41661 257.997442085157
69.43672 244.017071970607
69.45683 277.994976355052
69.47695 249.027596131736
69.49706 301.938783441821
69.51718 277.050163045373
69.53729 245.998496780999
69.5574 270
69.57752 270.000065620704
69.59763 265.955983477826
69.61774 233.013534799256
69.63786 269.97201269492
69.65797 251.013871519343
69.67809 262.000511737324
69.6982 243
69.71831 253.008146216428
69.73843 259.994107514395
69.75854 257.02267622576
69.77865 271.021533990409
69.79877 243.027970691339
69.81888 250.976610251505
69.839 270
69.85911 262.994991497071
69.87922 256.995662372931
69.89934 249.977098177734
69.91945 238.990985146672
69.93956 246.966307333621
69.95968 256.013098960791
69.97979 243.986655884256
69.9999 293
70.02002 265.972273462739
70.04013 258.9893047535
70.06025 241.961381912431
70.08036 235.005175849611
70.10047 233.996930808077
70.12059 243.989382691096
70.1407 265
70.16081 251.990287149525
70.18093 245.018802283113
70.20104 258.980491396271
70.22116 245.941239261013
70.24127 298.982557802616
70.26138 258.039669960141
70.2815 254
70.30161 254.989995124266
70.32172 236.013647115663
70.34184 261.972750322836
70.36195 225.972400883992
70.38207 275.983187809793
70.40218 248.986928841664
70.42229 305.9870923585
70.44241 267.970243277727
70.46252 233.997442240948
70.48263 250.024213894544
70.50275 250.971597907962
70.52286 243.977287812749
70.54297 263.992823179263
70.56309 246.0121806366
70.5832 231
70.60332 239.026718042202
70.62343 265.000672933678
70.64354 243.972418982414
70.66366 254.950548678997
70.68377 272.99790989174
70.70388 264.003304106877
70.724 263
70.74411 235.996011071383
70.76423 250.016848009351
70.78434 247.99752112472
70.80445 254.97859233266
70.82457 254.022686293486
70.84468 238.995741242604
70.86479 251.00548173898
70.88491 229.004924902209
70.90502 273.037363883546
70.92513 275.971244360939
70.94525 254.963793187928
70.96536 251.98889945077
70.98548 250.022546358555
71.00559 228.991967331226
71.0257 268
71.04582 238.966156261918
71.06593 224.992845978523
71.08604 225.022371846583
71.10616 248.937284995856
71.12627 267.017253695985
71.14639 242.003001088312
71.1665 254
71.18661 240.006676646977
71.20673 264.97410740871
71.22684 217.979375187854
71.24695 256.91410224264
71.26707 251.043044646281
71.28718 229.003011566934
71.3073 240
71.32741 241.003822919509
71.34752 249.991479887586
71.36764 224.957171255829
71.38775 228.92151987777
71.40786 263.97559642892
71.42798 250.01721716451
71.44809 245.000014446388
71.4682 247
71.48832 257.002383287345
71.50843 250.990985509313
71.52855 256.046859689049
71.54866 271.018607953904
71.56877 246.017235731788
71.58889 256.993340396522
71.609 259
71.62911 259.002348383242
71.64923 263.998712536489
71.66934 253.967472469413
71.68946 242.993369042177
71.70957 259.968488987279
71.72968 272.99779296942
71.7498 266
71.76991 261.004725364341
71.79002 268.98301149991
71.81014 235.967584851625
71.83025 238.026357165224
71.85037 226.952497990095
71.87048 285.973159386183
71.89059 263.015675365823
71.91071 253.00003969695
71.93082 248.989213721531
71.95093 239.001902385407
71.97105 255.059362902413
71.99116 275.972106613375
72.01127 279.012223774367
72.03139 266.005557862663
72.0515 259
72.07162 248.988722253971
72.09173 242.002210141269
72.11184 250.016866122352
72.13196 259.963301019944
72.15207 286.957369893598
72.17218 296.024518287388
72.1923 264
72.21241 296.009881730178
72.23253 285.978018040175
72.25264 273.946425856587
72.27275 247.97869804149
72.29287 286.952657867638
72.31298 289.01228040554
72.33309 281.998654616483
72.35321 291.003727029596
72.37332 288.988353349941
72.39344 273.97672418798
72.41355 280.078708917525
72.43366 305.043545854623
72.45378 258.010191098707
72.47389 289.991211287988
72.494 275
72.51412 280.992869362216
72.53423 260.993943926681
72.55434 270.987120789901
72.57446 257.958372934944
72.59457 307.94959356681
72.61469 297.01929437638
72.6348 262
72.65491 269.010406649991
72.67503 277.971350757075
72.69514 255.027370267365
72.71525 298.933210072361
72.73537 289.028897601369
72.75548 279.009297816352
72.7756 270
72.79571 285.014120920975
72.81582 305.994728400718
72.83594 283.979531366237
72.85605 285.040761841698
72.87616 264.962265779053
72.89628 314.97007418233
72.91639 302.014005080884
72.9365 290
72.95662 308.015768074718
72.97673 310.988014260108
72.99685 300.988150127895
73.01696 304.981948809722
73.03707 314.984406041659
73.05719 323.996946782613
73.0773 324
73.09741 318.003893996183
73.11753 329.992048941341
73.13764 311.990729844582
73.15776 327.964546841769
73.17787 332.010001113192
73.19798 327.991001400561
73.2181 351
73.23821 368.000569207694
73.25832 374.036809349058
73.27844 413.977890739643
73.29855 368.025841293789
73.31867 403.966086124759
73.33878 386.02622134796
73.35889 379.994679369182
73.37901 387.994779961561
73.39912 361.977335134342
73.41923 359.021937938858
73.43935 367.955172885982
73.45946 340.993171888431
73.47957 363.015678377233
73.49969 325.00452459454
73.5198 355
73.53992 354.004713827714
73.56003 374.022860422125
73.58014 366.945968996084
73.60026 340.016866686601
73.62037 343.015869736121
73.64048 322.002866877672
73.6606 327
73.68071 281.993411099491
73.70083 304.014956493229
73.72094 290.99989250343
73.74105 307.002144371333
73.76117 280.043916343966
73.78128 270.989516465977
73.80139 273.016813235588
73.82151 233.005374592614
73.84162 290.041544573255
73.86174 286.96810723336
73.88185 277.966130434447
73.90196 263.996834161708
73.92208 275.998648708647
73.94219 266.000484551881
73.9623 276
73.98242 266.993963698696
74.00253 260.96533258265
74.02264 247.077569556451
74.04276 296.055435146287
74.06287 218.022191524225
74.08299 279.980765400707
74.1031 258
74.12321 268.002269897435
74.14333 252.979848511102
74.16344 259.044944528344
74.18355 278.997445190157
74.20367 267.999761016601
74.22378 278.004722509518
74.2439 255
74.26401 253.005009709442
74.28412 257.988832968989
74.30424 242.003574682244
74.32435 260.96785932661
74.34446 259.999143273773
74.36458 266.996706077451
74.38469 264.999331298287
74.40481 267.997161081271
74.42492 256.997471663988
74.44503 266.014827547016
74.46515 261.944556181683
74.48526 238.0092140164
74.50537 257.956717150161
74.52549 271.006164835675
74.5456 249
74.56571 257.999408720196
74.58583 252.030034137217
74.60594 282.991756660878
74.62606 251.012717976765
74.64617 281.959919628412
74.66628 284.998933919144
74.6864 293
74.70651 276.983833088469
74.72662 244.984213181435
74.74674 245.000091314224
74.76685 243.968627928139
74.78697 268.968089128459
74.80708 270.019964476921
74.82719 250.997527525111
74.84731 263.991084228921
74.86742 232.009599666589
74.88753 282.050108970786
74.90765 264.887329239483
74.92776 234.986478769115
74.94787 271.941175271599
74.96799 283.010145008565
74.9881 259
75.00822 301.061064875317
