3.00117 20341
3.02128 19830
3.0414 19512
3.06151 18967
3.08162 18609
3.10174 17837
3.12185 17408
3.14197 16869
3.16208 16460
3.18219 16192
3.20231 15534
3.22242 15327
3.24253 14614
3.26265 14033
3.28276 13845
3.30288 13275
3.32299 12864
3.3431 12478
3.36322 11975
3.38333 12025
3.40344 11154
3.42356 10829
3.44367 10508
3.46379 10334
3.4839 10224
3.50401 9247
3.52413 9336
3.54424 8889
3.56435 8438
3.58447 8479
3.60458 7909
3.62469 7585
3.64481 7471
3.66492 6990
3.68504 6970
3.70515 6463
3.72526 6292
3.74538 6133
3.76549 5828
3.7856 5743
3.80572 5308
3.82583 4967
3.84595 4960
3.86606 4669
3.88617 4571
3.90629 4036
3.9264 4152
3.94651 4043
3.96663 3813
3.98674 3679
4.00686 3389
4.02697 3271
4.04708 3186
4.0672 3079
4.08731 3017
4.10742 2709
4.12754 2661
4.14765 2623
4.16776 2432
4.18788 2334
4.20799 2113
4.22811 2074
4.24822 2139
4.26833 2060
4.28845 2063
4.30856 1814
4.32867 1868
4.34879 1775
4.3689 1734
4.38902 1783
4.40913 1641
4.42924 1528
4.44936 1587
4.46947 1564
4.48958 1563
4.5097 1364
4.52981 1351
4.54992 1382
4.57004 1354
4.59015 1321
4.61027 1203
4.63038 1172
4.65049 1255
4.67061 1235
4.69072 1245
4.71083 1036
4.73095 1090
4.75106 1119
4.77118 1105
4.79129 1016
4.8114 935
4.83152 983
4.85163 941
4.87174 887
4.89186 942
4.91197 836
4.93209 856
4.9522 888
4.97231 859
4.99243 816
5.01254 769
5.03265 753
5.05277 772
5.07288 759
5.09299 704
5.11311 713
5.13322 696
5.15334 710
5.17345 670
5.19356 719
5.21368 663
5.23379 609
5.2539 669
5.27402 646
5.29413 575
5.31425 527
5.33436 538
5.35447 564
5.37459 600
5.3947 570
5.41481 516
5.43493 489
5.45504 484
5.47516 492
5.49527 485
5.51538 502
5.5355 420
5.55561 450
5.57572 477
5.59584 454
5.61595 447
5.63606 416
5.65618 444
5.67629 438
5.69641 384
5.71652 376
5.73663 377
5.75675 444
5.77686 398
5.79697 335
5.81709 380
5.8372 410
5.85732 392
5.87743 331
5.89754 398
5.91766 343
5.93777 331
5.95788 352
5.978 357
5.99811 338
6.01823 357
6.03834 338
6.05845 293
6.07857 326
6.09868 336
6.11879 346
6.13891 329
6.15902 306
6.17913 323
6.19925 301
6.21936 303
6.23948 326
6.25959 323
6.2797 323
6.29982 295
6.31993 307
6.34004 349
6.36016 279
6.38027 295
6.40039 294
6.4205 316
6.44061 285
6.46073 278
6.48084 316
6.50095 277
6.52107 286
6.54118 291
6.56129 282
6.58141 297
6.60152 315
6.62164 286
6.64175 274
6.66186 319
6.68198 299
6.70209 268
6.7222 231
6.74232 262
6.76243 266
6.78255 269
6.80266 237
6.82277 248
6.84289 233
6.863 242
6.88311 258
6.90323 260
6.92334 237
6.94346 253
6.96357 292
6.98368 247
7.0038 283
7.02391 268
7.04402 274
7.06414 229
7.08425 236
7.10436 284
7.12448 254
7.14459 255
7.16471 246
7.18482 271
7.20493 244
7.22505 275
7.24516 278
7.26527 247
7.28539 246
7.3055 296
7.32562 292
7.34573 261
7.36584 259
7.38596 237
7.40607 281
7.42618 250
7.4463 254
7.46641 276
7.48653 235
7.50664 241
7.52675 253
7.54687 262
7.56698 259
7.58709 259
7.60721 263
7.62732 264
7.64743 251
7.66755 261
7.68766 272
7.70778 253
7.72789 261
7.748 260
7.76812 241
7.78823 268
7.80834 247
7.82846 276
7.84857 269
7.86869 235
7.8888 277
7.90891 248
7.92903 249
7.94914 243
7.96925 236
7.98937 252
8.00948 245
8.0296 262
8.04971 273
8.06982 230
8.08994 260
8.11005 304
8.13016 288
8.15028 247
8.17039 250
8.1905 233
8.21062 255
8.23073 263
8.25085 219
8.27096 223
8.29107 270
8.31119 244
8.3313 282
8.35141 265
8.37153 245
8.39164 242
8.41176 256
8.43187 258
8.45198 263
8.4721 216
8.49221 290
8.51232 245
8.53244 256
8.55255 233
8.57266 258
8.59278 264
8.61289 240
8.63301 257
8.65312 252
8.67323 285
8.69335 261
8.71346 272
8.73357 239
8.75369 277
8.7738 264
8.79392 265
8.81403 270
8.83414 262
8.85426 252
8.87437 268
8.89448 284
8.9146 270
8.93471 279
8.95483 276
8.97494 217
8.99505 258
9.01517 243
9.03528 251
9.05539 280
9.07551 234
9.09562 280
9.11573 280
9.13585 261
9.15596 279
9.17608 251
9.19619 277
9.2163 254
9.23642 233
9.25653 249
9.27664 261
9.29676 251
9.31687 261
9.33699 265
9.3571 253
9.37721 270
9.39733 245
9.41744 280
9.43755 303
9.45767 270
9.47778 234
9.4979 274
9.51801 260
9.53812 250
9.55824 249
9.57835 254
9.59846 264
9.61858 257
9.63869 277
9.6588 259
9.67892 239
9.69903 237
9.71915 255
9.73926 276
9.75937 277
9.77949 247
9.7996 270
9.81971 247
9.83983 274
9.85994 254
9.88006 217
9.90017 259
9.92028 238
9.9404 251
9.96051 244
9.98062 275
10.00074 265
10.02085 272
10.04097 264
10.06108 281
10.08119 257
10.10131 275
10.12142 258
10.14153 252
10.16165 214
10.18176 262
10.20187 247
10.22199 234
10.2421 276
10.26222 249
10.28233 277
10.30244 233
10.32256 278
10.34267 298
10.36278 247
10.3829 246
10.40301 248
10.42313 264
10.44324 248
10.46335 261
10.48347 229
10.50358 258
10.52369 263
10.54381 266
10.56392 277
10.58403 257
10.60415 241
10.62426 253
10.64438 244
10.66449 272
10.6846 284
10.70472 286
10.72483 279
10.74494 258
10.76506 286
10.78517 270
10.80529 262
10.8254 277
10.84551 285
10.86563 267
10.88574 292
10.90585 286
10.92597 268
10.94608 231
10.9662 279
10.98631 266
11.00642 290
11.02654 256
11.04665 280
11.06676 279
11.08688 259
11.10699 287
11.1271 289
11.14722 282
11.16733 250
11.18745 275
11.20756 301
11.22767 279
11.24779 275
11.2679 270
11.28801 261
11.30813 296
11.32824 252
11.34836 285
11.36847 298
11.38858 276
11.4087 285
11.42881 268
11.44892 290
11.46904 314
11.48915 303
11.50927 293
11.52938 297
11.54949 295
11.56961 286
11.58972 303
11.60983 330
11.62995 380
11.65006 320
11.67017 335
11.69029 316
11.7104 342
11.73052 346
11.75063 345
11.77074 353
11.79086 352
11.81097 374
11.83108 364
11.8512 397
11.87131 385
11.89143 451
11.91154 445
11.93165 423
11.95177 470
11.97188 455
11.99199 475
12.01211 543
12.03222 563
12.05234 562
12.07245 595
12.09256 624
12.11268 686
12.13279 699
12.1529 778
12.17302 803
12.19313 834
12.21324 873
12.23336 903
12.25347 903
12.27359 960
12.2937 909
12.31381 842
12.33393 915
12.35404 824
12.37415 795
12.39427 754
12.41438 731
12.4345 716
12.45461 631
12.47472 587
12.49484 556
12.51495 559
12.53506 509
12.55518 463
12.57529 469
12.5954 454
12.61552 422
12.63563 391
12.65575 326
12.67586 379
12.69597 361
12.71609 363
12.7362 318
12.75631 276
12.77643 290
12.79654 288
12.81666 310
12.83677 261
12.85688 307
12.877 286
12.89711 295
12.91722 243
12.93734 263
12.95745 246
12.97757 257
12.99768 241
13.01779 263
13.03791 279
13.05802 249
13.07813 263
13.09825 236
13.11836 238
13.13847 228
13.15859 241
13.1787 234
13.19882 263
13.21893 260
13.23904 234
13.25916 212
13.27927 222
13.29938 266
13.3195 242
13.33961 248
13.35973 216
13.37984 238
13.39995 204
13.42007 234
13.44018 233
13.46029 261
13.48041 224
13.50052 200
13.52064 231
13.54075 206
13.56086 220
13.58098 229
13.60109 216
13.6212 223
13.64132 203
13.66143 220
13.68154 274
13.70166 216
13.72177 207
13.74189 227
13.762 233
13.78211 242
13.80223 204
13.82234 230
13.84245 224
13.86257 238
13.88268 234
13.9028 191
13.92291 217
13.94302 223
13.96314 247
13.98325 225
14.00336 223
14.02348 227
14.04359 199
14.06371 213
14.08382 195
14.10393 209
14.12405 211
14.14416 213
14.16427 205
14.18439 222
14.2045 176
14.22461 220
14.24473 224
14.26484 236
14.28496 208
14.30507 217
14.32518 210
14.3453 206
14.36541 215
14.38552 186
14.40564 250
14.42575 222
14.44587 202
14.46598 220
14.48609 221
14.50621 217
14.52632 190
14.54643 206
14.56655 248
14.58666 205
14.60677 197
14.62689 215
14.647 186
14.66712 208
14.68723 182
14.70734 211
14.72746 217
14.74757 181
14.76768 173
14.7878 189
14.80791 188
14.82803 202
14.84814 216
14.86825 176
14.88837 199
14.90848 199
14.92859 194
14.94871 207
14.96882 178
14.98894 197
15.00905 176
15.02916 202
15.04928 210
15.06939 199
15.0895 209
15.10962 187
15.12973 216
15.14984 182
15.16996 206
15.19007 204
15.21019 221
15.2303 201
15.25041 171
15.27053 156
15.29064 184
15.31075 182
15.33087 195
15.35098 193
15.3711 193
15.39121 185
15.41132 203
15.43144 194
15.45155 199
15.47166 191
15.49178 188
15.51189 192
15.53201 165
15.55212 172
15.57223 223
15.59235 206
15.61246 193
15.63257 170
15.65269 179
15.6728 186
15.69291 196
15.71303 187
15.73314 198
15.75326 176
15.77337 169
15.79348 182
15.8136 169
15.83371 212
15.85382 218
15.87394 171
15.89405 191
15.91417 181
15.93428 171
15.95439 195
15.97451 190
15.99462 176
16.01473 203
16.03485 188
16.05496 202
16.07508 164
16.09519 203
16.1153 199
16.13542 201
16.15553 192
16.17564 190
16.19576 179
16.21587 189
16.23598 202
16.2561 174
16.27621 184
16.29633 199
16.31644 209
16.33655 207
16.35667 179
16.37678 156
16.39689 194
16.41701 184
16.43712 181
16.45724 211
16.47735 182
16.49746 172
16.51758 188
16.53769 188
16.5578 207
16.57792 169
16.59803 203
16.61814 198
16.63826 166
16.65837 192
16.67849 171
16.6986 186
16.71871 160
16.73883 173
16.75894 153
16.77905 155
16.79917 203
16.81928 201
16.8394 214
16.85951 188
16.87962 180
16.89974 216
16.91985 192
16.93996 170
16.96008 182
16.98019 180
17.00031 171
17.02042 200
17.04053 212
17.06065 182
17.08076 186
17.10087 189
17.12099 184
17.1411 200
17.16121 183
17.18133 190
17.20144 168
17.22156 201
17.24167 184
17.26178 194
17.2819 180
17.30201 176
17.32212 189
17.34224 198
17.36235 200
17.38247 203
17.40258 195
17.42269 194
17.44281 172
17.46292 201
17.48303 175
17.50315 199
17.52326 179
17.54338 195
17.56349 199
17.5836 173
17.60372 211
17.62383 164
17.64394 172
17.66406 184
17.68417 188
17.70428 193
17.7244 184
17.74451 223
17.76463 187
17.78474 185
17.80485 203
17.82497 186
17.84508 207
17.86519 196
17.88531 200
17.90542 180
17.92554 200
17.94565 184
17.96576 175
17.98588 190
18.00599 157
18.0261 169
18.04622 206
18.06633 209
18.08645 191
18.10656 206
18.12667 206
18.14679 190
18.1669 186
18.18701 200
18.20713 217
18.22724 183
18.24735 210
18.26747 204
18.28758 226
18.3077 179
18.32781 207
18.34792 227
18.36804 171
18.38815 178
18.40826 207
18.42838 191
18.44849 196
18.46861 216
18.48872 217
18.50883 204
18.52895 197
18.54906 200
18.56917 209
18.58929 182
18.6094 184
18.62951 217
18.64963 172
18.66974 213
18.68986 196
18.70997 223
18.73008 207
18.7502 192
18.77031 207
18.79042 219
18.81054 193
18.83065 200
18.85077 177
18.87088 204
18.89099 209
18.91111 184
18.93122 187
18.95133 228
18.97145 194
18.99156 191
19.01168 214
19.03179 184
19.0519 203
19.07202 177
19.09213 186
19.11224 194
19.13236 241
19.15247 231
19.17258 225
19.1927 202
19.21281 233
19.23293 224
19.25304 215
19.27315 219
19.29327 236
19.31338 230
19.33349 201
19.35361 226
19.37372 233
19.39384 245
19.41395 228
19.43406 238
19.45418 248
19.47429 271
19.4944 245
19.51452 252
19.53463 308
19.55475 307
19.57486 301
19.59497 329
19.61509 333
19.6352 378
19.65531 399
19.67543 454
19.69554 473
19.71565 509
19.73577 588
19.75588 655
19.776 655
19.79611 716
19.81622 754
19.83634 759
19.85645 776
19.87656 734
19.89668 756
19.91679 791
19.93691 763
19.95702 724
19.97713 743
19.99725 695
20.01736 659
20.03747 659
20.05759 702
20.0777 616
20.09782 643
20.11793 641
20.13804 643
20.15816 609
20.17827 639
20.19838 591
20.2185 639
20.23861 622
20.25872 629
20.27884 623
20.29895 596
20.31907 665
20.33918 674
20.35929 638
20.37941 656
20.39952 661
20.41963 702
20.43975 739
20.45986 702
20.47998 654
20.50009 728
20.5202 788
20.54032 732
20.56043 786
20.58054 804
20.60066 905
20.62077 1027
20.64088 1275
20.661 1447
20.68111 1744
20.70123 2264
20.72134 2858
20.74145 3804
20.76157 4715
20.78168 5475
20.80179 6027
20.82191 5943
20.84202 5286
20.86214 4468
20.88225 3268
20.90236 2391
20.92248 1640
20.94259 1165
20.9627 946
20.98282 731
21.00293 714
21.02305 689
21.04316 671
21.06327 626
21.08339 570
21.1035 618
21.12361 616
21.14373 537
21.16384 524
21.18395 528
21.20407 533
21.22418 584
21.2443 572
21.26441 539
21.28452 481
21.30464 482
21.32475 510
21.34486 491
21.36498 553
21.38509 542
21.40521 479
21.42532 497
21.44543 504
21.46555 439
21.48566 520
21.50577 452
21.52589 463
21.546 463
21.56612 483
21.58623 460
21.60634 451
21.62646 466
21.64657 464
21.66668 474
21.6868 462
21.70691 464
21.72702 427
21.74714 450
21.76725 381
21.78737 436
21.80748 436
21.82759 414
21.84771 417
21.86782 396
21.88793 444
21.90805 420
21.92816 414
21.94828 410
21.96839 391
21.9885 402
22.00862 418
22.02873 410
22.04884 365
22.06896 380
22.08907 372
22.10919 383
22.1293 363
22.14941 369
22.16953 374
22.18964 395
22.20975 407
22.22987 369
22.24998 411
22.27009 355
22.29021 393
22.31032 432
22.33044 376
22.35055 363
22.37066 367
22.39078 359
22.41089 345
22.431 342
22.45112 314
22.47123 363
22.49135 380
22.51146 341
22.53157 385
22.55169 364
22.5718 331
22.59191 352
22.61203 338
22.63214 371
22.65225 318
22.67237 332
22.69248 363
22.7126 346
22.73271 337
22.75282 319
22.77294 326
22.79305 356
22.81316 350
22.83328 359
22.85339 358
22.87351 347
22.89362 372
22.91373 348
22.93385 336
22.95396 332
22.97407 345
22.99419 363
23.0143 370
23.03442 337
23.05453 345
23.07464 322
23.09476 304
23.11487 326
23.13498 335
23.1551 303
23.17521 327
23.19532 318
23.21544 330
23.23555 317
23.25567 325
23.27578 278
23.29589 302
23.31601 310
23.33612 308
23.35623 314
23.37635 318
23.39646 297
23.41658 296
23.43669 283
23.4568 348
23.47692 334
23.49703 310
23.51714 313
23.53726 341
23.55737 289
23.57749 312
23.5976 319
23.61771 304
23.63783 316
23.65794 314
23.67805 316
23.69817 346
23.71828 318
23.73839 355
23.75851 342
23.77862 330
23.79874 345
23.81885 325
23.83896 346
23.85908 375
23.87919 371
23.8993 377
23.91942 386
23.93953 380
23.95965 389
23.97976 358
23.99987 363
24.01999 347
24.0401 357
24.06021 343
24.08033 340
24.10044 299
24.12056 296
24.14067 311
24.16078 314
24.1809 351
24.20101 352
24.22112 373
24.24124 366
24.26135 334
24.28146 335
24.30158 342
24.32169 361
24.34181 359
24.36192 400
24.38203 378
24.40215 380
24.42226 381
24.44237 438
24.46249 409
24.4826 427
24.50272 444
24.52283 443
24.54294 462
24.56306 450
24.58317 498
24.60328 541
24.6234 560
24.64351 562
24.66362 580
24.68374 624
24.70385 648
24.72397 659
24.74408 696
24.76419 677
24.78431 715
24.80442 743
24.82453 738
24.84465 768
24.86476 782
24.88488 719
24.90499 712
24.9251 723
24.94522 662
24.96533 666
24.98544 602
25.00556 555
25.02567 617
25.04579 599
25.0659 488
25.08601 507
25.10613 519
25.12624 519
25.14635 512
25.16647 564
25.18658 552
25.20669 521
25.22681 580
25.24692 497
25.26704 489
25.28715 447
25.30726 464
25.32738 493
25.34749 440
25.3676 422
25.38772 420
25.40783 401
25.42795 407
25.44806 375
25.46817 387
25.48829 389
25.5084 414
25.52851 386
25.54863 426
25.56874 408
25.58886 447
25.60897 399
25.62908 405
25.6492 443
25.66931 472
25.68942 450
25.70954 496
25.72965 485
25.74976 457
25.76988 479
25.78999 499
25.81011 511
25.83022 523
25.85033 502
25.87045 515
25.89056 537
25.91067 546
25.93079 529
25.9509 519
25.97102 524
25.99113 561
26.01124 598
26.03136 614
26.05147 596
26.07158 677
26.0917 704
26.11181 697
26.13193 729
26.15204 863
26.17215 897
26.19227 962
26.21238 991
26.23249 1027
26.25261 1160
26.27272 1305
26.29283 1400
26.31295 1548
26.33306 1730
26.35318 1983
26.37329 2486
26.3934 3321
26.41352 3960
26.43363 5174
26.45374 6667
26.47386 8992
26.49397 11986
26.51409 15596
26.5342 19514
26.55431 23419
26.57443 26294
26.59454 26060
26.61465 24364
26.63477 20564
26.65488 16314
26.67499 12010
26.69511 8283
26.71522 5578
26.73534 3555
26.75545 2283
26.77556 1720
26.79568 1468
26.81579 1322
26.8359 1165
26.85602 1034
26.87613 1001
26.89625 945
26.91636 865
26.93647 779
26.95659 770
26.9767 709
26.99681 569
27.01693 595
27.03704 548
27.05716 495
27.07727 526
27.09738 494
27.1175 500
27.13761 464
27.15772 478
27.17784 435
27.19795 433
27.21806 407
27.23818 461
27.25829 385
27.27841 421
27.29852 463
27.31863 424
27.33875 411
27.35886 385
27.37897 419
27.39909 443
27.4192 431
27.43932 393
27.45943 419
27.47954 383
27.49966 368
27.51977 357
27.53988 401
27.56 375
27.58011 342
27.60023 337
27.62034 357
27.64045 347
27.66057 331
27.68068 349
27.70079 345
27.72091 327
27.74102 355
27.76113 348
27.78125 301
27.80136 313
27.82148 344
27.84159 331
27.8617 305
27.88182 348
27.90193 350
27.92204 333
27.94216 312
27.96227 298
27.98239 337
28.0025 332
28.02261 291
28.04273 309
28.06284 314
28.08295 318
28.10307 309
28.12318 315
28.1433 289
28.16341 305
28.18352 296
28.20364 311
28.22375 274
28.24386 270
28.26398 306
28.28409 281
28.3042 282
28.32432 282
28.34443 276
28.36455 270
28.38466 322
28.40477 276
28.42489 261
28.445 270
28.46511 280
28.48523 301
28.50534 269
28.52546 303
28.54557 269
28.56568 251
28.5858 261
28.60591 259
28.62602 271
28.64614 270
28.66625 238
28.68636 281
28.70648 269
28.72659 245
28.74671 283
28.76682 254
28.78693 268
28.80705 235
28.82716 251
28.84727 254
28.86739 239
28.8875 255
28.90762 269
28.92773 246
28.94784 271
28.96796 290
28.98807 248
29.00818 246
29.0283 262
29.04841 248
29.06853 271
29.08864 258
29.10875 250
29.12887 281
29.14898 249
29.16909 254
29.18921 255
29.20932 234
29.22943 250
29.24955 253
29.26966 225
29.28978 246
29.30989 245
29.33 251
29.35012 240
29.37023 267
29.39034 243
29.41046 247
29.43057 223
29.45069 241
29.4708 237
29.49091 245
29.51103 254
29.53114 242
29.55125 256
29.57137 250
29.59148 234
29.6116 268
29.63171 279
29.65182 257
29.67194 271
29.69205 234
29.71216 269
29.73228 253
29.75239 237
29.7725 249
29.79262 254
29.81273 245
29.83285 258
29.85296 271
29.87307 224
29.89319 244
29.9133 238
29.93341 269
29.95353 244
29.97364 226
29.99376 241
30.01387 278
30.03398 248
30.0541 253
30.07421 233
30.09432 243
30.11444 217
30.13455 261
30.15467 249
30.17478 234
30.19489 235
30.21501 210
30.23512 205
30.25523 225
30.27535 237
30.29546 249
30.31557 239
30.33569 228
30.3558 226
30.37592 242
30.39603 224
30.41614 226
30.43626 223
30.45637 237
30.47648 232
30.4966 209
30.51671 248
30.53683 215
30.55694 217
30.57705 235
30.59717 179
30.61728 254
30.63739 259
30.65751 231
30.67762 222
30.69773 232
30.71785 227
30.73796 223
30.75808 228
30.77819 237
30.7983 223
30.81842 213
30.83853 220
30.85864 239
30.87876 225
30.89887 253
30.91899 207
30.9391 206
30.95921 211
30.97933 260
30.99944 192
31.01955 209
31.03967 231
31.05978 202
31.0799 237
31.10001 243
31.12012 243
31.14024 263
31.16035 250
31.18046 266
31.20058 229
31.22069 230
31.2408 228
31.26092 228
31.28103 221
31.30115 201
31.32126 219
31.34137 246
31.36149 214
31.3816 166
31.40171 213
31.42183 231
31.44194 223
31.46206 234
31.48217 214
31.50228 230
31.5224 224
31.54251 220
31.56262 214
31.58274 202
31.60285 194
31.62297 224
31.64308 214
31.66319 206
31.68331 237
31.70342 248
31.72353 203
31.74365 206
31.76376 207
31.78387 205
31.80399 227
31.8241 170
31.84422 212
31.86433 210
31.88444 203
31.90456 217
31.92467 257
31.94478 209
31.9649 253
31.98501 204
32.00513 190
32.02524 203
32.04535 188
32.06547 240
32.08558 231
32.10569 191
32.12581 224
32.14592 210
32.16604 199
32.18615 210
32.20626 217
32.22638 190
32.24649 195
32.2666 214
32.28672 213
32.30683 239
32.32694 181
32.34706 213
32.36717 191
32.38729 189
32.4074 184
32.42751 187
32.44763 205
32.46774 218
32.48785 218
32.50797 206
32.52808 223
32.5482 217
32.56831 205
32.58842 210
32.60854 206
32.62865 235
32.64876 242
32.66888 211
32.68899 212
32.7091 201
32.72922 217
32.74933 167
32.76945 216
32.78956 208
32.80967 219
32.82979 203
32.8499 196
32.87001 190
32.89013 203
32.91024 184
32.93036 162
32.95047 182
32.97058 210
32.9907 178
33.01081 200
33.03092 168
33.05104 203
33.07115 185
33.09127 189
33.11138 199
33.13149 197
33.15161 190
33.17172 210
33.19183 190
33.21195 172
33.23206 200
33.25217 179
33.27229 183
33.2924 196
33.31252 201
33.33263 176
33.35274 196
33.37286 252
33.39297 193
33.41308 214
33.4332 166
33.45331 220
33.47343 188
33.49354 197
33.51365 181
33.53377 190
33.55388 191
33.57399 206
33.59411 171
33.61422 198
33.63434 169
33.65445 171
33.67456 193
33.69468 188
33.71479 198
33.7349 194
33.75502 185
33.77513 200
33.79524 204
33.81536 189
33.83547 161
33.85559 158
33.8757 178
33.89581 186
33.91593 190
33.93604 201
33.95615 195
33.97627 197
33.99638 179
34.0165 181
34.03661 186
34.05672 199
34.07684 194
34.09695 179
34.11706 189
34.13718 172
34.15729 179
34.17741 210
34.19752 194
34.21763 188
34.23775 184
34.25786 180
34.27797 187
34.29809 179
34.3182 195
34.33831 201
34.35843 209
34.37854 178
34.39866 251
34.41877 266
34.43888 243
34.459 236
34.47911 218
34.49922 266
34.51934 256
34.53945 269
34.55957 263
34.57968 292
34.59979 300
34.61991 272
34.64002 317
34.66013 315
34.68025 313
34.70036 318
34.72047 334
34.74059 360
34.7607 403
34.78082 419
34.80093 412
34.82104 453
34.84116 446
34.86127 462
34.88138 428
34.9015 489
34.92161 472
34.94173 439
34.96184 447
34.98195 451
35.00207 448
35.02218 385
35.04229 394
35.06241 404
35.08252 360
35.10264 345
35.12275 318
35.14286 347
35.16298 352
35.18309 331
35.2032 325
35.22332 365
35.24343 362
35.26354 335
35.28366 302
35.30377 345
35.32389 329
35.344 329
35.36411 322
35.38423 364
35.40434 380
35.42445 371
35.44457 356
35.46468 335
35.4848 376
35.50491 402
35.52502 392
35.54514 387
35.56525 344
35.58536 370
35.60548 350
35.62559 350
35.64571 375
35.66582 362
35.68593 375
35.70605 367
35.72616 375
35.74627 372
35.76639 390
35.7865 402
35.80661 415
35.82673 417
35.84684 420
35.86696 417
35.88707 428
35.90718 423
35.9273 439
35.94741 410
35.96752 404
35.98764 388
36.00775 406
36.02787 384
36.04798 376
36.06809 375
36.08821 374
36.10832 380
36.12843 371
36.14855 384
36.16866 324
36.18878 398
36.20889 392
36.229 444
36.24912 452
36.26923 485
36.28934 567
36.30946 610
36.32957 704
36.34968 804
36.3698 959
36.38991 1102
36.41003 1295
36.43014 1532
36.45025 1720
36.47037 1899
36.49048 1807
36.51059 1842
36.53071 1641
36.55082 1402
36.57094 1157
36.59105 995
36.61116 866
36.63128 700
36.65139 474
36.6715 410
36.69162 379
36.71173 345
36.73184 314
36.75196 339
36.77207 335
36.79219 291
36.8123 309
36.83241 336
36.85253 316
36.87264 312
36.89275 272
36.91287 293
36.93298 297
36.9531 311
36.97321 272
36.99332 266
37.01344 297
37.03355 306
37.05366 276
37.07378 263
37.09389 276
37.11401 277
37.13412 290
37.15423 289
37.17435 274
37.19446 276
37.21457 270
37.23469 267
37.2548 258
37.27491 261
37.29503 289
37.31514 317
37.33526 319
37.35537 278
37.37548 311
37.3956 299
37.41571 326
37.43582 304
37.45594 321
37.47605 340
37.49617 281
37.51628 326
37.53639 299
37.55651 319
37.57662 351
37.59673 363
37.61685 361
37.63696 349
37.65708 336
37.67719 317
37.6973 339
37.71742 382
37.73753 317
37.75764 345
37.77776 333
37.79787 367
37.81798 323
37.8381 338
37.85821 381
37.87833 370
37.89844 336
37.91855 342
37.93867 356
37.95878 315
37.97889 324
37.99901 318
38.01912 343
38.03924 337
38.05935 378
38.07946 381
38.09958 363
38.11969 356
38.1398 395
38.15992 364
38.18003 419
38.20015 432
38.22026 460
38.24037 411
38.26049 424
38.2806 455
38.30071 454
38.32083 436
38.34094 431
38.36105 394
38.38117 445
38.40128 480
38.4214 450
38.44151 446
38.46162 397
38.48174 455
38.50185 427
38.52196 418
38.54208 401
38.56219 415
38.58231 389
38.60242 370
38.62253 390
38.64265 383
38.66276 383
38.68287 345
38.70299 388
38.7231 322
38.74321 378
38.76333 359
38.78344 363
38.80356 356
38.82367 356
38.84378 332
38.8639 363
38.88401 337
38.90412 387
38.92424 365
38.94435 339
38.96447 384
38.98458 345
39.00469 419
39.02481 360
39.04492 350
39.06503 420
39.08515 408
39.10526 439
39.12538 468
39.14549 433
39.1656 492
39.18572 502
39.20583 558
39.22594 587
39.24606 675
39.26617 740
39.28628 884
39.3064 999
39.32651 1273
39.34663 1397
39.36674 1657
39.38685 1703
39.40697 1672
39.42708 1738
39.44719 1444
39.46731 1363
39.48742 1119
39.50754 1020
39.52765 911
39.54776 748
39.56788 543
39.58799 451
39.6081 392
39.62822 350
39.64833 295
39.66845 330
39.68856 279
39.70867 287
39.72879 290
39.7489 267
39.76901 220
39.78913 261
39.80924 240
39.82935 298
39.84947 257
39.86958 263
39.8897 275
39.90981 268
39.92992 318
39.95004 302
39.97015 347
39.99026 325
40.01038 324
40.03049 372
40.05061 391
40.07072 431
40.09083 468
40.11095 563
40.13106 654
40.15117 711
40.17129 792
40.1914 887
40.21152 950
40.23163 927
40.25174 981
40.27186 816
40.29197 750
40.31208 694
40.3322 602
40.35231 519
40.37242 451
40.39254 403
40.41265 308
40.43277 275
40.45288 279
40.47299 265
40.49311 238
40.51322 237
40.53333 279
40.55345 216
40.57356 243
40.59368 231
40.61379 240
40.6339 235
40.65402 221
40.67413 208
40.69424 239
40.71436 242
40.73447 227
40.75458 233
40.7747 235
40.79481 225
40.81493 227
40.83504 227
40.85515 231
40.87527 247
40.89538 234
40.91549 232
40.93561 234
40.95572 261
40.97584 229
40.99595 209
41.01606 227
41.03618 229
41.05629 242
41.0764 225
41.09652 217
41.11663 243
41.13675 256
41.15686 233
41.17697 232
41.19709 251
41.2172 252
41.23731 236
41.25743 206
41.27754 238
41.29765 261
41.31777 267
41.33788 232
41.358 215
41.37811 230
41.39822 233
41.41834 205
41.43845 215
41.45856 220
41.47868 195
41.49879 223
41.51891 260
41.53902 201
41.55913 220
41.57925 221
41.59936 216
41.61947 183
41.63959 217
41.6597 215
41.67982 209
41.69993 186
41.72004 215
41.74016 204
41.76027 224
41.78038 244
41.8005 226
41.82061 212
41.84072 214
41.86084 235
41.88095 241
41.90107 209
41.92118 237
41.94129 235
41.96141 237
41.98152 250
42.00163 238
42.02175 240
42.04186 260
42.06198 269
42.08209 268
42.1022 268
42.12232 286
42.14243 310
42.16254 317
42.18266 384
42.20277 446
42.22289 507
42.243 523
42.26311 638
42.28323 736
42.30334 873
42.32345 972
42.34357 1110
42.36368 1207
42.38379 1320
42.40391 1200
42.42402 1072
42.44414 985
42.46425 848
42.48436 773
42.50448 703
42.52459 596
42.5447 515
42.56482 360
42.58493 315
42.60505 287
42.62516 256
42.64527 236
42.66539 260
42.6855 215
42.70561 200
42.72573 214
42.74584 224
42.76595 218
42.78607 213
42.80618 214
42.8263 195
42.84641 196
42.86652 221
42.88664 210
42.90675 180
42.92686 204
42.94698 178
42.96709 182
42.98721 189
43.00732 190
43.02743 185
43.04755 162
43.06766 195
43.08777 212
43.10789 181
43.128 171
43.14812 189
43.16823 233
43.18834 210
43.20846 194
43.22857 182
43.24868 183
43.2688 191
43.28891 195
43.30902 206
43.32914 177
43.34925 199
43.36937 185
43.38948 204
43.40959 163
43.42971 200
43.44982 199
43.46993 182
43.49005 187
43.51016 205
43.53028 162
43.55039 193
43.5705 194
43.59062 194
43.61073 181
43.63084 186
43.65096 193
43.67107 180
43.69119 195
43.7113 188
43.73141 189
43.75153 214
43.77164 183
43.79175 191
43.81187 194
43.83198 183
43.85209 185
43.87221 195
43.89232 176
43.91244 199
43.93255 174
43.95266 193
43.97278 189
43.99289 179
44.013 192
44.03312 187
44.05323 175
44.07335 183
44.09346 199
44.11357 173
44.13369 184
44.1538 183
44.17391 190
44.19403 190
44.21414 195
44.23426 198
44.25437 183
44.27448 196
44.2946 161
44.31471 213
44.33482 169
44.35494 194
44.37505 205
44.39516 181
44.41528 162
44.43539 192
44.45551 181
44.47562 175
44.49573 192
44.51585 175
44.53596 188
44.55607 180
44.57619 189
44.5963 206
44.61642 197
44.63653 204
44.65664 205
44.67676 185
44.69687 203
44.71698 208
44.7371 206
44.75721 200
44.77732 227
44.79744 185
44.81755 198
44.83767 179
44.85778 179
44.87789 214
44.89801 199
44.91812 210
44.93823 193
44.95835 188
44.97846 195
44.99858 208
45.01869 217
45.0388 227
45.05892 199
45.07903 225
45.09914 202
45.11926 221
45.13937 232
45.15949 213
45.1796 224
45.19971 233
45.21983 232
45.23994 235
45.26005 249
45.28017 272
45.30028 239
45.32039 231
45.34051 251
45.36062 265
45.38074 298
45.40085 262
45.42096 294
45.44108 288
45.46119 284
45.4813 302
45.50142 325
45.52153 378
45.54165 409
45.56176 429
45.58187 485
45.60199 523
45.6221 595
45.64221 626
45.66233 773
45.68244 773
45.70256 853
45.72267 888
45.74278 914
45.7629 842
45.78301 776
45.80312 653
45.82324 649
45.84335 536
45.86346 505
45.88358 472
45.90369 409
45.92381 344
45.94392 279
45.96403 297
45.98415 242
46.00426 227
46.02437 238
46.04449 228
46.0646 234
46.08472 236
46.10483 200
46.12494 218
46.14506 216
46.16517 228
46.18528 222
46.2054 203
46.22551 231
46.24563 219
46.26574 236
46.28585 213
46.30597 217
46.32608 207
46.34619 231
46.36631 218
46.38642 209
46.40653 203
46.42665 190
46.44676 221
46.46688 205
46.48699 199
46.5071 208
46.52722 217
46.54733 200
46.56744 185
46.58756 182
46.60767 211
46.62779 205
46.6479 224
46.66801 215
46.68813 175
46.70824 209
46.72835 215
46.74847 223
46.76858 183
46.78869 188
46.80881 192
46.82892 212
46.84904 208
46.86915 203
46.88926 173
46.90938 184
46.92949 200
46.9496 201
46.96972 203
46.98983 204
47.00995 208
47.03006 213
47.05017 167
47.07029 199
47.0904 199
47.11051 190
47.13063 195
47.15074 167
47.17086 197
47.19097 187
47.21108 204
47.2312 219
47.25131 204
47.27142 187
47.29154 194
47.31165 190
47.33176 186
47.35188 193
47.37199 219
47.39211 214
47.41222 199
47.43233 200
47.45245 199
47.47256 200
47.49267 201
47.51279 194
47.5329 186
47.55302 188
47.57313 193
47.59324 188
47.61336 198
47.63347 175
47.65358 198
47.6737 189
47.69381 166
47.71393 198
47.73404 203
47.75415 202
47.77427 217
47.79438 220
47.81449 193
47.83461 224
47.85472 228
47.87483 208
47.89495 210
47.91506 208
47.93518 222
47.95529 212
47.9754 207
47.99552 222
48.01563 203
48.03574 204
48.05586 196
48.07597 183
48.09609 184
48.1162 190
48.13631 205
48.15643 198
48.17654 193
48.19665 182
48.21677 206
48.23688 162
48.257 209
48.27711 216
48.29722 190
48.31734 174
48.33745 191
48.35756 199
48.37768 199
48.39779 163
48.4179 205
48.43802 197
48.45813 166
48.47825 208
48.49836 176
48.51847 179
48.53859 194
48.5587 199
48.57881 168
48.59893 196
48.61904 193
48.63916 200
48.65927 206
48.67938 195
48.6995 195
48.71961 212
48.73972 196
48.75984 187
48.77995 195
48.80006 191
48.82018 193
48.84029 187
48.86041 183
48.88052 185
48.90063 175
48.92075 158
48.94086 192
48.96097 198
48.98109 215
49.0012 199
49.02132 188
49.04143 201
49.06154 210
49.08166 216
49.10177 221
49.12188 201
49.142 193
49.16211 172
49.18223 212
49.20234 196
49.22245 207
49.24257 192
49.26268 196
49.28279 216
49.30291 192
49.32302 187
49.34313 202
49.36325 205
49.38336 217
49.40348 179
49.42359 213
49.4437 192
49.46382 215
49.48393 234
49.50404 258
49.52416 209
49.54427 250
49.56439 211
49.5845 253
49.60461 264
49.62473 257
49.64484 273
49.66495 296
49.68507 297
49.70518 323
49.7253 340
49.74541 356
49.76552 374
49.78564 386
49.80575 478
49.82586 522
49.84598 600
49.86609 674
49.8862 709
49.90632 831
49.92643 998
49.94655 1322
49.96666 1513
49.98677 1765
50.00689 2054
50.027 2370
50.04711 2587
50.06723 2743
50.08734 2650
50.10746 2287
50.12757 2009
50.14768 1616
50.1678 1640
50.18791 1513
50.20802 1387
50.22814 1236
50.24825 1010
50.26837 716
50.28848 560
50.30859 418
50.32871 367
50.34882 340
50.36893 305
50.38905 274
50.40916 286
50.42927 267
50.44939 242
50.4695 266
50.48962 267
50.50973 270
50.52984 275
50.54996 276
50.57007 262
50.59018 261
50.6103 253
50.63041 219
50.65053 228
50.67064 224
50.69075 252
50.71087 243
50.73098 224
50.75109 206
50.77121 205
50.79132 193
50.81143 211
50.83155 243
50.85166 208
50.87178 183
50.89189 173
50.912 197
50.93212 178
50.95223 191
50.97234 222
50.99246 199
51.01257 202
51.03269 199
51.0528 199
51.07291 185
51.09303 166
51.11314 177
51.13325 209
51.15337 173
51.17348 182
51.1936 176
51.21371 195
51.23382 184
51.25394 181
51.27405 172
51.29416 161
51.31428 194
51.33439 160
51.3545 156
51.37462 171
51.39473 148
51.41485 161
51.43496 157
51.45507 182
51.47519 165
51.4953 176
51.51541 157
51.53553 158
51.55564 179
51.57576 193
51.59587 175
51.61598 167
51.6361 178
51.65621 156
51.67632 177
51.69644 181
51.71655 150
51.73667 162
51.75678 168
51.77689 159
51.79701 142
51.81712 142
51.83723 154
51.85735 139
51.87746 148
51.89757 154
51.91769 168
51.9378 166
51.95792 156
51.97803 146
51.99814 147
52.01826 151
52.03837 157
52.05848 186
52.0786 176
52.09871 161
52.11883 159
52.13894 186
52.15905 156
52.17917 147
52.19928 142
52.21939 178
52.23951 160
52.25962 163
52.27974 164
52.29985 150
52.31996 186
52.34008 138
52.36019 176
52.3803 159
52.40042 157
52.42053 142
52.44064 140
52.46076 160
52.48087 145
52.50099 170
52.5211 159
52.54121 163
52.56133 164
52.58144 154
52.60155 163
52.62167 169
52.64178 166
52.6619 147
52.68201 154
52.70212 175
52.72224 161
52.74235 182
52.76246 197
52.78258 138
52.80269 137
52.8228 168
52.84292 172
52.86303 159
52.88315 160
52.90326 172
52.92337 149
52.94349 200
52.9636 181
52.98371 176
53.00383 166
53.02394 180
53.04406 182
53.06417 161
53.08428 183
53.1044 207
53.12451 154
53.14462 200
53.16474 152
53.18485 188
53.20497 185
53.22508 178
53.24519 209
53.26531 156
53.28542 173
53.30553 168
53.32565 178
53.34576 193
53.36587 180
53.38599 172
53.4061 182
53.42622 175
53.44633 180
53.46644 176
53.48656 170
53.50667 182
53.52678 190
53.5469 170
53.56701 176
53.58713 191
53.60724 194
53.62735 196
53.64747 197
53.66758 158
53.68769 204
53.70781 214
53.72792 218
53.74804 208
53.76815 211
53.78826 188
53.80838 215
53.82849 196
53.8486 229
53.86872 224
53.88883 230
53.90894 216
53.92906 190
53.94917 213
53.96929 230
53.9894 222
54.00951 246
54.02963 225
54.04974 249
54.06985 244
54.08997 219
54.11008 231
54.1302 249
54.15031 246
54.17042 262
54.19054 261
54.21065 270
54.23076 287
54.25088 263
54.27099 257
54.29111 277
54.31122 266
54.33133 251
54.35145 298
54.37156 265
54.39167 301
54.41179 294
54.4319 325
54.45201 297
54.47213 292
54.49224 294
54.51236 309
54.53247 330
54.55258 351
54.5727 341
54.59281 367
54.61292 422
54.63304 448
54.65315 450
54.67327 525
54.69338 588
54.71349 655
54.73361 794
54.75372 851
54.77383 868
54.79395 953
54.81406 975
54.83417 863
54.85429 736
54.8744 681
54.89452 615
54.91463 694
54.93474 603
54.95486 636
54.97497 592
54.99508 586
55.0152 469
55.03531 414
55.05543 419
55.07554 411
55.09565 418
55.11577 445
55.13588 453
55.15599 445
55.17611 467
55.19622 526
55.21634 518
55.23645 569
55.25656 586
55.27668 539
55.29679 551
55.3169 483
55.33702 469
55.35713 428
55.37724 400
55.39736 401
55.41747 412
55.43759 376
55.4577 361
55.47781 318
55.49793 298
55.51804 271
55.53815 266
55.55827 229
55.57838 261
55.5985 225
55.61861 248
55.63872 228
55.65884 246
55.67895 223
55.69906 237
55.71918 257
55.73929 223
55.75941 235
55.77952 235
55.79963 233
55.81975 249
55.83986 244
55.85997 223
55.88009 228
55.9002 244
55.92031 216
55.94043 229
55.96054 232
55.98066 214
56.00077 218
56.02088 212
56.041 230
56.06111 185
56.08122 189
56.10134 217
56.12145 233
56.14157 212
56.16168 194
56.18179 224
56.20191 219
56.22202 227
56.24213 220
56.26225 218
56.28236 212
56.30248 194
56.32259 227
56.3427 225
56.36282 195
56.38293 217
56.40304 224
56.42316 203
56.44327 221
56.46338 214
56.4835 223
56.50361 216
56.52373 206
56.54384 214
56.56395 231
56.58407 222
56.60418 228
56.62429 222
56.64441 220
56.66452 201
56.68464 210
56.70475 193
56.72486 230
56.74498 201
56.76509 194
56.7852 215
56.80532 187
56.82543 179
56.84554 239
56.86566 218
56.88577 194
56.90589 193
56.926 195
56.94611 190
56.96623 180
56.98634 190
57.00645 218
57.02657 213
57.04668 204
57.0668 218
57.08691 212
57.10702 206
57.12714 225
57.14725 217
57.16736 233
57.18748 203
57.20759 214
57.22771 223
57.24782 213
57.26793 202
57.28805 186
57.30816 186
57.32827 214
57.34839 167
57.3685 171
57.38861 199
57.40873 196
57.42884 168
57.44896 200
57.46907 179
57.48918 201
57.5093 184
57.52941 178
57.54952 189
57.56964 196
57.58975 177
57.60987 205
57.62998 163
57.65009 188
57.67021 178
57.69032 192
57.71043 156
57.73055 173
57.75066 191
57.77078 170
57.79089 171
57.811 185
57.83112 183
57.85123 175
57.87134 169
57.89146 164
57.91157 197
57.93168 168
57.9518 210
57.97191 182
57.99203 196
58.01214 176
58.03225 199
58.05237 182
58.07248 169
58.09259 177
58.11271 168
58.13282 184
58.15294 169
58.17305 186
58.19316 176
58.21328 160
58.23339 183
58.2535 164
58.27362 176
58.29373 190
58.31385 174
58.33396 159
58.35407 198
58.37419 150
58.3943 179
58.41441 188
58.43453 183
58.45464 180
58.47475 183
58.49487 191
58.51498 194
58.5351 164
58.55521 178
58.57532 180
58.59544 195
58.61555 171
58.63566 176
58.65578 169
58.67589 183
58.69601 152
58.71612 184
58.73623 173
58.75635 177
58.77646 173
58.79657 177
58.81669 166
58.8368 165
58.85691 205
58.87703 184
58.89714 160
58.91726 182
58.93737 167
58.95748 183
58.9776 173
58.99771 187
59.01782 205
59.03794 195
59.05805 210
59.07817 192
59.09828 197
59.11839 190
59.13851 178
59.15862 211
59.17873 180
59.19885 204
59.21896 199
59.23908 192
59.25919 193
59.2793 210
59.29942 202
59.31953 224
59.33964 219
59.35976 210
59.37987 221
59.39998 234
59.4201 233
59.44021 257
59.46033 248
59.48044 236
59.50055 299
59.52067 282
59.54078 283
59.56089 303
59.58101 356
59.60112 344
59.62124 400
59.64135 403
59.66146 480
59.68158 562
59.70169 590
59.7218 688
59.74192 753
59.76203 952
59.78215 1074
59.80226 1182
59.82237 1444
59.84249 1578
59.8626 1681
59.88271 1732
59.90283 1654
59.92294 1425
59.94305 1238
59.96317 1111
59.98328 1008
60.0034 995
60.02351 911
60.04362 961
60.06374 875
60.08385 702
60.10396 598
60.12408 478
60.14419 364
60.16431 331
60.18442 275
60.20453 286
60.22465 260
60.24476 224
60.26487 229
60.28499 220
60.3051 221
60.32522 192
60.34533 218
60.36544 225
60.38556 222
60.40567 220
60.42578 186
60.4459 201
60.46601 179
60.48612 177
60.50624 172
60.52635 188
60.54647 208
60.56658 176
60.58669 197
60.60681 167
60.62692 177
60.64703 195
60.66715 185
60.68726 175
60.70738 186
60.72749 162
60.7476 187
60.76772 169
60.78783 180
60.80794 181
60.82806 201
60.84817 185
60.86828 184
60.8884 183
60.90851 168
60.92863 167
60.94874 165
60.96885 174
60.98897 158
61.00908 166
61.02919 150
61.04931 159
61.06942 157
61.08954 203
61.10965 175
61.12976 157
61.14988 184
61.16999 162
61.1901 153
61.21022 166
61.23033 196
61.25045 182
61.27056 165
61.29067 165
61.31079 171
61.3309 164
61.35101 192
61.37113 190
61.39124 197
61.41135 185
61.43147 173
61.45158 169
61.4717 194
61.49181 195
61.51192 202
61.53204 195
61.55215 192
61.57226 203
61.59238 191
61.61249 194
61.63261 217
61.65272 193
61.67283 220
61.69295 209
61.71306 225
61.73317 217
61.75329 235
61.7734 206
61.79352 244
61.81363 233
61.83374 244
61.85386 216
61.87397 246
61.89408 242
61.9142 266
61.93431 254
61.95442 263
61.97454 287
61.99465 291
62.01477 267
62.03488 274
62.05499 313
62.07511 334
62.09522 302
62.11533 358
62.13545 348
62.15556 388
62.17568 332
62.19579 398
62.2159 367
62.23602 367
62.25613 351
62.27624 343
62.29636 320
62.31647 301
62.33659 294
62.3567 326
62.37681 299
62.39693 282
62.41704 262
62.43715 267
62.45727 277
62.47738 258
62.49749 240
62.51761 225
62.53772 246
62.55784 235
62.57795 232
62.59806 244
62.61818 206
62.63829 197
62.6584 217
62.67852 209
62.69863 184
62.71875 200
62.73886 170
62.75897 168
62.77909 193
62.7992 182
62.81931 202
62.83943 170
62.85954 208
62.87965 172
62.89977 163
62.91988 176
62.94 171
62.96011 175
62.98022 204
63.00034 182
63.02045 155
63.04056 166
63.06068 175
63.08079 187
63.10091 184
63.12102 186
63.14113 179
63.16125 178
63.18136 195
63.20147 172
63.22159 198
63.2417 166
63.26182 179
63.28193 221
63.30204 206
63.32216 189
63.34227 193
63.36238 199
63.3825 160
63.40261 161
63.42272 186
63.44284 189
63.46295 197
63.48307 194
63.50318 192
63.52329 211
63.54341 183
63.56352 199
63.58363 232
63.60375 223
63.62386 198
63.64398 222
63.66409 193
63.6842 201
63.70432 239
63.72443 234
63.74454 237
63.76466 247
63.78477 253
63.80489 279
63.825 296
63.84511 288
63.86523 354
63.88534 368
63.90545 400
63.92557 427
63.94568 451
63.96579 431
63.98591 438
64.00602 385
64.02614 340
64.04625 332
64.06636 309
64.08648 308
64.10659 304
64.1267 319
64.14682 300
64.16693 301
64.18705 255
64.20716 243
64.22727 209
64.24739 199
64.2675 185
64.28761 178
64.30773 175
64.32784 190
64.34796 185
64.36807 185
64.38818 178
64.4083 178
64.42841 167
64.44852 163
64.46864 174
64.48875 156
64.50886 157
64.52898 173
64.54909 165
64.56921 167
64.58932 160
64.60943 170
64.62955 181
64.64966 162
64.66977 166
64.68989 153
64.71 159
64.73012 180
64.75023 178
64.77034 165
64.79046 148
64.81057 149
64.83068 151
64.8508 159
64.87091 161
64.89102 165
64.91114 173
64.93125 158
64.95137 158
64.97148 192
64.99159 179
65.01171 167
65.03182 151
65.05193 155
65.07205 173
65.09216 179
65.11228 159
65.13239 151
65.1525 181
65.17262 166
65.19273 176
65.21284 179
65.23296 148
65.25307 174
65.27319 154
65.2933 177
65.31341 167
65.33353 147
65.35364 163
65.37375 148
65.39387 146
65.41398 166
65.43409 150
65.45421 154
65.47432 184
65.49444 174
65.51455 187
65.53466 183
65.55478 169
65.57489 217
65.595 191
65.61512 221
65.63523 211
65.65535 222
65.67546 219
65.69557 230
65.71569 221
65.7358 203
65.75591 200
65.77603 202
65.79614 203
65.81626 199
65.83637 205
65.85648 212
65.8766 181
65.89671 193
65.91682 194
65.93694 178
65.95705 185
65.97716 175
65.99728 181
66.01739 164
66.03751 184
66.05762 156
66.07773 160
66.09785 167
66.11796 153
66.13807 161
66.15819 132
66.1783 162
66.19842 188
66.21853 172
66.23864 167
66.25876 192
66.27887 172
66.29898 185
66.3191 159
66.33921 158
66.35933 165
66.37944 151
66.39955 162
66.41967 172
66.43978 166
66.45989 163
66.48001 160
66.50012 154
66.52023 174
66.54035 160
66.56046 162
66.58058 156
66.60069 158
66.6208 176
66.64092 152
66.66103 150
66.68114 159
66.70126 152
66.72137 155
66.74149 176
66.7616 153
66.78171 185
66.80183 166
66.82194 184
66.84205 176
66.86217 176
66.88228 169
66.90239 167
66.92251 178
66.94262 173
66.96274 205
66.98285 205
67.00296 179
67.02308 163
67.04319 190
67.0633 179
67.08342 179
67.10353 214
67.12365 188
67.14376 200
67.16387 190
67.18399 214
67.2041 203
67.22421 212
67.24433 208
67.26444 228
67.28456 231
67.30467 253
67.32478 283
67.3449 284
67.36501 279
67.38512 313
67.40524 299
67.42535 344
67.44546 346
67.46558 413
67.48569 454
67.50581 514
67.52592 555
67.54603 617
67.56615 696
67.58626 822
67.60637 868
67.62649 965
67.6466 1042
67.66672 1024
67.68683 1015
67.70694 971
67.72706 857
67.74717 768
67.76728 709
67.7874 711
67.80751 795
67.82763 787
67.84774 819
67.86785 887
67.88797 861
67.90808 827
67.92819 896
67.94831 951
67.96842 917
67.98853 1059
68.00865 1094
68.02876 1262
68.04888 1318
68.06899 1428
68.0891 1372
68.10922 1297
68.12933 1223
68.14944 1178
68.16956 1198
68.18967 1209
68.20979 1263
68.2299 1245
68.25001 1166
68.27013 1105
68.29024 1048
68.31035 826
68.33047 733
68.35058 669
68.3707 584
68.39081 547
68.41092 531
68.43104 506
68.45115 460
68.47126 413
68.49138 355
68.51149 314
68.5316 263
68.55172 246
68.57183 244
68.59195 228
68.61206 204
68.63217 232
68.65229 211
68.6724 205
68.69251 163
68.71263 224
68.73274 212
68.75286 211
68.77297 188
68.79308 203
68.8132 171
68.83331 204
68.85342 185
68.87354 160
68.89365 175
68.91376 171
68.93388 171
68.95399 186
68.97411 178
68.99422 168
69.01433 180
69.03445 167
69.05456 161
69.07467 164
69.09479 173
69.1149 187
69.13502 179
69.15513 171
69.17524 161
69.19536 178
69.21547 155
69.23558 157
69.2557 186
69.27581 159
69.29593 157
69.31604 170
69.33615 178
69.35627 157
69.37638 138
69.39649 171
69.41661 150
69.43672 163
69.45683 156
69.47695 162
69.49706 155
69.51718 150
69.53729 131
69.5574 159
69.57752 172
69.59763 167
69.61774 147
69.63786 173
69.65797 160
69.67809 174
69.6982 156
69.71831 164
69.73843 161
69.75854 167
69.77865 159
69.79877 164
69.81888 160
69.839 145
69.85911 175
69.87922 157
69.89934 167
69.91945 173
69.93956 162
69.95968 142
69.97979 164
69.9999 162
70.02002 170
70.04013 144
70.06025 156
70.08036 155
70.10047 162
70.12059 159
70.1407 149
70.16081 180
70.18093 164
70.20104 167
70.22116 138
70.24127 151
70.26138 151
70.2815 170
70.30161 154
70.32172 160
70.34184 156
70.36195 149
70.38207 166
70.40218 156
70.42229 171
70.44241 174
70.46252 157
70.48263 186
70.50275 144
70.52286 162
70.54297 169
70.56309 137
70.5832 157
70.60332 143
70.62343 165
70.64354 148
70.66366 156
70.68377 150
70.70388 162
70.724 158
70.74411 164
70.76423 161
70.78434 157
70.80445 146
70.82457 160
70.84468 150
70.86479 164
70.88491 171
70.90502 150
70.92513 146
70.94525 172
70.96536 147
70.98548 147
71.00559 156
71.0257 163
71.04582 149
71.06593 152
71.08604 143
71.10616 155
71.12627 145
71.14639 139
71.1665 156
71.18661 157
71.20673 152
71.22684 142
71.24695 147
71.26707 138
71.28718 161
71.3073 147
71.32741 165
71.34752 144
71.36764 153
71.38775 158
71.40786 156
71.42798 157
71.44809 134
71.4682 151
71.48832 158
71.50843 152
71.52855 152
71.54866 127
71.56877 139
71.58889 144
71.609 155
71.62911 139
71.64923 130
71.66934 145
71.68946 138
71.70957 146
71.72968 152
71.7498 160
71.76991 152
71.79002 149
71.81014 174
71.83025 140
71.85037 160
71.87048 157
71.89059 164
71.91071 177
71.93082 156
71.95093 144
71.97105 145
71.99116 148
72.01127 171
72.03139 157
72.0515 154
72.07162 154
72.09173 141
72.11184 152
72.13196 164
72.15207 144
72.17218 140
72.1923 158
72.21241 135
72.23253 152
72.25264 148
72.27275 150
72.29287 152
72.31298 145
72.33309 154
72.35321 155
72.37332 147
72.39344 148
72.41355 173
72.43366 145
72.45378 149
72.47389 156
72.494 131
72.51412 145
72.53423 145
72.55434 158
72.57446 149
72.59457 141
72.61469 141
72.6348 158
72.65491 153
72.67503 172
72.69514 157
72.71525 159
72.73537 156
72.75548 152
72.7756 167
72.79571 152
72.81582 164
72.83594 179
72.85605 156
72.87616 157
72.89628 163
72.91639 162
72.9365 154
72.95662 182
72.97673 197
72.99685 197
73.01696 202
73.03707 164
73.05719 171
73.0773 191
73.09741 192
73.11753 204
73.13764 203
73.15776 199
73.17787 249
73.19798 251
73.2181 283
73.23821 287
73.25832 301
73.27844 341
73.29855 362
73.31867 383
73.33878 407
73.35889 455
73.37901 431
73.39912 447
73.41923 413
73.43935 401
73.45946 374
73.47957 328
73.49969 330
73.5198 289
73.53992 283
73.56003 311
73.58014 304
73.60026 296
73.62037 292
73.64048 295
73.6606 247
73.68071 222
73.70083 222
73.72094 178
73.74105 202
73.76117 175
73.78128 185
73.80139 155
73.82151 177
73.84162 192
73.86174 155
73.88185 178
73.90196 168
73.92208 183
73.94219 152
73.9623 139
73.98242 163
74.00253 184
74.02264 146
74.04276 143
74.06287 155
74.08299 160
74.1031 173
74.12321 173
74.14333 152
74.16344 170
74.18355 169
74.20367 144
74.22378 161
74.2439 158
74.26401 157
74.28412 129
74.30424 141
74.32435 174
74.34446 160
74.36458 173
74.38469 148
74.40481 165
74.42492 160
74.44503 150
74.46515 152
74.48526 181
74.50537 171
74.52549 164
74.5456 156
74.56571 159
74.58583 157
74.60594 160
74.62606 174
74.64617 156
74.66628 156
74.6864 173
74.70651 159
74.72662 162
74.74674 155
74.76685 178
74.78697 169
74.80708 162
74.82719 156
74.84731 184
74.86742 186
74.88753 170
74.90765 164
74.92776 154
74.94787 163
74.96799 163
74.9881 173
75.00822 174
