3.00117 16165
3.02128 16015
3.0414 15219
3.06151 14573
3.08162 14525
3.10174 13889
3.12185 13555
3.14197 12935
3.16208 12961
3.18219 12362
3.20231 12131
3.22242 11756
3.24253 10678
3.26265 11107
3.28276 10274
3.30288 10057
3.32299 9756
3.3431 9283
3.36322 9216
3.38333 8892
3.40344 8504
3.42356 8206
3.44367 7955
3.46379 7681
3.4839 7239
3.50401 7018
3.52413 6897
3.54424 6089
3.56435 6331
3.58447 5873
3.60458 5718
3.62469 5612
3.64481 5160
3.66492 5214
3.68504 4808
3.70515 4543
3.72526 4416
3.74538 4271
3.76549 4126
3.7856 3722
3.80572 3703
3.82583 3732
3.84595 3201
3.86606 3321
3.88617 3112
3.90629 3013
3.9264 3113
3.94651 2660
3.96663 2636
3.98674 2564
4.00686 2414
4.02697 2492
4.04708 2202
4.0672 2192
4.08731 2073
4.10742 1973
4.12754 2106
4.14765 1869
4.16776 1932
4.18788 1730
4.20799 1666
4.22811 1857
4.24822 1569
4.26833 1587
4.28845 1549
4.30856 1478
4.32867 1453
4.34879 1408
4.3689 1439
4.38902 1460
4.40913 1367
4.42924 1309
4.44936 1304
4.46947 1279
4.48958 1322
4.5097 1204
4.52981 1275
4.54992 1117
4.57004 1128
4.59015 1102
4.61027 1129
4.63038 1112
4.65049 968
4.67061 1003
4.69072 1096
4.71083 975
4.73095 954
4.75106 898
4.77118 947
4.79129 969
4.8114 909
4.83152 895
4.85163 838
4.87174 815
4.89186 828
4.91197 799
4.93209 771
4.9522 784
4.97231 802
4.99243 752
5.01254 792
5.03265 745
5.05277 700
5.07288 676
5.09299 655
5.11311 701
5.13322 630
5.15334 717
5.17345 631
5.19356 655
5.21368 664
5.23379 609
5.2539 675
5.27402 589
5.29413 531
5.31425 551
5.33436 580
5.35447 601
5.37459 553
5.3947 640
5.41481 542
5.43493 551
5.45504 555
5.47516 501
5.49527 504
5.51538 548
5.5355 511
5.55561 457
5.57572 532
5.59584 502
5.61595 472
5.63606 443
5.65618 452
5.67629 552
5.69641 451
5.71652 454
5.73663 457
5.75675 454
5.77686 450
5.79697 457
5.81709 422
5.8372 412
5.85732 453
5.87743 467
5.89754 453
5.91766 421
5.93777 406
5.95788 366
5.978 398
5.99811 410
6.01823 396
6.03834 377
6.05845 375
6.07857 414
6.09868 403
6.11879 408
6.13891 378
6.15902 400
6.17913 387
6.19925 394
6.21936 404
6.23948 359
6.25959 408
6.2797 375
6.29982 352
6.31993 380
6.34004 361
6.36016 354
6.38027 363
6.40039 329
6.4205 380
6.44061 355
6.46073 403
6.48084 391
6.50095 440
6.52107 326
6.54118 323
6.56129 334
6.58141 340
6.60152 349
6.62164 350
6.64175 358
6.66186 348
6.68198 318
6.70209 330
6.7222 323
6.74232 336
6.76243 310
6.78255 324
6.80266 348
6.82277 349
6.84289 367
6.863 323
6.88311 289
6.90323 334
6.92334 350
6.94346 360
6.96357 324
6.98368 340
7.0038 338
7.02391 313
7.04402 320
7.06414 301
7.08425 321
7.10436 304
7.12448 291
7.14459 296
7.16471 303
7.18482 309
7.20493 314
7.22505 313
7.24516 326
7.26527 283
7.28539 326
7.3055 287
7.32562 280
7.34573 343
7.36584 299
7.38596 308
7.40607 314
7.42618 306
7.4463 284
7.46641 314
7.48653 312
7.50664 280
7.52675 278
7.54687 324
7.56698 332
7.58709 288
7.60721 305
7.62732 330
7.64743 337
7.66755 316
7.68766 287
7.70778 313
7.72789 322
7.748 339
7.76812 326
7.78823 326
7.80834 286
7.82846 322
7.84857 279
7.86869 324
7.8888 332
7.90891 286
7.92903 287
7.94914 296
7.96925 317
7.98937 311
8.00948 320
8.0296 283
8.04971 324
8.06982 306
8.08994 322
8.11005 290
8.13016 320
8.15028 335
8.17039 307
8.1905 322
8.21062 332
8.23073 317
8.25085 338
8.27096 332
8.29107 299
8.31119 310
8.3313 320
8.35141 344
8.37153 337
8.39164 329
8.41176 323
8.43187 360
8.45198 349
8.4721 359
8.49221 368
8.51232 315
8.53244 331
8.55255 321
8.57266 378
8.59278 373
8.61289 376
8.63301 414
8.65312 406
8.67323 374
8.69335 426
8.71346 349
8.73357 405
8.75369 433
8.7738 396
8.79392 420
8.81403 405
8.83414 426
8.85426 434
8.87437 440
8.89448 363
8.9146 394
8.93471 385
8.95483 347
8.97494 335
8.99505 316
9.01517 358
9.03528 324
9.05539 322
9.07551 306
9.09562 301
9.11573 265
9.13585 306
9.15596 316
9.17608 292
9.19619 305
9.2163 315
9.23642 284
9.25653 278
9.27664 325
9.29676 283
9.31687 292
9.33699 289
9.3571 323
9.37721 275
9.39733 301
9.41744 279
9.43755 305
9.45767 314
9.47778 298
9.4979 254
9.51801 308
9.53812 299
9.55824 320
9.57835 262
9.59846 281
9.61858 287
9.63869 262
9.6588 291
9.67892 289
9.69903 335
9.71915 323
9.73926 289
9.75937 284
9.77949 313
9.7996 283
9.81971 293
9.83983 285
9.85994 294
9.88006 302
9.90017 268
9.92028 269
9.9404 326
9.96051 299
9.98062 289
10.00074 315
10.02085 311
10.04097 297
10.06108 312
10.08119 265
10.10131 294
10.12142 274
10.14153 290
10.16165 289
10.18176 313
10.20187 259
10.22199 301
10.2421 280
10.26222 300
10.28233 296
10.30244 283
10.32256 287
10.34267 315
10.36278 298
10.3829 393
10.40301 349
10.42313 334
10.44324 338
10.46335 320
10.48347 310
10.50358 378
10.52369 328
10.54381 291
10.56392 282
10.58403 290
10.60415 341
10.62426 316
10.64438 341
10.66449 265
10.6846 278
10.70472 309
10.72483 304
10.74494 285
10.76506 271
10.78517 299
10.80529 287
10.8254 347
10.84551 271
10.86563 264
10.88574 278
10.90585 306
10.92597 278
10.94608 282
10.9662 318
10.98631 320
11.00642 299
11.02654 322
11.04665 287
11.06676 293
11.08688 304
11.10699 315
11.1271 320
11.14722 264
11.16733 313
11.18745 360
11.20756 290
11.22767 283
11.24779 309
11.2679 290
11.28801 285
11.30813 259
11.32824 307
11.34836 277
11.36847 273
11.38858 310
11.4087 274
11.42881 296
11.44892 298
11.46904 288
11.48915 291
11.50927 341
11.52938 322
11.54949 310
11.56961 269
11.58972 286
11.60983 291
11.62995 286
11.65006 307
11.67017 349
11.69029 286
11.7104 300
11.73052 298
11.75063 305
11.77074 279
11.79086 293
11.81097 291
11.83108 291
11.8512 332
11.87131 348
11.89143 360
11.91154 326
11.93165 333
11.95177 337
11.97188 318
11.99199 308
12.01211 319
12.03222 330
12.05234 349
12.07245 323
12.09256 305
12.11268 320
12.13279 303
12.1529 335
12.17302 310
12.19313 298
12.21324 308
12.23336 334
12.25347 336
12.27359 317
12.2937 327
12.31381 304
12.33393 331
12.35404 311
12.37415 312
12.39427 300
12.41438 349
12.4345 304
12.45461 303
12.47472 319
12.49484 288
12.51495 302
12.53506 334
12.55518 318
12.57529 314
12.5954 289
12.61552 296
12.63563 277
12.65575 306
12.67586 308
12.69597 299
12.71609 330
12.7362 318
12.75631 281
12.77643 274
12.79654 289
12.81666 273
12.83677 292
12.85688 254
12.877 306
12.89711 306
12.91722 268
12.93734 297
12.95745 290
12.97757 298
12.99768 313
13.01779 296
13.03791 294
13.05802 329
13.07813 276
13.09825 259
13.11836 284
13.13847 297
13.15859 277
13.1787 282
13.19882 278
13.21893 290
13.23904 273
13.25916 274
13.27927 250
13.29938 291
13.3195 253
13.33961 280
13.35973 292
13.37984 280
13.39995 288
13.42007 275
13.44018 271
13.46029 281
13.48041 271
13.50052 322
13.52064 307
13.54075 286
13.56086 346
13.58098 333
13.60109 287
13.6212 335
13.64132 335
13.66143 311
13.68154 325
13.70166 300
13.72177 301
13.74189 350
13.762 328
13.78211 407
13.80223 463
13.82234 405
13.84245 443
13.86257 382
13.88268 380
13.9028 340
13.92291 337
13.94302 351
13.96314 325
13.98325 332
14.00336 317
14.02348 314
14.04359 273
14.06371 313
14.08382 293
14.10393 251
14.12405 283
14.14416 253
14.16427 279
14.18439 246
14.2045 265
14.22461 252
14.24473 250
14.26484 267
14.28496 263
14.30507 277
14.32518 287
14.3453 278
14.36541 254
14.38552 248
14.40564 247
14.42575 267
14.44587 242
14.46598 271
14.48609 272
14.50621 268
14.52632 272
14.54643 262
14.56655 233
14.58666 233
14.60677 291
14.62689 263
14.647 303
14.66712 243
14.68723 293
14.70734 248
14.72746 272
14.74757 270
14.76768 332
14.7878 281
14.80791 281
14.82803 316
14.84814 280
14.86825 311
14.88837 303
14.90848 320
14.92859 351
14.94871 303
14.96882 288
14.98894 341
15.00905 298
15.02916 277
15.04928 280
15.06939 253
15.0895 304
15.10962 292
15.12973 248
15.14984 282
15.16996 273
15.19007 272
15.21019 249
15.2303 265
15.25041 262
15.27053 262
15.29064 249
15.31075 263
15.33087 282
15.35098 257
15.3711 254
15.39121 240
15.41132 256
15.43144 262
15.45155 265
15.47166 282
15.49178 242
15.51189 244
15.53201 250
15.55212 286
15.57223 252
15.59235 260
15.61246 291
15.63257 249
15.65269 244
15.6728 281
15.69291 269
15.71303 276
15.73314 296
15.75326 247
15.77337 290
15.79348 292
15.8136 291
15.83371 273
15.85382 254
15.87394 288
15.89405 276
15.91417 233
15.93428 268
15.95439 270
15.97451 237
15.99462 224
16.01473 222
16.03485 265
16.05496 254
16.07508 262
16.09519 241
16.1153 251
16.13542 271
16.15553 273
16.17564 249
16.19576 220
16.21587 256
16.23598 252
16.2561 277
16.27621 253
16.29633 239
16.31644 247
16.33655 245
16.35667 232
16.37678 230
16.39689 247
16.41701 261
16.43712 227
16.45724 256
16.47735 202
16.49746 242
16.51758 224
16.53769 274
16.5578 279
16.57792 235
16.59803 236
16.61814 223
16.63826 258
16.65837 231
16.67849 233
16.6986 249
16.71871 265
16.73883 266
16.75894 228
16.77905 231
16.79917 247
16.81928 266
16.8394 274
16.85951 231
16.87962 251
16.89974 237
16.91985 246
16.93996 246
16.96008 249
16.98019 253
17.00031 241
17.02042 260
17.04053 270
17.06065 258
17.08076 261
17.10087 253
17.12099 282
17.1411 228
17.16121 270
17.18133 256
17.20144 277
17.22156 284
17.24167 235
17.26178 255
17.2819 281
17.30201 242
17.32212 239
17.34224 259
17.36235 225
17.38247 250
17.40258 250
17.42269 238
17.44281 276
17.46292 269
17.48303 282
17.50315 267
17.52326 259
17.54338 270
17.56349 299
17.5836 298
17.60372 346
17.62383 305
17.64394 313
17.66406 324
17.68417 275
17.70428 263
17.7244 279
17.74451 280
17.76463 296
17.78474 300
17.80485 247
17.82497 272
17.84508 244
17.86519 233
17.88531 259
17.90542 267
17.92554 261
17.94565 273
17.96576 253
17.98588 270
18.00599 261
18.0261 233
18.04622 311
18.06633 218
18.08645 263
18.10656 234
18.12667 261
18.14679 250
18.1669 257
18.18701 252
18.20713 241
18.22724 247
18.24735 263
18.26747 284
18.28758 244
18.3077 231
18.32781 263
18.34792 207
18.36804 246
18.38815 247
18.40826 261
18.42838 281
18.44849 251
18.46861 247
18.48872 219
18.50883 271
18.52895 229
18.54906 241
18.56917 280
18.58929 260
18.6094 292
18.62951 234
18.64963 244
18.66974 246
18.68986 265
18.70997 269
18.73008 240
18.7502 280
18.77031 254
18.79042 249
18.81054 242
18.83065 241
18.85077 287
18.87088 278
18.89099 256
18.91111 256
18.93122 276
18.95133 295
18.97145 274
18.99156 252
19.01168 244
19.03179 232
19.0519 270
19.07202 255
19.09213 264
19.11224 287
19.13236 277
19.15247 308
19.17258 296
19.1927 319
19.21281 321
19.23293 335
19.25304 344
19.27315 355
19.29327 287
19.31338 318
19.33349 314
19.35361 308
19.37372 313
19.39384 311
19.41395 329
19.43406 341
19.45418 335
19.47429 307
19.4944 350
19.51452 354
19.53463 373
19.55475 361
19.57486 375
19.59497 350
19.61509 412
19.6352 406
19.65531 381
19.67543 434
19.69554 411
19.71565 460
19.73577 464
19.75588 477
19.776 475
19.79611 487
19.81622 476
19.83634 513
19.85645 454
19.87656 462
19.89668 449
19.91679 456
19.93691 439
19.95702 457
19.97713 463
19.99725 455
20.01736 424
20.03747 465
20.05759 432
20.0777 411
20.09782 419
20.11793 421
20.13804 408
20.15816 415
20.17827 436
20.19838 411
20.2185 440
20.23861 397
20.25872 431
20.27884 410
20.29895 397
20.31907 393
20.33918 386
20.35929 424
20.37941 424
20.39952 435
20.41963 442
20.43975 423
20.45986 440
20.47998 390
20.50009 438
20.5202 416
20.54032 451
20.56043 461
20.58054 428
20.60066 473
20.62077 509
20.64088 547
20.661 610
20.68111 788
20.70123 880
20.72134 1178
20.74145 1358
20.76157 1779
20.78168 1972
20.80179 2279
20.82191 2337
20.84202 2192
20.86214 1883
20.88225 1550
20.90236 1358
20.92248 1111
20.94259 954
20.9627 863
20.98282 801
21.00293 749
21.02305 675
21.04316 616
21.06327 576
21.08339 569
21.1035 489
21.12361 447
21.14373 442
21.16384 420
21.18395 373
21.20407 382
21.22418 369
21.2443 403
21.26441 361
21.28452 373
21.30464 370
21.32475 378
21.34486 352
21.36498 404
21.38509 372
21.40521 338
21.42532 350
21.44543 359
21.46555 395
21.48566 370
21.50577 384
21.52589 372
21.546 354
21.56612 323
21.58623 405
21.60634 347
21.62646 355
21.64657 365
21.66668 368
21.6868 390
21.70691 340
21.72702 413
21.74714 359
21.76725 387
21.78737 416
21.80748 455
21.82759 433
21.84771 558
21.86782 638
21.88793 716
21.90805 833
21.92816 965
21.94828 1092
21.96839 1238
21.9885 1165
22.00862 1212
22.02873 1009
22.04884 978
22.06896 816
22.08907 699
22.10919 580
22.1293 550
22.14941 508
22.16953 468
22.18964 431
22.20975 424
22.22987 523
22.24998 491
22.27009 444
22.29021 419
22.31032 460
22.33044 372
22.35055 371
22.37066 373
22.39078 419
22.41089 354
22.431 354
22.45112 353
22.47123 328
22.49135 389
22.51146 381
22.53157 365
22.55169 373
22.5718 410
22.59191 371
22.61203 360
22.63214 375
22.65225 363
22.67237 376
22.69248 329
22.7126 347
22.73271 391
22.75282 375
22.77294 352
22.79305 404
22.81316 415
22.83328 448
22.85339 445
22.87351 441
22.89362 444
22.91373 516
22.93385 456
22.95396 444
22.97407 493
22.99419 534
23.0143 525
23.03442 544
23.05453 539
23.07464 518
23.09476 513
23.11487 534
23.13498 517
23.1551 496
23.17521 532
23.19532 498
23.21544 481
23.23555 388
23.25567 404
23.27578 359
23.29589 382
23.31601 410
23.33612 439
23.35623 421
23.37635 453
23.39646 491
23.41658 488
23.43669 544
23.4568 625
23.47692 690
23.49703 727
23.51714 713
23.53726 704
23.55737 702
23.57749 614
23.5976 575
23.61771 506
23.63783 529
23.65794 498
23.67805 446
23.69817 429
23.71828 464
23.73839 431
23.75851 459
23.77862 456
23.79874 493
23.81885 491
23.83896 487
23.85908 566
23.87919 549
23.8993 634
23.91942 639
23.93953 644
23.95965 643
23.97976 680
23.99987 628
24.01999 594
24.0401 642
24.06021 681
24.08033 607
24.10044 648
24.12056 784
24.14067 736
24.16078 809
24.1809 832
24.20101 823
24.22112 913
24.24124 856
24.26135 841
24.28146 771
24.30158 748
24.32169 653
24.34181 588
24.36192 541
24.38203 527
24.40215 467
24.42226 431
24.44237 397
24.46249 372
24.4826 374
24.50272 389
24.52283 416
24.54294 462
24.56306 394
24.58317 395
24.60328 401
24.6234 425
24.64351 413
24.66362 436
24.68374 424
24.70385 426
24.72397 417
24.74408 385
24.76419 405
24.78431 379
24.80442 392
24.82453 366
24.84465 393
24.86476 410
24.88488 404
24.90499 379
24.9251 336
24.94522 403
24.96533 418
24.98544 383
25.00556 368
25.02567 381
25.04579 415
25.0659 387
25.08601 346
25.10613 447
25.12624 390
25.14635 362
25.16647 377
25.18658 404
25.20669 422
25.22681 420
25.24692 431
25.26704 502
25.28715 476
25.30726 517
25.32738 527
25.34749 553
25.3676 608
25.38772 666
25.40783 610
25.42795 643
25.44806 759
25.46817 693
25.48829 774
25.5084 707
25.52851 725
25.54863 702
25.56874 663
25.58886 664
25.60897 594
25.62908 608
25.6492 555
25.66931 520
25.68942 535
25.70954 466
25.72965 474
25.74976 428
25.76988 421
25.78999 396
25.81011 437
25.83022 450
25.85033 429
25.87045 400
25.89056 430
25.91067 412
25.93079 429
25.9509 412
25.97102 455
25.99113 418
26.01124 443
26.03136 459
26.05147 493
26.07158 492
26.0917 504
26.11181 553
26.13193 535
26.15204 587
26.17215 574
26.19227 641
26.21238 666
26.23249 664
26.25261 711
26.27272 851
26.29283 881
26.31295 1016
26.33306 1180
26.35318 1213
26.37329 1405
26.3934 1551
26.41352 1786
26.43363 2105
26.45374 2627
26.47386 3387
26.49397 4340
26.51409 5360
26.5342 6974
26.55431 7915
26.57443 9095
26.59454 9105
26.61465 8572
26.63477 7424
26.65488 6162
26.67499 4679
26.69511 3306
26.71522 2371
26.73534 1647
26.75545 1209
26.77556 937
26.79568 860
26.81579 798
26.8359 725
26.85602 745
26.87613 728
26.89625 719
26.91636 731
26.93647 704
26.95659 711
26.9767 808
26.99681 794
27.01693 800
27.03704 792
27.05716 759
27.07727 680
27.09738 619
27.1175 615
27.13761 622
27.15772 606
27.17784 560
27.19795 551
27.21806 634
27.23818 699
27.25829 728
27.27841 830
27.29852 859
27.31863 949
27.33875 981
27.35886 1106
27.37897 1133
27.39909 1145
27.4192 1033
27.43932 1069
27.45943 1042
27.47954 959
27.49966 900
27.51977 854
27.53988 782
27.56 826
27.58011 822
27.60023 884
27.62034 952
27.64045 1064
27.66057 1206
27.68068 1261
27.70079 1428
27.72091 1422
27.74102 1419
27.76113 1440
27.78125 1541
27.80136 1612
27.82148 1703
27.84159 1766
27.8617 1792
27.88182 1882
27.90193 1866
27.92204 1723
27.94216 1585
27.96227 1401
27.98239 1328
28.0025 1060
28.02261 993
28.04273 923
28.06284 887
28.08295 772
28.10307 733
28.12318 724
28.1433 697
28.16341 747
28.18352 700
28.20364 720
28.22375 690
28.24386 703
28.26398 682
28.28409 618
28.3042 635
28.32432 516
28.34443 509
28.36455 461
28.38466 480
28.40477 429
28.42489 394
28.445 343
28.46511 384
28.48523 379
28.50534 387
28.52546 351
28.54557 368
28.56568 333
28.5858 354
28.60591 313
28.62602 306
28.64614 345
28.66625 305
28.68636 298
28.70648 336
28.72659 326
28.74671 380
28.76682 307
28.78693 327
28.80705 327
28.82716 311
28.84727 299
28.86739 311
28.8875 318
28.90762 303
28.92773 350
28.94784 324
28.96796 308
28.98807 340
29.00818 318
29.0283 310
29.04841 329
29.06853 346
29.08864 335
29.10875 325
29.12887 362
29.14898 355
29.16909 346
29.18921 373
29.20932 342
29.22943 344
29.24955 369
29.26966 396
29.28978 419
29.30989 473
29.33 469
29.35012 507
29.37023 488
29.39034 531
29.41046 509
29.43057 573
29.45069 534
29.4708 478
29.49091 435
29.51103 526
29.53114 408
29.55125 439
29.57137 419
29.59148 399
29.6116 396
29.63171 428
29.65182 391
29.67194 388
29.69205 384
29.71216 391
29.73228 438
29.75239 432
29.7725 436
29.79262 468
29.81273 403
29.83285 453
29.85296 403
29.87307 470
29.89319 439
29.9133 436
29.93341 506
29.95353 494
29.97364 519
29.99376 537
30.01387 559
30.03398 605
30.0541 557
30.07421 642
30.09432 608
30.11444 657
30.13455 624
30.15467 642
30.17478 667
30.19489 619
30.21501 576
30.23512 568
30.25523 539
30.27535 558
30.29546 580
30.31557 557
30.33569 567
30.3558 619
30.37592 610
30.39603 650
30.41614 665
30.43626 625
30.45637 643
30.47648 594
30.4966 530
30.51671 550
30.53683 483
30.55694 485
30.57705 501
30.59717 476
30.61728 427
30.63739 542
30.65751 537
30.67762 532
30.69773 597
30.71785 603
30.73796 590
30.75808 627
30.77819 603
30.7983 557
30.81842 586
30.83853 563
30.85864 524
30.87876 455
30.89887 450
30.91899 417
30.9391 391
30.95921 396
30.97933 334
30.99944 365
31.01955 348
31.03967 347
31.05978 369
31.0799 351
31.10001 386
31.12012 379
31.14024 386
31.16035 397
31.18046 404
31.20058 401
31.22069 414
31.2408 419
31.26092 368
31.28103 418
31.30115 401
31.32126 403
31.34137 362
31.36149 362
31.3816 370
31.40171 372
31.42183 359
31.44194 333
31.46206 333
31.48217 361
31.50228 324
31.5224 335
31.54251 344
31.56262 367
31.58274 337
31.60285 353
31.62297 345
31.64308 347
31.66319 341
31.68331 355
31.70342 336
31.72353 354
31.74365 343
31.76376 350
31.78387 372
31.80399 340
31.8241 325
31.84422 314
31.86433 350
31.88444 361
31.90456 306
31.92467 290
31.94478 319
31.9649 369
31.98501 334
32.00513 359
32.02524 352
32.04535 364
32.06547 384
32.08558 371
32.10569 345
32.12581 364
32.14592 368
32.16604 337
32.18615 356
32.20626 330
32.22638 329
32.24649 324
32.2666 362
32.28672 300
32.30683 326
32.32694 343
32.34706 307
32.36717 327
32.38729 342
32.4074 321
32.42751 335
32.44763 357
32.46774 342
32.48785 301
32.50797 306
32.52808 299
32.5482 288
32.56831 310
32.58842 287
32.60854 312
32.62865 274
32.64876 309
32.66888 304
32.68899 327
32.7091 280
32.72922 313
32.74933 317
32.76945 313
32.78956 316
32.80967 277
32.82979 358
32.8499 306
32.87001 362
32.89013 357
32.91024 401
32.93036 315
32.95047 359
32.97058 352
32.9907 398
33.01081 389
33.03092 373
33.05104 395
33.07115 408
33.09127 420
33.11138 398
33.13149 461
33.15161 385
33.17172 398
33.19183 352
33.21195 380
33.23206 409
33.25217 378
33.27229 404
33.2924 340
33.31252 386
33.33263 319
33.35274 342
33.37286 360
33.39297 363
33.41308 345
33.4332 313
33.45331 330
33.47343 360
33.49354 308
33.51365 292
33.53377 310
33.55388 328
33.57399 330
33.59411 307
33.61422 359
33.63434 342
33.65445 334
33.67456 294
33.69468 368
33.71479 322
33.7349 349
33.75502 340
33.77513 381
33.79524 378
33.81536 384
33.83547 391
33.85559 396
33.8757 389
33.89581 397
33.91593 381
33.93604 385
33.95615 371
33.97627 392
33.99638 354
34.0165 386
34.03661 391
34.05672 412
34.07684 429
34.09695 399
34.11706 477
34.13718 440
34.15729 478
34.17741 511
34.19752 454
34.21763 503
34.23775 497
34.25786 511
34.27797 491
34.29809 462
34.3182 449
34.33831 442
34.35843 463
34.37854 470
34.39866 463
34.41877 499
34.43888 430
34.459 479
34.47911 455
34.49922 426
34.51934 455
34.53945 429
34.55957 467
34.57968 403
34.59979 429
34.61991 429
34.64002 424
34.66013 414
34.68025 451
34.70036 456
34.72047 396
34.74059 428
34.7607 436
34.78082 438
34.80093 435
34.82104 434
34.84116 489
34.86127 485
34.88138 512
34.9015 510
34.92161 546
34.94173 504
34.96184 543
34.98195 588
35.00207 558
35.02218 513
35.04229 520
35.06241 488
35.08252 489
35.10264 525
35.12275 493
35.14286 519
35.16298 452
35.18309 470
35.2032 506
35.22332 513
35.24343 561
35.26354 548
35.28366 526
35.30377 572
35.32389 531
35.344 565
35.36411 613
35.38423 609
35.40434 589
35.42445 575
35.44457 577
35.46468 572
35.4848 604
35.50491 578
35.52502 572
35.54514 531
35.56525 540
35.58536 492
35.60548 474
35.62559 502
35.64571 456
35.66582 463
35.68593 399
35.70605 446
35.72616 418
35.74627 433
35.76639 385
35.7865 404
35.80661 422
35.82673 408
35.84684 409
35.86696 385
35.88707 392
35.90718 413
35.9273 438
35.94741 415
35.96752 369
35.98764 426
36.00775 395
36.02787 363
36.04798 386
36.06809 407
36.08821 389
36.10832 374
36.12843 372
36.14855 396
36.16866 329
36.18878 390
36.20889 379
36.229 377
36.24912 366
36.26923 419
36.28934 427
36.30946 458
36.32957 465
36.34968 498
36.3698 530
36.38991 631
36.41003 737
36.43014 771
36.45025 900
36.47037 896
36.49048 927
36.51059 902
36.53071 905
36.55082 829
36.57094 707
36.59105 694
36.61116 566
36.63128 595
36.65139 564
36.6715 503
36.69162 498
36.71173 476
36.73184 445
36.75196 407
36.77207 446
36.79219 436
36.8123 425
36.83241 459
36.85253 452
36.87264 455
36.89275 451
36.91287 459
36.93298 452
36.9531 467
36.97321 417
36.99332 448
37.01344 396
37.03355 405
37.05366 422
37.07378 366
37.09389 398
37.11401 356
37.13412 383
37.15423 371
37.17435 388
37.19446 373
37.21457 404
37.23469 394
37.2548 412
37.27491 434
37.29503 419
37.31514 401
37.33526 451
37.35537 437
37.37548 438
37.3956 438
37.41571 409
37.43582 426
37.45594 386
37.47605 399
37.49617 380
37.51628 372
37.53639 434
37.55651 389
37.57662 388
37.59673 385
37.61685 420
37.63696 400
37.65708 388
37.67719 384
37.6973 384
37.71742 349
37.73753 352
37.75764 323
37.77776 363
37.79787 310
37.81798 331
37.8381 342
37.85821 294
37.87833 274
37.89844 304
37.91855 326
37.93867 289
37.95878 290
37.97889 300
37.99901 307
38.01912 312
38.03924 305
38.05935 309
38.07946 305
38.09958 294
38.11969 332
38.1398 314
38.15992 296
38.18003 317
38.20015 365
38.22026 325
38.24037 316
38.26049 346
38.2806 297
38.30071 328
38.32083 320
38.34094 309
38.36105 341
38.38117 354
38.40128 347
38.4214 364
38.44151 334
38.46162 362
38.48174 371
38.50185 383
38.52196 378
38.54208 414
38.56219 384
38.58231 381
38.60242 358
38.62253 355
38.64265 305
38.66276 342
38.68287 323
38.70299 343
38.7231 355
38.74321 342
38.76333 373
38.78344 346
38.80356 329
38.82367 367
38.84378 368
38.8639 313
38.88401 329
38.90412 332
38.92424 359
38.94435 337
38.96447 377
38.98458 327
39.00469 323
39.02481 355
39.04492 353
39.06503 371
39.08515 349
39.10526 391
39.12538 357
39.14549 379
39.1656 395
39.18572 404
39.20583 384
39.22594 417
39.24606 449
39.26617 442
39.28628 505
39.3064 584
39.32651 622
39.34663 701
39.36674 773
39.38685 853
39.40697 822
39.42708 768
39.44719 737
39.46731 719
39.48742 622
39.50754 602
39.52765 585
39.54776 475
39.56788 477
39.58799 370
39.6081 378
39.62822 360
39.64833 311
39.66845 347
39.68856 304
39.70867 300
39.72879 326
39.7489 310
39.76901 326
39.78913 298
39.80924 302
39.82935 312
39.84947 323
39.86958 308
39.8897 356
39.90981 342
39.92992 328
39.95004 328
39.97015 336
39.99026 302
40.01038 335
40.03049 351
40.05061 333
40.07072 320
40.09083 348
40.11095 397
40.13106 443
40.15117 431
40.17129 498
40.1914 507
40.21152 567
40.23163 504
40.25174 557
40.27186 514
40.29197 457
40.31208 463
40.3322 410
40.35231 377
40.37242 337
40.39254 379
40.41265 301
40.43277 326
40.45288 309
40.47299 305
40.49311 321
40.51322 321
40.53333 304
40.55345 276
40.57356 318
40.59368 285
40.61379 326
40.6339 307
40.65402 281
40.67413 340
40.69424 316
40.71436 348
40.73447 319
40.75458 326
40.7747 347
40.79481 321
40.81493 337
40.83504 311
40.85515 309
40.87527 290
40.89538 311
40.91549 299
40.93561 282
40.95572 326
40.97584 298
40.99595 317
41.01606 323
41.03618 279
41.05629 309
41.0764 325
41.09652 293
41.11663 332
41.13675 343
41.15686 323
41.17697 329
41.19709 344
41.2172 350
41.23731 297
41.25743 306
41.27754 339
41.29765 314
41.31777 313
41.33788 310
41.358 303
41.37811 333
41.39822 308
41.41834 319
41.43845 359
41.45856 327
41.47868 359
41.49879 326
41.51891 369
41.53902 389
41.55913 358
41.57925 405
41.59936 388
41.61947 403
41.63959 432
41.6597 444
41.67982 455
41.69993 423
41.72004 504
41.74016 411
41.76027 469
41.78038 426
41.8005 403
41.82061 386
41.84072 384
41.86084 363
41.88095 377
41.90107 343
41.92118 359
41.94129 347
41.96141 344
41.98152 309
42.00163 315
42.02175 307
42.04186 265
42.06198 314
42.08209 335
42.1022 303
42.12232 339
42.14243 336
42.16254 356
42.18266 331
42.20277 389
42.22289 376
42.243 410
42.26311 431
42.28323 469
42.30334 564
42.32345 662
42.34357 607
42.36368 729
42.38379 742
42.40391 737
42.42402 672
42.44414 609
42.46425 583
42.48436 549
42.50448 536
42.52459 534
42.5447 492
42.56482 456
42.58493 411
42.60505 405
42.62516 399
42.64527 382
42.66539 371
42.6855 385
42.70561 365
42.72573 387
42.74584 377
42.76595 357
42.78607 362
42.80618 368
42.8263 355
42.84641 374
42.86652 320
42.88664 338
42.90675 339
42.92686 314
42.94698 323
42.96709 297
42.98721 303
43.00732 296
43.02743 320
43.04755 322
43.06766 302
43.08777 329
43.10789 339
43.128 327
43.14812 351
43.16823 333
43.18834 325
43.20846 316
43.22857 295
43.24868 320
43.2688 318
43.28891 281
43.30902 345
43.32914 289
43.34925 296
43.36937 319
43.38948 318
43.40959 311
43.42971 331
43.44982 319
43.46993 335
43.49005 300
43.51016 306
43.53028 302
43.55039 323
43.5705 313
43.59062 334
43.61073 337
43.63084 288
43.65096 272
43.67107 271
43.69119 278
43.7113 255
43.73141 291
43.75153 272
43.77164 259
43.79175 266
43.81187 273
43.83198 246
43.85209 253
43.87221 279
43.89232 255
43.91244 295
43.93255 272
43.95266 259
43.97278 256
43.99289 260
44.013 257
44.03312 295
44.05323 273
44.07335 268
44.09346 262
44.11357 315
44.13369 264
44.1538 287
44.17391 268
44.19403 302
44.21414 295
44.23426 289
44.25437 272
44.27448 268
44.2946 284
44.31471 281
44.33482 272
44.35494 253
44.37505 255
44.39516 284
44.41528 274
44.43539 274
44.45551 274
44.47562 268
44.49573 292
44.51585 280
44.53596 300
44.55607 288
44.57619 297
44.5963 293
44.61642 329
44.63653 297
44.65664 279
44.67676 294
44.69687 275
44.71698 284
44.7371 294
44.75721 288
44.77732 274
44.79744 267
44.81755 253
44.83767 294
44.85778 264
44.87789 283
44.89801 282
44.91812 241
44.93823 309
44.95835 314
44.97846 292
44.99858 290
45.01869 300
45.0388 281
45.05892 281
45.07903 276
45.09914 295
45.11926 284
45.13937 317
45.15949 299
45.1796 318
45.19971 305
45.21983 316
45.23994 318
45.26005 303
45.28017 340
45.30028 346
45.32039 289
45.34051 308
45.36062 316
45.38074 367
45.40085 336
45.42096 323
45.44108 361
45.46119 355
45.4813 324
45.50142 394
45.52153 348
45.54165 390
45.56176 403
45.58187 421
45.60199 428
45.6221 424
45.64221 474
45.66233 507
45.68244 491
45.70256 579
45.72267 565
45.74278 540
45.7629 560
45.78301 521
45.80312 451
45.82324 470
45.84335 445
45.86346 418
45.88358 408
45.90369 364
45.92381 340
45.94392 320
45.96403 321
45.98415 280
46.00426 302
46.02437 247
46.04449 272
46.0646 337
46.08472 304
46.10483 293
46.12494 310
46.14506 276
46.16517 307
46.18528 280
46.2054 258
46.22551 267
46.24563 270
46.26574 281
46.28585 271
46.30597 266
46.32608 263
46.34619 282
46.36631 286
46.38642 232
46.40653 257
46.42665 254
46.44676 265
46.46688 300
46.48699 268
46.5071 245
46.52722 244
46.54733 236
46.56744 227
46.58756 264
46.60767 263
46.62779 253
46.6479 270
46.66801 255
46.68813 275
46.70824 290
46.72835 242
46.74847 278
46.76858 276
46.78869 249
46.80881 264
46.82892 281
46.84904 258
46.86915 279
46.88926 288
46.90938 284
46.92949 299
46.9496 273
46.96972 279
46.98983 312
47.00995 285
47.03006 353
47.05017 324
47.07029 323
47.0904 321
47.11051 340
47.13063 322
47.15074 323
47.17086 288
47.19097 317
47.21108 307
47.2312 292
47.25131 286
47.27142 265
47.29154 288
47.31165 328
47.33176 310
47.35188 318
47.37199 300
47.39211 328
47.41222 321
47.43233 341
47.45245 322
47.47256 315
47.49267 301
47.51279 279
47.5329 297
47.55302 301
47.57313 324
47.59324 302
47.61336 293
47.63347 316
47.65358 276
47.6737 285
47.69381 247
47.71393 280
47.73404 265
47.75415 287
47.77427 273
47.79438 261
47.81449 282
47.83461 316
47.85472 301
47.87483 321
47.89495 316
47.91506 337
47.93518 302
47.95529 310
47.9754 298
47.99552 300
48.01563 355
48.03574 303
48.05586 330
48.07597 363
48.09609 299
48.1162 341
48.13631 351
48.15643 324
48.17654 325
48.19665 299
48.21677 328
48.23688 315
48.257 319
48.27711 332
48.29722 331
48.31734 327
48.33745 257
48.35756 272
48.37768 314
48.39779 289
48.4179 321
48.43802 291
48.45813 326
48.47825 303
48.49836 326
48.51847 318
48.53859 309
48.5587 330
48.57881 307
48.59893 313
48.61904 290
48.63916 313
48.65927 308
48.67938 313
48.6995 312
48.71961 289
48.73972 304
48.75984 309
48.77995 304
48.80006 308
48.82018 308
48.84029 326
48.86041 306
48.88052 310
48.90063 329
48.92075 326
48.94086 296
48.96097 301
48.98109 304
49.0012 300
49.02132 320
49.04143 357
49.06154 338
49.08166 344
49.10177 341
49.12188 353
49.142 366
49.16211 347
49.18223 387
49.20234 328
49.22245 332
49.24257 319
49.26268 392
49.28279 328
49.30291 361
49.32302 338
49.34313 324
49.36325 327
49.38336 306
49.40348 329
49.42359 314
49.4437 302
49.46382 335
49.48393 312
49.50404 336
49.52416 288
49.54427 331
49.56439 309
49.5845 334
49.60461 311
49.62473 350
49.64484 355
49.66495 347
49.68507 379
49.70518 412
49.7253 435
49.74541 372
49.76552 434
49.78564 434
49.80575 460
49.82586 494
49.84598 503
49.86609 518
49.8862 538
49.90632 568
49.92643 643
49.94655 703
49.96666 757
49.98677 826
50.00689 1022
50.027 1089
50.04711 1228
50.06723 1156
50.08734 1127
50.10746 1072
50.12757 946
50.14768 841
50.1678 815
50.18791 797
50.20802 690
50.22814 601
50.24825 545
50.26837 471
50.28848 441
50.30859 412
50.32871 365
50.34882 366
50.36893 391
50.38905 400
50.40916 378
50.42927 452
50.44939 451
50.4695 482
50.48962 470
50.50973 462
50.52984 451
50.54996 412
50.57007 419
50.59018 426
50.6103 400
50.63041 410
50.65053 371
50.67064 349
50.69075 354
50.71087 346
50.73098 366
50.75109 346
50.77121 318
50.79132 324
50.81143 344
50.83155 325
50.85166 332
50.87178 337
50.89189 325
50.912 305
50.93212 316
50.95223 334
50.97234 320
50.99246 291
51.01257 327
51.03269 349
51.0528 357
51.07291 393
51.09303 341
51.11314 370
51.13325 331
51.15337 335
51.17348 357
51.1936 366
51.21371 338
51.23382 325
51.25394 336
51.27405 324
51.29416 301
51.31428 271
51.33439 282
51.3545 302
51.37462 255
51.39473 279
51.41485 310
51.43496 270
51.45507 282
51.47519 308
51.4953 279
51.51541 288
51.53553 276
51.55564 234
51.57576 266
51.59587 242
51.61598 284
51.6361 268
51.65621 295
51.67632 257
51.69644 239
51.71655 259
51.73667 265
51.75678 262
51.77689 259
51.79701 247
51.81712 273
51.83723 240
51.85735 234
51.87746 258
51.89757 256
51.91769 284
51.9378 246
51.95792 262
51.97803 266
51.99814 243
52.01826 263
52.03837 274
52.05848 261
52.0786 271
52.09871 264
52.11883 272
52.13894 296
52.15905 252
52.17917 272
52.19928 272
52.21939 282
52.23951 282
52.25962 306
52.27974 268
52.29985 276
52.31996 286
52.34008 294
52.36019 273
52.3803 290
52.40042 287
52.42053 316
52.44064 282
52.46076 294
52.48087 301
52.50099 308
52.5211 289
52.54121 295
52.56133 304
52.58144 297
52.60155 295
52.62167 287
52.64178 291
52.6619 285
52.68201 269
52.70212 262
52.72224 267
52.74235 260
52.76246 284
52.78258 301
52.80269 273
52.8228 265
52.84292 292
52.86303 286
52.88315 301
52.90326 303
52.92337 281
52.94349 291
52.9636 300
52.98371 298
53.00383 316
53.02394 291
53.04406 285
53.06417 297
53.08428 315
53.1044 307
53.12451 307
53.14462 301
53.16474 286
53.18485 332
53.20497 295
53.22508 323
53.24519 260
53.26531 299
53.28542 318
53.30553 303
53.32565 288
53.34576 302
53.36587 292
53.38599 269
53.4061 267
53.42622 292
53.44633 269
53.46644 266
53.48656 272
53.50667 269
53.52678 271
53.5469 279
53.56701 284
53.58713 318
53.60724 293
53.62735 268
53.64747 298
53.66758 319
53.68769 312
53.70781 297
53.72792 298
53.74804 276
53.76815 293
53.78826 317
53.80838 283
53.82849 298
53.8486 292
53.86872 321
53.88883 331
53.90894 334
53.92906 336
53.94917 362
53.96929 309
53.9894 326
54.00951 328
54.02963 328
54.04974 319
54.06985 320
54.08997 314
54.11008 309
54.1302 356
54.15031 322
54.17042 279
54.19054 337
54.21065 343
54.23076 328
54.25088 293
54.27099 297
54.29111 321
54.31122 338
54.33133 328
54.35145 270
54.37156 312
54.39167 296
54.41179 310
54.4319 305
54.45201 316
54.47213 344
54.49224 295
54.51236 333
54.53247 322
54.55258 333
54.5727 305
54.59281 345
54.61292 362
54.63304 368
54.65315 378
54.67327 413
54.69338 421
54.71349 437
54.73361 449
54.75372 498
54.77383 545
54.79395 594
54.81406 525
54.83417 499
54.85429 489
54.8744 452
54.89452 445
54.91463 437
54.93474 483
54.95486 451
54.97497 420
54.99508 394
55.0152 345
55.03531 373
55.05543 381
55.07554 322
55.09565 339
55.11577 349
55.13588 345
55.15599 336
55.17611 378
55.19622 383
55.21634 358
55.23645 414
55.25656 399
55.27668 364
55.29679 379
55.3169 374
55.33702 357
55.35713 387
55.37724 361
55.39736 361
55.41747 353
55.43759 343
55.4577 330
55.47781 337
55.49793 320
55.51804 330
55.53815 300
55.55827 278
55.57838 269
55.5985 309
55.61861 291
55.63872 300
55.65884 319
55.67895 308
55.69906 304
55.71918 273
55.73929 308
55.75941 297
55.77952 293
55.79963 263
55.81975 316
55.83986 283
55.85997 307
55.88009 309
55.9002 309
55.92031 303
55.94043 327
55.96054 296
55.98066 318
56.00077 335
56.02088 299
56.041 292
56.06111 316
56.08122 298
56.10134 328
56.12145 286
56.14157 279
56.16168 293
56.18179 288
56.20191 306
56.22202 312
56.24213 285
56.26225 258
56.28236 254
56.30248 250
56.32259 278
56.3427 271
56.36282 282
56.38293 270
56.40304 275
56.42316 283
56.44327 266
56.46338 277
56.4835 279
56.50361 277
56.52373 273
56.54384 295
56.56395 259
56.58407 273
56.60418 241
56.62429 265
56.64441 266
56.66452 322
56.68464 280
56.70475 313
56.72486 275
56.74498 303
56.76509 285
56.7852 290
56.80532 293
56.82543 279
56.84554 279
56.86566 278
56.88577 303
56.90589 275
56.926 280
56.94611 289
56.96623 290
56.98634 247
57.00645 277
57.02657 282
57.04668 271
57.0668 284
57.08691 272
57.10702 274
57.12714 293
57.14725 279
57.16736 285
57.18748 272
57.20759 239
57.22771 264
57.24782 272
57.26793 256
57.28805 285
57.30816 287
57.32827 263
57.34839 290
57.3685 259
57.38861 305
57.40873 271
57.42884 255
57.44896 277
57.46907 277
57.48918 273
57.5093 281
57.52941 300
57.54952 268
57.56964 269
57.58975 279
57.60987 255
57.62998 291
57.65009 286
57.67021 262
57.69032 295
57.71043 287
57.73055 288
57.75066 284
57.77078 268
57.79089 290
57.811 262
57.83112 269
57.85123 273
57.87134 268
57.89146 281
57.91157 281
57.93168 275
57.9518 258
57.97191 265
57.99203 275
58.01214 277
58.03225 294
58.05237 295
58.07248 300
58.09259 298
58.11271 269
58.13282 272
58.15294 286
58.17305 265
58.19316 292
58.21328 268
58.23339 282
58.2535 273
58.27362 279
58.29373 286
58.31385 305
58.33396 289
58.35407 284
58.37419 300
58.3943 317
58.41441 300
58.43453 287
58.45464 281
58.47475 298
58.49487 286
58.51498 293
58.5351 298
58.55521 295
58.57532 333
58.59544 314
58.61555 321
58.63566 289
58.65578 300
58.67589 283
58.69601 290
58.71612 272
58.73623 271
58.75635 242
58.77646 260
58.79657 254
58.81669 271
58.8368 264
58.85691 270
58.87703 265
58.89714 263
58.91726 241
58.93737 254
58.95748 257
58.9776 252
58.99771 239
59.01782 262
59.03794 250
59.05805 245
59.07817 259
59.09828 280
59.11839 271
59.13851 276
59.15862 253
59.17873 250
59.19885 287
59.21896 282
59.23908 266
59.25919 259
59.2793 259
59.29942 269
59.31953 287
59.33964 244
59.35976 278
59.37987 276
59.39998 269
59.4201 255
59.44021 279
59.46033 258
59.48044 287
59.50055 294
59.52067 300
59.54078 256
59.56089 285
59.58101 306
59.60112 337
59.62124 326
59.64135 352
59.66146 323
59.68158 326
59.70169 403
59.7218 422
59.74192 464
59.76203 482
59.78215 551
59.80226 645
59.82237 683
59.84249 682
59.8626 820
59.88271 783
59.90283 792
59.92294 698
59.94305 609
59.96317 575
59.98328 525
60.0034 532
60.02351 558
60.04362 557
60.06374 525
60.08385 470
60.10396 422
60.12408 382
60.14419 373
60.16431 340
60.18442 321
60.20453 334
60.22465 330
60.24476 325
60.26487 344
60.28499 322
60.3051 330
60.32522 272
60.34533 326
60.36544 297
60.38556 299
60.40567 296
60.42578 316
60.4459 295
60.46601 286
60.48612 295
60.50624 307
60.52635 281
60.54647 247
60.56658 296
60.58669 265
60.60681 282
60.62692 315
60.64703 277
60.66715 280
60.68726 265
60.70738 287
60.72749 273
60.7476 264
60.76772 267
60.78783 282
60.80794 279
60.82806 268
60.84817 268
60.86828 271
60.8884 260
60.90851 311
60.92863 332
60.94874 289
60.96885 307
60.98897 325
61.00908 300
61.02919 287
61.04931 326
61.06942 306
61.08954 330
61.10965 319
61.12976 298
61.14988 306
61.16999 288
61.1901 288
61.21022 265
61.23033 300
61.25045 302
61.27056 303
61.29067 305
61.31079 319
61.3309 330
61.35101 315
61.37113 297
61.39124 297
61.41135 313
61.43147 320
61.45158 289
61.4717 349
61.49181 306
61.51192 304
61.53204 290
61.55215 284
61.57226 286
61.59238 318
61.61249 322
61.63261 308
61.65272 307
61.67283 305
61.69295 294
61.71306 320
61.73317 319
61.75329 304
61.7734 277
61.79352 276
61.81363 279
61.83374 295
61.85386 307
61.87397 299
61.89408 308
61.9142 306
61.93431 294
61.95442 309
61.97454 291
61.99465 284
62.01477 294
62.03488 311
62.05499 334
62.07511 324
62.09522 297
62.11533 280
62.13545 304
62.15556 332
62.17568 290
62.19579 313
62.2159 337
62.23602 298
62.25613 297
62.27624 350
62.29636 295
62.31647 319
62.33659 341
62.3567 311
62.37681 317
62.39693 332
62.41704 318
62.43715 332
62.45727 335
62.47738 274
62.49749 294
62.51761 295
62.53772 318
62.55784 322
62.57795 277
62.59806 304
62.61818 286
62.63829 294
62.6584 258
62.67852 310
62.69863 281
62.71875 289
62.73886 294
62.75897 276
62.77909 260
62.7992 296
62.81931 292
62.83943 297
62.85954 261
62.87965 282
62.89977 302
62.91988 283
62.94 272
62.96011 277
62.98022 308
63.00034 313
63.02045 287
63.04056 289
63.06068 341
63.08079 295
63.10091 276
63.12102 287
63.14113 315
63.16125 278
63.18136 286
63.20147 281
63.22159 228
63.2417 309
63.26182 296
63.28193 276
63.30204 283
63.32216 291
63.34227 294
63.36238 289
63.3825 317
63.40261 294
63.42272 274
63.44284 311
63.46295 320
63.48307 308
63.50318 298
63.52329 323
63.54341 323
63.56352 363
63.58363 352
63.60375 335
63.62386 319
63.64398 333
63.66409 338
63.6842 333
63.70432 362
63.72443 357
63.74454 361
63.76466 363
63.78477 355
63.80489 405
63.825 401
63.84511 402
63.86523 357
63.88534 463
63.90545 442
63.92557 398
63.94568 413
63.96579 406
63.98591 385
64.00602 404
64.02614 373
64.04625 365
64.06636 334
64.08648 311
64.10659 354
64.1267 319
64.14682 341
64.16693 354
64.18705 341
64.20716 302
64.22727 284
64.24739 273
64.2675 262
64.28761 274
64.30773 266
64.32784 237
64.34796 260
64.36807 276
64.38818 246
64.4083 285
64.42841 230
64.44852 276
64.46864 256
64.48875 278
64.50886 223
64.52898 251
64.54909 240
64.56921 259
64.58932 249
64.60943 268
64.62955 281
64.64966 254
64.66977 244
64.68989 271
64.71 261
64.73012 259
64.75023 272
64.77034 231
64.79046 300
64.81057 267
64.83068 286
64.8508 259
64.87091 253
64.89102 278
64.91114 288
64.93125 258
64.95137 285
64.97148 289
64.99159 283
65.01171 275
65.03182 278
65.05193 299
65.07205 310
65.09216 269
65.11228 289
65.13239 280
65.1525 298
65.17262 320
65.19273 299
65.21284 294
65.23296 307
65.25307 309
65.27319 265
65.2933 310
65.31341 279
65.33353 306
65.35364 267
65.37375 282
65.39387 285
65.41398 277
65.43409 257
65.45421 257
65.47432 250
65.49444 288
65.51455 242
65.53466 269
65.55478 293
65.57489 258
65.595 260
65.61512 244
65.63523 258
65.65535 267
65.67546 288
65.69557 293
65.71569 291
65.7358 288
65.75591 284
65.77603 264
65.79614 262
65.81626 264
65.83637 280
65.85648 257
65.8766 264
65.89671 268
65.91682 298
65.93694 231
65.95705 258
65.97716 259
65.99728 249
66.01739 264
66.03751 240
66.05762 256
66.07773 251
66.09785 264
66.11796 300
66.13807 248
66.15819 270
66.1783 303
66.19842 252
66.21853 269
66.23864 248
66.25876 276
66.27887 298
66.29898 288
66.3191 269
66.33921 285
66.35933 276
66.37944 280
66.39955 271
66.41967 275
66.43978 277
66.45989 247
66.48001 266
66.50012 258
66.52023 250
66.54035 249
66.56046 275
66.58058 239
66.60069 259
66.6208 250
66.64092 223
66.66103 236
66.68114 267
66.70126 229
66.72137 249
66.74149 241
66.7616 267
66.78171 264
66.80183 247
66.82194 252
66.84205 281
66.86217 278
66.88228 233
66.90239 249
66.92251 295
66.94262 288
66.96274 265
66.98285 278
67.00296 282
67.02308 293
67.04319 271
67.0633 268
67.08342 278
67.10353 329
67.12365 271
67.14376 277
67.16387 283
67.18399 262
67.2041 261
67.22421 274
67.24433 297
67.26444 297
67.28456 279
67.30467 300
67.32478 297
67.3449 267
67.36501 296
67.38512 291
67.40524 289
67.42535 279
67.44546 334
67.46558 333
67.48569 324
67.50581 348
67.52592 376
67.54603 395
67.56615 445
67.58626 457
67.60637 504
67.62649 546
67.6466 552
67.66672 567
67.68683 604
67.70694 533
67.72706 491
67.74717 456
67.76728 446
67.7874 452
67.80751 456
67.82763 503
67.84774 488
67.86785 502
67.88797 489
67.90808 508
67.92819 517
67.94831 507
67.96842 534
67.98853 552
68.00865 611
68.02876 644
68.04888 692
68.06899 715
68.0891 661
68.10922 676
68.12933 628
68.14944 599
68.16956 619
68.18967 646
68.20979 658
68.2299 654
68.25001 633
68.27013 620
68.29024 523
68.31035 512
68.33047 462
68.35058 400
68.3707 398
68.39081 392
68.41092 411
68.43104 377
68.45115 380
68.47126 331
68.49138 318
68.51149 300
68.5316 265
68.55172 268
68.57183 292
68.59195 276
68.61206 276
68.63217 257
68.65229 283
68.6724 243
68.69251 267
68.71263 260
68.73274 273
68.75286 260
68.77297 270
68.79308 245
68.8132 249
68.83331 245
68.85342 267
68.87354 266
68.89365 264
68.91376 239
68.93388 253
68.95399 240
68.97411 231
68.99422 267
69.01433 270
69.03445 259
69.05456 267
69.07467 232
69.09479 261
69.1149 238
69.13502 259
69.15513 276
69.17524 250
69.19536 281
69.21547 288
69.23558 288
69.2557 276
69.27581 281
69.29593 279
69.31604 275
69.33615 300
69.35627 337
69.37638 275
69.39649 284
69.41661 282
69.43672 298
69.45683 269
69.47695 270
69.49706 307
69.51718 250
69.53729 270
69.5574 270
69.57752 255
69.59763 256
69.61774 292
69.63786 277
69.65797 239
69.67809 271
69.6982 296
69.71831 247
69.73843 277
69.75854 268
69.77865 252
69.79877 270
69.81888 277
69.839 251
69.85911 286
69.87922 255
69.89934 247
69.91945 296
69.93956 261
69.95968 235
69.97979 248
69.9999 272
70.02002 266
70.04013 244
70.06025 235
70.08036 247
70.10047 231
70.12059 244
70.1407 234
70.16081 253
70.18093 238
70.20104 239
70.22116 235
70.24127 217
70.26138 223
70.2815 248
70.30161 235
70.32172 208
70.34184 212
70.36195 230
70.38207 201
70.40218 233
70.42229 207
70.44241 239
70.46252 231
70.48263 243
70.50275 234
70.52286 229
70.54297 227
70.56309 226
70.5832 228
70.60332 258
70.62343 230
70.64354 265
70.66366 243
70.68377 228
70.70388 239
70.724 254
70.74411 277
70.76423 253
70.78434 249
70.80445 246
70.82457 245
70.84468 219
70.86479 239
70.88491 259
70.90502 245
70.92513 219
70.94525 262
70.96536 246
70.98548 231
71.00559 247
71.0257 228
71.04582 253
71.06593 242
71.08604 256
71.10616 229
71.12627 270
71.14639 236
71.1665 224
71.18661 247
71.20673 228
71.22684 278
71.24695 253
71.26707 244
71.28718 287
71.3073 264
71.32741 230
71.34752 232
71.36764 246
71.38775 251
71.40786 224
71.42798 254
71.44809 251
71.4682 284
71.48832 235
71.50843 252
71.52855 226
71.54866 258
71.56877 252
71.58889 260
71.609 265
71.62911 248
71.64923 238
71.66934 218
71.68946 228
71.70957 252
71.72968 255
71.7498 251
71.76991 261
71.79002 239
71.81014 241
71.83025 240
71.85037 247
71.87048 238
71.89059 239
71.91071 229
71.93082 228
71.95093 250
71.97105 237
71.99116 241
72.01127 260
72.03139 255
72.0515 251
72.07162 276
72.09173 240
72.11184 286
72.13196 220
72.15207 249
72.17218 271
72.1923 266
72.21241 256
72.23253 232
72.25264 260
72.27275 250
72.29287 214
72.31298 252
72.33309 228
72.35321 253
72.37332 260
72.39344 238
72.41355 244
72.43366 251
72.45378 254
72.47389 246
72.494 262
72.51412 247
72.53423 228
72.55434 246
72.57446 242
72.59457 240
72.61469 230
72.6348 243
72.65491 250
72.67503 241
72.69514 228
72.71525 227
72.73537 252
72.75548 246
72.7756 247
72.79571 237
72.81582 249
72.83594 244
72.85605 257
72.87616 285
72.89628 239
72.91639 245
72.9365 229
72.95662 261
72.97673 262
72.99685 275
73.01696 258
73.03707 260
73.05719 252
73.0773 273
73.09741 274
73.11753 266
73.13764 270
73.15776 283
73.17787 286
73.19798 267
73.2181 268
73.23821 265
73.25832 282
73.27844 333
73.29855 308
73.31867 272
73.33878 358
73.35889 336
73.37901 349
73.39912 351
73.41923 354
73.43935 298
73.45946 323
73.47957 303
73.49969 294
73.5198 274
73.53992 290
73.56003 319
73.58014 305
73.60026 297
73.62037 293
73.64048 271
73.6606 272
73.68071 280
73.70083 270
73.72094 257
73.74105 269
73.76117 265
73.78128 275
73.80139 253
73.82151 223
73.84162 256
73.86174 277
73.88185 260
73.90196 246
73.92208 294
73.94219 260
73.9623 233
73.98242 260
74.00253 255
74.02264 263
74.04276 257
74.06287 262
74.08299 262
74.1031 238
74.12321 234
74.14333 255
74.16344 257
74.18355 274
74.20367 221
74.22378 239
74.2439 254
74.26401 249
74.28412 243
74.30424 250
74.32435 246
74.34446 228
74.36458 234
74.38469 284
74.40481 258
74.42492 218
74.44503 269
74.46515 248
74.48526 251
74.50537 254
74.52549 251
74.5456 264
74.56571 247
74.58583 273
74.60594 257
74.62606 251
74.64617 278
74.66628 270
74.6864 256
74.70651 251
74.72662 257
74.74674 259
74.76685 242
74.78697 269
74.80708 269
74.82719 280
74.84731 254
74.86742 267
74.88753 267
74.90765 240
74.92776 260
74.94787 281
74.96799 240
74.9881 259
75.00822 259
