3.00117 20112.011823963
3.02128 19569.2692154154
3.0414 19295
3.06151 18400.7634283235
3.08162 18306.6304784812
3.10174 17487.4533979008
3.12185 17098.3501996343
3.14197 16836.9127310294
3.16208 16101.3997000863
3.18219 15928.2524929289
3.20231 15033.6179396136
3.22242 14677.8317941364
3.24253 14342.0606942431
3.26265 13700.3901233192
3.28276 13666.8262274683
3.30288 12883.5408438472
3.32299 12746.0854857352
3.3431 12237
3.36322 11684.818716584
3.38333 11607.3281410961
3.40344 10841.9129894969
3.42356 10698.1815951116
3.44367 10406.5899016474
3.46379 10068.1080971636
3.4839 9898
3.50401 9452.70757279366
3.52413 8961.70696871981
3.54424 8849.13539517149
3.56435 8162.14863291508
3.58447 8074.06089476435
3.60458 7786.49744934411
3.62469 7271.18282722206
3.64481 7056.89171494479
3.66492 6825.90338316795
3.68504 6767.48101086792
3.70515 6315.02436252243
3.72526 6093.38048756702
3.74538 5824.31302763136
3.76549 5610.99817275999
3.7856 5676
3.80572 5261.53064309868
3.82583 4924.6706217362
3.84595 4760.63211676762
3.86606 4590.37843162338
3.88617 4429.127037703
3.90629 4384.04378742516
3.9264 4228
3.94651 4022.83484296761
3.96663 3663.70406056232
3.98674 3615.81207424613
4.00686 3399.43027301359
4.02697 3283.05585679107
4.04708 3210.20045232181
4.0672 2960
4.08731 2977.00121154432
4.10742 2826.71717945715
4.12754 2575.86391205755
4.14765 2621.14733495143
4.16776 2417.33937705502
4.18788 2383.97064170818
4.20799 2368.04716429109
4.22811 2224.9368014382
4.24822 2118.85675164751
4.26833 1966.89372351823
4.28845 2004.21061259132
4.30856 2029.16187375352
4.32867 1902.09776341455
4.34879 1907.01158868932
4.3689 1834
4.38902 1854.04541403338
4.40913 1842.83506371516
4.42924 1691.82059542997
4.44936 1667.11143230386
4.46947 1574.05823017231
4.48958 1635.88216169499
4.5097 1672
4.52981 1466.96944122095
4.54992 1549.01799171777
4.57004 1466.97745663633
4.59015 1558.85885420646
4.61027 1504.15624306317
4.63038 1388.14984391098
4.65049 1258.01533344796
4.67061 1291.99278478968
4.69072 1236.02250538804
4.71083 1324.03050944659
4.73095 1246.82061216196
4.75106 1219.09189352094
4.77118 1141.06002417538
4.79129 1145.96600143468
4.8114 1207
4.83152 1138.9717576384
4.85163 1151.94636480124
4.87174 1072.94770655191
4.89186 1110.9643354182
4.91197 1053.15722462483
4.93209 984.987220680989
4.9522 1056
4.97231 986.9676541607
4.99243 978.022237711318
5.01254 975.944964405205
5.03265 939.052099956104
5.05277 929.043605976748
5.07288 871.065682999095
5.09299 850.9705329132
5.11311 915.981968144502
5.13322 803.944741167707
5.15334 848.109206273288
5.17345 839.859492950186
5.19356 787.023146827155
5.21368 801.013374405717
5.23379 743.033061237155
5.2539 708
5.27402 723.005263957445
5.29413 709.976782415302
5.31425 715.082252036929
5.33436 724.147983346344
5.35447 644.918874534095
5.37459 782.983704971217
5.3947 687
5.41481 710.994061039994
5.43493 640.95347699314
5.45504 661.980345410236
5.47516 607.061348743648
5.49527 633.926087768161
5.51538 650.038100931127
5.5355 599
5.55561 637.00172231668
5.57572 593.972190118851
5.59584 603.012937496773
5.61595 582.084070435206
5.63606 558.012232702244
5.65618 568.980921672503
5.67629 571.015707392557
5.69641 520.981709593554
5.71652 522.031606330961
5.73663 543.968221672536
5.75675 500.975587539283
5.77686 528.96900296022
5.79697 516.011285672305
5.81709 530.989769137553
5.8372 540
5.85732 536.005358278295
5.87743 534.949525385138
5.89754 486.965580663744
5.91766 521.873418920724
5.93777 558.036386447737
5.95788 499.034455129975
5.978 499
5.99811 461.990442066702
6.01823 480.051131833063
6.03834 493.956371684362
6.05845 465.971442186936
6.07857 497.022295593694
6.09868 449.00238505507
6.11879 495.989428941467
6.13891 471.993291345044
6.15902 490.014760189677
6.17913 482.980665492664
6.19925 476.995041824874
6.21936 480.970435368912
6.23948 484.036287222653
6.25959 439.995921066058
6.2797 485
6.29982 441.971892296386
6.31993 441.966686766995
6.34004 408.030629307103
6.36016 459.971298245593
6.38027 424.037927451875
6.40039 435.992521186383
6.4205 425
6.44061 396.997539969348
6.46073 410.009820582617
6.48084 398.969115070888
6.50095 395.966486027537
6.52107 414.985633113096
6.54118 410.009837185418
6.56129 413.986606558348
6.58141 440.997563642157
6.60152 403.962741974725
6.62164 390.003547717177
6.64175 399.038364169795
6.66186 411.995193800162
6.68198 400.022090380044
6.70209 376.010723479836
6.7222 374
6.74232 403.983898899003
6.76243 367.019598939146
6.78255 424.059735815826
6.80266 394.056155201008
6.82277 392.01057367993
6.84289 370.007639573905
6.863 376
6.88311 396.005628997687
6.90323 393.982380967038
6.92334 370.922023978596
6.94346 340.980554556527
6.96357 379.959147070865
6.98368 368.037880827741
7.0038 342
7.02391 377.010398525496
7.04402 372.998290977588
7.06414 385.01995090909
7.08425 379.050464203279
7.10436 354.043351820556
7.12448 351.973801336977
7.14459 389.987902589509
7.16471 387.992262512529
7.18482 366.969051516784
7.20493 342.002951441342
7.22505 358.998355183227
7.24516 343.986868504219
7.26527 377.953368022204
7.28539 391.99377972737
7.3055 391
7.32562 332.979616826808
7.34573 353.015590647576
7.36584 338.993089718054
7.38596 354.981457516625
7.40607 350.001316247607
7.42618 356.999839026434
7.4463 352
7.46641 363.997857164321
7.48653 332.931134373691
7.50664 309.047707597865
7.52675 365.878766158714
7.54687 383.991618111332
7.56698 378.034892221832
7.58709 339.998614171978
7.60721 373.004360049814
7.62732 342.971146099401
7.64743 339.007973858454
7.66755 342.011554454802
7.68766 347.993986883836
7.70778 356.971957387611
7.72789 382.006880849898
7.748 346
7.76812 371.003755311022
7.78823 335.940898464128
7.80834 336.09918553843
7.82846 387.014067472009
7.84857 328.06861650077
7.86869 341.972280564556
7.8888 382
7.90891 321.972396403867
7.92903 319.071893574535
7.94914 363.977941281861
7.96925 320.001795821978
7.98937 376.921018708413
8.00948 378.036644363967
8.0296 338
8.04971 327.98830228688
8.06982 308.026342267773
8.08994 364.051290750004
8.11005 334.877719342452
8.13016 319.922735315254
8.15028 379.971165553677
8.17039 356.023163322388
8.1905 334
8.21062 364.996205502357
8.23073 332.989141617252
8.25085 359.037709787742
8.27096 350.998964266682
8.29107 365.994511200509
8.31119 348.011986750989
8.3313 335
8.35141 337.997586491731
8.37153 335.029401535934
8.39164 352.942531658043
8.41176 303.993858170189
8.43187 362.930104642152
8.45198 344.069787676773
8.4721 285
8.49221 326.008059603875
8.51232 313.019036237724
8.53244 360.018699331266
8.55255 328.028999841783
8.57266 351.973702321576
8.59278 343.993034252716
8.61289 361.007099849353
8.63301 332.007077569578
8.65312 379.011443875806
8.67323 338.941023808827
8.69335 329.999334345339
8.71346 331.961187769794
8.73357 357.990799565782
8.75369 337.014405568909
8.7738 328
8.79392 348.986135617215
8.81403 318.008782561914
8.83414 354.011316314954
8.85426 318.056402327028
8.87437 325.964365007159
8.89448 340.998236685617
8.9146 343
8.93471 359.987439661981
8.95483 294.905634441399
8.97494 282.08854061776
8.99505 345.90611744292
9.01517 330.077457892195
9.03528 305.950235990854
9.05539 388.985838468146
9.07551 345.978271752328
9.09562 335.987464387823
9.11573 310.98359325578
9.13585 327.074058692263
9.15596 347.000533350494
9.17608 340.987013293592
9.19619 360.00647645468
9.2163 324
9.23642 347.02144885761
9.25653 334.938019428599
9.27664 294.977060335768
9.29676 308.980851304436
9.31687 311.964225180801
9.33699 333.016750297046
9.3571 275
9.37721 329.011091009418
9.39733 302.992367456677
9.41744 338.050791312011
9.43755 331.032252408387
9.45767 331.987726440486
9.47778 337.001961519582
9.4979 328
9.51801 314.99261928574
9.53812 305.002638229191
9.55824 311.990555609924
9.57835 303.025465905736
9.59846 324.000505461382
9.61858 304.006285159192
9.63869 315.999274646447
9.6588 300
9.67892 298.993507631954
9.69903 291.015753727789
9.71915 321.075788801123
9.73926 325.060564082374
9.75937 287.016127241286
9.77949 310.984388924227
9.7996 315
9.81971 287.00981103716
9.83983 345.062625912205
9.85994 341.95438786806
9.88006 323.032018318313
9.90017 307.02601636293
9.92028 304.968382536137
9.9404 344
9.96051 313.995376588514
9.98062 333.003115795945
10.00074 303.933555281097
10.02085 294.958954133446
10.04097 313.008197397255
10.06108 294.994394964869
10.08119 322.993621536169
10.10131 304.986634812025
10.12142 287.989742381675
10.14153 296.061480012511
10.16165 349.071348616721
10.18176 341.041890401143
10.20187 326.020208813958
10.22199 317.996917542191
10.2421 324
10.26222 296.99999180117
10.28233 319.003699827239
10.30244 301.003805129293
10.32256 327.966865067441
10.34267 319.021911601129
10.36278 319.982029979224
10.3829 342
10.40301 334.990812731326
10.42313 316.981381811054
10.44324 313.004840910306
10.46335 320.963595777978
10.48347 333.997147483917
10.50358 326.007151556479
10.52369 321.00605415298
10.54381 308.000944947181
10.56392 318.998613843699
10.58403 313.027811627745
10.60415 340.982458047712
10.62426 298.07005326414
10.64438 306.954110312058
10.66449 357.984812747014
10.6846 351
10.70472 312.979289918858
10.72483 320.039669527014
10.74494 327.919297213812
10.76506 272.015861032499
10.78517 317.936014534472
10.80529 316.015604570983
10.8254 290
10.84551 326.033110428352
10.86563 363.93572068175
10.88574 283.958690906798
10.90585 326.962639587382
10.92597 295.009259012491
10.94608 334.966604648227
10.9662 337
10.98631 346.003642374572
11.00642 338.978736848004
11.02654 320.000325602557
11.04665 332.000698513978
11.06676 315.027885653053
11.08688 322.97092503353
11.10699 349.000482744767
11.1271 324
11.14722 326.020938636683
11.16733 342.9926580311
11.18745 329.01875435027
11.20756 358.955047633783
11.22767 343.083638793563
11.24779 293.996600214613
11.2679 358
11.28801 384.985996013542
11.30813 334.95522346959
11.32824 339.02078320009
11.34836 338.005464276297
11.36847 338.003730728067
11.38858 330.011168636449
11.4087 337
11.42881 387.002251671465
11.44892 346.967513056046
11.46904 340.976483926328
11.48915 331.913469172196
11.50927 386.984364439349
11.52938 348.028176224204
11.54949 365.980260940644
11.56961 386.993296232069
11.58972 362.002178841622
11.60983 384.998282888134
11.62995 367.042991410051
11.65006 417.938829307332
11.67017 413.003907699079
11.69029 421.005639866734
11.7104 397
11.73052 418.00228965135
11.75063 402.008440393023
11.77074 422.980567262917
11.79086 398.951433089922
11.81097 466.934095223804
11.83108 448.053431557226
11.8512 415
11.87131 472.033080624886
11.89143 511.010643803582
11.91154 493.941800773623
11.93165 477.972806549354
11.95177 508.954349798941
11.97188 528.980358526168
11.99199 543.003748589867
12.01211 528.00372605196
12.03222 564.040478551719
12.05234 579.971473700985
12.07245 557.996202759301
12.09256 584.929886344956
12.11268 615.965829451558
12.13279 647.991842493766
12.1529 649
12.17302 670.052919876909
12.19313 723.015201135393
12.21324 712.063327583297
12.23336 790.869277417947
12.25347 812.988570006514
12.27359 831.986699845856
12.2937 864
12.31381 899.010318034017
12.33393 914.042781980327
12.35404 922.873713230211
12.37415 806.242879551976
12.39427 760.050612258736
12.41438 712.048553851764
12.4345 679
12.45461 660.975823293999
12.47472 582.92060210677
12.49484 517.878278331132
12.51495 472.01991578736
12.53506 480.04038872966
12.55518 440.006437827647
12.57529 467.995020013129
12.5954 443
12.61552 440.004058732557
12.63563 432.967376478548
12.65575 408.975895662092
12.67586 411.010419631075
12.69597 388.048121157434
12.71609 371.991426728249
12.7362 402
12.75631 371.981044430242
12.77643 350.991413799192
12.79654 343.95450819656
12.81666 318.003175025747
12.83677 328.027587881551
12.85688 288.014163824692
12.877 321
12.89711 346.987158192471
12.91722 294.971080319386
12.93734 296.984512608397
12.95745 281.947410417549
12.97757 325.984951766014
12.99768 293.028038268615
13.01779 297.990766012031
13.03791 305.996461185556
13.05802 293.997890663062
13.07813 296.983030282804
13.09825 282.028761488318
13.11836 308.003773358851
13.13847 271.055324604256
13.15859 263.99100162736
13.1787 285
13.19882 275.991448923198
13.21893 278.010165372001
13.23904 286.022630968807
13.25916 292.020535847805
13.27927 270.027046601468
13.29938 271.977392094696
13.3195 289
13.33961 257.999403792107
13.35973 288.02647134247
13.37984 282.004058998703
13.39995 297.990056752099
13.42007 284.017958538617
13.44018 285.99194349746
13.46029 290.001182132312
13.48041 275.985780039098
13.50052 245.984780728808
13.52064 254.047550322673
13.54075 268.971912090687
13.56086 245.011280957425
13.58098 269.96310956383
13.60109 287.008298172772
13.6212 260
13.64132 279.996681071118
13.66143 252.988696220414
13.68154 271.013612783295
13.70166 258.009385773295
13.72177 267.995436019788
13.74189 261.997727147286
13.762 270
13.78211 241.99842959214
13.80223 262.005995459553
13.82234 242.979845827442
13.84245 252.976527105534
13.86257 257.974064563935
13.88268 278.003994414514
13.9028 252
13.92291 255.0058242155
13.94302 260.999320719176
13.96314 256.994033476248
13.98325 254.020511683211
14.00336 242.017773717578
14.02348 234.015984765174
14.04359 218.99790065209
14.06371 251.024941658125
14.08382 281.984252440461
14.10393 242.983580130547
14.12405 270.060000946855
14.14416 261.062531882755
14.16427 237.991707136331
14.18439 257.001513351404
14.2045 231
14.22461 241.006193951982
14.24473 248.023198121028
14.26484 262.982907741108
14.28496 239.015978359438
14.30507 249.001657412057
14.32518 228.020301735515
14.3453 229
14.36541 252.000777074148
14.38552 236.99502795339
14.40564 247.006953205732
14.42575 239.007364282856
14.44587 239.023349835767
14.46598 208.027197368699
14.48609 209.981135531691
14.50621 266.024646952785
14.52632 272.953007714627
14.54643 214.979461672873
14.56655 237.993975813018
14.58666 195.07225012345
14.60677 199.949429249544
14.62689 236.986774915932
14.647 243
14.66712 229.997222455241
14.68723 238.011082749242
14.70734 239.00009860155
14.72746 237.021031383123
14.74757 228.981715648156
14.76768 248.005547171641
14.7878 225
14.80791 244.000369211501
14.82803 217.966796504997
14.84814 225.062602114298
14.86825 252.004340991895
14.88837 226.032279315571
14.90848 225.989861560761
14.92859 237.991630690205
14.94871 246.992779965027
14.96882 230.017129713737
14.98894 258.963586436264
15.00905 208.981324317831
15.02916 248.963620936389
15.04928 227.011652396408
15.06939 240.997750001288
15.0895 232
15.10962 256.005823158932
15.12973 229.942907198174
15.14984 210.018365895528
15.16996 229.997482315468
15.19007 214.999156523689
15.21019 231.998850980548
15.2303 217
15.25041 230.00339817192
15.27053 219.978231555147
15.29064 222.054943059109
15.31075 249.022292292135
15.33087 218.005756707999
15.35098 241.996836395012
15.3711 221
15.39121 242.999327359529
15.41132 218.999043181308
15.43144 248.040484888597
15.45155 245.006221733968
15.47166 249.014826875228
15.49178 224.030377668619
15.51189 205.001198558152
15.53201 212.002044219821
15.55212 212.006915928204
15.57223 232.042026703559
15.59235 246.963534632427
15.61246 217.028638420971
15.63257 222.003779436958
15.65269 211.995218793532
15.6728 242
15.69291 236.984654721744
15.71303 203.978117903896
15.73314 214.041196629483
15.75326 231.968875927272
15.77337 238.017151420604
15.79348 221.999558297238
15.8136 234
15.83371 211.989607161007
15.85382 214.025892462781
15.87394 232.959743397079
15.89405 193.019667221708
15.91417 224.958263153876
15.93428 226.004861017221
15.95439 233.990753899081
15.97451 244.993778853096
15.99462 217.98346856348
16.01473 222.015027986036
16.03485 230.030721671044
16.05496 239.016915087438
16.07508 221.005371664266
16.09519 233.992524557828
16.1153 235
16.13542 221.999848238495
16.15553 228.993101569793
16.17564 214.995123562953
16.19576 225.989332763256
16.21587 220.006028857113
16.23598 240.944566580995
16.2561 286
16.27621 225.991700947989
16.29633 258.005702426252
16.31644 211.918317500505
16.33655 216.907307074821
16.35667 245.013366840465
16.37678 210.022040024571
16.39689 214.996289276013
16.41701 222.014094589554
16.43712 243.966381275035
16.45724 182.979453732249
16.47735 230.084059075094
16.49746 220.027712376771
16.51758 228.981345684631
16.53769 240.000554596655
16.5578 229
16.57792 217.99217491726
16.59803 222.036963271817
16.61814 244.979809208579
16.63826 216.004064259503
16.65837 236.012656014115
16.67849 202.002861942113
16.6986 239
16.71871 242.983540009893
16.73883 198.958033517859
16.75894 196.009494462131
16.77905 205.925785478583
16.79917 242.975187685186
16.81928 233.015071897298
16.8394 235
16.85951 243.984183944361
16.87962 198.999154208387
16.89974 236.022650360865
16.91985 212.014086542596
16.93996 232.995580650956
16.96008 212.002931780831
16.98019 229.999758844288
17.00031 216.006514440071
17.02042 252.013169638084
17.04053 233.981776232102
17.06065 242.014253591587
17.08076 231.039013287495
17.10087 211.030163203791
17.12099 199.996303916694
17.1411 223
17.16121 241.004876581712
17.18133 237.969112070346
17.20144 213.983898769333
17.22156 224.972156132784
17.24167 224.026719840509
17.26178 203.00823104016
17.2819 208
17.30201 207.004295016334
17.32212 229.025475036688
17.34224 240.981866067034
17.36235 225.995321825707
17.38247 238.010995544037
17.40258 218.993315154365
17.42269 245.997836621077
17.44281 214.982073842115
17.46292 202.007840113918
17.48303 219.024755746941
17.50315 231.031715490626
17.52326 241.003338399665
17.54338 233.997151165008
17.56349 244.998915898985
17.5836 231
17.60372 220.005042517337
17.62383 239.036368382934
17.64394 249.974927771028
17.66406 228.013588677873
17.68417 236.998355780621
17.70428 227.000495380628
17.7244 235
17.74451 231.016535120375
17.76463 279.006319319303
17.78474 239.953041456186
17.80485 247.014288851033
17.82497 222.010727791564
17.84508 242.977779272802
17.86519 240.013983982944
17.88531 216.004579751521
17.90542 246.009314600737
17.92554 234.014433925075
17.94565 257.994698211412
17.96576 236.979700208141
17.98588 269.005646460569
18.00599 226.01010822354
18.0261 248
18.04622 248.993807820516
18.06633 242.979141796243
18.08645 233.035186292806
18.10656 257.001292341379
18.12667 232.021919604584
18.14679 235.00335270463
18.1669 214
18.18701 225.013018003639
18.20713 249.018910375027
18.22724 242.954239370696
18.24735 231.929771379688
18.26747 269.017865267951
18.28758 211.042742328936
18.3077 219
18.32781 243.00212102295
18.34792 228.979345129387
18.36804 215.995623568643
18.38815 222.971400726212
18.40826 231.99174151976
18.42838 234.992089179303
18.44849 243.001477635839
18.46861 226.990032365215
18.48872 223.023053358557
18.50883 250.99913835067
18.52895 225.96998579169
18.54906 237.980349082274
18.56917 228.031937242729
18.58929 213.99812079787
18.6094 232
18.62951 235.994652193911
18.64963 230.028052419628
18.66974 254.985447325301
18.68986 220.038377136535
18.70997 237.94975460684
18.73008 256.007382992631
18.7502 234
18.77031 241.012838591755
18.79042 262.999604183434
18.81054 246.987461875067
18.83065 257.973770538468
18.85077 256.013252154784
18.87088 247.007938385273
18.89099 243.997622259667
18.91111 252.001906503544
18.93122 252.003856441859
18.95133 255.98906176018
18.97145 232.921170761894
18.99156 222.930234266582
19.01168 273.985582087862
19.03179 251.004393845974
19.0519 265
19.07202 232.979772304758
19.09213 239.014459753462
19.11224 235.981118321536
19.13236 239.938119541944
19.15247 274.996967961461
19.17258 247.017845018932
19.1927 261
19.21281 275.997228189913
19.23293 257.978578545629
19.25304 260.030056809675
19.27315 273.002815727342
19.29327 272.957766229986
19.31338 310.998248434897
19.33349 280.007028168815
19.35361 296.00481316132
19.37372 296.023250533674
19.39384 337.039686955604
19.41395 316.899109636453
19.43406 292.979265611608
19.45418 324.976994768809
19.47429 317.015343080441
19.4944 299
19.51452 351.043358719321
19.53463 365.001810242543
19.55475 364.983885313741
19.57486 362.9629760401
19.59497 400.940336775283
19.61509 423.997747801081
19.6352 431
19.65531 488.02962690588
19.67543 537.071330438427
19.69554 573.008398582096
19.71565 572.893129064247
19.73577 647.927600318046
19.75588 655.98781978914
19.776 711
19.79611 809.040224066285
19.81622 868.055794356429
19.83634 915.025436743084
19.85645 898.042740227727
19.87656 920.853111660608
19.89668 984.0203707749
19.91679 891.040532016869
19.93691 876.011104266642
19.95702 898.013077206389
19.97713 891.959718029613
19.99725 850.884747353795
20.01736 808.077753457048
20.03747 783.001193950322
20.05759 807.979077858291
20.0777 831
20.09782 777.962119120614
20.11793 776.016393872149
20.13804 777.98829808083
20.15816 769.016662646128
20.17827 778.936701091782
20.19838 812.032272259656
20.2185 734
20.23861 767.043091378298
20.25872 823.970864085075
20.27884 731.851046775544
20.29895 722.935451994582
20.31907 747.971077547992
20.33918 752.01630153677
20.35929 732.000870223204
20.37941 742.998161289159
20.39952 738.034336768299
20.41963 797.04153847304
20.43975 791.032111009945
20.45986 817.038648264856
20.47998 769.99825917545
20.50009 812.999903471955
20.5202 759
20.54032 769.009366649458
20.56043 770.04576063781
20.58054 814.006201598896
20.60066 787.978355940624
20.62077 859.863723904752
20.64088 935.932503131939
20.661 1007
20.68111 1128.09683485482
20.70123 1373.35996184265
20.72134 1646.78565365617
20.74145 2169.59078218621
20.76157 2797.81998363995
20.78168 3687.18327866553
20.80179 4401.63401277059
20.82191 5065.18275381795
20.84202 5092.86759866848
20.86214 4786.67190921574
20.88225 3835.59648138941
20.90236 3013.55866364548
20.92248 2205.78293213069
20.94259 1519.27293132079
20.9627 1126
20.98282 951.872933930098
21.00293 844.886722981183
21.02305 785.834482589108
21.04316 744.915856818862
21.06327 819.004776017586
21.08339 734.030703105947
21.1035 737
21.12361 694.96434811976
21.14373 647.018931821422
21.16384 705.102251259979
21.18395 700.14685521973
21.20407 643.001771463572
21.22418 683.984726556875
21.2443 649
21.26441 631.998388661077
21.28452 639.024865574812
21.30464 654.944730332221
21.32475 603.05358900334
21.34486 625.945844270077
21.36498 625.021115985454
21.38509 596.01602338002
21.40521 573.998543784961
21.42532 587.016877475011
21.44543 594.997082516596
21.46555 576.902284859926
21.48566 550.945997595644
21.50577 589.049238715653
21.52589 511.007230159325
21.546 572
21.56612 552.980574528247
21.58623 551.967498910588
21.60634 509.955109864041
21.62646 520.962263450483
21.64657 542.931870758315
21.66668 576.036470225967
21.6868 495
21.70691 518.016491269461
21.72702 515.973037858912
21.74714 496.018427960741
21.76725 516.024696522006
21.78737 484.008217935882
21.80748 507.992297863412
21.82759 491.002162548387
21.84771 508.004771357635
21.86782 494.978002636112
21.88793 477.983355627211
21.90805 474.00939947781
21.92816 481.984123211931
21.94828 503.946096295355
21.96839 557.998414335734
21.9885 508
22.00862 488.005931327406
22.02873 500.010403464543
22.04884 484.914450891242
22.06896 447.981616591752
22.08907 491.959155661268
22.10919 470.026099312284
22.1293 429
22.14941 465.031383768451
22.16953 500.955140637359
22.18964 437.951725266552
22.20975 466.937859093103
22.22987 460.014348518913
22.24998 467.983615340029
22.27009 476.004118442663
22.29021 465.003837934544
22.31032 484.001459527796
22.33044 474.02660613251
22.35055 490.91594431696
22.37066 432.007966699902
22.39078 474.000845443999
22.41089 425.006667082277
22.431 456
22.45112 417.991095474256
22.47123 451.03094557332
22.49135 441.994582556842
22.51146 467.922960596846
22.53157 479.062427220078
22.55169 414.016407632735
22.5718 442
22.59191 484.997587598375
22.61203 438.921791165319
22.63214 410.985299575885
22.65225 416.960362027985
22.67237 428.008056271631
22.69248 401.041974647614
22.7126 374
22.73271 416.01906689852
22.75282 427.996428771649
22.77294 420.982075685407
22.79305 412.020545479636
22.81316 410.975856787257
22.83328 433.974545359035
22.85339 446.004706666277
22.87351 424.992704376119
22.89362 429.01710204662
22.91373 438.981942515879
22.93385 410.942931600266
22.95396 411.954459084012
22.97407 432.008258301843
22.99419 411.001755409699
23.0143 438
23.03442 436.931276840689
23.05453 350.966381849621
23.07464 402.109038932137
23.09476 420.974042910355
23.11487 436.008040482193
23.13498 414.012262193677
23.1551 429
23.17521 459.006400417654
23.19532 441.954079173312
23.21544 402.001508797351
23.23555 437.923158405664
23.25567 421.100600267144
23.27578 355.009912871851
23.29589 394.985608803503
23.31601 394.005630579934
23.33612 430.030759606105
23.35623 425.94158945608
23.37635 373.894181472098
23.39646 359.976995275551
23.41658 379.985533355587
23.43669 388.991390125408
23.4568 409
23.47692 393.984925077939
23.49703 395.023102277948
23.51714 408.996558434853
23.53726 402.969422774408
23.55737 430.990681971082
23.57749 416.999065246487
23.5976 444
23.61771 444.990646682827
23.63783 420.971598032814
23.65794 411.992039532821
23.67805 418.928191969303
23.69817 435.063549852553
23.71828 371.999162856128
23.73839 437.976204106763
23.75851 422.980547923926
23.77862 396.985725894952
23.79874 397.036962101426
23.81885 415.992868057342
23.83896 407.948862275715
23.85908 456.977164983506
23.87919 438.013606999338
23.8993 432
23.91942 453.026303524741
23.93953 468.990654465324
23.95965 448.966357533514
23.97976 454.963501135463
23.99987 466.013177066801
24.01999 448.001921267536
24.0401 457
24.06021 440.99694605977
24.08033 441.973587301724
24.10044 406.949749157306
24.12056 409.954870954086
24.14067 431.985711751777
24.16078 425.015767374679
24.1809 413
24.20101 416.000712833393
24.22112 417.00936818386
24.24124 437.047693053023
24.26135 456.96405206841
24.28146 459.03182365999
24.30158 451.965526783164
24.32169 495.0073523642
24.34181 437.991393257346
24.36192 463.991211486155
24.38203 412.966251360159
24.40215 447.121114653329
24.42226 465.032480901873
24.44237 441.00254111405
24.46249 466.985619315259
24.4826 479
24.50272 470.982991889781
24.52283 467.048319296856
24.54294 522.081275740999
24.56306 513.114573924544
24.58317 463.976945708862
24.60328 519.983799031089
24.6234 492
24.64351 546.023339261273
24.66362 568.036372646036
24.68374 613.015699064623
24.70385 588.02013675104
24.72397 619.932255696983
24.74408 666.936892973424
24.76419 730.983160908708
24.78431 739.008608606893
24.80442 767.004977656531
24.82453 773.096502284101
24.84465 871.121095109477
24.86476 841.110381262717
24.88488 813.000799601041
24.90499 828.988795761383
24.9251 829
24.94522 750.90913746025
24.96533 686.971190607928
24.98544 695.00163689337
25.00556 681.003758474993
25.02567 663.132940217595
25.04579 561.000627761174
25.0659 648
25.08601 619.991387134059
25.10613 628.945356657939
25.12624 556.948974517765
25.14635 596.893205698188
25.16647 608.985328823479
25.18658 640.950521359217
25.20669 681.994925457353
25.22681 661.9863553508
25.24692 664.045390342894
25.26704 718.025899496285
25.28715 670.807623599506
25.30726 619.994539972594
25.32738 632.049740943395
25.34749 541.019644781787
25.3676 574
25.38772 555.94953424443
25.40783 511.974789703328
25.42795 521.033604037914
25.44806 517.043902862825
25.46817 491.022730019069
25.48829 484.008022082085
25.5084 480
25.52851 539.998558936733
25.54863 475.929416709233
25.56874 479.018863935848
25.58886 473.993201992108
25.60897 486.998784145502
25.62908 480.985653058539
25.6492 498
25.66931 465.019962031361
25.68942 561.054030472697
25.70954 541.946889194364
25.72965 537.048045985778
25.74976 506.007454995101
25.76988 543.945368355939
25.78999 576.002958958186
25.81011 536.974130364863
25.83022 500.989068186736
25.85033 515.044915085791
25.87045 539.011466484775
25.89056 528.019015357552
25.91067 533.972202014968
25.93079 560.983104970072
25.9509 567
25.97102 493.987184367727
25.99113 547.070802081537
26.01124 566.07749955069
26.03136 611.022997765507
26.05147 572.95840947052
26.07158 654.968618204979
26.0917 612
26.11181 618.002065306797
26.13193 608.011966002231
26.15204 656.155413772721
26.17215 732.866412800891
26.19227 753.999662084352
26.21238 759.973610712141
26.23249 816.958929720785
26.25261 882.004552567272
26.27272 880.069455095624
26.29283 1009.1388244716
26.31295 1064.27334958662
26.33306 1231.73189090558
26.35318 1317.88920392493
26.37329 1479.91853413596
26.3934 1640
26.41352 1917.34697073838
26.43363 2394.99725191572
26.45374 3238.87119319666
26.47386 4291.50269461694
26.49397 5842.24304405087
26.51409 8098.62100126279
26.5342 11181
26.55431 14517.0824001947
26.57443 18985.34675551
26.59454 21206.0598975171
26.61465 22112.8672676569
26.63477 20372.9531571255
26.65488 17189.8079216837
26.67499 13146.846932176
26.69511 9943.48368704082
26.71522 6872.10745279932
26.73534 4375.98644262477
26.75545 2803.9540855839
26.77556 1857.27674323153
26.79568 1469.20858370547
26.81579 1320.06416894679
26.8359 1185
26.85602 1077.90951429018
26.87613 998.899005188595
26.89625 942.892324584856
26.91636 898.122142129139
26.93647 805.185620113023
26.95659 704.011431851788
26.9767 725
26.99681 648.976978654397
27.01693 645.958380277397
27.03704 592.979172239754
27.05716 632.939341626342
27.07727 607.103853175415
27.09738 531.057586999176
27.1175 518
27.13761 549.989527427863
27.15772 496.987210248982
27.17784 519.965428203932
27.19795 469.996229685857
27.21806 523.953478300795
27.23818 490.034339231023
27.25829 491.990711088085
27.27841 497.991921666985
27.29852 471.986319857201
27.31863 486.052797339253
27.33875 527.092892063341
27.35886 548.992184552238
27.37897 544.999067450787
27.39909 545.009189199973
27.4192 508
27.43932 499.031172015391
27.45943 531.976783218085
27.47954 484.977234328786
27.49966 503.050874503257
27.51977 447.000346617548
27.53988 495.995011716628
27.56 438
27.58011 444.012469101277
27.60023 446.959926292207
27.62034 405.936653177024
27.64045 402.944755310749
27.66057 425.995431068217
27.68068 405.02813227262
27.70079 396.988540868878
27.72091 428.002497055435
27.74102 402.974905794904
27.76113 393.990943312888
27.78125 403.123440008462
27.80136 459.98953320096
27.82148 422.014036875304
27.84159 441.002951848795
27.8617 397
27.88182 398.025201009079
27.90193 408.957796776093
27.92204 355.923408459073
27.94216 353.965542042113
27.96227 368.987502653716
27.98239 368.004350039458
28.0025 354
28.02261 344.005096476948
28.04273 362.002085910242
28.06284 345.980092349467
28.08295 348.008284020377
28.10307 341.982971068717
28.12318 366.985513128679
28.1433 354
28.16341 343.023773107912
28.18352 409.007446920949
28.20364 342.844551944372
28.22375 312.03564958736
28.24386 344.946921734848
28.26398 338.043055172799
28.28409 304.986779879977
28.3042 356
28.32432 292.974417740233
28.34443 323.020022824532
28.36455 304.012053269309
28.38466 337.975908556236
28.40477 310.052832332723
28.42489 306.98186302523
28.445 350
28.46511 327.994409738753
28.48523 332.976895324517
28.50534 307.019913631356
28.52546 339.013264212593
28.54557 299.011208478456
28.56568 339.960830773613
28.5858 332
28.60591 280.993677110152
28.62602 306.023721722172
28.64614 315.038401843938
28.66625 337.020233263189
28.68636 305.033462844395
28.70648 317.981952585353
28.72659 322.002370312343
28.74671 308.987033294102
28.76682 290.012974518764
28.78693 326.03739735669
28.80705 326.993949851827
28.82716 331.994745015214
28.84727 319.047898797404
28.86739 287.004544973766
28.8875 298
28.90762 293.004811705275
28.92773 318.052538206811
28.94784 340.996655512247
28.96796 318.056253527804
28.98807 300.011981264954
29.00818 289.026540768512
29.0283 265
29.04841 296.004173768102
29.06853 283.015810567088
29.08864 323.060731191175
29.10875 319.061264940186
29.12887 290.046278862461
29.14898 271.992405508191
29.16909 300.983417784054
29.18921 311.989558664088
29.20932 280.990641233375
29.22943 291.998109018172
29.24955 282.043323275853
29.26966 318.975251076798
29.28978 288.049111503654
29.30989 267.984047682682
29.33 312
29.35012 266.993266030069
29.37023 314.060418337174
29.39034 306.929439717004
29.41046 280.995002454124
29.43057 305.966150518079
29.45069 308.006047830555
29.4708 301
29.49091 311.990111850752
29.51103 276.994765782471
29.53114 308.044246106039
29.55125 304.011118637811
29.57137 313.979870290008
29.59148 314.019374135116
29.6116 286
29.63171 284.003710483111
29.65182 287.995669301807
29.67194 285.02579107562
29.69205 308.031505537845
29.71216 306.001426672433
29.73228 306.015784034353
29.75239 276.012809771095
29.7725 270
29.79262 289.021263513822
29.81273 304.008429755426
29.83285 294.935108124861
29.85296 272.988440225672
29.87307 301.964138950525
29.89319 301.00886384104
29.9133 291
29.93341 311.996800980073
29.95353 286.999093938668
29.97364 305.982246402495
29.99376 270.028728097047
30.01387 296.940499201499
30.03398 311.021916292212
30.0541 276
30.07421 287.004116794034
30.09432 279.993442685249
30.11444 282.006212158715
30.13455 282.992362364933
30.15467 281.027492596493
30.17478 272.95952864474
30.19489 329.000256604696
30.21501 268.974924038846
30.23512 273.034181927198
30.25523 295.991023613701
30.27535 277.003896588883
30.29546 297.988590157362
30.31557 286.991946513523
30.33569 297.015159730314
30.3558 246
30.37592 287.025968335841
30.39603 272.974277813443
30.41614 274.007833948486
30.43626 271.008880439239
30.45637 268.006079601779
30.47648 265.994272643776
30.4966 281
30.51671 289.99313863249
30.53683 266.989786919874
30.55694 278.010615723005
30.57705 272.991326419045
30.59717 285.993076594734
30.61728 272.024825319517
30.63739 260.989956559763
30.65751 295.006507164246
30.67762 277.978488680274
30.69773 273.011139808878
30.71785 287.046870534646
30.73796 303.980164072924
30.75808 301.016822337627
30.77819 281.005606415087
30.7983 270
30.81842 234.997515769898
30.83853 274.07953004532
30.85864 306.004520596846
30.87876 286.052191167251
30.89887 268.0166901295
30.91899 264.996070999483
30.9391 266
30.95921 243.015879070307
30.97933 310.046008818782
30.99944 278.904973845093
31.01955 256.003982315487
31.03967 266.972446583696
31.05978 274.018170615084
31.0799 245
31.10001 262.013605799326
31.12012 283.015774290194
31.14024 285.962505893794
31.16035 254.06757636799
31.18046 246.978555480429
31.20058 263.986173652539
31.22069 265.006135503686
31.2408 252
31.26092 270.029301924247
31.28103 288.990582143672
31.30115 257.899431291923
31.32126 232.00533926176
31.34137 254.936646685367
31.36149 286.002595165428
31.3816 252
31.40171 247.005059336257
31.42183 256.002676019548
31.44194 245.959332713786
31.46206 233.97215131303
31.48217 262.976786284947
31.50228 255.012991157869
31.5224 246
31.54251 241.014104096837
31.56262 282.008915812329
31.58274 256.967432004596
31.60285 268.956611401118
31.62297 268.030393442266
31.64308 242.016762933392
31.66319 238.00114904376
31.68331 237.005518106645
31.70342 258.017888857676
31.72353 262.992436888416
31.74365 240.878461824829
31.76376 200.970737445845
31.78387 253.956158321688
31.80399 244.999958415844
31.8241 260
31.84422 222.980816407055
31.86433 247.07472426817
31.88444 277.968124193921
31.90456 232.060975870884
31.92467 241.953831287982
31.94478 263.997204074068
31.9649 246
31.98501 221.995751798672
32.00513 230.02427200585
32.02524 242.006918965154
32.04535 245.956053337578
32.06547 267.994477698631
32.08558 252.014240361279
32.10569 258.986812483969
32.12581 280.997612591934
32.14592 253.977724075832
32.16604 252.014816668721
32.18615 258.011496567711
32.20626 253.045403960776
32.22638 229.997276093797
32.24649 249.00012997883
32.2666 230
32.28672 256.02766603529
32.30683 267.001967573338
32.32694 260.963880522849
32.34706 242.007069670261
32.36717 258.960422169398
32.38729 271.007736220525
32.4074 239
32.42751 236.00373616427
32.44763 251.045119234699
32.46774 277.995218029926
32.48785 256.013810618395
32.50797 269.999049442208
32.52808 256.993931324178
32.5482 278
32.56831 251.991817039109
32.58842 254.998029223696
32.60854 239.976744759064
32.62865 241.975823903458
32.64876 254.964580230018
32.66888 257.035728937991
32.68899 211.002978284848
32.7091 254
32.72922 263.962142104677
32.74933 219.999064908076
32.76945 255.034470068889
32.78956 232.037406539328
32.80967 229.02476258897
32.82979 210.988912055768
32.8499 262
32.87001 239.979750472542
32.89013 227.047126017082
32.91024 270.009153563766
32.93036 231.074936314588
32.95047 230.956329648486
32.97058 256.004520426141
32.9907 230
33.01081 230.992624098338
33.03092 203.995189884749
33.05104 234.086263173536
33.07115 252.061299443807
33.09127 212.016231174608
33.11138 230.995115958539
33.13149 224.984915160612
33.15161 277.005796039618
33.17172 242.977016260713
33.19183 246.986391545987
33.21195 220.983723682095
33.23206 244.941950670993
33.25217 257.003400065885
33.27229 251.000972838985
33.2924 255
33.31252 246.973683338329
33.33263 224.012970735672
33.35274 245.977832431202
33.37286 202.05919997321
33.39297 216.935182473593
33.41308 250.997119000875
33.4332 233
33.45331 237.992736964763
33.47343 213.007785257956
33.49354 238.993977939341
33.51365 205.042030930124
33.53377 224.957211799402
33.55388 234.010747370134
33.57399 223.994217014534
33.59411 246.000106725452
33.61422 223.987493156303
33.63434 232.01623720561
33.65445 227.979657205189
33.67456 231.951413677655
33.69468 249.026404653849
33.71479 204.001024649002
33.7349 248
33.75502 234.96858597476
33.77513 206.957703509847
33.79524 199.073723650384
33.81536 263.899501182238
33.83547 268.048759580031
33.85559 230.010731892243
33.8757 237
33.89581 254.996447841282
33.91593 218.923215653024
33.93604 189.029900303158
33.95615 228.947495227341
33.97627 219.014401854052
33.99638 223.997537237455
34.0165 219
34.03661 229.00667817024
34.05672 235.997520816567
34.07684 237.040919913455
34.09695 268.95285408073
34.11706 260.054875359548
34.13718 238.001514262669
34.15729 250.996739571204
34.17741 241.993697185431
34.19752 243.020075208402
34.21763 254.956654356793
34.23775 216.036982177307
34.25786 272.953402871175
34.27797 240.054972989541
34.29809 242.983170454472
34.3182 277
34.33831 274.004754763539
34.35843 295.0050397034
34.37854 284.013488338526
34.39866 308.977493972677
34.41877 290.050973822053
34.43888 261.018531680215
34.459 265
34.47911 310.015541434961
34.49922 314.991423590268
34.51934 309.000467980622
34.53945 313.988442584069
34.55957 318.983380909608
34.57968 332.992266436153
34.59979 344.982190106737
34.61991 381.997972005428
34.64002 355.010365225364
34.66013 401.029288625172
34.68025 369.889851741017
34.70036 361.91943849592
34.72047 410.991802645765
34.74059 382.999525307426
34.7607 435
34.78082 484.051154027128
34.80093 512.948696537409
34.82104 457.009482780082
34.84116 521.916761232725
34.86127 505.042530386495
34.88138 505.975985604801
34.9015 531
34.92161 533.008716188329
34.94173 560.010580075657
34.96184 551.015822757385
34.98195 563.074075518663
35.00207 492.097850607171
35.02218 490.924541044699
35.04229 562.013991071621
35.06241 463.978127578498
35.08252 505.033160606813
35.10264 479.917209228236
35.12275 458.988090541057
35.14286 461.986434554474
35.16298 461.016389036133
35.18309 441.001919439885
35.2032 448
35.22332 435.014408348035
35.24343 457.969137517257
35.26354 405.962017078716
35.28366 433.950529315919
35.30377 435.985778635236
35.32389 446.01346062149
35.344 406
35.36411 445.995961068555
35.38423 393.981516298897
35.40434 450.139790132602
35.42445 485.982604479702
35.44457 463.089030401807
35.46468 419.966378775406
35.4848 494
35.50491 432.968687376656
35.52502 421.015814180843
35.54514 431.992782189719
35.56525 421.00337171334
35.58536 457.827046256163
35.60548 514.067287170483
35.62559 380.024772436536
35.64571 451.038551652261
35.66582 459.979617883192
35.68593 457.033554535725
35.70605 467.886854292518
35.72616 409.963105037781
35.74627 485.96166919601
35.76639 448.003339748426
35.7865 490
35.80661 458.993567316045
35.82673 486.039795467925
35.84684 476.920445771163
35.86696 444.979250732674
35.88707 485.961854350747
35.90718 482.001469045992
35.9273 488
35.94741 454.987687184522
35.96752 447.992782025424
35.98764 446.053361213741
36.00775 486.958505102153
36.02787 469.036963109651
36.04798 444.046316241399
36.06809 402.99351000337
36.08821 453.010527263797
36.10832 437.004133141448
36.12843 460.979618022273
36.14855 416.975684088753
36.16866 441.014057169882
36.18878 391.03966187343
36.20889 397.981374881149
36.229 436
36.24912 434.973570194068
36.26923 406.991332913237
36.28934 448.177384066092
36.30946 539.905883092564
36.32957 552.946905897887
36.34968 623.938135852383
36.3698 670
36.38991 777.064467366298
36.41003 915.223715733336
36.43014 1077.3402345702
36.45025 1276.38027440288
36.47037 1519.76352294547
36.49048 1606.89274205355
36.51059 1718.99637618386
36.53071 1585.90068985991
36.55082 1374.76043984771
36.57094 1164.80066034371
36.59105 1131.78469513706
36.61116 962.319966501631
36.63128 849.116877227249
36.65139 701.075798055356
36.6715 558
36.69162 444.969063989965
36.71173 468.001260061063
36.73184 424.935095861017
36.75196 423.010423454995
36.77207 405.009283960342
36.79219 409.005971701864
36.8123 381
36.83241 382.000977972105
36.85253 379.005774627194
36.87264 383.977301275984
36.89275 358.052217975826
36.91287 352.996160782714
36.93298 355.995379100802
36.9531 364
36.97321 369.995012059257
36.99332 350.98928830465
37.01344 349.98633281243
37.03355 345.942463424836
37.05366 372.039206578525
37.07378 327.000809519776
37.09389 364.000622866319
37.11401 318.991036958031
37.13412 343.010445002462
37.15423 328.004316935092
37.17435 351.00516500709
37.19446 332.992579502725
37.21457 360.980574735984
37.23469 343.012735603531
37.2548 335
37.27491 353.004907306826
37.29503 356.018071962877
37.31514 368.979596689867
37.33526 341.031577647542
37.35537 346.988136495157
37.37548 346.0009067837
37.3956 352
37.41571 366.009032795576
37.43582 373.982745100627
37.45594 346.988364980556
37.47605 374.891959274287
37.49617 390.058303928634
37.51628 347.968004866646
37.53639 424.992515424026
37.55651 360.97358415015
37.57662 382.068303124798
37.59673 430.982836558118
37.61685 386.98017502372
37.63696 425.943681232505
37.65708 417.015297258431
37.67719 412.004357465031
37.6973 402
37.71742 415.999057822109
37.73753 400.992936253389
37.75764 416.039853125365
37.77776 417.054308368767
37.79787 380.028145510624
37.81798 384.993492160718
37.8381 386
37.85821 409.011260994281
37.87833 408.951736461476
37.89844 361.931411166664
37.91855 359.942186680982
37.93867 390.95740262043
37.95878 402.011287443319
37.97889 388.994558287495
37.99901 411.998751079586
38.01912 379.972130081646
38.03924 380.037181011065
38.05935 404.063134549288
38.07946 420.000775891053
38.09958 415.988090566164
38.11969 430.008730909323
38.1398 407
38.15992 480.041981941502
38.18003 467.973977993871
38.20015 467.979149818155
38.22026 455.970304843369
38.24037 488.982525284499
38.26049 476.000760919911
38.2806 508
38.30071 538.992461542547
38.32083 496.964409957467
38.34094 499.987629672495
38.36105 480.997955980297
38.38117 515.924080549548
38.40128 543.018244044097
38.4214 499
38.44151 504.007171883617
38.46162 514.01550252758
38.48174 520.948668894945
38.50185 479.042529588895
38.52196 490.991133740976
38.54208 472.021446668067
38.56219 461.004090614466
38.58231 466.018138733551
38.60242 495.967532347138
38.62253 420.938474231274
38.64265 437.052085234042
38.66276 439.971595769891
38.68287 460.013757666556
38.70299 424.012499490611
38.7231 418
38.74321 397.004617181957
38.76333 423.995790429258
38.78344 395.997471105381
38.80356 421.002375674533
38.82367 387.031379166453
38.84378 390.007820232957
38.8639 368
38.88401 375.991866513766
38.90412 356.033658248619
38.92424 433.104019926141
38.94435 417.148720256498
38.96447 372.989709935061
38.98458 416.968355005581
39.00469 407.015915495014
39.02481 385.000119458526
39.04492 391.986120461219
39.06503 373.02910696484
39.08515 427.10257099157
39.10526 435.991621915474
39.12538 444.007352674504
39.14549 429.996310805243
39.1656 460
39.18572 478.033773198692
39.20583 505.965045166467
39.22594 466.046734935647
39.24606 545.902864834289
39.26617 557.915622451221
39.28628 664.918765196172
39.3064 714
39.32651 857.076602470428
39.34663 1008.27018013487
39.36674 1199.29475312113
39.38685 1327.54205677109
39.40697 1540.79250674992
39.42708 1555.05813453735
39.44719 1466.06465158014
39.46731 1312.92654877558
39.48742 1175.85129841483
39.50754 1030.79992118604
39.52765 965.806182397033
39.54776 842.304616206683
39.56788 682.159286428753
39.58799 546.047078398855
39.6081 477
39.62822 386.924139866357
39.64833 340.960693074427
39.66845 323.981844380235
39.68856 326.973080309876
39.70867 344.975894965949
39.72879 342.016458148935
39.7489 294
39.76901 288.008976000083
39.78913 307.005303007964
39.80924 292.965346573819
39.82935 291.947683310144
39.84947 315.001103043808
39.86958 292.017791701887
39.8897 284
39.90981 271.018940243036
39.92992 333.015508134985
39.95004 294.942913053441
39.97015 308.932610605223
39.99026 320.009212281231
40.01038 310.005399024567
40.03049 324.979457771698
40.05061 374.016003702859
40.07072 382.000947405519
40.09083 390.017977722703
40.11095 415.124316653569
40.13106 484.856263831343
40.15117 555.875862697492
40.17129 645.961205905594
40.1914 709
40.21152 784.079852635793
40.23163 853.07014140502
40.25174 867.967188738945
40.27186 835.069093679263
40.29197 783.147951571837
40.31208 667.072077906321
40.3322 645
40.35231 588.970158572459
40.37242 535.938670774492
40.39254 466.881575809341
40.41265 406.221971892542
40.43277 317.048498271756
40.45288 335.991298904042
40.47299 307.016110549939
40.49311 296.000395695062
40.51322 292.987237926637
40.53333 280.003720476678
40.55345 297.037260428464
40.57356 298.016832278941
40.59368 292.993245860553
40.61379 303.001864967871
40.6339 281
40.65402 267.006767629335
40.67413 284.014358221988
40.69424 273.95140157203
40.71436 250.027232888432
40.73447 260.939721049567
40.75458 296.009972672214
40.7747 260
40.79481 294.008016412958
40.81493 282.006723674097
40.83504 298.962244205284
40.85515 260.97882612153
40.87527 302.009019765648
40.89538 247.025837956683
40.91549 274.985720853876
40.93561 267.987144193664
40.95572 259.026602939249
40.97584 298.017848572778
40.99595 277.985101209072
41.01606 302.940700630703
41.03618 305.032168130082
41.05629 278.986232468288
41.0764 327
41.09652 258.96266846618
41.11663 283.046248509936
41.13675 282.963703586727
41.15686 268.034729109995
41.17697 259.976743724273
41.19709 290.988098013755
41.2172 284
41.23731 242.994630755623
41.25743 269.056034493337
41.27754 291.009015882538
41.29765 288.989453767325
41.31777 293.023184726221
41.33788 272.990033746803
41.358 295
41.37811 248.996462463376
41.39822 286.020201996004
41.41834 258.911776894051
41.43845 231.019048017816
41.45856 246.921914826615
41.47868 276.014387886139
41.49879 239.002577899523
41.51891 275.015953580802
41.53902 272.978875803854
41.55913 256.9982795018
41.57925 257.952430364174
41.59936 224.04199667503
41.61947 236.939127659864
41.63959 278.988668573684
41.6597 281
41.67982 281.985653767494
41.69993 256.978261812444
41.72004 265.04346709238
41.74016 281.995911857002
41.76027 264.049570763498
41.78038 243.98323700691
41.8005 273
41.82061 235.994395143762
41.84072 265.028441387223
41.86084 269.997672921444
41.88095 267.044278442563
41.90107 249.981362369261
41.92118 284.978486002524
41.94129 270.019332760489
41.96141 238.997964116682
41.98152 260.025181940898
42.00163 265.975792071995
42.02175 249.0162240038
42.04186 277.948347275976
42.06198 277.026416335143
42.08209 258.988381174523
42.1022 300
42.12232 265.989705266289
42.14243 301.063673607609
42.16254 325.033059314389
42.18266 339.984758118223
42.20277 335.025980612519
42.22289 328.985553101583
42.243 389
42.26311 455.047930240369
42.28323 558.087250846618
42.30334 593.166221078745
42.32345 719.771034683726
42.34357 798.753838457026
42.36368 1017.85908095781
42.38379 1052.98453573953
42.40391 1115.01243936196
42.42402 1075.93797422986
42.44414 1003.78354386908
42.46425 862.646763678624
42.48436 748.178187468074
42.50448 677.055857122299
42.52459 640.004985741323
42.5447 613
42.56482 457.848261627904
42.58493 357.912158299171
42.60505 323.965651013642
42.62516 315.0291071906
42.64527 295.021627688043
42.66539 285.008690254756
42.6855 262
42.70561 265.00795210986
42.72573 263.93523351863
42.74584 213.002814478833
42.76595 256.95881425752
42.78607 225.047259369817
42.80618 225.983037830299
42.8263 240
42.84641 244.001660125777
42.86652 248.002238831552
42.88664 244.981359588273
42.90675 226.075853627433
42.92686 211.9352801252
42.94698 261.992109312367
42.96709 224.013941988518
42.98721 234.010012312317
43.00732 240.998460157205
43.02743 233.979146686434
43.04755 233.083379699866
43.06766 269.030181871001
43.08777 215.040413423156
43.10789 238.983510023065
43.128 240
43.14812 208.999238475189
43.16823 233.019117275312
43.18834 219.96486264421
43.20846 215.986387777257
43.22857 231.96067582349
43.24868 241.037053738569
43.2688 196
43.28891 259.015768615698
43.30902 229.960346314336
43.32914 222.033528725191
43.34925 240.986713690677
43.36937 227.034799176227
43.38948 212.996056676679
43.40959 226.996334403235
43.42971 225.001290846093
43.44982 234.003268142574
43.46993 232.007813765696
43.49005 236.962126891774
43.51016 213.002497822455
43.53028 231.99463755408
43.55039 222.995147343624
43.5705 250
43.59062 235.991140817626
43.61073 237.985308983838
43.63084 216.982434654888
43.65096 228.964095069998
43.67107 236.009553720903
43.69119 226.999173430407
43.7113 233
43.73141 218.004192661611
43.75153 238.990393729583
43.77164 205.962290364945
43.79175 222.9153073156
43.81187 239.027309020605
43.83198 207.008568923252
43.85209 226.991742979799
43.87221 229.004103977207
43.89232 239.989485838433
43.91244 209.954060051743
43.93255 214.062591905704
43.95266 239.975627339535
43.97278 234.014346018347
43.99289 220.007226521603
44.013 217
44.03312 244.000383609551
44.05323 219.978760698076
44.07335 229.02909182894
44.09346 235.969589472724
44.11357 252.005927081927
44.13369 233.004086749158
44.1538 244
44.17391 237.986028436852
44.19403 206.982875858195
44.21414 220.040184261175
44.23426 233.977066066655
44.25437 239.014162019949
44.27448 224.003449826892
44.2946 229
44.31471 216.003161323461
44.33482 240.014287567897
44.35494 231.968355099283
44.37505 226.974487675387
44.39516 232.04979634357
44.41528 197.996875225895
44.43539 234.989417213267
44.45551 220.99046438731
44.47562 221.013417546579
44.49573 231.99736875169
44.51585 224.006231850747
44.53596 234.998534280895
44.55607 226.994789013402
44.57619 239.999908693833
44.5963 231
44.61642 246.98963690947
44.63653 217.992117206925
44.65664 235.997513809066
44.67676 210.02690241574
44.69687 214.015657748524
44.71698 192.995423665295
44.7371 233
44.75721 251.98837908369
44.77732 215.993509258089
44.79744 240.027076988065
44.81755 227.036931337817
44.83767 231.96755627313
44.85778 251.00020482596
44.87789 238.999905600564
44.89801 255.005670657759
44.91812 243.969286866917
44.93823 213.983646262742
44.95835 228.06691790883
44.97846 251.966016295025
44.99858 259.002509716442
45.01869 243.016875483584
45.0388 218
45.05892 261.026718970485
45.07903 250.964343676029
45.09914 240.011426705374
45.11926 252.986383823176
45.13937 254.982449897195
45.15949 270.999982764814
45.1796 261
45.19971 277.9982107922
45.21983 257.998843158794
45.23994 276.001775194837
45.26005 252.051220088593
45.28017 265.923127201757
45.30028 314.996677343978
45.32039 290.994834070174
45.34051 334.005958646677
45.36062 299.968680398451
45.38074 297.006071957822
45.40085 291.988092508366
45.42096 289.015576251389
45.44108 284.984914914452
45.46119 317.98304564689
45.4813 330
45.50142 318.031760280856
45.52153 365.995455880537
45.54165 321.979895371204
45.56176 368.912086596517
45.58187 377.005794083515
45.60199 385.98886019511
45.6221 424
45.64221 497.044538279924
45.66233 578.072517951466
45.68244 616.145198769946
45.70256 733.749212583932
45.72267 838.864991975123
45.74278 894.00761153003
45.7629 846
45.78301 808.953546684021
45.80312 668.881424814854
45.82324 597.875173705023
45.84335 553.93676719337
45.86346 596.088711709635
45.88358 475.082631934748
45.90369 467.0051889287
45.92381 402.954612454521
45.94392 332.973580755137
45.96403 328.963582504763
45.98415 282.935300434811
46.00426 288.982863470353
46.02437 287.990043960327
46.04449 292.013114470455
46.0646 247
46.08472 249.996972796352
46.10483 246.049668450719
46.12494 298.028167161328
46.14506 265.065007054563
46.16517 259.000455494983
46.18528 249.014047974805
46.2054 243
46.22551 262.008920688383
46.24563 272.009640844979
46.26574 270.966533313249
46.28585 249.01994172053
46.30597 254.998455523601
46.32608 246.005054042386
46.34619 251.994901334389
46.36631 249.988088384945
46.38642 226.007484683674
46.40653 247.982038683913
46.42665 208.973614431072
46.44676 243.915831545653
46.46688 270.972943888091
46.48699 281.019910596415
46.5071 218
46.52722 243.029715143674
46.54733 246.990073161098
46.56744 242.993481180407
46.58756 246.960895652909
46.60767 264.018468131077
46.62779 228.013377412481
46.6479 228
46.66801 242.010526860604
46.68813 262.008086548228
46.70824 248.956237798017
46.72835 239.958847498821
46.74847 264.994269851673
46.76858 246.013656131416
46.78869 250.995518993767
46.80881 250.996359398539
46.82892 240.990309374112
46.84904 241.032495989561
46.86915 260.003764876978
46.88926 234.085818891857
46.90938 210.975898047585
46.92949 254.995524085751
46.9496 224
46.96972 236.018353121099
46.98983 244.010832461553
47.00995 246.963883799824
47.03006 221.035799757079
47.05017 220.987005617937
47.07029 225.002427861392
47.0904 219
47.11051 236.009213850272
47.13063 249.016514050017
47.15074 247.94656574004
47.17086 222.963329922852
47.19097 267.980120851932
47.21108 236.032217234203
47.2312 236
47.25131 247.993884566504
47.27142 229.007956710296
47.29154 257.014737717149
47.31165 234.055911935673
47.33176 232.978979365941
47.35188 240.001843028121
47.37199 230.006021381445
47.39211 225.002625427143
47.41222 242.02689311323
47.43233 255.969506333866
47.45245 221.98643414715
47.47256 244.981532590563
47.49267 223.042826557629
47.51279 222.980360881605
47.5329 259
47.55302 193.959121302995
47.57313 211.06270893816
47.59324 233.986038282929
47.61336 215.997841653073
47.63347 234.991366758588
47.65358 220.012020549358
47.6737 221
47.69381 219.003517252744
47.71393 234.015280069299
47.73404 238.017747244975
47.75415 249.995047536627
47.77427 243.002899277592
47.79438 248.997276975837
47.81449 245.999990465132
47.83461 259.013525032148
47.85472 279.993249049002
47.87483 258.999773589377
47.89495 283.041240402719
47.91506 273.048001678167
47.93518 263.977200632054
47.95529 293.003822777934
47.9754 252
47.99552 252.999967122706
48.01563 245.010647923189
48.03574 266.021143492812
48.05586 258.021067163702
48.07597 255.001885179905
48.09609 249.005652065655
48.1162 250
48.13631 275.982791748698
48.15643 206.966553711714
48.17654 246.06922951388
48.19665 239.051472725789
48.21677 230.995730044312
48.23688 237.993866381884
48.257 247
48.27711 257.985990675367
48.29722 207.975202168396
48.31734 226.063817621216
48.33745 233.936557225224
48.35756 206.974235500638
48.37768 250.975283427299
48.39779 239.008063002377
48.4179 238
48.43802 237.006182374679
48.45813 238.965888811622
48.47825 213.032716215683
48.49836 255.958033327843
48.51847 237.038453689499
48.53859 226.004000232391
48.5587 218
48.57881 228.005186642068
48.59893 234.008035608041
48.61904 239.002068411108
48.63916 234.01886334716
48.65927 224.012033431026
48.67938 225.982401158028
48.6995 240
48.71961 213.001210579008
48.73972 237.999115345347
48.75984 213.002017931931
48.77995 246.941261751431
48.80006 242.017108378237
48.82018 244.995277657267
48.84029 245.000695591885
48.86041 234.98549054875
48.88052 210.013000525912
48.90063 241.997080021258
48.92075 208.978887522761
48.94086 232.982210112032
48.96097 214.018365369245
48.98109 227.987482956786
49.0012 246
49.02132 241.986447033868
49.04143 229.998311362919
49.06154 234.99445845659
49.08166 228.98157671844
49.10177 247.992900221121
49.12188 238.998168113168
49.142 251
49.16211 227.989032021597
49.18223 223.011107905534
49.20234 233.014563356007
49.22245 238.972250609546
49.24257 238.055242685434
49.26268 199.979992631313
49.28279 261.985940257595
49.30291 238.9920325925
49.32302 243.982005072698
49.34313 208.997378800898
49.36325 248.093110820817
49.38336 246.073571087117
49.40348 211.000604579498
49.42359 237.992427989427
49.4437 234
49.46382 253.997706254189
49.48393 227.973575035937
49.50404 234.026448716788
49.52416 241.98715995656
49.54427 246.004813310557
49.56439 241.996764245855
49.5845 252
49.60461 235.99739569309
49.62473 247.016111684102
49.64484 252.019908230478
49.66495 275.910869182872
49.68507 304.992000866201
49.70518 290.014996304966
49.7253 290
49.74541 309.01613752857
49.76552 337.001328524822
49.78564 328.038148720856
49.80575 374.082926577258
49.82586 377.011367914768
49.84598 396.942039955075
49.86609 466.978846934347
49.8862 493
49.90632 606.134786849941
49.92643 715.095923185635
49.94655 778.306926111085
49.96666 959.651463623733
49.98677 1115.71978997698
50.00689 1357.86689330664
50.027 1635
50.04711 1962.17343680814
50.06723 2241.18548862438
50.08734 2253.05202415593
50.10746 2244.43559773811
50.12757 1880.40079742921
50.14768 1740.21883473287
50.1678 1424
50.18791 1371.99631529102
50.20802 1307.90105494743
50.22814 1205.81514672422
50.24825 1107.32423687892
50.26837 909.410163716215
50.28848 629.202900336689
50.30859 513.048757729649
50.32871 406.965130846155
50.34882 372.958691178941
50.36893 322.976267414666
50.38905 343.038339693131
50.40916 328.060962980236
50.42927 307.996736308202
50.44939 316.007108294869
50.4695 284
50.48962 287.998234137566
50.50973 279.013463017136
50.52984 307.045494425323
50.54996 310.014983113567
50.57007 304.002767510804
50.59018 299.017979499202
50.6103 278
50.63041 292.006083787367
50.65053 284.963892718687
50.67064 260.983083611908
50.69075 262.026543598146
50.71087 245.99057126837
50.73098 274.975903675147
50.75109 274.009515110155
50.77121 248.987234350279
50.79132 231.995813493214
50.81143 239.018743288823
50.83155 244.982445672403
50.85166 225.052002526298
50.87178 210.990254666985
50.89189 229.00057911043
50.912 210
50.93212 227.027369280708
50.95223 247.013460531946
50.97234 238.944846311017
50.99246 213.99399263983
51.01257 240.967372591148
51.03269 233.016592410692
51.0528 201
51.07291 220.013838352194
51.09303 237.007560552238
51.11314 228.95783847193
51.13325 207.025157292531
51.15337 207.006199298732
51.17348 194.012172621466
51.1936 192
51.21371 207.009417379563
51.23382 220.000191948715
51.25394 220.038405035091
51.27405 234.087732444297
51.29416 172.043991821853
51.31428 206.958092113523
51.33439 213.011639140045
51.3545 188
51.37462 205.021090589213
51.39473 216.006876373397
51.41485 216.990874997627
51.43496 198.086799018689
51.45507 163.971106251013
51.47519 214.991682427178
51.4953 192
51.51541 222.006472950421
51.53553 204.983681618519
51.55564 203.953896508921
51.57576 167.020061426921
51.59587 190.963013424969
51.61598 197.996014643479
51.6361 209
51.65621 212.994116362397
51.67632 192.986149780471
51.69644 196.033022707573
51.71655 210.996431618598
51.73667 201.011094477096
51.75678 203.992771325909
51.77689 207.001810293154
51.79701 198.996175242248
51.81712 194.998413177198
51.83723 192.994132201614
51.85735 191.013264965129
51.87746 201.981069372057
51.89757 200.024572538257
51.91769 182.0017672299
51.9378 190
51.95792 191.027900139016
51.97803 228.001936404242
51.99814 187.915258867852
52.01826 172.991597845699
52.03837 182.983637666917
52.05848 191.991117493949
52.0786 197
52.09871 187.998889483533
52.11883 193.002410705556
52.13894 198.051288789978
52.15905 225.021975633323
52.17917 194.999289048604
52.19928 224.993338611705
52.21939 198.009005140901
52.23951 207.005805562697
52.25962 194.962514783498
52.27974 163.014018390921
52.29985 197.039515877675
52.31996 187.991489394678
52.34008 212.98520069194
52.36019 193.024227776158
52.3803 159
52.40042 213.03644186779
52.42053 204.960044359452
52.44064 183.96703587899
52.46076 176.981876080495
52.48087 195.975818683257
52.50099 201.99943573797
52.5211 202
52.54121 195.995884949467
52.56133 182.968329947234
52.58144 171.036175372796
52.60155 206.949682846183
52.62167 199.022834391374
52.64178 198.983093684047
52.6619 213
52.68201 193.004009650356
52.70212 231.032448707937
52.72224 222.903058184409
52.74235 174.020875936624
52.76246 205.937095993787
52.78258 217.986012488611
52.80269 231.006381283207
52.8228 203
52.84292 221.013448996679
52.86303 220.006731765836
52.88315 230.996224473085
52.90326 211.050299324561
52.92337 201.976468947868
52.94349 231.987557320811
52.9636 237
52.98371 226.000119390202
53.00383 237.014734913521
53.02394 230.950569251046
53.04406 203.024383484931
53.06417 209.983377841203
53.08428 212.005265789148
53.1044 208
53.12451 222.009462054021
53.14462 236.003821278766
53.16474 232.997171871414
53.18485 235.99544573142
53.20497 231.017735942791
53.22508 217.011191766779
53.24519 212.000073466835
53.26531 223.014844324092
53.28542 254.00676725262
53.30553 237.981821255972
53.32565 232.947644064101
53.34576 206.993075813243
53.36587 240.953309154768
53.38599 243.010206519354
53.4061 221
53.42622 225.003042485383
53.44633 227.022219267003
53.46644 250.024838958248
53.48656 243.03334486083
53.50667 231.999161006847
53.52678 243.982682460771
53.5469 258
53.56701 248.983278263212
53.58713 211.983077548913
53.60724 231.050222387438
53.62735 241.999320285955
53.64747 245.972434835688
53.66758 264.008188452571
53.68769 240.001696523407
53.70781 263.009348563456
53.72792 257.982237000951
53.74804 247.009234261916
53.76815 260.013493221294
53.78826 253.016558543857
53.80838 248.00807488102
53.82849 240.997617321435
53.8486 255
53.86872 256.000511769155
53.88883 254.982120214777
53.90894 241.004693863887
53.92906 263.941708684846
53.94917 280.999615222778
53.96929 262.017996357947
53.9894 244
54.00951 306.016994661688
54.02963 290.956315732412
54.04974 273.974103730749
54.06985 265.984084671337
54.08997 278.000806624191
54.11008 271.986225635407
54.1302 303
54.15031 306.003975673049
54.17042 317.993048817841
54.19054 293.967889159117
54.21065 299.95648505039
54.23076 312.993701140705
54.25088 304.017939165303
54.27099 298.986577690374
54.29111 342.011935888051
54.31122 319.940192986009
54.33133 278.036503283335
54.35145 344.086249199259
54.37156 322.062168307101
54.39167 317.981740456802
54.41179 326.002881514008
54.4319 308
54.45201 299.000457876655
54.47213 311.036397806914
54.49224 341.054923632717
54.51236 353.017751749131
54.53247 333.023981645584
54.55258 328.001856148583
54.5727 335
54.59281 367.000376738431
54.61292 347.003371960294
54.63304 393.127183805555
54.65315 441.936892684309
54.67327 458.952280446451
54.69338 510.946657731624
54.71349 550.985271085805
54.73361 593.036829474605
54.75372 697.111819906276
54.77383 784.073665088795
54.79395 829.214186174802
54.81406 936.872244995416
54.83417 914.132674351273
54.85429 807.048837943207
54.8744 738
54.89452 688.930276311448
54.91463 628.999626852067
54.93474 669.022867960215
54.95486 641.019056472729
54.97497 663.982252340153
54.99508 631.067450181852
55.0152 548
55.03531 468.9681916036
55.05543 418.936331687285
55.07554 397.037216010843
55.09565 447.8648272826
55.11577 467.039535760028
55.13588 422.025914741229
55.15599 442.97089000857
55.17611 498.009878021848
55.19622 496.020885895411
55.21634 544.068283143121
55.23645 544.971186512332
55.25656 547.9525284212
55.27668 573.996907555471
55.29679 541.02842941491
55.3169 491
55.33702 474.953167660866
55.35713 408.94861979099
55.37724 420.040061829821
55.39736 430.960745833836
55.41747 453.000386627773
55.43759 431.009192487283
55.4577 416
55.47781 354.969032783693
55.49793 311.960987622254
55.51804 304.027751486519
55.53815 320.014104073281
55.55827 301.995982571295
55.57838 317.01416396584
55.5985 280
55.61861 295.998744688437
55.63872 275.006555595399
55.65884 306.012504898564
55.67895 274.085761041248
55.69906 273.928932102109
55.71918 310.000671662458
55.73929 279.008865903141
55.75941 285.999949296814
55.77952 270.994184489616
55.79963 279.003814892294
55.81975 269.981449456607
55.83986 275.963784796263
55.85997 291.999071840983
55.88009 276.010219122656
55.9002 260
55.92031 258.012082622637
55.94043 293.024322732267
55.96054 273.9169005156
55.98066 251.944674337274
56.00077 292.022677534907
56.02088 236.014501374954
56.041 285
56.06111 284.976471530334
56.08122 241.004973281385
56.10134 286.060732026237
56.12145 276.05490647449
56.14157 273.967668718164
56.16168 289.025577014483
56.18179 238.013244894667
56.20191 249.006021596949
56.22202 246.002116056555
56.24213 257.005130567182
56.26225 254.020090904747
56.28236 274.964006333071
56.30248 277.011541163923
56.32259 261.006773481309
56.3427 256
56.36282 261.00139195232
56.38293 254.982554601033
56.40304 247.006686116132
56.42316 250.033169007962
56.44327 228.986086771663
56.46338 261.984947094973
56.4835 263
56.50361 308.998336253455
56.52373 257.949208619712
56.54384 268.033501441024
56.56395 259.07488112773
56.58407 237.97964239704
56.60418 268.994732997134
56.62429 242.011268428933
56.64441 248.011091415268
56.66452 275.032306689387
56.68464 289.94772368726
56.70475 240.925994333283
56.72486 241.997037530968
56.74498 232.002989107652
56.76509 247.985829539957
56.7852 267
56.80532 243.983481414779
56.82543 243.000698492161
56.84554 236.987452720771
56.86566 241.956949845316
56.88577 264.994469071697
56.90589 238.024007279849
56.926 212
56.94611 269.009763967544
56.96623 238.958178892524
56.98634 236.993366597345
57.00645 226.986558425557
57.02657 245.987050078037
57.04668 237.009963593435
57.0668 235
57.08691 237.008231849909
57.10702 264.022369185826
57.12714 269.984963244593
57.14725 258.025247727427
57.16736 253.999468407518
57.18748 249.017848217437
57.20759 229.001720127728
57.22771 245.009806910653
57.24782 249.987610431809
57.26793 231.986631735935
57.28805 239.038311256483
57.30816 247.015284006794
57.32827 228.026487695186
57.34839 233.980293258781
57.3685 269
57.38861 214.987375586746
57.40873 233.01702168126
57.42884 225.019054534299
57.44896 251.985899160631
57.46907 231.029978648123
57.48918 227.998805362738
57.5093 224
57.52941 217.995877322149
57.54952 219.023782008223
57.56964 249.011377867873
57.58975 224.078527624929
57.60987 211.985527309248
57.62998 225.004344950333
57.65009 205.006531774262
57.67021 204.998433803612
57.69032 203.019611811309
57.71043 236.025970948682
57.73055 224.941476392367
57.75066 210.996376805436
57.77078 224.983679232816
57.79089 230.005191420482
57.811 218
57.83112 234.004855615719
57.85123 223.99104078585
57.87134 224.984446901916
57.89146 205.038812571358
57.91157 202.970150995845
57.93168 229.985715718788
57.9518 223
57.97191 218.009465355719
57.99203 241.997340627803
58.01214 212.945959236968
58.03225 209.964104964003
58.05237 227.978350623271
58.07248 228.01829980524
58.09259 202.009376179711
58.11271 208.016800828715
58.13282 243.006726642881
58.15294 220.956283616566
58.17305 219.023103153199
58.19316 220.035956976907
58.21328 198.996999458322
58.23339 222.992595976303
58.2535 217
58.27362 223.019120116725
58.29373 238.996494359643
58.31385 221.967782023092
58.33396 220.00542775985
58.35407 213.004527852714
58.37419 217.995614819454
58.3943 229
58.41441 239.997081661311
58.43453 217.96217998798
58.45464 203.998598372756
58.47475 217.930411052786
58.49487 242.991620481473
58.51498 231.011214130438
58.5351 231
58.55521 226.992769901842
58.57532 215.006659971773
58.59544 229.99363672205
58.61555 211.01448526595
58.63566 227.959190612968
58.65578 235.004153171371
58.67589 220.013799489354
58.69601 204.011040790768
58.71612 241.002010564371
58.73623 211.990349659289
58.75635 230.985135403587
58.77646 196.034822247393
58.79657 215.953530224848
58.81669 221.015946850041
58.8368 194
58.85691 256.006083593046
58.87703 209.951881183967
58.89714 228.065942793107
58.91726 232.068066343344
58.93737 193.99762036009
58.95748 238.951781202993
58.9776 251
58.99771 217.993160181661
59.01782 231.019388146386
59.03794 228.937717110306
59.05805 196.990357411202
59.07817 231.962817036023
59.09828 226.016328264623
59.11839 221.994649210254
59.13851 239.00613819653
59.15862 237.987905934237
59.17873 223.986948421987
59.19885 219.983014108771
59.21896 211.999782371091
59.23908 226.97271385762
59.25919 253.991971764322
59.2793 260
59.29942 262.982672570078
59.31953 237.994810182913
59.33964 257.026908026517
59.35976 253.011146297904
59.37987 252.00917078169
59.39998 241.005747294491
59.4201 238
59.44021 227.007435927813
59.46033 261.032896878028
59.48044 260.997408792405
59.50055 270.967598118766
59.52067 278.995339644547
59.54078 281.99252068597
59.56089 296.989662031193
59.58101 313.001162967918
59.60112 312.014784467803
59.62124 343.056346689061
59.64135 359.031749721717
59.66146 370.991107694475
59.68158 381.961996249946
59.70169 445.966366569548
59.7218 502
59.74192 575.113368093414
59.76203 693.098441483623
59.78215 727.193918055485
59.80226 883.615257557287
59.82237 1054.80481035446
59.84249 1178.91598656264
59.8626 1365
59.88271 1437.05499979342
59.90283 1561.03296183915
59.92294 1453.70342965818
59.94305 1299.52140002065
59.96317 1067.25501825808
59.98328 988.04033352381
60.0034 934
60.02351 873.981685509934
60.04362 872.02737011489
60.06374 899.003584668994
60.08385 857.196854646629
60.10396 750.261765720783
60.12408 604.152703974447
60.14419 471.04556178106
60.16431 412.973456944241
60.18442 360.975082864295
60.20453 351.956165047137
60.22465 297.883907911393
60.24476 281.987331302248
60.26487 284.030508247201
60.28499 249.011645634118
60.3051 247
60.32522 249.011124791607
60.34533 259.98692526651
60.36544 238.987517877464
60.38556 243.033912676102
60.40567 214.000727376264
60.42578 243.978378957491
60.4459 237
60.46601 225.99686579687
60.48612 224.00353941498
60.50624 229.002152184567
60.52635 226.004663859835
60.54647 223.017258430177
60.56658 211.993856892429
60.58669 226.002099890762
60.60681 215.009849604614
60.62692 252.003087988082
60.64703 215.956063837464
60.66715 218.031960232236
60.68726 223.996044862675
60.70738 232.976050809135
60.72749 247.014584653376
60.7476 203
60.76772 247.01589352586
60.78783 215.957433276525
60.80794 219.028460752186
60.82806 229.973760473239
60.84817 234.033108806125
60.86828 208.987352172739
60.8884 246
60.90851 215.989986482185
60.92863 233.051532666574
60.94874 249.96803782962
60.96885 212.081950705921
60.98897 197.016173657082
61.00908 194.974902746095
61.02919 230.994125716761
61.04931 215.995342896088
61.06942 226.010669728146
61.08954 225.992882152358
61.10965 225.00148238996
61.12976 225.003564064664
61.14988 227.984519416606
61.16999 242.004723115499
61.1901 222
61.21022 237.979590045176
61.23033 190.976655463908
61.25045 214.028281591483
61.27056 202.987976174418
61.29067 230.977051206308
61.31079 225.000691689986
61.3309 240
61.35101 243.994819293156
61.37113 227.982758566974
61.39124 230.029297950652
61.41135 243.005974404284
61.43147 230.00773223156
61.45158 242.977077137467
61.4717 256
61.49181 241.003507565546
61.51192 265.007826885209
61.53204 248.970881401037
61.55215 255.94139314961
61.57226 281.961562010661
61.59238 281.025566225328
61.61249 256.995732785422
61.63261 282.998632402787
61.65272 257.002305756992
61.67283 292.030848436657
61.69295 276.937215638933
61.71306 272.953698151855
61.73317 303.980245415173
61.75329 285.019906267985
61.7734 267
61.79352 331.034178579039
61.81363 311.942359878647
61.83374 289.994361741043
61.85386 295.996056711578
61.87397 300.95843696493
61.89408 342.972685748449
61.9142 339
61.93431 323.003373079424
61.95442 353.038300487101
61.97454 380.020303299713
61.99465 376.025666215745
62.01477 367.011827273949
62.03488 371.970179906922
62.05499 409.991580278243
62.07511 406.002197992316
62.09522 424.007432896202
62.11533 414.988973550585
62.13545 421.03275143603
62.15556 436.959190126897
62.17568 449.011353433515
62.19579 428.999378922996
62.2159 438
62.23602 395.00340456313
62.25613 445.051160761218
62.27624 432.946555526424
62.29636 403.104262728709
62.31647 357.982285378982
62.33659 407.99034129578
62.3567 375
62.37681 368.007256921724
62.39693 377.983744142553
62.41704 355.985760661333
62.43715 358.05054178956
62.45727 321.024390793103
62.47738 334.983584219621
62.49749 334.005290857652
62.51761 332.008499526074
62.53772 337.954493842759
62.55784 264.929755448392
62.57795 285.071026343575
62.59806 285.037573436166
62.61818 263.019011431384
62.63829 261.986929754834
62.6584 295
62.67852 275.976087868334
62.69863 259.972001945477
62.71875 253.075023040418
62.73886 294.000030515051
62.75897 246.076625269962
62.77909 236.982941951987
62.7992 274
62.81931 243.997293285351
62.83943 267.004134788915
62.85954 236.94639760405
62.87965 227.036819463386
62.89977 213.974013341172
62.91988 247.992100267647
62.94 224
62.96011 234.012965876142
62.98022 250.995731338674
63.00034 231.97017355003
63.02045 236.94486188094
63.04056 255.009338912923
63.06068 229.026985210193
63.08079 219.995934407829
63.10091 238.010636809877
63.12102 247.990314577007
63.14113 223.963376191827
63.16125 211.999911904235
63.18136 220.968928755415
63.20147 231.008206274538
63.22159 218.999747688009
63.2417 236
63.26182 244.000690015985
63.28193 234.963781691617
63.30204 223.066466088887
63.32216 271.997288725184
63.34227 231.022736199417
63.36238 255.988759646167
63.3825 230
63.40261 220.006008745233
63.42272 238.008489021346
63.44284 231.979542888873
63.46295 229.978660959716
63.48307 247.964267787971
63.50318 256.026203916909
63.52329 219.002702036294
63.54341 254.020871552347
63.56352 268.98756877277
63.58363 243.967051705501
63.60375 233.9897401075
63.62386 232.98886798363
63.64398 240.997267601041
63.66409 236.003755207609
63.6842 238
63.70432 261.008656840213
63.72443 252.987519851155
63.74454 251.995601184759
63.76466 249.983705877493
63.78477 272.951636531456
63.80489 299.993957230123
63.825 306
63.84511 336.011758246991
63.86523 345.00651896377
63.88534 355.031695864187
63.90545 371.9683560606
63.92557 395.916541501939
63.94568 464.95782556359
63.96579 477.989699156233
63.98591 496.985435684055
64.00602 427.946518843468
64.02614 413.990963224344
64.04625 390.902443271118
64.06636 358.012538157099
64.08648 361.025073055448
64.10659 314.012323471725
64.1267 330
64.14682 342.986918079267
64.16693 323.000465696596
64.18705 349.074886773004
64.20716 340.138209607433
64.22727 253.059903615088
64.24739 269.990290652376
64.2675 258
64.28761 240.99277195733
64.30773 225.977765559687
64.32784 217.004284011873
64.34796 226.981679882031
64.36807 220.044805744605
64.38818 185.014899604498
64.4083 196
64.42841 199.994425138543
64.44852 185.997046665098
64.46864 194.010219404868
64.48875 197.954554855772
64.50886 217.018580714122
64.52898 186.016505594233
64.54909 196.99223278655
64.56921 204.004045470881
64.58932 211.996886617818
64.60943 194.966127868168
64.62955 187.047254860623
64.64966 225.921662889319
64.66977 234.053427118701
64.68989 182.013849608692
64.71 194
64.73012 207.997387140007
64.75023 200.002024890321
64.77034 213.024470988257
64.79046 212.028864354093
64.81057 199.990002552487
64.83068 218.991479809988
64.8508 212
64.87091 212.99648641129
64.89102 192.976199226343
64.91114 186.043445724024
64.93125 220.949491411791
64.95137 223.984071992486
64.97148 237.014948688399
64.99159 190.026071999049
65.01171 168.008797381067
65.03182 210.041528265188
65.05193 227.992935694711
65.07205 213.972837999246
65.09216 211.999022232415
65.11228 210.999970095886
65.13239 216.992847313679
65.1525 227
65.17262 206.993936680718
65.19273 216.001556574386
65.21284 207.003658226022
65.23296 221.981140247053
65.25307 217.014689410407
65.27319 212.000046010492
65.2933 212
65.31341 199.991696325405
65.33353 197.039746476544
65.35364 241.066394143664
65.37375 245.040203957009
65.39387 218.056389580493
65.41398 196.976810093432
65.43409 237.997844436258
65.45421 208.997768096571
65.47432 235.0047245983
65.49444 209.976828146616
65.51455 221.00022959465
65.53466 208.983600602668
65.55478 229.009028368181
65.57489 200.997917482059
65.595 234
65.61512 213.002898196109
65.63523 245.021375206629
65.65535 234.006526563532
65.67546 253.001638693003
65.69557 244.949926521853
65.71569 301.993406391357
65.7358 262
65.75591 254.993874005394
65.77603 227.974182157822
65.79614 228.001306992525
65.81626 218.030204578023
65.83637 219.946127763295
65.85648 262.994451796429
65.8766 236
65.89671 253.002525319815
65.91682 236.992818299768
65.93694 242.987757836097
65.95705 217.069406849551
65.97716 207.974245089447
65.99728 230.982173793424
66.01739 228.012219748563
66.03751 202.998217570502
66.05762 214.999950322503
66.07773 199.992085683232
66.09785 217.068213024037
66.11796 230.02876343919
66.13807 199.035418553549
66.15819 204.982956921841
66.1783 235
66.19842 206.993410764048
66.21853 222.994105758541
66.23864 193.966586206768
66.25876 204.966104439244
66.27887 211.996060301206
66.29898 205.027399160701
66.3191 176
66.33921 208.018927209491
66.35933 219.970299060715
66.37944 190.980926080012
66.39955 207.944994668965
66.41967 215.010331582936
66.43978 206.000324550709
66.45989 207.007867651789
66.48001 188.004807156747
66.50012 215.001227538615
66.52023 189.986935634801
66.54035 210.047223310347
66.56046 204.050013266975
66.58058 183.996464131699
66.60069 210.984187268257
66.6208 228
66.64092 220.993074918255
66.66103 220.003844804216
66.68114 217.97540100976
66.70126 206.984252407021
66.72137 219.024146290467
66.74149 187.001467073906
66.7616 219
66.78171 217.992161960257
66.80183 206.998691261624
66.82194 213.008623786378
66.84205 210.018447613434
66.86217 203.006931614163
66.88228 204.989094980666
66.90239 222.98967395163
66.92251 234.998009576988
66.94262 214.971343908342
66.96274 200.028396044528
66.98285 231.049701411681
67.00296 229.014498146847
67.02308 227.999935241087
67.04319 221.008445215387
67.0633 210
67.08342 237.009429381119
67.10353 216.953805512379
67.12365 200.008429291937
67.14376 212.989262390636
67.16387 215.965802510774
67.18399 249.993145569083
67.2041 238
67.22421 241.003569662126
67.24433 242.997411711653
67.26444 237.981560729899
67.28456 233.976546380413
67.30467 252.989341750947
67.32478 251.986322803929
67.3449 284
67.36501 294.996077571683
67.38512 281.994774135549
67.40524 292.039749737019
67.42535 308.984620477387
67.44546 307.993804902204
67.46558 321.979814194261
67.48569 358.965831203532
67.50581 438.026303697323
67.52592 453.001694182327
67.54603 468.045311555048
67.56615 536.313860112777
67.58626 676.8199000085
67.60637 729.8625468612
67.62649 851.967297653782
67.6466 868
67.66672 1001.14420763033
67.68683 1072.96390849375
67.70694 978.771328220611
67.72706 870.245951634166
67.74717 741.153778263091
67.76728 671.061231126152
67.7874 628
67.80751 685.031294063385
67.82763 719.016630479722
67.84774 726.030753594557
67.86785 747.96564721969
67.88797 769.908910633088
67.90808 825.026998281155
67.92819 737.025391998526
67.94831 756.012012325706
67.96842 761.026203555534
67.98853 825.115996399465
68.00865 921.355677647127
68.02876 1071.82144630457
68.04888 1126.88626995133
68.06899 1284.95432103167
68.0891 1289
68.10922 1295.92292741026
68.12933 1163.89518918471
68.14944 1161.91431432116
68.16956 1061.13031539157
68.18967 1076.92413361844
68.20979 1118.98210030209
68.2299 1156
68.25001 1208.03080089702
68.27013 1228.89386283552
68.29024 1087.72505552698
68.31035 981.294801617877
68.33047 841.18933488249
68.35058 728.132501980053
68.3707 595
68.39081 571.989336046334
68.41092 546.016982785561
68.43104 576.936759357366
68.45115 495.898886933476
68.47126 505.042150001599
68.49138 436.05392286456
68.51149 410.023434641371
68.5316 337
68.55172 323.003435629659
68.57183 312.952914963324
68.59195 271.924451570286
68.61206 261.005361078468
68.63217 253.023269830499
68.65229 241.995967452381
68.6724 261
68.69251 249.993740012783
68.71263 242.983915709929
68.73274 234.015284277711
68.75286 249.00400369604
68.77297 232.00854734672
68.79308 240.002178690974
68.8132 225
68.83331 232.001967567468
68.85342 221.981666011319
68.87354 213.025461370066
68.89365 237.962551360308
68.91376 233.026199014317
68.93388 222.010292027505
68.95399 215.99824489718
68.97411 224.001092544458
68.99422 214.984723810615
69.01433 207.012295056009
69.03445 216.971240510869
69.05456 193.007809329941
69.07467 215.963606164177
69.09479 221.004759480334
69.1149 217
69.13502 235.986820088725
69.15513 202.990881643243
69.17524 230.039723454475
69.19536 222.033169979737
69.21547 217.984060535927
69.23558 230.999148665919
69.2557 210
69.27581 187.009596458439
69.29593 234.049134955087
69.31604 228.949704244986
69.33615 210.009189422914
69.35627 215.002625342529
69.37638 202.013142258958
69.39649 193.005678862359
69.41661 194.017363563343
69.43672 232.991868943581
69.45683 189.978447110243
69.47695 216.037884674024
69.49706 206.99127456569
69.51718 229.99093835371
69.53729 207.02026239625
69.5574 191
69.57752 238.989232676368
69.59763 185.986734144846
69.61774 233.05739135836
69.63786 211.062259676146
69.65797 200.999474429401
69.67809 199.003074999769
69.6982 195
69.71831 212.00977450114
69.73843 217.976080079565
69.75854 200.01668404504
69.77865 228.961949382251
69.79877 217.027873928675
69.81888 205.012488215459
69.839 200
69.85911 227.003472798824
69.87922 212.993161788797
69.89934 223.01708608276
69.91945 218.976148249545
69.93956 212.006308339406
69.95968 205.019520143854
69.97979 190.990703181887
69.9999 229
70.02002 217.995252579649
70.04013 226.994645789583
70.06025 204.950208982965
70.08036 203.970756842758
70.10047 223.972710595332
70.12059 239.989954207453
70.1407 245
70.16081 191.990092042693
70.18093 215.038552183221
70.20104 218.994889291308
70.22116 213.042673089172
70.24127 186.015713524386
70.26138 195.987665856644
70.2815 188
70.30161 162.008885997421
70.32172 208.021583008594
70.34184 187.946599629548
70.36195 188.928934165159
70.38207 220.982789111309
70.40218 209.014442549914
70.42229 206.997751089476
70.44241 211.001200374256
70.46252 205.982891830827
70.48263 190.004998800443
70.50275 205.002250288506
70.52286 193.990113954559
70.54297 216.977299638435
70.56309 216.99835916705
70.5832 221
70.60332 191.987378014325
70.62343 209.046735880495
70.64354 217.931029799593
70.66366 177.971162223221
70.68377 222.016375106727
70.70388 160.024004969196
70.724 194
70.74411 177.99269612256
70.76423 186.017325589098
70.78434 191.014325804134
70.80445 199.003640413417
70.82457 192.993108924719
70.84468 207.990138612999
70.86479 213.99066225556
70.88491 231.993505080626
70.90502 197.985445798534
70.92513 210.008523757893
70.94525 195.964318975703
70.96536 194.986644916684
70.98548 204.985522183946
71.00559 221.992008367052
71.0257 226
71.04582 200.984245603646
71.06593 202.010799412198
71.08604 207.009743213
71.10616 205.035306403263
71.12627 185.995359799357
71.14639 204.997460426193
71.1665 193
71.18661 204.000962331617
71.20673 188.974218848987
71.22684 182.002446785234
71.24695 188.969462612627
71.26707 198.00361249226
71.28718 189.002496644853
71.3073 196
71.32741 203.00938706407
71.34752 217.984187279823
71.36764 185.987291799085
71.38775 206.979114936488
71.40786 192.018279751433
71.42798 199.992819063688
71.44809 193.008295717216
71.4682 183
71.48832 206.021513868007
71.50843 211.987936626356
71.52855 206.026602408452
71.54866 213.062720299114
71.56877 173.97107545127
71.58889 238.984349111296
71.609 207
71.62911 185.99716271153
71.64923 185.004480055577
71.66934 191.017360341905
71.68946 203.962372436012
71.70957 222.982900786228
71.72968 215.031473260134
71.7498 182
71.76991 197.00439911081
71.79002 184.98146191885
71.81014 183.047288907983
71.83025 211.989068284531
71.85037 190.030564152996
71.87048 189.988583084584
71.89059 210.981335119764
71.91071 241.997202922125
71.93082 206.973007574011
71.95093 202.995891156956
71.97105 195.005283732695
71.99116 208.975771972468
72.01127 213.990948394738
72.03139 221.000223849179
72.0515 214
72.07162 211.990476911623
72.09173 202.009717513603
72.11184 212.973341171453
72.13196 190.971876689461
72.15207 232.974677726239
72.17218 213.015657474069
72.1923 218
72.21241 207.998533568876
72.23253 216.007315944588
72.25264 209.978614933935
72.27275 201.016943989855
72.29287 201.97897231598
72.31298 218.995652566883
72.33309 206.009692891863
72.35321 195.000790704972
72.37332 202.001133775096
72.39344 196.999650663086
72.41355 204.01404569011
72.43366 202.01470984805
72.45378 201.982182398186
72.47389 227.99319691377
72.494 215
72.51412 185.994677797644
72.53423 203.028514255027
72.55434 207.989756485121
72.57446 200.014824338559
72.59457 200.979084836029
72.61469 220.992889378929
72.6348 215
72.65491 181.992753028029
72.67503 192.027626184723
72.69514 203.00694235435
72.71525 196.0506288172
72.73537 187.950763235519
72.75548 235.991923659346
72.7756 196
72.79571 195.016776752109
72.81582 233.017223879105
72.83594 218.938042123838
72.85605 194.023676711673
72.87616 202.95733890334
72.89628 226.977450490004
72.91639 231.013958019724
72.9365 197
72.95662 227.017312715693
72.97673 214.976955168797
72.99685 214.01352262576
73.01696 221.970982503645
73.03707 240.974483064485
73.05719 245.006929136949
73.0773 238
73.09741 280.000102035594
73.11753 243.981255340987
73.13764 271.046536288761
73.15776 266.029725816984
73.17787 259.99506552854
73.19798 264.00432315098
73.2181 266
73.23821 310.006873333167
73.25832 297.005503044693
73.27844 328.036176920759
73.29855 333.919366521202
73.31867 384.966028838124
73.33878 385.96741895518
73.35889 460.963155144623
73.37901 505.013942957905
73.39912 515.978916997374
73.41923 481.981526579672
73.43935 479.907422413696
73.45946 410.10778235941
73.47957 394.005180899713
73.49969 384.004978411265
73.5198 376
73.53992 362.989048320566
73.56003 359.005312728408
73.58014 367.017547029594
73.60026 367.029421402529
73.62037 351.99206752074
73.64048 371.991681549243
73.6606 348
73.68071 303.9952080655
73.70083 312.976438760712
73.72094 266.923364438519
73.74105 253.024613223153
73.76117 240.003833837899
73.78128 246.997923889698
73.80139 238.005840155095
73.82151 236.005913172776
73.84162 252.006175452137
73.86174 247.998481771175
73.88185 249.977343782446
73.90196 234.009386535891
73.92208 234.019793226981
73.94219 204.002798396563
73.9623 224
73.98242 213.986404512355
74.00253 215.023008936297
74.02264 235.029989809983
74.04276 232.049000808844
74.06287 205.009779062731
74.08299 215.000178721947
74.1031 201
74.12321 214.006654902879
74.14333 213.98425743892
74.16344 199.973671038888
74.18355 192.998621081959
74.20367 204.96110697151
74.22378 231.987939106385
74.2439 219
74.26401 196.004836089103
74.28412 223.005587405113
74.30424 204.989461939257
74.32435 225.939333041193
74.34446 230.034490932176
74.36458 200.032678589374
74.38469 188.987218449657
74.40481 224.000960828775
74.42492 195.987531253257
74.44503 214.027392502574
74.46515 208.945212771667
74.48526 191.992381607237
74.50537 213.967377811605
74.52549 220.003588464797
74.5456 202
74.56571 189.014965689522
74.58583 238.024847741436
74.60594 208.926214844169
74.62606 196.982547851278
74.64617 208.996685504121
74.66628 204.993607578022
74.6864 223
74.70651 223.997271915747
74.72662 216.989971383812
74.74674 211.013577664637
74.76685 217.04261069063
74.78697 187.015230222679
74.80708 206.972377484211
74.82719 219.002412668068
74.84731 213.00482770842
74.86742 227.99309401925
74.88753 202.982006935403
74.90765 206.980788526825
74.92776 188.9980308526
74.94787 209.980827136579
74.96799 205.002119995524
74.9881 214
75.00822 231.017306098168
