3.00117 20725
3.02128 20059
3.0414 19953
3.06151 19059
3.08162 18410
3.10174 18312
3.12185 17593
3.14197 17321
3.16208 16559
3.18219 16086
3.20231 15594
3.22242 15074
3.24253 14734
3.26265 14369
3.28276 13828
3.30288 13444
3.32299 12697
3.3431 12490
3.36322 11961
3.38333 11914
3.40344 11379
3.42356 10753
3.44367 10774
3.46379 10088
3.4839 9940
3.50401 9491
3.52413 9055
3.54424 9024
3.56435 8452
3.58447 8264
3.60458 7964
3.62469 7447
3.64481 7553
3.66492 7232
3.68504 6800
3.70515 6627
3.72526 6261
3.74538 6315
3.76549 5807
3.7856 5535
3.80572 5278
3.82583 5069
3.84595 5012
3.86606 4768
3.88617 4446
3.90629 4180
3.9264 3977
3.94651 3995
3.96663 3958
3.98674 3661
4.00686 3448
4.02697 3249
4.04708 3197
4.0672 3001
4.08731 2881
4.10742 2734
4.12754 2524
4.14765 2571
4.16776 2494
4.18788 2283
4.20799 2207
4.22811 2073
4.24822 2025
4.26833 2005
4.28845 1834
4.30856 1879
4.32867 1743
4.34879 1822
4.3689 1761
4.38902 1618
4.40913 1561
4.42924 1502
4.44936 1515
4.46947 1519
4.48958 1414
4.5097 1420
4.52981 1341
4.54992 1330
4.57004 1283
4.59015 1198
4.61027 1189
4.63038 1246
4.65049 1169
4.67061 1155
4.69072 1087
4.71083 1093
4.73095 1018
4.75106 1106
4.77118 1046
4.79129 930
4.8114 1009
4.83152 908
4.85163 940
4.87174 921
4.89186 822
4.91197 895
4.93209 834
4.9522 797
4.97231 804
4.99243 748
5.01254 770
5.03265 730
5.05277 737
5.07288 705
5.09299 641
5.11311 636
5.13322 733
5.15334 629
5.17345 701
5.19356 553
5.21368 521
5.23379 626
5.2539 564
5.27402 574
5.29413 538
5.31425 513
5.33436 491
5.35447 483
5.37459 486
5.3947 467
5.41481 450
5.43493 450
5.45504 486
5.47516 473
5.49527 404
5.51538 466
5.5355 446
5.55561 410
5.57572 387
5.59584 393
5.61595 361
5.63606 381
5.65618 373
5.67629 365
5.69641 375
5.71652 346
5.73663 394
5.75675 367
5.77686 362
5.79697 353
5.81709 330
5.8372 342
5.85732 304
5.87743 311
5.89754 333
5.91766 308
5.93777 307
5.95788 337
5.978 324
5.99811 311
6.01823 295
6.03834 295
6.05845 281
6.07857 281
6.09868 270
6.11879 333
6.13891 254
6.15902 295
6.17913 285
6.19925 299
6.21936 336
6.23948 289
6.25959 286
6.2797 290
6.29982 284
6.31993 270
6.34004 252
6.36016 287
6.38027 254
6.40039 264
6.4205 280
6.44061 229
6.46073 271
6.48084 260
6.50095 248
6.52107 269
6.54118 239
6.56129 263
6.58141 237
6.60152 299
6.62164 244
6.64175 248
6.66186 249
6.68198 232
6.70209 267
6.7222 247
6.74232 238
6.76243 248
6.78255 245
6.80266 222
6.82277 281
6.84289 249
6.863 250
6.88311 261
6.90323 294
6.92334 288
6.94346 248
6.96357 244
6.98368 216
7.0038 263
7.02391 238
7.04402 274
7.06414 271
7.08425 245
7.10436 278
7.12448 250
7.14459 268
7.16471 243
7.18482 248
7.20493 257
7.22505 234
7.24516 261
7.26527 226
7.28539 235
7.3055 255
7.32562 257
7.34573 252
7.36584 272
7.38596 260
7.40607 292
7.42618 254
7.4463 253
7.46641 257
7.48653 262
7.50664 242
7.52675 274
7.54687 252
7.56698 245
7.58709 234
7.60721 255
7.62732 260
7.64743 285
7.66755 281
7.68766 270
7.70778 237
7.72789 261
7.748 262
7.76812 262
7.78823 249
7.80834 263
7.82846 225
7.84857 263
7.86869 261
7.8888 255
7.90891 293
7.92903 244
7.94914 270
7.96925 265
7.98937 251
8.00948 253
8.0296 261
8.04971 254
8.06982 289
8.08994 293
8.11005 251
8.13016 237
8.15028 292
8.17039 293
8.1905 264
8.21062 300
8.23073 271
8.25085 276
8.27096 264
8.29107 274
8.31119 302
8.3313 290
8.35141 268
8.37153 289
8.39164 275
8.41176 275
8.43187 271
8.45198 282
8.4721 283
8.49221 291
8.51232 267
8.53244 257
8.55255 284
8.57266 280
8.59278 293
8.61289 267
8.63301 324
8.65312 328
8.67323 307
8.69335 312
8.71346 330
8.73357 303
8.75369 305
8.7738 309
8.79392 345
8.81403 331
8.83414 318
8.85426 358
8.87437 353
8.89448 337
8.9146 357
8.93471 295
8.95483 307
8.97494 281
8.99505 305
9.01517 294
9.03528 277
9.05539 306
9.07551 252
9.09562 289
9.11573 268
9.13585 279
9.15596 293
9.17608 293
9.19619 269
9.2163 249
9.23642 259
9.25653 289
9.27664 283
9.29676 278
9.31687 282
9.33699 263
9.3571 267
9.37721 266
9.39733 256
9.41744 260
9.43755 259
9.45767 259
9.47778 271
9.4979 266
9.51801 282
9.53812 260
9.55824 292
9.57835 251
9.59846 281
9.61858 250
9.63869 264
9.6588 292
9.67892 301
9.69903 266
9.71915 252
9.73926 272
9.75937 293
9.77949 289
9.7996 267
9.81971 250
9.83983 244
9.85994 276
9.88006 279
9.90017 279
9.92028 243
9.9404 267
9.96051 241
9.98062 280
10.00074 296
10.02085 281
10.04097 269
10.06108 274
10.08119 280
10.10131 241
10.12142 278
10.14153 280
10.16165 250
10.18176 289
10.20187 278
10.22199 286
10.2421 242
10.26222 312
10.28233 267
10.30244 285
10.32256 287
10.34267 278
10.36278 290
10.3829 260
10.40301 237
10.42313 260
10.44324 317
10.46335 235
10.48347 266
10.50358 231
10.52369 274
10.54381 244
10.56392 271
10.58403 269
10.60415 245
10.62426 256
10.64438 266
10.66449 264
10.6846 254
10.70472 269
10.72483 294
10.74494 291
10.76506 265
10.78517 261
10.80529 260
10.8254 261
10.84551 265
10.86563 297
10.88574 262
10.90585 249
10.92597 301
10.94608 249
10.9662 262
10.98631 254
11.00642 270
11.02654 261
11.04665 254
11.06676 277
11.08688 258
11.10699 272
11.1271 260
11.14722 239
11.16733 272
11.18745 289
11.20756 275
11.22767 284
11.24779 275
11.2679 287
11.28801 275
11.30813 295
11.32824 262
11.34836 262
11.36847 273
11.38858 264
11.4087 299
11.42881 251
11.44892 286
11.46904 259
11.48915 223
11.50927 248
11.52938 260
11.54949 251
11.56961 274
11.58972 247
11.60983 259
11.62995 257
11.65006 306
11.67017 285
11.69029 273
11.7104 272
11.73052 295
11.75063 260
11.77074 267
11.79086 291
11.81097 303
11.83108 322
11.8512 314
11.87131 288
11.89143 287
11.91154 291
11.93165 314
11.95177 295
11.97188 313
11.99199 320
12.01211 315
12.03222 307
12.05234 330
12.07245 332
12.09256 331
12.11268 347
12.13279 333
12.1529 380
12.17302 395
12.19313 376
12.21324 437
12.23336 379
12.25347 399
12.27359 387
12.2937 381
12.31381 349
12.33393 401
12.35404 386
12.37415 374
12.39427 366
12.41438 381
12.4345 369
12.45461 341
12.47472 338
12.49484 314
12.51495 331
12.53506 323
12.55518 310
12.57529 297
12.5954 308
12.61552 323
12.63563 311
12.65575 297
12.67586 268
12.69597 285
12.71609 322
12.7362 283
12.75631 265
12.77643 276
12.79654 234
12.81666 238
12.83677 232
12.85688 264
12.877 260
12.89711 265
12.91722 249
12.93734 295
12.95745 291
12.97757 267
12.99768 254
13.01779 253
13.03791 277
13.05802 243
13.07813 273
13.09825 247
13.11836 248
13.13847 239
13.15859 249
13.1787 220
13.19882 253
13.21893 277
13.23904 265
13.25916 264
13.27927 226
13.29938 232
13.3195 247
13.33961 267
13.35973 250
13.37984 225
13.39995 251
13.42007 225
13.44018 239
13.46029 255
13.48041 253
13.50052 226
13.52064 236
13.54075 238
13.56086 273
13.58098 247
13.60109 242
13.6212 235
13.64132 184
13.66143 256
13.68154 253
13.70166 247
13.72177 233
13.74189 218
13.762 230
13.78211 239
13.80223 244
13.82234 250
13.84245 244
13.86257 241
13.88268 241
13.9028 258
13.92291 243
13.94302 230
13.96314 247
13.98325 259
14.00336 204
14.02348 242
14.04359 248
14.06371 239
14.08382 231
14.10393 229
14.12405 235
14.14416 201
14.16427 234
14.18439 190
14.2045 202
14.22461 230
14.24473 237
14.26484 222
14.28496 226
14.30507 222
14.32518 223
14.3453 219
14.36541 238
14.38552 223
14.40564 228
14.42575 214
14.44587 211
14.46598 230
14.48609 201
14.50621 252
14.52632 210
14.54643 231
14.56655 254
14.58666 249
14.60677 236
14.62689 244
14.647 230
14.66712 222
14.68723 216
14.70734 201
14.72746 210
14.74757 236
14.76768 210
14.7878 222
14.80791 246
14.82803 259
14.84814 241
14.86825 231
14.88837 223
14.90848 225
14.92859 213
14.94871 205
14.96882 212
14.98894 235
15.00905 202
15.02916 212
15.04928 225
15.06939 234
15.0895 243
15.10962 222
15.12973 224
15.14984 223
15.16996 231
15.19007 214
15.21019 223
15.2303 236
15.25041 233
15.27053 221
15.29064 236
15.31075 215
15.33087 222
15.35098 230
15.3711 214
15.39121 221
15.41132 190
15.43144 235
15.45155 231
15.47166 239
15.49178 206
15.51189 232
15.53201 229
15.55212 235
15.57223 231
15.59235 245
15.61246 232
15.63257 218
15.65269 243
15.6728 220
15.69291 192
15.71303 209
15.73314 202
15.75326 213
15.77337 188
15.79348 184
15.8136 190
15.83371 228
15.85382 206
15.87394 264
15.89405 226
15.91417 228
15.93428 207
15.95439 224
15.97451 206
15.99462 212
16.01473 194
16.03485 235
16.05496 202
16.07508 210
16.09519 218
16.1153 230
16.13542 205
16.15553 212
16.17564 210
16.19576 225
16.21587 198
16.23598 251
16.2561 201
16.27621 215
16.29633 204
16.31644 197
16.33655 182
16.35667 207
16.37678 206
16.39689 229
16.41701 219
16.43712 223
16.45724 216
16.47735 218
16.49746 215
16.51758 214
16.53769 200
16.5578 181
16.57792 210
16.59803 218
16.61814 252
16.63826 212
16.65837 245
16.67849 212
16.6986 211
16.71871 220
16.73883 201
16.75894 219
16.77905 172
16.79917 209
16.81928 206
16.8394 203
16.85951 213
16.87962 255
16.89974 189
16.91985 199
16.93996 218
16.96008 225
16.98019 238
17.00031 229
17.02042 220
17.04053 200
17.06065 218
17.08076 234
17.10087 203
17.12099 189
17.1411 247
17.16121 220
17.18133 211
17.20144 232
17.22156 206
17.24167 201
17.26178 214
17.2819 243
17.30201 194
17.32212 223
17.34224 200
17.36235 204
17.38247 220
17.40258 201
17.42269 226
17.44281 214
17.46292 230
17.48303 215
17.50315 212
17.52326 193
17.54338 234
17.56349 191
17.5836 216
17.60372 231
17.62383 239
17.64394 231
17.66406 258
17.68417 236
17.70428 257
17.7244 259
17.74451 238
17.76463 248
17.78474 245
17.80485 258
17.82497 218
17.84508 271
17.86519 255
17.88531 255
17.90542 217
17.92554 235
17.94565 223
17.96576 245
17.98588 251
18.00599 210
18.0261 229
18.04622 198
18.06633 246
18.08645 228
18.10656 252
18.12667 247
18.14679 226
18.1669 234
18.18701 227
18.20713 213
18.22724 264
18.24735 275
18.26747 253
18.28758 311
18.3077 260
18.32781 244
18.34792 218
18.36804 291
18.38815 254
18.40826 245
18.42838 242
18.44849 249
18.46861 217
18.48872 204
18.50883 206
18.52895 249
18.54906 230
18.56917 198
18.58929 232
18.6094 228
18.62951 207
18.64963 205
18.66974 227
18.68986 225
18.70997 221
18.73008 237
18.7502 248
18.77031 227
18.79042 246
18.81054 199
18.83065 218
18.85077 200
18.87088 232
18.89099 202
18.91111 239
18.93122 218
18.95133 207
18.97145 218
18.99156 218
19.01168 211
19.03179 183
19.0519 236
19.07202 222
19.09213 223
19.11224 219
19.13236 258
19.15247 257
19.17258 240
19.1927 216
19.21281 220
19.23293 202
19.25304 220
19.27315 223
19.29327 247
19.31338 214
19.33349 224
19.35361 226
19.37372 214
19.39384 233
19.41395 240
19.43406 236
19.45418 247
19.47429 238
19.4944 246
19.51452 228
19.53463 251
19.55475 271
19.57486 261
19.59497 283
19.61509 303
19.6352 316
19.65531 371
19.67543 341
19.69554 403
19.71565 462
19.73577 430
19.75588 495
19.776 453
19.79611 467
19.81622 550
19.83634 535
19.85645 591
19.87656 528
19.89668 504
19.91679 526
19.93691 438
19.95702 446
19.97713 471
19.99725 431
20.01736 397
20.03747 405
20.05759 389
20.0777 417
20.09782 380
20.11793 389
20.13804 422
20.15816 420
20.17827 405
20.19838 421
20.2185 414
20.23861 392
20.25872 396
20.27884 428
20.29895 447
20.31907 421
20.33918 421
20.35929 401
20.37941 475
20.39952 446
20.41963 440
20.43975 430
20.45986 469
20.47998 497
20.50009 481
20.5202 480
20.54032 511
20.56043 540
20.58054 569
20.60066 649
20.62077 672
20.64088 739
20.661 886
20.68111 1089
20.70123 1462
20.72134 1930
20.74145 2662
20.76157 3570
20.78168 4470
20.80179 5760
20.82191 6517
20.84202 6564
20.86214 6141
20.88225 5245
20.90236 3733
20.92248 2609
20.94259 1615
20.9627 1069
20.98282 718
21.00293 598
21.02305 577
21.04316 494
21.06327 462
21.08339 501
21.1035 462
21.12361 435
21.14373 451
21.16384 408
21.18395 405
21.20407 400
21.22418 391
21.2443 405
21.26441 394
21.28452 432
21.30464 405
21.32475 428
21.34486 478
21.36498 415
21.38509 368
21.40521 438
21.42532 410
21.44543 421
21.46555 399
21.48566 384
21.50577 428
21.52589 364
21.546 373
21.56612 379
21.58623 333
21.60634 348
21.62646 371
21.64657 373
21.66668 370
21.6868 311
21.70691 336
21.72702 323
21.74714 320
21.76725 305
21.78737 357
21.80748 339
21.82759 299
21.84771 270
21.86782 324
21.88793 314
21.90805 343
21.92816 328
21.94828 276
21.96839 313
21.9885 338
22.00862 316
22.02873 324
22.04884 318
22.06896 321
22.08907 311
22.10919 289
22.1293 333
22.14941 307
22.16953 285
22.18964 293
22.20975 313
22.22987 291
22.24998 344
22.27009 311
22.29021 345
22.31032 317
22.33044 305
22.35055 307
22.37066 318
22.39078 298
22.41089 286
22.431 314
22.45112 258
22.47123 315
22.49135 323
22.51146 308
22.53157 310
22.55169 293
22.5718 287
22.59191 264
22.61203 327
22.63214 263
22.65225 302
22.67237 292
22.69248 338
22.7126 288
22.73271 297
22.75282 330
22.77294 335
22.79305 348
22.81316 327
22.83328 290
22.85339 331
22.87351 328
22.89362 326
22.91373 322
22.93385 315
22.95396 291
22.97407 302
22.99419 283
23.0143 276
23.03442 285
23.05453 302
23.07464 284
23.09476 266
23.11487 278
23.13498 309
23.1551 286
23.17521 308
23.19532 286
23.21544 273
23.23555 256
23.25567 294
23.27578 283
23.29589 305
23.31601 243
23.33612 249
23.35623 276
23.37635 274
23.39646 282
23.41658 264
23.43669 248
23.4568 297
23.47692 290
23.49703 263
23.51714 288
23.53726 294
23.55737 301
23.57749 273
23.5976 282
23.61771 263
23.63783 292
23.65794 294
23.67805 321
23.69817 312
23.71828 298
23.73839 304
23.75851 320
23.77862 312
23.79874 354
23.81885 294
23.83896 325
23.85908 280
23.87919 305
23.8993 331
23.91942 356
23.93953 343
23.95965 336
23.97976 347
23.99987 353
24.01999 354
24.0401 304
24.06021 311
24.08033 306
24.10044 287
24.12056 275
24.14067 274
24.16078 285
24.1809 279
24.20101 284
24.22112 293
24.24124 294
24.26135 275
24.28146 306
24.30158 282
24.32169 306
24.34181 278
24.36192 302
24.38203 309
24.40215 311
24.42226 285
24.44237 306
24.46249 264
24.4826 290
24.50272 292
24.52283 299
24.54294 327
24.56306 289
24.58317 280
24.60328 334
24.6234 336
24.64351 344
24.66362 320
24.68374 322
24.70385 370
24.72397 338
24.74408 350
24.76419 298
24.78431 369
24.80442 337
24.82453 402
24.84465 360
24.86476 393
24.88488 380
24.90499 395
24.9251 361
24.94522 351
24.96533 368
24.98544 338
25.00556 350
25.02567 355
25.04579 365
25.0659 354
25.08601 318
25.10613 329
25.12624 341
25.14635 344
25.16647 348
25.18658 340
25.20669 331
25.22681 344
25.24692 343
25.26704 284
25.28715 341
25.30726 368
25.32738 367
25.34749 345
25.3676 371
25.38772 351
25.40783 351
25.42795 398
25.44806 396
25.46817 407
25.48829 386
25.5084 384
25.52851 370
25.54863 339
25.56874 368
25.58886 361
25.60897 376
25.62908 377
25.6492 398
25.66931 400
25.68942 406
25.70954 443
25.72965 476
25.74976 483
25.76988 474
25.78999 500
25.81011 478
25.83022 504
25.85033 504
25.87045 479
25.89056 496
25.91067 512
25.93079 490
25.9509 566
25.97102 525
25.99113 553
26.01124 532
26.03136 546
26.05147 578
26.07158 640
26.0917 607
26.11181 646
26.13193 686
26.15204 670
26.17215 749
26.19227 841
26.21238 874
26.23249 946
26.25261 979
26.27272 1096
26.29283 1123
26.31295 1261
26.33306 1419
26.35318 1598
26.37329 1765
26.3934 2179
26.41352 2828
26.43363 3411
26.45374 4827
26.47386 6295
26.49397 8516
26.51409 11718
26.5342 15889
26.55431 21068
26.57443 25499
26.59454 28799
26.61465 30003
26.63477 28776
26.65488 23869
26.67499 18332
26.69511 13406
26.71522 9459
26.73534 6062
26.75545 3675
26.77556 2305
26.79568 1789
26.81579 1585
26.8359 1379
26.85602 1191
26.87613 1140
26.89625 1012
26.91636 928
26.93647 916
26.95659 786
26.9767 694
26.99681 698
27.01693 603
27.03704 609
27.05716 549
27.07727 546
27.09738 482
27.1175 523
27.13761 505
27.15772 491
27.17784 447
27.19795 456
27.21806 424
27.23818 407
27.25829 415
27.27841 439
27.29852 455
27.31863 420
27.33875 440
27.35886 414
27.37897 437
27.39909 387
27.4192 387
27.43932 408
27.45943 415
27.47954 450
27.49966 358
27.51977 390
27.53988 372
27.56 415
27.58011 359
27.60023 378
27.62034 372
27.64045 382
27.66057 373
27.68068 386
27.70079 408
27.72091 349
27.74102 397
27.76113 379
27.78125 428
27.80136 399
27.82148 403
27.84159 354
27.8617 386
27.88182 392
27.90193 379
27.92204 374
27.94216 365
27.96227 338
27.98239 357
28.0025 344
28.02261 327
28.04273 313
28.06284 292
28.08295 316
28.10307 328
28.12318 301
28.1433 303
28.16341 352
28.18352 337
28.20364 283
28.22375 318
28.24386 295
28.26398 340
28.28409 341
28.3042 318
28.32432 272
28.34443 316
28.36455 286
28.38466 322
28.40477 323
28.42489 313
28.445 294
28.46511 280
28.48523 309
28.50534 305
28.52546 312
28.54557 270
28.56568 326
28.5858 302
28.60591 283
28.62602 257
28.64614 292
28.66625 292
28.68636 289
28.70648 291
28.72659 277
28.74671 280
28.76682 257
28.78693 268
28.80705 280
28.82716 268
28.84727 270
28.86739 283
28.8875 271
28.90762 293
28.92773 279
28.94784 272
28.96796 300
28.98807 276
29.00818 278
29.0283 260
29.04841 274
29.06853 306
29.08864 262
29.10875 286
29.12887 282
29.14898 273
29.16909 267
29.18921 273
29.20932 273
29.22943 275
29.24955 294
29.26966 282
29.28978 268
29.30989 282
29.33 259
29.35012 268
29.37023 256
29.39034 300
29.41046 249
29.43057 270
29.45069 258
29.4708 271
29.49091 257
29.51103 273
29.53114 308
29.55125 285
29.57137 298
29.59148 258
29.6116 273
29.63171 289
29.65182 287
29.67194 290
29.69205 292
29.71216 306
29.73228 329
29.75239 273
29.7725 285
29.79262 287
29.81273 357
29.83285 316
29.85296 302
29.87307 287
29.89319 266
29.9133 303
29.93341 258
29.95353 287
29.97364 287
29.99376 287
30.01387 268
30.03398 317
30.0541 280
30.07421 282
30.09432 263
30.11444 253
30.13455 251
30.15467 276
30.17478 277
30.19489 293
30.21501 270
30.23512 287
30.25523 259
30.27535 254
30.29546 268
30.31557 287
30.33569 257
30.3558 284
30.37592 247
30.39603 227
30.41614 262
30.43626 275
30.45637 272
30.47648 251
30.4966 285
30.51671 257
30.53683 254
30.55694 262
30.57705 245
30.59717 257
30.61728 239
30.63739 271
30.65751 248
30.67762 260
30.69773 224
30.71785 252
30.73796 264
30.75808 251
30.77819 226
30.7983 254
30.81842 254
30.83853 244
30.85864 268
30.87876 243
30.89887 245
30.91899 262
30.9391 282
30.95921 269
30.97933 249
30.99944 256
31.01955 273
31.03967 260
31.05978 244
31.0799 267
31.10001 267
31.12012 281
31.14024 284
31.16035 262
31.18046 296
31.20058 283
31.22069 288
31.2408 264
31.26092 285
31.28103 302
31.30115 277
31.32126 269
31.34137 298
31.36149 274
31.3816 258
31.40171 259
31.42183 249
31.44194 239
31.46206 238
31.48217 203
31.50228 244
31.5224 240
31.54251 241
31.56262 253
31.58274 218
31.60285 247
31.62297 233
31.64308 278
31.66319 247
31.68331 263
31.70342 231
31.72353 263
31.74365 268
31.76376 250
31.78387 261
31.80399 266
31.8241 233
31.84422 261
31.86433 248
31.88444 263
31.90456 240
31.92467 250
31.94478 276
31.9649 297
31.98501 252
32.00513 267
32.02524 298
32.04535 240
32.06547 240
32.08558 231
32.10569 261
32.12581 245
32.14592 236
32.16604 246
32.18615 242
32.20626 268
32.22638 230
32.24649 220
32.2666 221
32.28672 229
32.30683 237
32.32694 229
32.34706 254
32.36717 241
32.38729 249
32.4074 228
32.42751 281
32.44763 219
32.46774 279
32.48785 215
32.50797 284
32.52808 294
32.5482 259
32.56831 248
32.58842 231
32.60854 238
32.62865 256
32.64876 282
32.66888 257
32.68899 228
32.7091 212
32.72922 235
32.74933 212
32.76945 236
32.78956 246
32.80967 256
32.82979 252
32.8499 251
32.87001 236
32.89013 237
32.91024 252
32.93036 223
32.95047 261
32.97058 231
32.9907 237
33.01081 232
33.03092 239
33.05104 242
33.07115 279
33.09127 266
33.11138 272
33.13149 281
33.15161 256
33.17172 251
33.19183 283
33.21195 230
33.23206 282
33.25217 265
33.27229 274
33.2924 275
33.31252 266
33.33263 268
33.35274 262
33.37286 280
33.39297 263
33.41308 264
33.4332 233
33.45331 239
33.47343 234
33.49354 238
33.51365 243
33.53377 219
33.55388 219
33.57399 231
33.59411 241
33.61422 226
33.63434 239
33.65445 225
33.67456 251
33.69468 230
33.71479 242
33.7349 221
33.75502 232
33.77513 232
33.79524 236
33.81536 236
33.83547 204
33.85559 231
33.8757 215
33.89581 209
33.91593 228
33.93604 219
33.95615 197
33.97627 201
33.99638 201
34.0165 222
34.03661 203
34.05672 217
34.07684 217
34.09695 216
34.11706 193
34.13718 234
34.15729 198
34.17741 217
34.19752 221
34.21763 200
34.23775 226
34.25786 214
34.27797 210
34.29809 242
34.3182 255
34.33831 209
34.35843 261
34.37854 270
34.39866 257
34.41877 270
34.43888 275
34.459 275
34.47911 315
34.49922 295
34.51934 285
34.53945 279
34.55957 299
34.57968 310
34.59979 324
34.61991 334
34.64002 327
34.66013 322
34.68025 332
34.70036 358
34.72047 364
34.74059 335
34.7607 360
34.78082 352
34.80093 400
34.82104 404
34.84116 413
34.86127 442
34.88138 458
34.9015 456
34.92161 455
34.94173 430
34.96184 465
34.98195 437
35.00207 402
35.02218 383
35.04229 359
35.06241 353
35.08252 350
35.10264 318
35.12275 343
35.14286 336
35.16298 336
35.18309 316
35.2032 314
35.22332 307
35.24343 324
35.26354 309
35.28366 287
35.30377 310
35.32389 309
35.344 273
35.36411 319
35.38423 276
35.40434 279
35.42445 322
35.44457 327
35.46468 289
35.4848 299
35.50491 296
35.52502 298
35.54514 285
35.56525 313
35.58536 340
35.60548 321
35.62559 296
35.64571 328
35.66582 340
35.68593 297
35.70605 297
35.72616 339
35.74627 343
35.76639 286
35.7865 316
35.80661 323
35.82673 299
35.84684 348
35.86696 321
35.88707 336
35.90718 347
35.9273 301
35.94741 328
35.96752 315
35.98764 329
36.00775 346
36.02787 346
36.04798 308
36.06809 362
36.08821 292
36.10832 312
36.12843 298
36.14855 318
36.16866 334
36.18878 340
36.20889 358
36.229 330
36.24912 403
36.26923 407
36.28934 462
36.30946 513
36.32957 563
36.34968 655
36.3698 731
36.38991 985
36.41003 1159
36.43014 1406
36.45025 1678
36.47037 1894
36.49048 2116
36.51059 2193
36.53071 1952
36.55082 1754
36.57094 1472
36.59105 1225
36.61116 1108
36.63128 915
36.65139 698
36.6715 532
36.69162 438
36.71173 380
36.73184 403
36.75196 327
36.77207 339
36.79219 347
36.8123 290
36.83241 307
36.85253 315
36.87264 316
36.89275 296
36.91287 276
36.93298 278
36.9531 275
36.97321 305
36.99332 255
37.01344 244
37.03355 296
37.05366 274
37.07378 297
37.09389 278
37.11401 254
37.13412 270
37.15423 260
37.17435 281
37.19446 265
37.21457 254
37.23469 293
37.2548 291
37.27491 243
37.29503 281
37.31514 285
37.33526 259
37.35537 264
37.37548 293
37.3956 308
37.41571 309
37.43582 282
37.45594 297
37.47605 246
37.49617 279
37.51628 297
37.53639 280
37.55651 282
37.57662 275
37.59673 297
37.61685 322
37.63696 309
37.65708 285
37.67719 304
37.6973 299
37.71742 311
37.73753 294
37.75764 283
37.77776 285
37.79787 308
37.81798 270
37.8381 338
37.85821 295
37.87833 280
37.89844 253
37.91855 259
37.93867 308
37.95878 266
37.97889 240
37.99901 251
38.01912 256
38.03924 267
38.05935 284
38.07946 237
38.09958 274
38.11969 259
38.1398 295
38.15992 270
38.18003 258
38.20015 272
38.22026 257
38.24037 267
38.26049 267
38.2806 295
38.30071 291
38.32083 250
38.34094 258
38.36105 303
38.38117 277
38.40128 279
38.4214 261
38.44151 262
38.46162 277
38.48174 299
38.50185 299
38.52196 265
38.54208 278
38.56219 258
38.58231 273
38.60242 243
38.62253 274
38.64265 249
38.66276 249
38.68287 252
38.70299 256
38.7231 242
38.74321 294
38.76333 261
38.78344 266
38.80356 238
38.82367 281
38.84378 246
38.8639 266
38.88401 249
38.90412 254
38.92424 253
38.94435 259
38.96447 251
38.98458 239
39.00469 261
39.02481 286
39.04492 261
39.06503 289
39.08515 269
39.10526 314
39.12538 328
39.14549 336
39.1656 319
39.18572 398
39.20583 407
39.22594 461
39.24606 497
39.26617 585
39.28628 688
39.3064 848
39.32651 975
39.34663 1198
39.36674 1424
39.38685 1653
39.40697 1858
39.42708 2030
39.44719 1891
39.46731 1852
39.48742 1452
39.50754 1199
39.52765 1086
39.54776 1003
39.56788 790
39.58799 622
39.6081 462
39.62822 371
39.64833 308
39.66845 302
39.68856 268
39.70867 272
39.72879 282
39.7489 290
39.76901 258
39.78913 279
39.80924 269
39.82935 270
39.84947 312
39.86958 322
39.8897 287
39.90981 267
39.92992 288
39.95004 305
39.97015 282
39.99026 313
40.01038 350
40.03049 359
40.05061 348
40.07072 404
40.09083 398
40.11095 480
40.13106 571
40.15117 623
40.17129 732
40.1914 885
40.21152 976
40.23163 1059
40.25174 933
40.27186 1099
40.29197 973
40.31208 783
40.3322 726
40.35231 665
40.37242 615
40.39254 552
40.41265 422
40.43277 343
40.45288 308
40.47299 286
40.49311 266
40.51322 278
40.53333 251
40.55345 248
40.57356 242
40.59368 262
40.61379 258
40.6339 244
40.65402 287
40.67413 259
40.69424 257
40.71436 244
40.73447 235
40.75458 268
40.7747 255
40.79481 276
40.81493 258
40.83504 266
40.85515 253
40.87527 254
40.89538 260
40.91549 284
40.93561 265
40.95572 249
40.97584 270
40.99595 269
41.01606 255
41.03618 224
41.05629 233
41.0764 265
41.09652 247
41.11663 248
41.13675 227
41.15686 266
41.17697 248
41.19709 272
41.2172 250
41.23731 220
41.25743 263
41.27754 253
41.29765 204
41.31777 256
41.33788 250
41.358 275
41.37811 229
41.39822 282
41.41834 231
41.43845 236
41.45856 229
41.47868 270
41.49879 230
41.51891 255
41.53902 233
41.55913 231
41.57925 247
41.59936 232
41.61947 252
41.63959 237
41.6597 248
41.67982 250
41.69993 225
41.72004 254
41.74016 267
41.76027 231
41.78038 237
41.8005 256
41.82061 247
41.84072 266
41.86084 234
41.88095 245
41.90107 261
41.92118 285
41.94129 298
41.96141 259
41.98152 271
42.00163 292
42.02175 246
42.04186 273
42.06198 298
42.08209 282
42.1022 290
42.12232 277
42.14243 322
42.16254 328
42.18266 343
42.20277 390
42.22289 378
42.243 518
42.26311 554
42.28323 645
42.30334 756
42.32345 918
42.34357 1041
42.36368 1225
42.38379 1414
42.40391 1417
42.42402 1432
42.44414 1263
42.46425 1153
42.48436 928
42.50448 890
42.52459 806
42.5447 688
42.56482 545
42.58493 474
42.60505 357
42.62516 294
42.64527 266
42.66539 284
42.6855 257
42.70561 238
42.72573 265
42.74584 244
42.76595 217
42.78607 251
42.80618 236
42.8263 228
42.84641 221
42.86652 213
42.88664 220
42.90675 219
42.92686 209
42.94698 212
42.96709 218
42.98721 225
43.00732 207
43.02743 199
43.04755 212
43.06766 192
43.08777 186
43.10789 186
43.128 212
43.14812 204
43.16823 227
43.18834 218
43.20846 206
43.22857 218
43.24868 208
43.2688 199
43.28891 228
43.30902 201
43.32914 201
43.34925 220
43.36937 210
43.38948 213
43.40959 230
43.42971 188
43.44982 215
43.46993 237
43.49005 199
43.51016 206
43.53028 191
43.55039 210
43.5705 210
43.59062 210
43.61073 206
43.63084 192
43.65096 227
43.67107 231
43.69119 210
43.7113 213
43.73141 205
43.75153 198
43.77164 211
43.79175 201
43.81187 211
43.83198 222
43.85209 221
43.87221 203
43.89232 203
43.91244 218
43.93255 204
43.95266 204
43.97278 211
43.99289 212
44.013 209
44.03312 200
44.05323 187
44.07335 221
44.09346 216
44.11357 194
44.13369 207
44.1538 246
44.17391 209
44.19403 187
44.21414 222
44.23426 225
44.25437 234
44.27448 222
44.2946 196
44.31471 228
44.33482 203
44.35494 197
44.37505 197
44.39516 197
44.41528 206
44.43539 209
44.45551 199
44.47562 204
44.49573 219
44.51585 212
44.53596 201
44.55607 217
44.57619 208
44.5963 211
44.61642 207
44.63653 226
44.65664 206
44.67676 192
44.69687 202
44.71698 206
44.7371 198
44.75721 204
44.77732 223
44.79744 205
44.81755 204
44.83767 200
44.85778 214
44.87789 220
44.89801 216
44.91812 204
44.93823 228
44.95835 211
44.97846 251
44.99858 219
45.01869 193
45.0388 232
45.05892 230
45.07903 218
45.09914 201
45.11926 223
45.13937 205
45.15949 242
45.1796 230
45.19971 213
45.21983 268
45.23994 238
45.26005 246
45.28017 226
45.30028 232
45.32039 232
45.34051 268
45.36062 277
45.38074 264
45.40085 280
45.42096 285
45.44108 311
45.46119 284
45.4813 299
45.50142 315
45.52153 317
45.54165 376
45.56176 362
45.58187 394
45.60199 433
45.6221 502
45.64221 567
45.66233 638
45.68244 780
45.70256 912
45.72267 970
45.74278 995
45.7629 974
45.78301 909
45.80312 830
45.82324 692
45.84335 625
45.86346 603
45.88358 532
45.90369 493
45.92381 414
45.94392 357
45.96403 338
45.98415 259
46.00426 246
46.02437 231
46.04449 221
46.0646 224
46.08472 249
46.10483 233
46.12494 222
46.14506 193
46.16517 204
46.18528 226
46.2054 208
46.22551 187
46.24563 221
46.26574 206
46.28585 212
46.30597 188
46.32608 186
46.34619 173
46.36631 213
46.38642 199
46.40653 212
46.42665 202
46.44676 218
46.46688 195
46.48699 203
46.5071 193
46.52722 205
46.54733 183
46.56744 200
46.58756 185
46.60767 198
46.62779 203
46.6479 194
46.66801 217
46.68813 197
46.70824 196
46.72835 208
46.74847 188
46.76858 204
46.78869 193
46.80881 209
46.82892 170
46.84904 189
46.86915 189
46.88926 195
46.90938 191
46.92949 172
46.9496 210
46.96972 185
46.98983 188
47.00995 198
47.03006 176
47.05017 208
47.07029 219
47.0904 206
47.11051 199
47.13063 190
47.15074 202
47.17086 181
47.19097 208
47.21108 192
47.2312 226
47.25131 169
47.27142 195
47.29154 189
47.31165 177
47.33176 209
47.35188 190
47.37199 201
47.39211 180
47.41222 185
47.43233 161
47.45245 201
47.47256 225
47.49267 186
47.51279 189
47.5329 198
47.55302 183
47.57313 165
47.59324 184
47.61336 193
47.63347 211
47.65358 196
47.6737 201
47.69381 193
47.71393 200
47.73404 202
47.75415 183
47.77427 178
47.79438 199
47.81449 179
47.83461 186
47.85472 184
47.87483 189
47.89495 207
47.91506 190
47.93518 210
47.95529 179
47.9754 183
47.99552 217
48.01563 194
48.03574 187
48.05586 191
48.07597 185
48.09609 207
48.1162 182
48.13631 204
48.15643 185
48.17654 208
48.19665 202
48.21677 207
48.23688 198
48.257 205
48.27711 198
48.29722 196
48.31734 212
48.33745 199
48.35756 191
48.37768 203
48.39779 213
48.4179 202
48.43802 179
48.45813 214
48.47825 199
48.49836 204
48.51847 195
48.53859 218
48.5587 191
48.57881 187
48.59893 208
48.61904 234
48.63916 235
48.65927 204
48.67938 229
48.6995 212
48.71961 186
48.73972 193
48.75984 217
48.77995 208
48.80006 192
48.82018 207
48.84029 195
48.86041 200
48.88052 208
48.90063 184
48.92075 190
48.94086 206
48.96097 218
48.98109 228
49.0012 217
49.02132 215
49.04143 224
49.06154 217
49.08166 219
49.10177 198
49.12188 192
49.142 203
49.16211 227
49.18223 227
49.20234 219
49.22245 216
49.24257 230
49.26268 198
49.28279 216
49.30291 232
49.32302 231
49.34313 226
49.36325 237
49.38336 223
49.40348 240
49.42359 246
49.4437 240
49.46382 226
49.48393 226
49.50404 264
49.52416 259
49.54427 231
49.56439 237
49.5845 241
49.60461 267
49.62473 286
49.64484 239
49.66495 250
49.68507 309
49.70518 313
49.7253 316
49.74541 333
49.76552 322
49.78564 363
49.80575 377
49.82586 456
49.84598 483
49.86609 532
49.8862 608
49.90632 731
49.92643 853
49.94655 1024
49.96666 1224
49.98677 1505
50.00689 1810
50.027 2125
50.04711 2501
50.06723 2851
50.08734 2975
50.10746 2945
50.12757 2590
50.14768 2199
50.1678 1912
50.18791 1632
50.20802 1619
50.22814 1487
50.24825 1336
50.26837 1107
50.28848 861
50.30859 583
50.32871 405
50.34882 369
50.36893 363
50.38905 300
50.40916 330
50.42927 295
50.44939 299
50.4695 294
50.48962 291
50.50973 301
50.52984 273
50.54996 294
50.57007 296
50.59018 280
50.6103 259
50.63041 263
50.65053 278
50.67064 246
50.69075 274
50.71087 253
50.73098 234
50.75109 223
50.77121 188
50.79132 209
50.81143 227
50.83155 236
50.85166 212
50.87178 208
50.89189 229
50.912 209
50.93212 202
50.95223 204
50.97234 204
50.99246 190
51.01257 210
51.03269 211
51.0528 209
51.07291 216
51.09303 211
51.11314 206
51.13325 196
51.15337 202
51.17348 194
51.1936 184
51.21371 195
51.23382 222
51.25394 190
51.27405 195
51.29416 172
51.31428 206
51.33439 188
51.3545 180
51.37462 199
51.39473 182
51.41485 182
51.43496 209
51.45507 199
51.47519 176
51.4953 194
51.51541 188
51.53553 198
51.55564 164
51.57576 182
51.59587 174
51.61598 191
51.6361 186
51.65621 195
51.67632 179
51.69644 193
51.71655 172
51.73667 170
51.75678 186
51.77689 181
51.79701 184
51.81712 188
51.83723 165
51.85735 195
51.87746 177
51.89757 179
51.91769 185
51.9378 199
51.95792 174
51.97803 182
51.99814 181
52.01826 179
52.03837 197
52.05848 184
52.0786 178
52.09871 205
52.11883 188
52.13894 167
52.15905 197
52.17917 171
52.19928 203
52.21939 173
52.23951 185
52.25962 184
52.27974 185
52.29985 189
52.31996 177
52.34008 171
52.36019 174
52.3803 159
52.40042 199
52.42053 159
52.44064 191
52.46076 187
52.48087 180
52.50099 207
52.5211 177
52.54121 196
52.56133 152
52.58144 186
52.60155 193
52.62167 191
52.64178 197
52.6619 185
52.68201 199
52.70212 189
52.72224 195
52.74235 220
52.76246 164
52.78258 182
52.80269 203
52.8228 204
52.84292 211
52.86303 207
52.88315 199
52.90326 176
52.92337 200
52.94349 197
52.9636 193
52.98371 213
53.00383 202
53.02394 164
53.04406 214
53.06417 171
53.08428 206
53.1044 170
53.12451 192
53.14462 171
53.16474 174
53.18485 222
53.20497 213
53.22508 207
53.24519 202
53.26531 221
53.28542 211
53.30553 199
53.32565 203
53.34576 210
53.36587 179
53.38599 218
53.4061 220
53.42622 210
53.44633 194
53.46644 222
53.48656 195
53.50667 206
53.52678 213
53.5469 198
53.56701 210
53.58713 219
53.60724 199
53.62735 219
53.64747 229
53.66758 227
53.68769 216
53.70781 214
53.72792 220
53.74804 254
53.76815 213
53.78826 231
53.80838 245
53.82849 252
53.8486 238
53.86872 221
53.88883 233
53.90894 235
53.92906 255
53.94917 237
53.96929 234
53.9894 225
54.00951 238
54.02963 247
54.04974 245
54.06985 232
54.08997 244
54.11008 237
54.1302 223
54.15031 262
54.17042 233
54.19054 235
54.21065 245
54.23076 244
54.25088 248
54.27099 259
54.29111 289
54.31122 249
54.33133 241
54.35145 254
54.37156 248
54.39167 239
54.41179 273
54.4319 236
54.45201 266
54.47213 269
54.49224 278
54.51236 336
54.53247 282
54.55258 298
54.5727 334
54.59281 316
54.61292 365
54.63304 373
54.65315 404
54.67327 449
54.69338 495
54.71349 588
54.73361 702
54.75372 783
54.77383 821
54.79395 963
54.81406 1042
54.83417 925
54.85429 890
54.8744 821
54.89452 701
54.91463 676
54.93474 652
54.95486 716
54.97497 605
54.99508 611
55.0152 535
55.03531 469
55.05543 355
55.07554 393
55.09565 355
55.11577 387
55.13588 374
55.15599 387
55.17611 442
55.19622 475
55.21634 489
55.23645 546
55.25656 534
55.27668 566
55.29679 545
55.3169 484
55.33702 452
55.35713 396
55.37724 422
55.39736 404
55.41747 428
55.43759 378
55.4577 375
55.47781 349
55.49793 304
55.51804 259
55.53815 250
55.55827 247
55.57838 270
55.5985 241
55.61861 252
55.63872 254
55.65884 236
55.67895 223
55.69906 256
55.71918 239
55.73929 237
55.75941 243
55.77952 235
55.79963 251
55.81975 231
55.83986 205
55.85997 234
55.88009 211
55.9002 218
55.92031 208
55.94043 221
55.96054 187
55.98066 209
56.00077 212
56.02088 242
56.041 234
56.06111 215
56.08122 209
56.10134 215
56.12145 199
56.14157 195
56.16168 209
56.18179 211
56.20191 197
56.22202 203
56.24213 196
56.26225 233
56.28236 214
56.30248 224
56.32259 197
56.3427 209
56.36282 205
56.38293 235
56.40304 197
56.42316 194
56.44327 214
56.46338 205
56.4835 211
56.50361 215
56.52373 212
56.54384 175
56.56395 205
56.58407 227
56.60418 201
56.62429 207
56.64441 216
56.66452 211
56.68464 204
56.70475 198
56.72486 216
56.74498 184
56.76509 189
56.7852 189
56.80532 189
56.82543 189
56.84554 203
56.86566 210
56.88577 204
56.90589 194
56.926 210
56.94611 212
56.96623 201
56.98634 210
57.00645 197
57.02657 215
57.04668 180
57.0668 241
57.08691 204
57.10702 220
57.12714 231
57.14725 216
57.16736 252
57.18748 216
57.20759 232
57.22771 212
57.24782 211
57.26793 233
57.28805 215
57.30816 245
57.32827 210
57.34839 232
57.3685 219
57.38861 198
57.40873 210
57.42884 199
57.44896 203
57.46907 190
57.48918 200
57.5093 208
57.52941 198
57.54952 221
57.56964 196
57.58975 218
57.60987 173
57.62998 210
57.65009 207
57.67021 201
57.69032 186
57.71043 186
57.73055 214
57.75066 194
57.77078 218
57.79089 198
57.811 210
57.83112 186
57.85123 194
57.87134 161
57.89146 181
57.91157 167
57.93168 200
57.9518 185
57.97191 196
57.99203 198
58.01214 170
58.03225 176
58.05237 177
58.07248 204
58.09259 150
58.11271 183
58.13282 169
58.15294 194
58.17305 192
58.19316 183
58.21328 186
58.23339 186
58.2535 190
58.27362 171
58.29373 177
58.31385 188
58.33396 180
58.35407 185
58.37419 193
58.3943 179
58.41441 208
58.43453 197
58.45464 189
58.47475 170
58.49487 205
58.51498 182
58.5351 195
58.55521 190
58.57532 210
58.59544 201
58.61555 187
58.63566 183
58.65578 196
58.67589 179
58.69601 191
58.71612 184
58.73623 202
58.75635 188
58.77646 191
58.79657 199
58.81669 196
58.8368 199
58.85691 201
58.87703 176
58.89714 213
58.91726 214
58.93737 185
58.95748 177
58.9776 210
58.99771 191
59.01782 184
59.03794 202
59.05805 201
59.07817 206
59.09828 210
59.11839 202
59.13851 200
59.15862 205
59.17873 211
59.19885 196
59.21896 195
59.23908 232
59.25919 208
59.2793 194
59.29942 241
59.31953 202
59.33964 225
59.35976 226
59.37987 210
59.39998 226
59.4201 251
59.44021 233
59.46033 253
59.48044 249
59.50055 262
59.52067 257
59.54078 292
59.56089 319
59.58101 321
59.60112 342
59.62124 418
59.64135 361
59.66146 408
59.68158 489
59.70169 540
59.7218 657
59.74192 666
59.76203 813
59.78215 937
59.80226 1175
59.82237 1263
59.84249 1417
59.8626 1722
59.88271 1872
59.90283 1890
59.92294 1750
59.94305 1597
59.96317 1355
59.98328 1139
60.0034 1073
60.02351 1044
60.04362 991
60.06374 995
60.08385 924
60.10396 848
60.12408 683
60.14419 543
60.16431 425
60.18442 344
60.20453 264
60.22465 270
60.24476 297
60.26487 239
60.28499 253
60.3051 236
60.32522 215
60.34533 222
60.36544 222
60.38556 205
60.40567 215
60.42578 230
60.4459 202
60.46601 194
60.48612 218
60.50624 199
60.52635 199
60.54647 193
60.56658 222
60.58669 209
60.60681 200
60.62692 201
60.64703 219
60.66715 198
60.68726 184
60.70738 202
60.72749 196
60.7476 202
60.76772 187
60.78783 204
60.80794 208
60.82806 197
60.84817 174
60.86828 221
60.8884 214
60.90851 191
60.92863 199
60.94874 188
60.96885 186
60.98897 192
61.00908 205
61.02919 201
61.04931 177
61.06942 196
61.08954 187
61.10965 179
61.12976 187
61.14988 174
61.16999 165
61.1901 186
61.21022 197
61.23033 196
61.25045 174
61.27056 194
61.29067 214
61.31079 196
61.3309 215
61.35101 167
61.37113 214
61.39124 196
61.41135 199
61.43147 223
61.45158 201
61.4717 221
61.49181 221
61.51192 252
61.53204 210
61.55215 225
61.57226 221
61.59238 214
61.61249 263
61.63261 249
61.65272 255
61.67283 230
61.69295 266
61.71306 233
61.73317 254
61.75329 255
61.7734 257
61.79352 250
61.81363 255
61.83374 236
61.85386 231
61.87397 214
61.89408 194
61.9142 245
61.93431 215
61.95442 208
61.97454 229
61.99465 208
62.01477 233
62.03488 234
62.05499 210
62.07511 225
62.09522 235
62.11533 236
62.13545 233
62.15556 234
62.17568 230
62.19579 229
62.2159 232
62.23602 245
62.25613 231
62.27624 229
62.29636 209
62.31647 211
62.33659 220
62.3567 224
62.37681 234
62.39693 204
62.41704 200
62.43715 250
62.45727 201
62.47738 197
62.49749 204
62.51761 233
62.53772 206
62.55784 195
62.57795 175
62.59806 195
62.61818 188
62.63829 195
62.6584 209
62.67852 219
62.69863 181
62.71875 201
62.73886 171
62.75897 173
62.77909 177
62.7992 183
62.81931 200
62.83943 177
62.85954 186
62.87965 192
62.89977 192
62.91988 215
62.94 189
62.96011 198
62.98022 179
63.00034 181
63.02045 194
63.04056 183
63.06068 197
63.08079 160
63.10091 166
63.12102 198
63.14113 178
63.16125 166
63.18136 189
63.20147 175
63.22159 191
63.2417 202
63.26182 164
63.28193 195
63.30204 175
63.32216 178
63.34227 188
63.36238 196
63.3825 198
63.40261 206
63.42272 179
63.44284 191
63.46295 200
63.48307 212
63.50318 186
63.52329 201
63.54341 212
63.56352 202
63.58363 184
63.60375 205
63.62386 195
63.64398 200
63.66409 211
63.6842 214
63.70432 194
63.72443 221
63.74454 212
63.76466 240
63.78477 262
63.80489 243
63.825 268
63.84511 289
63.86523 357
63.88534 364
63.90545 409
63.92557 448
63.94568 459
63.96579 505
63.98591 505
64.00602 433
64.02614 430
64.04625 395
64.06636 363
64.08648 316
64.10659 335
64.1267 324
64.14682 350
64.16693 326
64.18705 292
64.20716 275
64.22727 249
64.24739 236
64.2675 198
64.28761 192
64.30773 181
64.32784 188
64.34796 191
64.36807 187
64.38818 176
64.4083 189
64.42841 203
64.44852 182
64.46864 203
64.48875 191
64.50886 194
64.52898 206
64.54909 182
64.56921 166
64.58932 174
64.60943 169
64.62955 174
64.64966 188
64.66977 187
64.68989 157
64.71 189
64.73012 164
64.75023 170
64.77034 190
64.79046 164
64.81057 178
64.83068 152
64.8508 192
64.87091 170
64.89102 176
64.91114 155
64.93125 155
64.95137 186
64.97148 172
64.99159 171
65.01171 148
65.03182 175
65.05193 174
65.07205 178
65.09216 198
65.11228 177
65.13239 175
65.1525 185
65.17262 179
65.19273 182
65.21284 156
65.23296 168
65.25307 175
65.27319 176
65.2933 168
65.31341 168
65.33353 161
65.35364 181
65.37375 191
65.39387 194
65.41398 186
65.43409 187
65.45421 198
65.47432 202
65.49444 194
65.51455 184
65.53466 188
65.55478 194
65.57489 186
65.595 196
65.61512 213
65.63523 220
65.65535 254
65.67546 221
65.69557 233
65.71569 240
65.7358 233
65.75591 238
65.77603 208
65.79614 213
65.81626 193
65.83637 211
65.85648 193
65.8766 236
65.89671 202
65.91682 180
65.93694 205
65.95705 198
65.97716 195
65.99728 160
66.01739 160
66.03751 185
66.05762 176
66.07773 167
66.09785 179
66.11796 191
66.13807 194
66.15819 175
66.1783 167
66.19842 192
66.21853 186
66.23864 182
66.25876 186
66.27887 180
66.29898 175
66.3191 181
66.33921 189
66.35933 172
66.37944 173
66.39955 193
66.41967 181
66.43978 175
66.45989 161
66.48001 157
66.50012 179
66.52023 168
66.54035 176
66.56046 180
66.58058 167
66.60069 171
66.6208 165
66.64092 182
66.66103 157
66.68114 194
66.70126 191
66.72137 182
66.74149 183
66.7616 168
66.78171 181
66.80183 180
66.82194 207
66.84205 161
66.86217 183
66.88228 168
66.90239 195
66.92251 173
66.94262 196
66.96274 193
66.98285 178
67.00296 199
67.02308 186
67.04319 203
67.0633 196
67.08342 186
67.10353 198
67.12365 219
67.14376 190
67.16387 221
67.18399 200
67.2041 190
67.22421 228
67.24433 203
67.26444 232
67.28456 246
67.30467 249
67.32478 236
67.3449 246
67.36501 259
67.38512 299
67.40524 288
67.42535 315
67.44546 355
67.46558 371
67.48569 430
67.50581 468
67.52592 530
67.54603 539
67.56615 648
67.58626 720
67.60637 792
67.62649 946
67.6466 1035
67.66672 1079
67.68683 1103
67.70694 1095
67.72706 978
67.74717 867
67.76728 773
67.7874 780
67.80751 720
67.82763 787
67.84774 817
67.86785 866
67.88797 821
67.90808 881
67.92819 865
67.94831 900
67.96842 872
67.98853 988
68.00865 1078
68.02876 1256
68.04888 1372
68.06899 1460
68.0891 1504
68.10922 1518
68.12933 1405
68.14944 1251
68.16956 1213
68.18967 1205
68.20979 1212
68.2299 1334
68.25001 1305
68.27013 1380
68.29024 1228
68.31035 1036
68.33047 967
68.35058 765
68.3707 697
68.39081 611
68.41092 569
68.43104 577
68.45115 508
68.47126 470
68.49138 436
68.51149 420
68.5316 318
68.55172 275
68.57183 271
68.59195 263
68.61206 224
68.63217 209
68.65229 231
68.6724 230
68.69251 197
68.71263 206
68.73274 214
68.75286 219
68.77297 217
68.79308 200
68.8132 196
68.83331 193
68.85342 181
68.87354 182
68.89365 179
68.91376 207
68.93388 193
68.95399 193
68.97411 197
68.99422 180
69.01433 202
69.03445 196
69.05456 156
69.07467 194
69.09479 208
69.1149 185
69.13502 158
69.15513 158
69.17524 195
69.19536 175
69.21547 204
69.23558 180
69.2557 196
69.27581 158
69.29593 198
69.31604 153
69.33615 179
69.35627 188
69.37638 172
69.39649 184
69.41661 184
69.43672 166
69.45683 172
69.47695 210
69.49706 179
69.51718 146
69.53729 142
69.5574 162
69.57752 168
69.59763 167
69.61774 174
69.63786 159
69.65797 185
69.67809 191
69.6982 168
69.71831 158
69.73843 167
69.75854 194
69.77865 159
69.79877 194
69.81888 157
69.839 165
69.85911 178
69.87922 182
69.89934 179
69.91945 183
69.93956 164
69.95968 188
69.97979 165
69.9999 167
70.02002 161
70.04013 142
70.06025 168
70.08036 167
70.10047 182
70.12059 150
70.1407 189
70.16081 191
70.18093 175
70.20104 194
70.22116 165
70.24127 182
70.26138 171
70.2815 169
70.30161 189
70.32172 169
70.34184 181
70.36195 200
70.38207 186
70.40218 178
70.42229 160
70.44241 176
70.46252 166
70.48263 166
70.50275 186
70.52286 171
70.54297 170
70.56309 165
70.5832 141
70.60332 145
70.62343 188
70.64354 155
70.66366 163
70.68377 156
70.70388 167
70.724 167
70.74411 174
70.76423 170
70.78434 167
70.80445 177
70.82457 154
70.84468 140
70.86479 143
70.88491 189
70.90502 160
70.92513 158
70.94525 153
70.96536 182
70.98548 158
71.00559 166
71.0257 159
71.04582 159
71.06593 151
71.08604 155
71.10616 157
71.12627 166
71.14639 155
71.1665 157
71.18661 166
71.20673 152
71.22684 155
71.24695 154
71.26707 144
71.28718 140
71.3073 167
71.32741 153
71.34752 158
71.36764 168
71.38775 181
71.40786 156
71.42798 136
71.44809 154
71.4682 151
71.48832 171
71.50843 158
71.52855 149
71.54866 166
71.56877 141
71.58889 161
71.609 157
71.62911 170
71.64923 173
71.66934 155
71.68946 168
71.70957 156
71.72968 173
71.7498 164
71.76991 152
71.79002 160
71.81014 155
71.83025 149
71.85037 167
71.87048 186
71.89059 171
71.91071 184
71.93082 157
71.95093 181
71.97105 146
71.99116 141
72.01127 151
72.03139 170
72.0515 136
72.07162 144
72.09173 142
72.11184 153
72.13196 170
72.15207 180
72.17218 159
72.1923 166
72.21241 153
72.23253 162
72.25264 175
72.27275 172
72.29287 169
72.31298 166
72.33309 171
72.35321 171
72.37332 151
72.39344 163
72.41355 162
72.43366 155
72.45378 150
72.47389 158
72.494 170
72.51412 205
72.53423 149
72.55434 162
72.57446 171
72.59457 179
72.61469 183
72.6348 163
72.65491 161
72.67503 195
72.69514 182
72.71525 178
72.73537 185
72.75548 193
72.7756 167
72.79571 162
72.81582 148
72.83594 168
72.85605 190
72.87616 160
72.89628 163
72.91639 157
72.9365 189
72.95662 186
72.97673 170
72.99685 196
73.01696 183
73.03707 169
73.05719 162
73.0773 193
73.09741 189
73.11753 192
73.13764 218
73.15776 213
73.17787 218
73.19798 239
73.2181 225
73.23821 292
73.25832 285
73.27844 334
73.29855 342
73.31867 365
73.33878 379
73.35889 406
73.37901 459
73.39912 455
73.41923 480
73.43935 441
73.45946 403
73.47957 389
73.49969 322
73.5198 297
73.53992 289
73.56003 329
73.58014 314
73.60026 326
73.62037 308
73.64048 346
73.6606 310
73.68071 217
73.70083 239
73.72094 202
73.74105 185
73.76117 197
73.78128 164
73.80139 200
73.82151 175
73.84162 167
73.86174 159
73.88185 174
73.90196 173
73.92208 183
73.94219 150
73.9623 150
73.98242 162
74.00253 165
74.02264 164
74.04276 147
74.06287 167
74.08299 168
74.1031 169
74.12321 161
74.14333 150
74.16344 180
74.18355 141
74.20367 186
74.22378 171
74.2439 148
74.26401 172
74.28412 170
74.30424 178
74.32435 156
74.34446 164
74.36458 157
74.38469 160
74.40481 152
74.42492 181
74.44503 151
74.46515 160
74.48526 164
74.50537 145
74.52549 176
74.5456 147
74.56571 154
74.58583 173
74.60594 162
74.62606 164
74.64617 148
74.66628 144
74.6864 151
74.70651 155
74.72662 149
74.74674 164
74.76685 166
74.78697 158
74.80708 154
74.82719 164
74.84731 161
74.86742 159
74.88753 170
74.90765 172
74.92776 163
74.94787 150
74.96799 166
74.9881 140
75.00822 156
