3.00117 19661
3.02128 19805
3.0414 18928
3.06151 18673
3.08162 18199
3.10174 17567
3.12185 17149
3.14197 16925
3.16208 16507
3.18219 15666
3.20231 15214
3.22242 15040
3.24253 14172
3.26265 13909
3.28276 13514
3.30288 12954
3.32299 12815
3.3431 12292
3.36322 11913
3.38333 11511
3.40344 11036
3.42356 10819
3.44367 10479
3.46379 10295
3.4839 9822
3.50401 9268
3.52413 9158
3.54424 8885
3.56435 8601
3.58447 8105
3.60458 7806
3.62469 7608
3.64481 7430
3.66492 7154
3.68504 6799
3.70515 6416
3.72526 6341
3.74538 5935
3.76549 5814
3.7856 5561
3.80572 5294
3.82583 5171
3.84595 4928
3.86606 4769
3.88617 4647
3.90629 4306
3.9264 4295
3.94651 3977
3.96663 3990
3.98674 3613
4.00686 3507
4.02697 3457
4.04708 3219
4.0672 3197
4.08731 2937
4.10742 2862
4.12754 2777
4.14765 2578
4.16776 2489
4.18788 2485
4.20799 2362
4.22811 2275
4.24822 2328
4.26833 2049
4.28845 2042
4.30856 1975
4.32867 2013
4.34879 1955
4.3689 1813
4.38902 1745
4.40913 1698
4.42924 1727
4.44936 1677
4.46947 1640
4.48958 1569
4.5097 1562
4.52981 1572
4.54992 1520
4.57004 1499
4.59015 1345
4.61027 1395
4.63038 1446
4.65049 1350
4.67061 1427
4.69072 1253
4.71083 1265
4.73095 1244
4.75106 1210
4.77118 1203
4.79129 1166
4.8114 1130
4.83152 1169
4.85163 1125
4.87174 1067
4.89186 1100
4.91197 1063
4.93209 1080
4.9522 1055
4.97231 930
4.99243 1007
5.01254 965
5.03265 990
5.05277 968
5.07288 901
5.09299 883
5.11311 892
5.13322 901
5.15334 861
5.17345 845
5.19356 821
5.21368 915
5.23379 848
5.2539 852
5.27402 771
5.29413 826
5.31425 739
5.33436 807
5.35447 746
5.37459 673
5.3947 707
5.41481 701
5.43493 687
5.45504 682
5.47516 685
5.49527 678
5.51538 695
5.5355 704
5.55561 713
5.57572 594
5.59584 610
5.61595 660
5.63606 649
5.65618 622
5.67629 600
5.69641 578
5.71652 597
5.73663 603
5.75675 625
5.77686 581
5.79697 558
5.81709 549
5.8372 570
5.85732 561
5.87743 542
5.89754 554
5.91766 550
5.93777 556
5.95788 563
5.978 577
5.99811 540
6.01823 514
6.03834 583
6.05845 550
6.07857 514
6.09868 502
6.11879 509
6.13891 527
6.15902 546
6.17913 514
6.19925 502
6.21936 523
6.23948 504
6.25959 540
6.2797 530
6.29982 492
6.31993 483
6.34004 532
6.36016 500
6.38027 468
6.40039 501
6.4205 487
6.44061 499
6.46073 499
6.48084 512
6.50095 434
6.52107 473
6.54118 501
6.56129 473
6.58141 456
6.60152 474
6.62164 459
6.64175 470
6.66186 477
6.68198 455
6.70209 514
6.7222 460
6.74232 471
6.76243 490
6.78255 531
6.80266 507
6.82277 492
6.84289 468
6.863 478
6.88311 497
6.90323 481
6.92334 478
6.94346 490
6.96357 432
6.98368 462
7.0038 465
7.02391 496
7.04402 502
7.06414 473
7.08425 471
7.10436 458
7.12448 450
7.14459 453
7.16471 437
7.18482 477
7.20493 459
7.22505 442
7.24516 460
7.26527 472
7.28539 431
7.3055 476
7.32562 483
7.34573 453
7.36584 427
7.38596 490
7.40607 442
7.42618 449
7.4463 464
7.46641 438
7.48653 461
7.50664 466
7.52675 467
7.54687 518
7.56698 534
7.58709 478
7.60721 443
7.62732 476
7.64743 458
7.66755 462
7.68766 455
7.70778 468
7.72789 436
7.748 469
7.76812 449
7.78823 447
7.80834 447
7.82846 481
7.84857 501
7.86869 469
7.8888 444
7.90891 439
7.92903 438
7.94914 452
7.96925 463
7.98937 476
8.00948 489
8.0296 419
8.04971 429
8.06982 461
8.08994 514
8.11005 434
8.13016 477
8.15028 498
8.17039 467
8.1905 460
8.21062 457
8.23073 442
8.25085 478
8.27096 459
8.29107 484
8.31119 453
8.3313 468
8.35141 484
8.37153 465
8.39164 449
8.41176 498
8.43187 497
8.45198 454
8.4721 457
8.49221 436
8.51232 477
8.53244 486
8.55255 451
8.57266 502
8.59278 451
8.61289 492
8.63301 480
8.65312 462
8.67323 479
8.69335 501
8.71346 447
8.73357 506
8.75369 464
8.7738 488
8.79392 466
8.81403 509
8.83414 496
8.85426 491
8.87437 454
8.89448 499
8.9146 474
8.93471 510
8.95483 472
8.97494 484
8.99505 468
9.01517 481
9.03528 491
9.05539 522
9.07551 467
9.09562 454
9.11573 505
9.13585 480
9.15596 486
9.17608 439
9.19619 512
9.2163 411
9.23642 440
9.25653 507
9.27664 485
9.29676 456
9.31687 454
9.33699 490
9.3571 455
9.37721 472
9.39733 455
9.41744 502
9.43755 476
9.45767 501
9.47778 491
9.4979 518
9.51801 473
9.53812 462
9.55824 434
9.57835 489
9.59846 489
9.61858 472
9.63869 504
9.6588 467
9.67892 455
9.69903 466
9.71915 491
9.73926 464
9.75937 447
9.77949 456
9.7996 477
9.81971 455
9.83983 475
9.85994 487
9.88006 478
9.90017 477
9.92028 469
9.9404 474
9.96051 465
9.98062 473
10.00074 487
10.02085 474
10.04097 482
10.06108 476
10.08119 470
10.10131 484
10.12142 449
10.14153 470
10.16165 487
10.18176 508
10.20187 479
10.22199 494
10.2421 477
10.26222 494
10.28233 467
10.30244 487
10.32256 441
10.34267 491
10.36278 497
10.3829 484
10.40301 498
10.42313 465
10.44324 456
10.46335 483
10.48347 456
10.50358 451
10.52369 462
10.54381 461
10.56392 465
10.58403 460
10.60415 491
10.62426 444
10.64438 496
10.66449 467
10.6846 447
10.70472 428
10.72483 471
10.74494 469
10.76506 454
10.78517 498
10.80529 494
10.8254 450
10.84551 509
10.86563 449
10.88574 517
10.90585 475
10.92597 484
10.94608 504
10.9662 482
10.98631 520
11.00642 467
11.02654 474
11.04665 457
11.06676 473
11.08688 503
11.10699 513
11.1271 470
11.14722 471
11.16733 508
11.18745 475
11.20756 497
11.22767 488
11.24779 508
11.2679 493
11.28801 486
11.30813 447
11.32824 483
11.34836 441
11.36847 491
11.38858 530
11.4087 528
11.42881 498
11.44892 501
11.46904 497
11.48915 479
11.50927 493
11.52938 513
11.54949 538
11.56961 540
11.58972 530
11.60983 535
11.62995 520
11.65006 509
11.67017 592
11.69029 511
11.7104 550
11.73052 543
11.75063 570
11.77074 566
11.79086 583
11.81097 563
11.83108 603
11.8512 577
11.87131 648
11.89143 594
11.91154 676
11.93165 659
11.95177 646
11.97188 649
11.99199 720
12.01211 736
12.03222 765
12.05234 759
12.07245 864
12.09256 862
12.11268 870
12.13279 901
12.1529 882
12.17302 956
12.19313 1038
12.21324 1061
12.23336 1092
12.25347 1004
12.27359 1052
12.2937 1124
12.31381 1012
12.33393 967
12.35404 981
12.37415 1007
12.39427 916
12.41438 923
12.4345 879
12.45461 838
12.47472 835
12.49484 791
12.51495 711
12.53506 729
12.55518 670
12.57529 689
12.5954 660
12.61552 652
12.63563 604
12.65575 591
12.67586 584
12.69597 552
12.71609 550
12.7362 567
12.75631 488
12.77643 536
12.79654 503
12.81666 495
12.83677 504
12.85688 561
12.877 505
12.89711 535
12.91722 522
12.93734 512
12.95745 474
12.97757 484
12.99768 492
13.01779 491
13.03791 484
13.05802 492
13.07813 472
13.09825 514
13.11836 439
13.13847 463
13.15859 469
13.1787 461
13.19882 480
13.21893 456
13.23904 460
13.25916 451
13.27927 449
13.29938 470
13.3195 436
13.33961 428
13.35973 444
13.37984 457
13.39995 520
13.42007 451
13.44018 494
13.46029 441
13.48041 432
13.50052 439
13.52064 444
13.54075 445
13.56086 422
13.58098 431
13.60109 440
13.6212 443
13.64132 432
13.66143 458
13.68154 459
13.70166 477
13.72177 407
13.74189 450
13.762 445
13.78211 453
13.80223 448
13.82234 466
13.84245 468
13.86257 449
13.88268 472
13.9028 429
13.92291 464
13.94302 444
13.96314 430
13.98325 471
14.00336 438
14.02348 466
14.04359 420
14.06371 453
14.08382 464
14.10393 422
14.12405 427
14.14416 427
14.16427 430
14.18439 472
14.2045 448
14.22461 382
14.24473 408
14.26484 513
14.28496 440
14.30507 378
14.32518 426
14.3453 449
14.36541 433
14.38552 453
14.40564 430
14.42575 420
14.44587 409
14.46598 428
14.48609 471
14.50621 457
14.52632 467
14.54643 476
14.56655 455
14.58666 416
14.60677 443
14.62689 431
14.647 432
14.66712 436
14.68723 449
14.70734 436
14.72746 417
14.74757 486
14.76768 414
14.7878 484
14.80791 449
14.82803 403
14.84814 447
14.86825 420
14.88837 431
14.90848 443
14.92859 423
14.94871 439
14.96882 455
14.98894 428
15.00905 459
15.02916 441
15.04928 429
15.06939 405
15.0895 344
15.10962 434
15.12973 401
15.14984 450
15.16996 438
15.19007 440
15.21019 398
15.2303 424
15.25041 430
15.27053 426
15.29064 437
15.31075 450
15.33087 406
15.35098 427
15.3711 426
15.39121 402
15.41132 448
15.43144 429
15.45155 459
15.47166 448
15.49178 410
15.51189 448
15.53201 468
15.55212 425
15.57223 484
15.59235 442
15.61246 448
15.63257 429
15.65269 421
15.6728 419
15.69291 397
15.71303 465
15.73314 408
15.75326 412
15.77337 416
15.79348 412
15.8136 463
15.83371 458
15.85382 436
15.87394 454
15.89405 431
15.91417 476
15.93428 395
15.95439 431
15.97451 401
15.99462 455
16.01473 389
16.03485 427
16.05496 459
16.07508 402
16.09519 444
16.1153 485
16.13542 478
16.15553 487
16.17564 477
16.19576 424
16.21587 372
16.23598 422
16.2561 441
16.27621 441
16.29633 481
16.31644 413
16.33655 437
16.35667 429
16.37678 431
16.39689 419
16.41701 426
16.43712 467
16.45724 439
16.47735 392
16.49746 405
16.51758 456
16.53769 412
16.5578 390
16.57792 426
16.59803 423
16.61814 445
16.63826 437
16.65837 457
16.67849 444
16.6986 410
16.71871 409
16.73883 458
16.75894 411
16.77905 449
16.79917 460
16.81928 430
16.8394 427
16.85951 450
16.87962 425
16.89974 445
16.91985 423
16.93996 400
16.96008 434
16.98019 476
17.00031 450
17.02042 450
17.04053 424
17.06065 428
17.08076 469
17.10087 415
17.12099 490
17.1411 403
17.16121 395
17.18133 413
17.20144 430
17.22156 416
17.24167 424
17.26178 400
17.2819 431
17.30201 440
17.32212 440
17.34224 442
17.36235 402
17.38247 385
17.40258 435
17.42269 421
17.44281 421
17.46292 456
17.48303 384
17.50315 433
17.52326 472
17.54338 439
17.56349 448
17.5836 453
17.60372 418
17.62383 433
17.64394 423
17.66406 474
17.68417 435
17.70428 460
17.7244 442
17.74451 466
17.76463 417
17.78474 412
17.80485 444
17.82497 453
17.84508 447
17.86519 439
17.88531 489
17.90542 439
17.92554 407
17.94565 449
17.96576 444
17.98588 429
18.00599 475
18.0261 412
18.04622 429
18.06633 431
18.08645 436
18.10656 459
18.12667 444
18.14679 463
18.1669 443
18.18701 436
18.20713 436
18.22724 475
18.24735 440
18.26747 454
18.28758 457
18.3077 411
18.32781 477
18.34792 425
18.36804 454
18.38815 412
18.40826 422
18.42838 472
18.44849 418
18.46861 433
18.48872 444
18.50883 408
18.52895 414
18.54906 463
18.56917 448
18.58929 479
18.6094 424
18.62951 447
18.64963 449
18.66974 421
18.68986 414
18.70997 440
18.73008 445
18.7502 469
18.77031 431
18.79042 433
18.81054 439
18.83065 456
18.85077 418
18.87088 459
18.89099 448
18.91111 448
18.93122 450
18.95133 482
18.97145 388
18.99156 481
19.01168 434
19.03179 464
19.0519 455
19.07202 454
19.09213 448
19.11224 478
19.13236 479
19.15247 453
19.17258 448
19.1927 449
19.21281 461
19.23293 435
19.25304 495
19.27315 435
19.29327 481
19.31338 514
19.33349 459
19.35361 446
19.37372 450
19.39384 488
19.41395 505
19.43406 431
19.45418 462
19.47429 487
19.4944 475
19.51452 442
19.53463 515
19.55475 500
19.57486 493
19.59497 574
19.61509 529
19.6352 531
19.65531 556
19.67543 664
19.69554 668
19.71565 699
19.73577 692
19.75588 757
19.776 850
19.79611 905
19.81622 879
19.83634 946
19.85645 893
19.87656 934
19.89668 845
19.91679 879
19.93691 855
19.95702 890
19.97713 893
19.99725 849
20.01736 796
20.03747 783
20.05759 828
20.0777 801
20.09782 814
20.11793 759
20.13804 813
20.15816 845
20.17827 853
20.19838 814
20.2185 785
20.23861 857
20.25872 825
20.27884 844
20.29895 830
20.31907 854
20.33918 835
20.35929 777
20.37941 831
20.39952 799
20.41963 871
20.43975 754
20.45986 803
20.47998 772
20.50009 747
20.5202 784
20.54032 843
20.56043 878
20.58054 900
20.60066 833
20.62077 904
20.64088 999
20.661 1002
20.68111 1145
20.70123 1295
20.72134 1576
20.74145 1851
20.76157 2226
20.78168 2460
20.80179 2733
20.82191 2616
20.84202 2493
20.86214 2084
20.88225 1821
20.90236 1453
20.92248 1206
20.94259 1096
20.9627 953
20.98282 918
21.00293 833
21.02305 817
21.04316 808
21.06327 806
21.08339 877
21.1035 785
21.12361 857
21.14373 846
21.16384 837
21.18395 813
21.20407 840
21.22418 858
21.2443 853
21.26441 820
21.28452 860
21.30464 883
21.32475 752
21.34486 773
21.36498 795
21.38509 761
21.40521 782
21.42532 807
21.44543 722
21.46555 773
21.48566 734
21.50577 710
21.52589 704
21.546 684
21.56612 684
21.58623 716
21.60634 668
21.62646 657
21.64657 688
21.66668 654
21.6868 700
21.70691 640
21.72702 697
21.74714 664
21.76725 631
21.78737 631
21.80748 579
21.82759 648
21.84771 604
21.86782 682
21.88793 672
21.90805 631
21.92816 638
21.94828 661
21.96839 590
21.9885 637
22.00862 603
22.02873 629
22.04884 653
22.06896 649
22.08907 628
22.10919 580
22.1293 609
22.14941 629
22.16953 601
22.18964 657
22.20975 626
22.22987 570
22.24998 632
22.27009 596
22.29021 540
22.31032 622
22.33044 606
22.35055 581
22.37066 643
22.39078 626
22.41089 608
22.431 601
22.45112 542
22.47123 617
22.49135 588
22.51146 597
22.53157 559
22.55169 582
22.5718 594
22.59191 606
22.61203 607
22.63214 598
22.65225 571
22.67237 555
22.69248 580
22.7126 559
22.73271 551
22.75282 625
22.77294 588
22.79305 595
22.81316 558
22.83328 612
22.85339 590
22.87351 564
22.89362 579
22.91373 592
22.93385 586
22.95396 524
22.97407 539
22.99419 564
23.0143 558
23.03442 570
23.05453 573
23.07464 547
23.09476 598
23.11487 562
23.13498 595
23.1551 534
23.17521 550
23.19532 530
23.21544 525
23.23555 537
23.25567 516
23.27578 519
23.29589 528
23.31601 577
23.33612 524
23.35623 573
23.37635 556
23.39646 552
23.41658 545
23.43669 547
23.4568 578
23.47692 593
23.49703 572
23.51714 545
23.53726 583
23.55737 575
23.57749 591
23.5976 627
23.61771 591
23.63783 579
23.65794 621
23.67805 621
23.69817 644
23.71828 692
23.73839 622
23.75851 604
23.77862 635
23.79874 637
23.81885 639
23.83896 664
23.85908 665
23.87919 697
23.8993 673
23.91942 673
23.93953 614
23.95965 662
23.97976 683
23.99987 677
24.01999 604
24.0401 688
24.06021 663
24.08033 662
24.10044 687
24.12056 660
24.14067 713
24.16078 668
24.1809 660
24.20101 715
24.22112 682
24.24124 727
24.26135 617
24.28146 627
24.30158 691
24.32169 692
24.34181 647
24.36192 661
24.38203 670
24.40215 693
24.42226 659
24.44237 671
24.46249 657
24.4826 689
24.50272 673
24.52283 752
24.54294 742
24.56306 709
24.58317 753
24.60328 768
24.6234 816
24.64351 814
24.66362 821
24.68374 914
24.70385 860
24.72397 944
24.74408 962
24.76419 948
24.78431 991
24.80442 1016
24.82453 922
24.84465 952
24.86476 982
24.88488 932
24.90499 941
24.9251 920
24.94522 886
24.96533 862
24.98544 865
25.00556 840
25.02567 803
25.04579 713
25.0659 762
25.08601 763
25.10613 764
25.12624 666
25.14635 747
25.16647 722
25.18658 713
25.20669 692
25.22681 658
25.24692 691
25.26704 666
25.28715 692
25.30726 622
25.32738 602
25.34749 630
25.3676 647
25.38772 642
25.40783 624
25.42795 565
25.44806 611
25.46817 575
25.48829 632
25.5084 599
25.52851 549
25.54863 601
25.56874 647
25.58886 585
25.60897 586
25.62908 623
25.6492 598
25.66931 613
25.68942 623
25.70954 601
25.72965 609
25.74976 648
25.76988 603
25.78999 569
25.81011 637
25.83022 610
25.85033 584
25.87045 575
25.89056 621
25.91067 571
25.93079 588
25.9509 628
25.97102 638
25.99113 581
26.01124 648
26.03136 634
26.05147 626
26.07158 682
26.0917 683
26.11181 624
26.13193 723
26.15204 698
26.17215 693
26.19227 710
26.21238 799
26.23249 846
26.25261 778
26.27272 821
26.29283 907
26.31295 909
26.33306 1002
26.35318 1124
26.37329 1192
26.3934 1371
26.41352 1737
26.43363 2072
26.45374 2621
26.47386 3508
26.49397 4652
26.51409 6007
26.5342 7388
26.55431 8736
26.57443 9372
26.59454 9278
26.61465 8745
26.63477 7635
26.65488 6085
26.67499 4635
26.69511 3446
26.71522 2441
26.73534 1816
26.75545 1408
26.77556 1047
26.79568 972
26.81579 925
26.8359 856
26.85602 836
26.87613 825
26.89625 716
26.91636 734
26.93647 713
26.95659 684
26.9767 661
26.99681 616
27.01693 671
27.03704 637
27.05716 615
27.07727 605
27.09738 599
27.1175 592
27.13761 585
27.15772 573
27.17784 572
27.19795 568
27.21806 582
27.23818 597
27.25829 567
27.27841 543
27.29852 560
27.31863 587
27.33875 519
27.35886 507
27.37897 577
27.39909 528
27.4192 530
27.43932 614
27.45943 561
27.47954 515
27.49966 544
27.51977 473
27.53988 553
27.56 511
27.58011 528
27.60023 499
27.62034 554
27.64045 501
27.66057 530
27.68068 561
27.70079 520
27.72091 512
27.74102 545
27.76113 554
27.78125 524
27.80136 550
27.82148 511
27.84159 523
27.8617 514
27.88182 536
27.90193 563
27.92204 506
27.94216 518
27.96227 486
27.98239 519
28.0025 504
28.02261 506
28.04273 488
28.06284 566
28.08295 524
28.10307 481
28.12318 494
28.1433 488
28.16341 528
28.18352 518
28.20364 517
28.22375 492
28.24386 484
28.26398 507
28.28409 480
28.3042 486
28.32432 471
28.34443 478
28.36455 481
28.38466 504
28.40477 530
28.42489 483
28.445 459
28.46511 502
28.48523 519
28.50534 502
28.52546 505
28.54557 475
28.56568 493
28.5858 508
28.60591 494
28.62602 519
28.64614 483
28.66625 462
28.68636 527
28.70648 508
28.72659 521
28.74671 487
28.76682 484
28.78693 505
28.80705 484
28.82716 456
28.84727 500
28.86739 468
28.8875 492
28.90762 467
28.92773 453
28.94784 466
28.96796 505
28.98807 464
29.00818 471
29.0283 498
29.04841 447
29.06853 487
29.08864 490
29.10875 505
29.12887 441
29.14898 456
29.16909 491
29.18921 499
29.20932 478
29.22943 482
29.24955 487
29.26966 537
29.28978 476
29.30989 480
29.33 485
29.35012 472
29.37023 471
29.39034 439
29.41046 496
29.43057 480
29.45069 455
29.4708 453
29.49091 459
29.51103 431
29.53114 454
29.55125 505
29.57137 475
29.59148 490
29.6116 494
29.63171 479
29.65182 458
29.67194 469
29.69205 467
29.71216 487
29.73228 504
29.75239 479
29.7725 494
29.79262 477
29.81273 468
29.83285 493
29.85296 462
29.87307 482
29.89319 477
29.9133 463
29.93341 476
29.95353 478
29.97364 514
29.99376 464
30.01387 511
30.03398 513
30.0541 482
30.07421 464
30.09432 516
30.11444 498
30.13455 454
30.15467 459
30.17478 450
30.19489 498
30.21501 529
30.23512 471
30.25523 496
30.27535 519
30.29546 473
30.31557 525
30.33569 527
30.3558 473
30.37592 507
30.39603 499
30.41614 508
30.43626 489
30.45637 485
30.47648 500
30.4966 500
30.51671 491
30.53683 451
30.55694 443
30.57705 464
30.59717 495
30.61728 520
30.63739 505
30.65751 476
30.67762 444
30.69773 479
30.71785 501
30.73796 483
30.75808 477
30.77819 467
30.7983 542
30.81842 460
30.83853 449
30.85864 499
30.87876 491
30.89887 488
30.91899 444
30.9391 460
30.95921 455
30.97933 485
30.99944 504
31.01955 457
31.03967 461
31.05978 485
31.0799 455
31.10001 443
31.12012 459
31.14024 429
31.16035 468
31.18046 466
31.20058 508
31.22069 488
31.2408 445
31.26092 496
31.28103 465
31.30115 428
31.32126 441
31.34137 486
31.36149 461
31.3816 481
31.40171 467
31.42183 460
31.44194 483
31.46206 451
31.48217 477
31.50228 490
31.5224 503
31.54251 430
31.56262 499
31.58274 459
31.60285 452
31.62297 469
31.64308 466
31.66319 476
31.68331 483
31.70342 441
31.72353 485
31.74365 491
31.76376 516
31.78387 473
31.80399 464
31.8241 463
31.84422 491
31.86433 493
31.88444 461
31.90456 491
31.92467 506
31.94478 523
31.9649 516
31.98501 497
32.00513 486
32.02524 488
32.04535 478
32.06547 496
32.08558 475
32.10569 487
32.12581 522
32.14592 499
32.16604 503
32.18615 561
32.20626 522
32.22638 516
32.24649 571
32.2666 538
32.28672 546
32.30683 578
32.32694 559
32.34706 607
32.36717 642
32.38729 635
32.4074 660
32.42751 697
32.44763 675
32.46774 714
32.48785 713
32.50797 698
32.52808 738
32.5482 720
32.56831 688
32.58842 651
32.60854 646
32.62865 651
32.64876 627
32.66888 602
32.68899 614
32.7091 593
32.72922 617
32.74933 610
32.76945 639
32.78956 648
32.80967 582
32.82979 638
32.8499 593
32.87001 611
32.89013 649
32.91024 659
32.93036 610
32.95047 669
32.97058 691
32.9907 746
33.01081 724
33.03092 734
33.05104 709
33.07115 780
33.09127 803
33.11138 788
33.13149 832
33.15161 746
33.17172 771
33.19183 741
33.21195 741
33.23206 716
33.25217 693
33.27229 697
33.2924 711
33.31252 679
33.33263 683
33.35274 690
33.37286 626
33.39297 614
33.41308 667
33.4332 599
33.45331 625
33.47343 578
33.49354 583
33.51365 581
33.53377 554
33.55388 576
33.57399 585
33.59411 533
33.61422 503
33.63434 551
33.65445 539
33.67456 509
33.69468 557
33.71479 498
33.7349 557
33.75502 534
33.77513 521
33.79524 497
33.81536 501
33.83547 491
33.85559 484
33.8757 501
33.89581 494
33.91593 455
33.93604 493
33.95615 521
33.97627 494
33.99638 512
34.0165 497
34.03661 482
34.05672 485
34.07684 517
34.09695 511
34.11706 519
34.13718 489
34.15729 486
34.17741 447
34.19752 524
34.21763 533
34.23775 520
34.25786 477
34.27797 473
34.29809 515
34.3182 466
34.33831 526
34.35843 450
34.37854 495
34.39866 500
34.41877 523
34.43888 486
34.459 507
34.47911 461
34.49922 524
34.51934 541
34.53945 485
34.55957 540
34.57968 556
34.59979 548
34.61991 572
34.64002 560
34.66013 546
34.68025 565
34.70036 596
34.72047 637
34.74059 631
34.7607 687
34.78082 650
34.80093 636
34.82104 733
34.84116 722
34.86127 701
34.88138 736
34.9015 760
34.92161 730
34.94173 745
34.96184 703
34.98195 768
35.00207 758
35.02218 719
35.04229 713
35.06241 812
35.08252 737
35.10264 730
35.12275 708
35.14286 724
35.16298 802
35.18309 802
35.2032 760
35.22332 830
35.24343 766
35.26354 728
35.28366 751
35.30377 779
35.32389 760
35.344 788
35.36411 720
35.38423 768
35.40434 727
35.42445 753
35.44457 817
35.46468 844
35.4848 834
35.50491 852
35.52502 903
35.54514 958
35.56525 921
35.58536 977
35.60548 968
35.62559 1008
35.64571 977
35.66582 961
35.68593 983
35.70605 990
35.72616 927
35.74627 924
35.76639 891
35.7865 852
35.80661 909
35.82673 834
35.84684 854
35.86696 807
35.88707 808
35.90718 710
35.9273 789
35.94741 717
35.96752 767
35.98764 744
36.00775 704
36.02787 669
36.04798 667
36.06809 682
36.08821 650
36.10832 651
36.12843 622
36.14855 629
36.16866 609
36.18878 592
36.20889 641
36.229 662
36.24912 651
36.26923 631
36.28934 695
36.30946 702
36.32957 760
36.34968 761
36.3698 858
36.38991 885
36.41003 1013
36.43014 1017
36.45025 1146
36.47037 1113
36.49048 1101
36.51059 1154
36.53071 982
36.55082 1019
36.57094 951
36.59105 852
36.61116 778
36.63128 732
36.65139 709
36.6715 644
36.69162 629
36.71173 593
36.73184 586
36.75196 641
36.77207 605
36.79219 651
36.8123 648
36.83241 656
36.85253 609
36.87264 645
36.89275 645
36.91287 631
36.93298 609
36.9531 627
36.97321 615
36.99332 574
37.01344 573
37.03355 581
37.05366 599
37.07378 589
37.09389 554
37.11401 578
37.13412 559
37.15423 554
37.17435 568
37.19446 536
37.21457 543
37.23469 538
37.2548 516
37.27491 503
37.29503 529
37.31514 552
37.33526 520
37.35537 568
37.37548 547
37.3956 577
37.41571 553
37.43582 551
37.45594 550
37.47605 491
37.49617 524
37.51628 540
37.53639 553
37.55651 560
37.57662 537
37.59673 588
37.61685 608
37.63696 570
37.65708 619
37.67719 573
37.6973 634
37.71742 581
37.73753 585
37.75764 570
37.77776 611
37.79787 581
37.81798 596
37.8381 574
37.85821 587
37.87833 598
37.89844 543
37.91855 594
37.93867 595
37.95878 589
37.97889 618
37.99901 616
38.01912 610
38.03924 589
38.05935 637
38.07946 624
38.09958 660
38.11969 675
38.1398 656
38.15992 690
38.18003 714
38.20015 661
38.22026 718
38.24037 729
38.26049 723
38.2806 733
38.30071 737
38.32083 761
38.34094 741
38.36105 704
38.38117 724
38.40128 698
38.4214 702
38.44151 688
38.46162 753
38.48174 682
38.50185 637
38.52196 678
38.54208 622
38.56219 664
38.58231 670
38.60242 625
38.62253 644
38.64265 572
38.66276 664
38.68287 573
38.70299 639
38.7231 589
38.74321 583
38.76333 652
38.78344 595
38.80356 588
38.82367 591
38.84378 631
38.8639 628
38.88401 612
38.90412 557
38.92424 639
38.94435 613
38.96447 664
38.98458 630
39.00469 607
39.02481 634
39.04492 600
39.06503 606
39.08515 628
39.10526 666
39.12538 553
39.14549 637
39.1656 647
39.18572 649
39.20583 655
39.22594 646
39.24606 681
39.26617 762
39.28628 789
39.3064 836
39.32651 889
39.34663 1005
39.36674 988
39.38685 1014
39.40697 1069
39.42708 1105
39.44719 980
39.46731 902
39.48742 890
39.50754 745
39.52765 761
39.54776 681
39.56788 610
39.58799 595
39.6081 565
39.62822 539
39.64833 491
39.66845 538
39.68856 541
39.70867 526
39.72879 527
39.7489 550
39.76901 497
39.78913 520
39.80924 517
39.82935 520
39.84947 535
39.86958 507
39.8897 523
39.90981 520
39.92992 548
39.95004 518
39.97015 534
39.99026 567
40.01038 571
40.03049 599
40.05061 584
40.07072 612
40.09083 599
40.11095 671
40.13106 723
40.15117 743
40.17129 778
40.1914 755
40.21152 765
40.23163 782
40.25174 759
40.27186 727
40.29197 728
40.31208 719
40.3322 686
40.35231 612
40.37242 649
40.39254 626
40.41265 591
40.43277 589
40.45288 541
40.47299 531
40.49311 547
40.51322 555
40.53333 561
40.55345 547
40.57356 516
40.59368 526
40.61379 580
40.6339 537
40.65402 558
40.67413 541
40.69424 551
40.71436 594
40.73447 589
40.75458 606
40.7747 607
40.79481 578
40.81493 615
40.83504 579
40.85515 602
40.87527 540
40.89538 613
40.91549 565
40.93561 591
40.95572 569
40.97584 576
40.99595 564
41.01606 599
41.03618 542
41.05629 582
41.0764 596
41.09652 531
41.11663 558
41.13675 551
41.15686 517
41.17697 454
41.19709 551
41.2172 550
41.23731 537
41.25743 506
41.27754 530
41.29765 510
41.31777 557
41.33788 538
41.358 506
41.37811 449
41.39822 502
41.41834 545
41.43845 471
41.45856 497
41.47868 526
41.49879 552
41.51891 488
41.53902 453
41.55913 539
41.57925 468
41.59936 477
41.61947 492
41.63959 501
41.6597 516
41.67982 484
41.69993 507
41.72004 473
41.74016 494
41.76027 496
41.78038 507
41.8005 478
41.82061 456
41.84072 475
41.86084 467
41.88095 489
41.90107 486
41.92118 468
41.94129 487
41.96141 500
41.98152 416
42.00163 444
42.02175 501
42.04186 480
42.06198 483
42.08209 515
42.1022 513
42.12232 483
42.14243 473
42.16254 533
42.18266 488
42.20277 534
42.22289 557
42.243 577
42.26311 643
42.28323 619
42.30334 732
42.32345 730
42.34357 793
42.36368 818
42.38379 817
42.40391 802
42.42402 741
42.44414 745
42.46425 680
42.48436 686
42.50448 613
42.52459 575
42.5447 560
42.56482 545
42.58493 525
42.60505 494
42.62516 502
42.64527 439
42.66539 448
42.6855 455
42.70561 461
42.72573 508
42.74584 483
42.76595 424
42.78607 464
42.80618 414
42.8263 439
42.84641 427
42.86652 471
42.88664 465
42.90675 477
42.92686 420
42.94698 447
42.96709 458
42.98721 453
43.00732 492
43.02743 460
43.04755 471
43.06766 459
43.08777 448
43.10789 447
43.128 454
43.14812 423
43.16823 476
43.18834 463
43.20846 460
43.22857 475
43.24868 458
43.2688 476
43.28891 473
43.30902 489
43.32914 451
43.34925 479
43.36937 445
43.38948 456
43.40959 474
43.42971 449
43.44982 457
43.46993 464
43.49005 440
43.51016 438
43.53028 417
43.55039 535
43.5705 435
43.59062 484
43.61073 460
43.63084 456
43.65096 452
43.67107 480
43.69119 456
43.7113 449
43.73141 433
43.75153 466
43.77164 479
43.79175 428
43.81187 437
43.83198 423
43.85209 445
43.87221 450
43.89232 496
43.91244 462
43.93255 457
43.95266 452
43.97278 458
43.99289 445
44.013 438
44.03312 482
44.05323 424
44.07335 456
44.09346 456
44.11357 434
44.13369 461
44.1538 467
44.17391 472
44.19403 451
44.21414 416
44.23426 428
44.25437 435
44.27448 438
44.2946 459
44.31471 464
44.33482 468
44.35494 427
44.37505 407
44.39516 470
44.41528 437
44.43539 447
44.45551 437
44.47562 468
44.49573 464
44.51585 477
44.53596 447
44.55607 448
44.57619 434
44.5963 469
44.61642 464
44.63653 483
44.65664 445
44.67676 463
44.69687 454
44.71698 484
44.7371 484
44.75721 462
44.77732 481
44.79744 468
44.81755 505
44.83767 494
44.85778 475
44.87789 498
44.89801 495
44.91812 471
44.93823 482
44.95835 437
44.97846 468
44.99858 490
45.01869 451
45.0388 466
45.05892 454
45.07903 505
45.09914 477
45.11926 492
45.13937 482
45.15949 488
45.1796 506
45.19971 494
45.21983 484
45.23994 491
45.26005 493
45.28017 500
45.30028 502
45.32039 509
45.34051 487
45.36062 520
45.38074 499
45.40085 520
45.42096 489
45.44108 553
45.46119 539
45.4813 525
45.50142 534
45.52153 566
45.54165 565
45.56176 554
45.58187 575
45.60199 617
45.6221 629
45.64221 619
45.66233 736
45.68244 751
45.70256 717
45.72267 819
45.74278 717
45.7629 704
45.78301 684
45.80312 719
45.82324 606
45.84335 614
45.86346 571
45.88358 553
45.90369 513
45.92381 510
45.94392 497
45.96403 472
45.98415 526
46.00426 486
46.02437 510
46.04449 497
46.0646 519
46.08472 455
46.10483 470
46.12494 489
46.14506 445
46.16517 485
46.18528 483
46.2054 469
46.22551 471
46.24563 481
46.26574 474
46.28585 504
46.30597 476
46.32608 458
46.34619 459
46.36631 478
46.38642 485
46.40653 491
46.42665 487
46.44676 476
46.46688 476
46.48699 518
46.5071 458
46.52722 480
46.54733 472
46.56744 453
46.58756 487
46.60767 445
46.62779 484
46.6479 488
46.66801 476
46.68813 461
46.70824 422
46.72835 504
46.74847 430
46.76858 451
46.78869 491
46.80881 452
46.82892 472
46.84904 434
46.86915 482
46.88926 490
46.90938 459
46.92949 465
46.9496 472
46.96972 467
46.98983 464
47.00995 474
47.03006 447
47.05017 453
47.07029 462
47.0904 473
47.11051 484
47.13063 473
47.15074 461
47.17086 449
47.19097 482
47.21108 483
47.2312 454
47.25131 415
47.27142 429
47.29154 545
47.31165 452
47.33176 450
47.35188 460
47.37199 485
47.39211 466
47.41222 450
47.43233 476
47.45245 490
47.47256 495
47.49267 463
47.51279 494
47.5329 472
47.55302 474
47.57313 445
47.59324 482
47.61336 475
47.63347 461
47.65358 437
47.6737 454
47.69381 461
47.71393 461
47.73404 521
47.75415 483
47.77427 461
47.79438 501
47.81449 506
47.83461 473
47.85472 486
47.87483 511
47.89495 486
47.91506 457
47.93518 478
47.95529 503
47.9754 468
47.99552 474
48.01563 461
48.03574 458
48.05586 481
48.07597 457
48.09609 445
48.1162 460
48.13631 442
48.15643 456
48.17654 455
48.19665 497
48.21677 475
48.23688 488
48.257 451
48.27711 489
48.29722 479
48.31734 489
48.33745 469
48.35756 515
48.37768 499
48.39779 497
48.4179 492
48.43802 464
48.45813 492
48.47825 506
48.49836 499
48.51847 524
48.53859 488
48.5587 510
48.57881 506
48.59893 506
48.61904 536
48.63916 532
48.65927 512
48.67938 517
48.6995 514
48.71961 524
48.73972 514
48.75984 523
48.77995 507
48.80006 475
48.82018 487
48.84029 523
48.86041 511
48.88052 497
48.90063 471
48.92075 469
48.94086 532
48.96097 527
48.98109 489
49.0012 473
49.02132 512
49.04143 494
49.06154 468
49.08166 518
49.10177 482
49.12188 494
49.142 503
49.16211 519
49.18223 537
49.20234 515
49.22245 533
49.24257 516
49.26268 520
49.28279 548
49.30291 557
49.32302 536
49.34313 546
49.36325 504
49.38336 559
49.40348 587
49.42359 546
49.4437 548
49.46382 508
49.48393 583
49.50404 532
49.52416 591
49.54427 592
49.56439 516
49.5845 533
49.60461 545
49.62473 550
49.64484 544
49.66495 571
49.68507 535
49.70518 556
49.7253 529
49.74541 545
49.76552 538
49.78564 527
49.80575 574
49.82586 572
49.84598 582
49.86609 598
49.8862 690
49.90632 725
49.92643 811
49.94655 801
49.96666 935
49.98677 1043
50.00689 1168
50.027 1234
50.04711 1296
50.06723 1359
50.08734 1248
50.10746 1208
50.12757 1098
50.14768 1005
50.1678 998
50.18791 961
50.20802 889
50.22814 812
50.24825 760
50.26837 681
50.28848 573
50.30859 560
50.32871 530
50.34882 490
50.36893 501
50.38905 493
50.40916 479
50.42927 491
50.44939 456
50.4695 463
50.48962 485
50.50973 487
50.52984 465
50.54996 485
50.57007 473
50.59018 490
50.6103 450
50.63041 491
50.65053 497
50.67064 471
50.69075 484
50.71087 485
50.73098 494
50.75109 463
50.77121 473
50.79132 474
50.81143 474
50.83155 466
50.85166 495
50.87178 442
50.89189 487
50.912 435
50.93212 466
50.95223 459
50.97234 463
50.99246 483
51.01257 510
51.03269 500
51.0528 461
51.07291 461
51.09303 461
51.11314 442
51.13325 450
51.15337 453
51.17348 458
51.1936 489
51.21371 473
51.23382 472
51.25394 454
51.27405 430
51.29416 450
51.31428 457
51.33439 466
51.3545 438
51.37462 450
51.39473 405
51.41485 462
51.43496 449
51.45507 454
51.47519 432
51.4953 435
51.51541 447
51.53553 433
51.55564 436
51.57576 447
51.59587 431
51.61598 444
51.6361 424
51.65621 426
51.67632 439
51.69644 453
51.71655 414
51.73667 440
51.75678 446
51.77689 466
51.79701 407
51.81712 466
51.83723 449
51.85735 417
51.87746 478
51.89757 457
51.91769 411
51.9378 428
51.95792 458
51.97803 409
51.99814 452
52.01826 422
52.03837 480
52.05848 440
52.0786 467
52.09871 471
52.11883 475
52.13894 431
52.15905 438
52.17917 396
52.19928 424
52.21939 427
52.23951 409
52.25962 418
52.27974 472
52.29985 482
52.31996 439
52.34008 445
52.36019 448
52.3803 437
52.40042 454
52.42053 434
52.44064 416
52.46076 461
52.48087 436
52.50099 449
52.5211 438
52.54121 447
52.56133 456
52.58144 405
52.60155 449
52.62167 468
52.64178 437
52.6619 452
52.68201 432
52.70212 492
52.72224 452
52.74235 513
52.76246 482
52.78258 457
52.80269 475
52.8228 492
52.84292 480
52.86303 497
52.88315 496
52.90326 494
52.92337 528
52.94349 542
52.9636 492
52.98371 556
53.00383 514
53.02394 503
53.04406 522
53.06417 516
53.08428 544
53.1044 503
53.12451 520
53.14462 520
53.16474 528
53.18485 490
53.20497 521
53.22508 524
53.24519 535
53.26531 537
53.28542 532
53.30553 500
53.32565 554
53.34576 506
53.36587 496
53.38599 519
53.4061 495
53.42622 559
53.44633 582
53.46644 489
53.48656 546
53.50667 535
53.52678 576
53.5469 497
53.56701 504
53.58713 544
53.60724 532
53.62735 568
53.64747 508
53.66758 526
53.68769 573
53.70781 551
53.72792 508
53.74804 538
53.76815 550
53.78826 579
53.80838 575
53.82849 565
53.8486 556
53.86872 597
53.88883 597
53.90894 610
53.92906 625
53.94917 599
53.96929 606
53.9894 632
54.00951 607
54.02963 605
54.04974 646
54.06985 643
54.08997 664
54.11008 680
54.1302 626
54.15031 611
54.17042 625
54.19054 650
54.21065 635
54.23076 635
54.25088 620
54.27099 637
54.29111 593
54.31122 564
54.33133 585
54.35145 580
54.37156 586
54.39167 534
54.41179 630
54.4319 609
54.45201 565
54.47213 612
54.49224 626
54.51236 598
54.53247 560
54.55258 663
54.5727 604
54.59281 567
54.61292 595
54.63304 620
54.65315 623
54.67327 655
54.69338 633
54.71349 652
54.73361 730
54.75372 744
54.77383 736
54.79395 820
54.81406 771
54.83417 775
54.85429 728
54.8744 712
54.89452 711
54.91463 704
54.93474 702
54.95486 684
54.97497 657
54.99508 664
55.0152 601
55.03531 580
55.05543 534
55.07554 593
55.09565 561
55.11577 621
55.13588 576
55.15599 620
55.17611 649
55.19622 650
55.21634 639
55.23645 668
55.25656 635
55.27668 634
55.29679 610
55.3169 568
55.33702 619
55.35713 575
55.37724 600
55.39736 597
55.41747 552
55.43759 627
55.4577 576
55.47781 542
55.49793 514
55.51804 544
55.53815 566
55.55827 510
55.57838 559
55.5985 552
55.61861 448
55.63872 542
55.65884 486
55.67895 525
55.69906 475
55.71918 497
55.73929 487
55.75941 516
55.77952 502
55.79963 495
55.81975 544
55.83986 502
55.85997 506
55.88009 498
55.9002 506
55.92031 519
55.94043 491
55.96054 468
55.98066 473
56.00077 508
56.02088 487
56.041 498
56.06111 488
56.08122 488
56.10134 538
56.12145 490
56.14157 500
56.16168 498
56.18179 491
56.20191 491
56.22202 500
56.24213 477
56.26225 481
56.28236 515
56.30248 476
56.32259 517
56.3427 491
56.36282 532
56.38293 501
56.40304 507
56.42316 482
56.44327 518
56.46338 490
56.4835 518
56.50361 469
56.52373 488
56.54384 523
56.56395 495
56.58407 519
56.60418 473
56.62429 477
56.64441 524
56.66452 482
56.68464 484
56.70475 477
56.72486 483
56.74498 451
56.76509 490
56.7852 513
56.80532 456
56.82543 464
56.84554 470
56.86566 510
56.88577 489
56.90589 516
56.926 471
56.94611 501
56.96623 515
56.98634 465
57.00645 468
57.02657 502
57.04668 513
57.0668 452
57.08691 468
57.10702 485
57.12714 483
57.14725 495
57.16736 454
57.18748 468
57.20759 483
57.22771 475
57.24782 477
57.26793 488
57.28805 494
57.30816 491
57.32827 489
57.34839 444
57.3685 472
57.38861 499
57.40873 506
57.42884 499
57.44896 459
57.46907 484
57.48918 504
57.5093 512
57.52941 500
57.54952 483
57.56964 443
57.58975 488
57.60987 509
57.62998 492
57.65009 478
57.67021 523
57.69032 462
57.71043 477
57.73055 492
57.75066 489
57.77078 469
57.79089 479
57.811 441
57.83112 469
57.85123 450
57.87134 483
57.89146 429
57.91157 445
57.93168 468
57.9518 464
57.97191 473
57.99203 455
58.01214 456
58.03225 472
58.05237 429
58.07248 486
58.09259 441
58.11271 459
58.13282 426
58.15294 433
58.17305 430
58.19316 466
58.21328 449
58.23339 441
58.2535 483
58.27362 462
58.29373 406
58.31385 442
58.33396 435
58.35407 453
58.37419 458
58.3943 472
58.41441 404
58.43453 428
58.45464 428
58.47475 456
58.49487 409
58.51498 448
58.5351 444
58.55521 443
58.57532 430
58.59544 403
58.61555 475
58.63566 408
58.65578 420
58.67589 445
58.69601 417
58.71612 434
58.73623 443
58.75635 457
58.77646 478
58.79657 491
58.81669 445
58.8368 449
58.85691 422
58.87703 448
58.89714 448
58.91726 447
58.93737 432
58.95748 486
58.9776 428
58.99771 461
59.01782 447
59.03794 432
59.05805 443
59.07817 443
59.09828 441
59.11839 449
59.13851 463
59.15862 452
59.17873 433
59.19885 482
59.21896 433
59.23908 472
59.25919 447
59.2793 450
59.29942 447
59.31953 479
59.33964 447
59.35976 495
59.37987 496
59.39998 489
59.4201 447
59.44021 492
59.46033 490
59.48044 449
59.50055 490
59.52067 528
59.54078 494
59.56089 524
59.58101 508
59.60112 566
59.62124 506
59.64135 510
59.66146 505
59.68158 580
59.70169 563
59.7218 650
59.74192 676
59.76203 767
59.78215 790
59.80226 825
59.82237 918
59.84249 969
59.8626 1040
59.88271 1016
59.90283 894
59.92294 869
59.94305 815
59.96317 749
59.98328 819
60.0034 767
60.02351 766
60.04362 720
60.06374 676
60.08385 642
60.10396 568
60.12408 562
60.14419 517
60.16431 533
60.18442 481
60.20453 497
60.22465 444
60.24476 476
60.26487 482
60.28499 465
60.3051 429
60.32522 438
60.34533 452
60.36544 436
60.38556 431
60.40567 458
60.42578 434
60.4459 448
60.46601 445
60.48612 420
60.50624 452
60.52635 430
60.54647 427
60.56658 455
60.58669 434
60.60681 427
60.62692 414
60.64703 451
60.66715 454
60.68726 455
60.70738 431
60.72749 455
60.7476 458
60.76772 451
60.78783 438
60.80794 428
60.82806 472
60.84817 415
60.86828 401
60.8884 474
60.90851 433
60.92863 419
60.94874 457
60.96885 451
60.98897 466
61.00908 473
61.02919 457
61.04931 439
61.06942 440
61.08954 426
61.10965 477
61.12976 417
61.14988 472
61.16999 462
61.1901 453
61.21022 439
61.23033 441
61.25045 444
61.27056 455
61.29067 467
61.31079 437
61.3309 494
61.35101 506
61.37113 459
61.39124 440
61.41135 489
61.43147 474
61.45158 494
61.4717 486
61.49181 456
61.51192 483
61.53204 493
61.55215 529
61.57226 473
61.59238 508
61.61249 482
61.63261 542
61.65272 463
61.67283 499
61.69295 515
61.71306 520
61.73317 460
61.75329 480
61.7734 494
61.79352 493
61.81363 526
61.83374 552
61.85386 509
61.87397 511
61.89408 477
61.9142 525
61.93431 553
61.95442 542
61.97454 551
61.99465 557
62.01477 578
62.03488 595
62.05499 574
62.07511 592
62.09522 637
62.11533 625
62.13545 633
62.15556 637
62.17568 665
62.19579 664
62.2159 664
62.23602 647
62.25613 672
62.27624 656
62.29636 656
62.31647 668
62.33659 623
62.3567 597
62.37681 633
62.39693 649
62.41704 568
62.43715 639
62.45727 587
62.47738 582
62.49749 590
62.51761 592
62.53772 564
62.55784 555
62.57795 525
62.59806 570
62.61818 536
62.63829 520
62.6584 554
62.67852 581
62.69863 514
62.71875 520
62.73886 491
62.75897 528
62.77909 527
62.7992 458
62.81931 503
62.83943 508
62.85954 489
62.87965 486
62.89977 490
62.91988 471
62.94 477
62.96011 451
62.98022 461
63.00034 470
63.02045 486
63.04056 493
63.06068 494
63.08079 496
63.10091 557
63.12102 491
63.14113 500
63.16125 531
63.18136 528
63.20147 487
63.22159 528
63.2417 477
63.26182 502
63.28193 511
63.30204 487
63.32216 452
63.34227 509
63.36238 514
63.3825 516
63.40261 503
63.42272 476
63.44284 487
63.46295 481
63.48307 487
63.50318 457
63.52329 485
63.54341 496
63.56352 458
63.58363 502
63.60375 524
63.62386 501
63.64398 510
63.66409 443
63.6842 485
63.70432 503
63.72443 492
63.74454 540
63.76466 495
63.78477 536
63.80489 531
63.825 560
63.84511 579
63.86523 600
63.88534 596
63.90545 613
63.92557 608
63.94568 626
63.96579 630
63.98591 620
64.00602 563
64.02614 593
64.04625 584
64.06636 590
64.08648 600
64.10659 595
64.1267 596
64.14682 524
64.16693 549
64.18705 539
64.20716 537
64.22727 539
64.24739 579
64.2675 522
64.28761 516
64.30773 478
64.32784 491
64.34796 477
64.36807 466
64.38818 509
64.4083 443
64.42841 489
64.44852 472
64.46864 466
64.48875 486
64.50886 433
64.52898 422
64.54909 425
64.56921 438
64.58932 461
64.60943 442
64.62955 430
64.64966 442
64.66977 485
64.68989 460
64.71 419
64.73012 419
64.75023 409
64.77034 455
64.79046 411
64.81057 432
64.83068 406
64.8508 412
64.87091 425
64.89102 431
64.91114 448
64.93125 410
64.95137 428
64.97148 416
64.99159 494
65.01171 435
65.03182 420
65.05193 440
65.07205 457
65.09216 392
65.11228 455
65.13239 447
65.1525 416
65.17262 415
65.19273 426
65.21284 411
65.23296 425
65.25307 414
65.27319 445
65.2933 425
65.31341 438
65.33353 406
65.35364 422
65.37375 414
65.39387 438
65.41398 400
65.43409 430
65.45421 422
65.47432 437
65.49444 441
65.51455 391
65.53466 467
65.55478 423
65.57489 410
65.595 409
65.61512 437
65.63523 480
65.65535 448
65.67546 449
65.69557 425
65.71569 446
65.7358 417
65.75591 432
65.77603 455
65.79614 464
65.81626 429
65.83637 407
65.85648 458
65.8766 405
65.89671 453
65.91682 423
65.93694 387
65.95705 428
65.97716 419
65.99728 414
66.01739 430
66.03751 402
66.05762 410
66.07773 419
66.09785 420
66.11796 407
66.13807 404
66.15819 391
66.1783 403
66.19842 424
66.21853 442
66.23864 421
66.25876 417
66.27887 408
66.29898 412
66.3191 383
66.33921 426
66.35933 407
66.37944 461
66.39955 384
66.41967 423
66.43978 400
66.45989 432
66.48001 445
66.50012 452
66.52023 416
66.54035 455
66.56046 401
66.58058 402
66.60069 437
66.6208 446
66.64092 425
66.66103 401
66.68114 407
66.70126 415
66.72137 425
66.74149 390
66.7616 452
66.78171 396
66.80183 413
66.82194 438
66.84205 417
66.86217 440
66.88228 416
66.90239 429
66.92251 454
66.94262 411
66.96274 402
66.98285 370
67.00296 401
67.02308 404
67.04319 403
67.0633 430
67.08342 466
67.10353 426
67.12365 451
67.14376 417
67.16387 424
67.18399 427
67.2041 399
67.22421 422
67.24433 448
67.26444 428
67.28456 451
67.30467 457
67.32478 480
67.3449 458
67.36501 467
67.38512 472
67.40524 447
67.42535 484
67.44546 489
67.46558 490
67.48569 500
67.50581 521
67.52592 574
67.54603 561
67.56615 614
67.58626 621
67.60637 681
67.62649 692
67.6466 728
67.66672 742
67.68683 701
67.70694 674
67.72706 628
67.74717 615
67.76728 596
67.7874 588
67.80751 640
67.82763 616
67.84774 613
67.86785 654
67.88797 563
67.90808 664
67.92819 637
67.94831 666
67.96842 720
67.98853 698
68.00865 805
68.02876 879
68.04888 880
68.06899 873
68.0891 863
68.10922 846
68.12933 802
68.14944 795
68.16956 791
68.18967 835
68.20979 851
68.2299 831
68.25001 872
68.27013 770
68.29024 728
68.31035 680
68.33047 611
68.35058 561
68.3707 557
68.39081 552
68.41092 561
68.43104 544
68.45115 478
68.47126 505
68.49138 466
68.51149 439
68.5316 462
68.55172 468
68.57183 449
68.59195 463
68.61206 442
68.63217 423
68.65229 401
68.6724 437
68.69251 413
68.71263 450
68.73274 410
68.75286 437
68.77297 407
68.79308 429
68.8132 435
68.83331 413
68.85342 425
68.87354 440
68.89365 377
68.91376 442
68.93388 453
68.95399 417
68.97411 427
68.99422 441
69.01433 407
69.03445 419
69.05456 381
69.07467 383
69.09479 376
69.1149 404
69.13502 439
69.15513 406
69.17524 455
69.19536 448
69.21547 431
69.23558 446
69.2557 447
69.27581 433
69.29593 410
69.31604 438
69.33615 422
69.35627 410
69.37638 424
69.39649 409
69.41661 392
69.43672 439
69.45683 411
69.47695 419
69.49706 400
69.51718 392
69.53729 401
69.5574 439
69.57752 440
69.59763 430
69.61774 400
69.63786 442
69.65797 424
69.67809 442
69.6982 424
69.71831 433
69.73843 406
69.75854 453
69.77865 419
69.79877 400
69.81888 402
69.839 449
69.85911 446
69.87922 411
69.89934 416
69.91945 438
69.93956 418
69.95968 418
69.97979 399
69.9999 445
70.02002 414
70.04013 406
70.06025 444
70.08036 427
70.10047 412
70.12059 424
70.1407 443
70.16081 415
70.18093 411
70.20104 435
70.22116 429
70.24127 429
70.26138 400
70.2815 421
70.30161 410
70.32172 427
70.34184 429
70.36195 407
70.38207 413
70.40218 399
70.42229 392
70.44241 361
70.46252 418
70.48263 371
70.50275 422
70.52286 390
70.54297 392
70.56309 408
70.5832 396
70.60332 409
70.62343 425
70.64354 408
70.66366 383
70.68377 372
70.70388 416
70.724 414
70.74411 405
70.76423 361
70.78434 376
70.80445 412
70.82457 390
70.84468 407
70.86479 419
70.88491 422
70.90502 390
70.92513 423
70.94525 405
70.96536 395
70.98548 421
71.00559 408
71.0257 426
71.04582 420
71.06593 391
71.08604 406
71.10616 407
71.12627 435
71.14639 397
71.1665 394
71.18661 416
71.20673 419
71.22684 431
71.24695 407
71.26707 414
71.28718 403
71.3073 404
71.32741 440
71.34752 436
71.36764 389
71.38775 405
71.40786 414
71.42798 405
71.44809 368
71.4682 408
71.48832 401
71.50843 371
71.52855 385
71.54866 415
71.56877 407
71.58889 406
71.609 403
71.62911 436
71.64923 411
71.66934 419
71.68946 414
71.70957 434
71.72968 400
71.7498 418
71.76991 425
71.79002 397
71.81014 391
71.83025 413
71.85037 472
71.87048 442
71.89059 413
71.91071 431
71.93082 416
71.95093 404
71.97105 417
71.99116 405
72.01127 399
72.03139 466
72.0515 423
72.07162 440
72.09173 438
72.11184 410
72.13196 434
72.15207 427
72.17218 389
72.1923 424
72.21241 415
72.23253 396
72.25264 409
72.27275 427
72.29287 416
72.31298 431
72.33309 421
72.35321 418
72.37332 425
72.39344 373
72.41355 415
72.43366 410
72.45378 422
72.47389 406
72.494 402
72.51412 413
72.53423 402
72.55434 407
72.57446 432
72.59457 414
72.61469 426
72.6348 406
72.65491 411
72.67503 403
72.69514 360
72.71525 423
72.73537 388
72.75548 396
72.7756 411
72.79571 432
72.81582 383
72.83594 398
72.85605 413
72.87616 401
72.89628 428
72.91639 411
72.9365 428
72.95662 393
72.97673 390
72.99685 392
73.01696 422
73.03707 420
73.05719 411
73.0773 457
73.09741 409
73.11753 367
73.13764 403
73.15776 438
73.17787 460
73.19798 444
73.2181 462
73.23821 436
73.25832 466
73.27844 487
73.29855 488
73.31867 500
73.33878 512
73.35889 499
73.37901 546
73.39912 545
73.41923 526
73.43935 502
73.45946 467
73.47957 479
73.49969 447
73.5198 480
73.53992 476
73.56003 487
73.58014 474
73.60026 431
73.62037 443
73.64048 441
73.6606 456
73.68071 453
73.70083 399
73.72094 412
73.74105 411
73.76117 407
73.78128 436
73.80139 412
73.82151 407
73.84162 373
73.86174 390
73.88185 408
73.90196 380
73.92208 419
73.94219 394
73.9623 419
73.98242 391
74.00253 409
74.02264 381
74.04276 388
74.06287 395
74.08299 405
74.1031 382
74.12321 408
74.14333 396
74.16344 385
74.18355 385
74.20367 408
74.22378 401
74.2439 415
74.26401 382
74.28412 417
74.30424 408
74.32435 429
74.34446 414
74.36458 394
74.38469 403
74.40481 373
74.42492 354
74.44503 386
74.46515 425
74.48526 378
74.50537 423
74.52549 361
74.5456 402
74.56571 397
74.58583 395
74.60594 403
74.62606 371
74.64617 368
74.66628 370
74.6864 373
74.70651 367
74.72662 371
74.74674 393
74.76685 383
74.78697 431
74.80708 383
74.82719 384
74.84731 411
74.86742 364
74.88753 412
74.90765 413
74.92776 425
74.94787 405
74.96799 401
74.9881 379
75.00822 402
