3.00117 20362
3.02128 19287
3.0414 19362
3.06151 18642
3.08162 18321
3.10174 17736
3.12185 17194
3.14197 16830
3.16208 16412
3.18219 15866
3.20231 15209
3.22242 14514
3.24253 14677
3.26265 13777
3.28276 13443
3.30288 13030
3.32299 12606
3.3431 12311
3.36322 11709
3.38333 11343
3.40344 11100
3.42356 10622
3.44367 10329
3.46379 9914
3.4839 9638
3.50401 9099
3.52413 8948
3.54424 8882
3.56435 8387
3.58447 8013
3.60458 7775
3.62469 7561
3.64481 7333
3.66492 6945
3.68504 6687
3.70515 6179
3.72526 5931
3.74538 6004
3.76549 5621
3.7856 5456
3.80572 5207
3.82583 4919
3.84595 4736
3.86606 4648
3.88617 4384
3.90629 4100
3.9264 3865
3.94651 3908
3.96663 3650
3.98674 3469
4.00686 3398
4.02697 3090
4.04708 3160
4.0672 3004
4.08731 2664
4.10742 2723
4.12754 2495
4.14765 2422
4.16776 2355
4.18788 2181
4.20799 2093
4.22811 2038
4.24822 1951
4.26833 2028
4.28845 1811
4.30856 1810
4.32867 1692
4.34879 1725
4.3689 1737
4.38902 1589
4.40913 1507
4.42924 1514
4.44936 1471
4.46947 1410
4.48958 1361
4.5097 1313
4.52981 1284
4.54992 1319
4.57004 1319
4.59015 1169
4.61027 1149
4.63038 1123
4.65049 1160
4.67061 1161
4.69072 1046
4.71083 1032
4.73095 951
4.75106 1090
4.77118 985
4.79129 891
4.8114 994
4.83152 921
4.85163 938
4.87174 948
4.89186 841
4.91197 824
4.93209 816
4.9522 807
4.97231 873
4.99243 758
5.01254 771
5.03265 678
5.05277 732
5.07288 726
5.09299 608
5.11311 712
5.13322 672
5.15334 694
5.17345 630
5.19356 528
5.21368 619
5.23379 606
5.2539 620
5.27402 565
5.29413 564
5.31425 523
5.33436 533
5.35447 535
5.37459 527
5.3947 490
5.41481 494
5.43493 520
5.45504 478
5.47516 521
5.49527 467
5.51538 420
5.5355 442
5.55561 465
5.57572 388
5.59584 420
5.61595 379
5.63606 400
5.65618 386
5.67629 375
5.69641 355
5.71652 365
5.73663 385
5.75675 352
5.77686 373
5.79697 382
5.81709 339
5.8372 348
5.85732 369
5.87743 336
5.89754 344
5.91766 384
5.93777 338
5.95788 340
5.978 341
5.99811 312
6.01823 315
6.03834 330
6.05845 314
6.07857 345
6.09868 303
6.11879 267
6.13891 316
6.15902 332
6.17913 326
6.19925 294
6.21936 270
6.23948 304
6.25959 298
6.2797 263
6.29982 332
6.31993 259
6.34004 290
6.36016 291
6.38027 278
6.40039 330
6.4205 257
6.44061 327
6.46073 260
6.48084 282
6.50095 230
6.52107 283
6.54118 289
6.56129 291
6.58141 250
6.60152 292
6.62164 286
6.64175 262
6.66186 309
6.68198 260
6.70209 269
6.7222 244
6.74232 255
6.76243 270
6.78255 254
6.80266 276
6.82277 250
6.84289 247
6.863 286
6.88311 231
6.90323 272
6.92334 235
6.94346 290
6.96357 265
6.98368 247
7.0038 262
7.02391 256
7.04402 280
7.06414 250
7.08425 284
7.10436 245
7.12448 269
7.14459 234
7.16471 227
7.18482 266
7.20493 216
7.22505 220
7.24516 262
7.26527 240
7.28539 275
7.3055 279
7.32562 222
7.34573 249
7.36584 256
7.38596 241
7.40607 238
7.42618 260
7.4463 280
7.46641 248
7.48653 289
7.50664 256
7.52675 213
7.54687 286
7.56698 289
7.58709 256
7.60721 234
7.62732 240
7.64743 248
7.66755 275
7.68766 268
7.70778 248
7.72789 238
7.748 228
7.76812 262
7.78823 238
7.80834 250
7.82846 244
7.84857 258
7.86869 255
7.8888 245
7.90891 268
7.92903 260
7.94914 234
7.96925 260
7.98937 246
8.00948 261
8.0296 230
8.04971 212
8.06982 257
8.08994 231
8.11005 270
8.13016 262
8.15028 254
8.17039 230
8.1905 272
8.21062 269
8.23073 255
8.25085 244
8.27096 258
8.29107 272
8.31119 243
8.3313 235
8.35141 242
8.37153 253
8.39164 215
8.41176 249
8.43187 272
8.45198 228
8.4721 245
8.49221 239
8.51232 255
8.53244 250
8.55255 246
8.57266 244
8.59278 236
8.61289 235
8.63301 252
8.65312 254
8.67323 251
8.69335 238
8.71346 247
8.73357 237
8.75369 272
8.7738 237
8.79392 227
8.81403 245
8.83414 277
8.85426 239
8.87437 274
8.89448 232
8.9146 257
8.93471 241
8.95483 247
8.97494 241
8.99505 242
9.01517 235
9.03528 234
9.05539 239
9.07551 232
9.09562 230
9.11573 250
9.13585 228
9.15596 257
9.17608 209
9.19619 255
9.2163 217
9.23642 252
9.25653 254
9.27664 224
9.29676 223
9.31687 203
9.33699 228
9.3571 247
9.37721 255
9.39733 237
9.41744 218
9.43755 250
9.45767 275
9.47778 220
9.4979 231
9.51801 252
9.53812 238
9.55824 239
9.57835 214
9.59846 221
9.61858 225
9.63869 232
9.6588 249
9.67892 252
9.69903 253
9.71915 218
9.73926 208
9.75937 234
9.77949 249
9.7996 247
9.81971 219
9.83983 230
9.85994 225
9.88006 189
9.90017 227
9.92028 240
9.9404 231
9.96051 226
9.98062 216
10.00074 230
10.02085 228
10.04097 220
10.06108 204
10.08119 215
10.10131 217
10.12142 206
10.14153 232
10.16165 216
10.18176 224
10.20187 205
10.22199 181
10.2421 236
10.26222 218
10.28233 232
10.30244 226
10.32256 221
10.34267 226
10.36278 229
10.3829 217
10.40301 209
10.42313 220
10.44324 208
10.46335 216
10.48347 230
10.50358 186
10.52369 236
10.54381 189
10.56392 230
10.58403 243
10.60415 226
10.62426 210
10.64438 218
10.66449 214
10.6846 240
10.70472 221
10.72483 235
10.74494 214
10.76506 203
10.78517 228
10.80529 228
10.8254 222
10.84551 213
10.86563 264
10.88574 222
10.90585 213
10.92597 238
10.94608 205
10.9662 201
10.98631 183
11.00642 190
11.02654 211
11.04665 228
11.06676 246
11.08688 242
11.10699 221
11.1271 233
11.14722 219
11.16733 208
11.18745 204
11.20756 215
11.22767 216
11.24779 209
11.2679 210
11.28801 172
11.30813 177
11.32824 182
11.34836 209
11.36847 221
11.38858 233
11.4087 221
11.42881 218
11.44892 229
11.46904 224
11.48915 217
11.50927 212
11.52938 235
11.54949 178
11.56961 230
11.58972 209
11.60983 215
11.62995 208
11.65006 229
11.67017 211
11.69029 218
11.7104 247
11.73052 198
11.75063 207
11.77074 209
11.79086 219
11.81097 212
11.83108 205
11.8512 236
11.87131 173
11.89143 205
11.91154 197
11.93165 218
11.95177 225
11.97188 231
11.99199 223
12.01211 225
12.03222 186
12.05234 207
12.07245 198
12.09256 205
12.11268 215
12.13279 215
12.1529 228
12.17302 236
12.19313 218
12.21324 241
12.23336 241
12.25347 237
12.27359 234
12.2937 222
12.31381 213
12.33393 248
12.35404 225
12.37415 238
12.39427 236
12.41438 197
12.4345 246
12.45461 183
12.47472 212
12.49484 195
12.51495 194
12.53506 202
12.55518 212
12.57529 241
12.5954 207
12.61552 230
12.63563 214
12.65575 219
12.67586 226
12.69597 215
12.71609 215
12.7362 185
12.75631 196
12.77643 203
12.79654 171
12.81666 216
12.83677 216
12.85688 208
12.877 203
12.89711 201
12.91722 219
12.93734 178
12.95745 206
12.97757 193
12.99768 180
13.01779 194
13.03791 212
13.05802 233
13.07813 204
13.09825 201
13.11836 205
13.13847 185
13.15859 195
13.1787 198
13.19882 193
13.21893 181
13.23904 191
13.25916 205
13.27927 185
13.29938 181
13.3195 173
13.33961 157
13.35973 209
13.37984 192
13.39995 200
13.42007 217
13.44018 196
13.46029 178
13.48041 208
13.50052 189
13.52064 188
13.54075 206
13.56086 178
13.58098 201
13.60109 221
13.6212 211
13.64132 225
13.66143 191
13.68154 188
13.70166 195
13.72177 204
13.74189 212
13.762 212
13.78211 192
13.80223 173
13.82234 190
13.84245 197
13.86257 158
13.88268 215
13.9028 175
13.92291 208
13.94302 207
13.96314 196
13.98325 185
14.00336 188
14.02348 196
14.04359 218
14.06371 191
14.08382 169
14.10393 179
14.12405 187
14.14416 184
14.16427 177
14.18439 214
14.2045 207
14.22461 216
14.24473 198
14.26484 184
14.28496 171
14.30507 193
14.32518 181
14.3453 207
14.36541 192
14.38552 195
14.40564 199
14.42575 197
14.44587 207
14.46598 197
14.48609 173
14.50621 162
14.52632 193
14.54643 169
14.56655 191
14.58666 185
14.60677 191
14.62689 179
14.647 188
14.66712 167
14.68723 165
14.70734 170
14.72746 211
14.74757 191
14.76768 190
14.7878 198
14.80791 192
14.82803 168
14.84814 218
14.86825 196
14.88837 195
14.90848 189
14.92859 201
14.94871 224
14.96882 187
14.98894 204
15.00905 182
15.02916 190
15.04928 219
15.06939 204
15.0895 191
15.10962 182
15.12973 176
15.14984 181
15.16996 194
15.19007 197
15.21019 196
15.2303 181
15.25041 184
15.27053 215
15.29064 174
15.31075 186
15.33087 192
15.35098 168
15.3711 190
15.39121 194
15.41132 183
15.43144 182
15.45155 138
15.47166 135
15.49178 186
15.51189 186
15.53201 181
15.55212 168
15.57223 188
15.59235 187
15.61246 178
15.63257 162
15.65269 170
15.6728 177
15.69291 182
15.71303 170
15.73314 187
15.75326 165
15.77337 171
15.79348 179
15.8136 174
15.83371 169
15.85382 190
15.87394 178
15.89405 172
15.91417 177
15.93428 200
15.95439 165
15.97451 177
15.99462 187
16.01473 180
16.03485 167
16.05496 194
16.07508 172
16.09519 137
16.1153 169
16.13542 161
16.15553 173
16.17564 185
16.19576 172
16.21587 174
16.23598 207
16.2561 186
16.27621 181
16.29633 187
16.31644 172
16.33655 163
16.35667 176
16.37678 188
16.39689 192
16.41701 173
16.43712 192
16.45724 185
16.47735 171
16.49746 169
16.51758 171
16.53769 184
16.5578 163
16.57792 170
16.59803 184
16.61814 182
16.63826 189
16.65837 200
16.67849 168
16.6986 156
16.71871 199
16.73883 168
16.75894 161
16.77905 167
16.79917 178
16.81928 185
16.8394 190
16.85951 176
16.87962 201
16.89974 189
16.91985 176
16.93996 158
16.96008 165
16.98019 179
17.00031 191
17.02042 167
17.04053 190
17.06065 145
17.08076 171
17.10087 185
17.12099 168
17.1411 158
17.16121 168
17.18133 196
17.20144 161
17.22156 176
17.24167 168
17.26178 157
17.2819 180
17.30201 178
17.32212 158
17.34224 190
17.36235 183
17.38247 164
17.40258 156
17.42269 148
17.44281 180
17.46292 164
17.48303 129
17.50315 155
17.52326 205
17.54338 160
17.56349 137
17.5836 166
17.60372 183
17.62383 191
17.64394 183
17.66406 168
17.68417 155
17.70428 174
17.7244 156
17.74451 177
17.76463 164
17.78474 175
17.80485 162
17.82497 169
17.84508 165
17.86519 189
17.88531 180
17.90542 193
17.92554 169
17.94565 178
17.96576 180
17.98588 189
18.00599 163
18.0261 176
18.04622 158
18.06633 147
18.08645 186
18.10656 149
18.12667 173
18.14679 156
18.1669 194
18.18701 159
18.20713 185
18.22724 186
18.24735 162
18.26747 178
18.28758 199
18.3077 182
18.32781 165
18.34792 181
18.36804 196
18.38815 159
18.40826 159
18.42838 169
18.44849 148
18.46861 159
18.48872 151
18.50883 176
18.52895 182
18.54906 172
18.56917 173
18.58929 161
18.6094 160
18.62951 152
18.64963 153
18.66974 194
18.68986 166
18.70997 179
18.73008 170
18.7502 164
18.77031 202
18.79042 198
18.81054 202
18.83065 165
18.85077 206
18.87088 187
18.89099 178
18.91111 178
18.93122 153
18.95133 183
18.97145 169
18.99156 174
19.01168 181
19.03179 162
19.0519 160
19.07202 183
19.09213 159
19.11224 188
19.13236 195
19.15247 167
19.17258 152
19.1927 166
19.21281 171
19.23293 178
19.25304 173
19.27315 173
19.29327 179
19.31338 193
19.33349 165
19.35361 212
19.37372 181
19.39384 188
19.41395 185
19.43406 191
19.45418 205
19.47429 231
19.4944 201
19.51452 227
19.53463 197
19.55475 227
19.57486 229
19.59497 218
19.61509 237
19.6352 224
19.65531 237
19.67543 255
19.69554 262
19.71565 272
19.73577 272
19.75588 281
19.776 298
19.79611 332
19.81622 273
19.83634 315
19.85645 286
19.87656 300
19.89668 303
19.91679 272
19.93691 284
19.95702 258
19.97713 286
19.99725 270
20.01736 290
20.03747 269
20.05759 267
20.0777 286
20.09782 275
20.11793 276
20.13804 280
20.15816 298
20.17827 289
20.19838 311
20.2185 323
20.23861 287
20.25872 295
20.27884 291
20.29895 288
20.31907 348
20.33918 319
20.35929 352
20.37941 337
20.39952 366
20.41963 353
20.43975 377
20.45986 356
20.47998 390
20.50009 376
20.5202 386
20.54032 382
20.56043 445
20.58054 467
20.60066 502
20.62077 563
20.64088 694
20.661 926
20.68111 1138
20.70123 1511
20.72134 2233
20.74145 3231
20.76157 4402
20.78168 6080
20.80179 7737
20.82191 8874
20.84202 9583
20.86214 8477
20.88225 6417
20.90236 4492
20.92248 2988
20.94259 1738
20.9627 1040
20.98282 718
21.00293 657
21.02305 582
21.04316 502
21.06327 488
21.08339 483
21.1035 404
21.12361 360
21.14373 359
21.16384 318
21.18395 325
21.20407 262
21.22418 284
21.2443 315
21.26441 286
21.28452 282
21.30464 282
21.32475 239
21.34486 232
21.36498 277
21.38509 252
21.40521 259
21.42532 261
21.44543 238
21.46555 235
21.48566 234
21.50577 244
21.52589 252
21.546 251
21.56612 244
21.58623 225
21.60634 221
21.62646 248
21.64657 239
21.66668 234
21.6868 200
21.70691 220
21.72702 235
21.74714 251
21.76725 233
21.78737 217
21.80748 219
21.82759 201
21.84771 218
21.86782 214
21.88793 221
21.90805 246
21.92816 239
21.94828 230
21.96839 243
21.9885 234
22.00862 239
22.02873 233
22.04884 216
22.06896 225
22.08907 225
22.10919 235
22.1293 199
22.14941 212
22.16953 199
22.18964 222
22.20975 221
22.22987 226
22.24998 231
22.27009 219
22.29021 216
22.31032 239
22.33044 234
22.35055 224
22.37066 232
22.39078 219
22.41089 206
22.431 195
22.45112 216
22.47123 227
22.49135 206
22.51146 238
22.53157 202
22.55169 190
22.5718 217
22.59191 204
22.61203 221
22.63214 199
22.65225 233
22.67237 225
22.69248 218
22.7126 210
22.73271 233
22.75282 208
22.77294 201
22.79305 212
22.81316 222
22.83328 215
22.85339 211
22.87351 205
22.89362 223
22.91373 214
22.93385 224
22.95396 189
22.97407 220
22.99419 228
23.0143 219
23.03442 231
23.05453 244
23.07464 204
23.09476 231
23.11487 242
23.13498 224
23.1551 225
23.17521 246
23.19532 226
23.21544 226
23.23555 215
23.25567 202
23.27578 206
23.29589 185
23.31601 203
23.33612 194
23.35623 232
23.37635 215
23.39646 191
23.41658 197
23.43669 227
23.4568 197
23.47692 220
23.49703 215
23.51714 201
23.53726 198
23.55737 188
23.57749 207
23.5976 196
23.61771 180
23.63783 191
23.65794 212
23.67805 200
23.69817 221
23.71828 215
23.73839 228
23.75851 227
23.77862 199
23.79874 204
23.81885 206
23.83896 215
23.85908 234
23.87919 249
23.8993 215
23.91942 254
23.93953 254
23.95965 296
23.97976 304
23.99987 312
24.01999 317
24.0401 291
24.06021 253
24.08033 235
24.10044 217
24.12056 210
24.14067 287
24.16078 276
24.1809 244
24.20101 254
24.22112 241
24.24124 229
24.26135 236
24.28146 282
24.30158 265
24.32169 256
24.34181 244
24.36192 226
24.38203 246
24.40215 210
24.42226 216
24.44237 193
24.46249 206
24.4826 204
24.50272 227
24.52283 209
24.54294 193
24.56306 195
24.58317 210
24.60328 218
24.6234 200
24.64351 207
24.66362 213
24.68374 205
24.70385 211
24.72397 256
24.74408 203
24.76419 197
24.78431 201
24.80442 220
24.82453 201
24.84465 220
24.86476 218
24.88488 219
24.90499 226
24.9251 197
24.94522 210
24.96533 235
24.98544 232
25.00556 196
25.02567 239
25.04579 223
25.0659 229
25.08601 219
25.10613 218
25.12624 200
25.14635 194
25.16647 198
25.18658 214
25.20669 206
25.22681 240
25.24692 197
25.26704 234
25.28715 212
25.30726 208
25.32738 243
25.34749 240
25.3676 223
25.38772 194
25.40783 239
25.42795 200
25.44806 237
25.46817 239
25.48829 278
25.5084 269
25.52851 272
25.54863 293
25.56874 252
25.58886 288
25.60897 297
25.62908 325
25.6492 339
25.66931 337
25.68942 401
25.70954 425
25.72965 399
25.74976 448
25.76988 477
25.78999 446
25.81011 406
25.83022 441
25.85033 405
25.87045 467
25.89056 465
25.91067 478
25.93079 470
25.9509 489
25.97102 474
25.99113 470
26.01124 493
26.03136 518
26.05147 540
26.07158 588
26.0917 609
26.11181 665
26.13193 660
26.15204 715
26.17215 722
26.19227 824
26.21238 816
26.23249 950
26.25261 1031
26.27272 1175
26.29283 1164
26.31295 1227
26.33306 1387
26.35318 1604
26.37329 1936
26.3934 2316
26.41352 2943
26.43363 3965
26.45374 5358
26.47386 7493
26.49397 10491
26.51409 14599
26.5342 19705
26.55431 26418
26.57443 33667
26.59454 39602
26.61465 42983
26.63477 41603
26.65488 33592
26.67499 25058
26.69511 19402
26.71522 13419
26.73534 7549
26.75545 3889
26.77556 2436
26.79568 1883
26.81579 1658
26.8359 1499
26.85602 1330
26.87613 1243
26.89625 1158
26.91636 966
26.93647 875
26.95659 772
26.9767 775
26.99681 698
27.01693 648
27.03704 635
27.05716 588
27.07727 529
27.09738 515
27.1175 544
27.13761 505
27.15772 457
27.17784 458
27.19795 506
27.21806 418
27.23818 446
27.25829 435
27.27841 418
27.29852 432
27.31863 417
27.33875 442
27.35886 469
27.37897 474
27.39909 449
27.4192 484
27.43932 546
27.45943 499
27.47954 496
27.49966 455
27.51977 403
27.53988 444
27.56 388
27.58011 326
27.60023 352
27.62034 383
27.64045 328
27.66057 348
27.68068 286
27.70079 343
27.72091 340
27.74102 315
27.76113 322
27.78125 329
27.80136 328
27.82148 290
27.84159 328
27.8617 322
27.88182 339
27.90193 339
27.92204 337
27.94216 298
27.96227 312
27.98239 321
28.0025 329
28.02261 288
28.04273 332
28.06284 268
28.08295 280
28.10307 263
28.12318 288
28.1433 301
28.16341 306
28.18352 275
28.20364 263
28.22375 293
28.24386 275
28.26398 301
28.28409 269
28.3042 237
28.32432 260
28.34443 262
28.36455 281
28.38466 262
28.40477 252
28.42489 244
28.445 251
28.46511 254
28.48523 283
28.50534 249
28.52546 250
28.54557 286
28.56568 253
28.5858 264
28.60591 258
28.62602 222
28.64614 243
28.66625 262
28.68636 261
28.70648 246
28.72659 256
28.74671 268
28.76682 258
28.78693 238
28.80705 253
28.82716 215
28.84727 232
28.86739 245
28.8875 264
28.90762 212
28.92773 242
28.94784 242
28.96796 245
28.98807 254
29.00818 262
29.0283 243
29.04841 244
29.06853 237
29.08864 238
29.10875 232
29.12887 234
29.14898 221
29.16909 232
29.18921 222
29.20932 267
29.22943 230
29.24955 228
29.26966 209
29.28978 223
29.30989 264
29.33 282
29.35012 281
29.37023 264
29.39034 275
29.41046 263
29.43057 270
29.45069 281
29.4708 286
29.49091 267
29.51103 276
29.53114 280
29.55125 239
29.57137 259
29.59148 244
29.6116 225
29.63171 234
29.65182 230
29.67194 268
29.69205 249
29.71216 214
29.73228 254
29.75239 224
29.7725 255
29.79262 237
29.81273 230
29.83285 214
29.85296 222
29.87307 213
29.89319 230
29.9133 212
29.93341 228
29.95353 220
29.97364 209
29.99376 232
30.01387 238
30.03398 248
30.0541 234
30.07421 221
30.09432 238
30.11444 226
30.13455 206
30.15467 251
30.17478 228
30.19489 247
30.21501 239
30.23512 222
30.25523 234
30.27535 222
30.29546 235
30.31557 227
30.33569 207
30.3558 217
30.37592 200
30.39603 209
30.41614 224
30.43626 205
30.45637 196
30.47648 229
30.4966 206
30.51671 195
30.53683 229
30.55694 227
30.57705 196
30.59717 222
30.61728 208
30.63739 198
30.65751 229
30.67762 242
30.69773 232
30.71785 222
30.73796 222
30.75808 210
30.77819 205
30.7983 187
30.81842 224
30.83853 238
30.85864 207
30.87876 215
30.89887 209
30.91899 181
30.9391 190
30.95921 197
30.97933 199
30.99944 188
31.01955 171
31.03967 189
31.05978 202
31.0799 188
31.10001 203
31.12012 172
31.14024 176
31.16035 193
31.18046 202
31.20058 189
31.22069 211
31.2408 190
31.26092 186
31.28103 175
31.30115 169
31.32126 162
31.34137 202
31.36149 176
31.3816 171
31.40171 179
31.42183 206
31.44194 181
31.46206 201
31.48217 160
31.50228 174
31.5224 180
31.54251 174
31.56262 163
31.58274 173
31.60285 180
31.62297 178
31.64308 170
31.66319 136
31.68331 183
31.70342 171
31.72353 158
31.74365 162
31.76376 168
31.78387 171
31.80399 158
31.8241 148
31.84422 161
31.86433 175
31.88444 155
31.90456 160
31.92467 152
31.94478 167
31.9649 166
31.98501 159
32.00513 166
32.02524 156
32.04535 143
32.06547 148
32.08558 182
32.10569 165
32.12581 179
32.14592 186
32.16604 159
32.18615 158
32.20626 143
32.22638 179
32.24649 180
32.2666 177
32.28672 185
32.30683 189
32.32694 186
32.34706 148
32.36717 148
32.38729 166
32.4074 178
32.42751 153
32.44763 164
32.46774 158
32.48785 198
32.50797 160
32.52808 163
32.5482 189
32.56831 148
32.58842 168
32.60854 194
32.62865 152
32.64876 154
32.66888 135
32.68899 157
32.7091 165
32.72922 156
32.74933 176
32.76945 159
32.78956 164
32.80967 173
32.82979 145
32.8499 148
32.87001 148
32.89013 146
32.91024 191
32.93036 146
32.95047 176
32.97058 157
32.9907 147
33.01081 153
33.03092 146
33.05104 155
33.07115 158
33.09127 137
33.11138 139
33.13149 156
33.15161 140
33.17172 165
33.19183 160
33.21195 154
33.23206 161
33.25217 161
33.27229 165
33.2924 169
33.31252 162
33.33263 147
33.35274 144
33.37286 156
33.39297 153
33.41308 172
33.4332 148
33.45331 150
33.47343 138
33.49354 155
33.51365 127
33.53377 146
33.55388 134
33.57399 150
33.59411 137
33.61422 149
33.63434 148
33.65445 156
33.67456 128
33.69468 143
33.71479 154
33.7349 138
33.75502 140
33.77513 155
33.79524 123
33.81536 153
33.83547 157
33.85559 149
33.8757 140
33.89581 146
33.91593 126
33.93604 150
33.95615 153
33.97627 158
33.99638 167
34.0165 171
34.03661 184
34.05672 177
34.07684 156
34.09695 204
34.11706 212
34.13718 200
34.15729 176
34.17741 207
34.19752 175
34.21763 189
34.23775 167
34.25786 183
34.27797 178
34.29809 163
34.3182 178
34.33831 170
34.35843 193
34.37854 155
34.39866 151
34.41877 207
34.43888 168
34.459 207
34.47911 155
34.49922 180
34.51934 194
34.53945 170
34.55957 195
34.57968 188
34.59979 172
34.61991 204
34.64002 186
34.66013 188
34.68025 193
34.70036 202
34.72047 201
34.74059 196
34.7607 197
34.78082 193
34.80093 188
34.82104 207
34.84116 164
34.86127 201
34.88138 185
34.9015 226
34.92161 195
34.94173 208
34.96184 184
34.98195 189
35.00207 170
35.02218 196
35.04229 192
35.06241 234
35.08252 169
35.10264 164
35.12275 165
35.14286 179
35.16298 224
35.18309 203
35.2032 201
35.22332 197
35.24343 209
35.26354 193
35.28366 203
35.30377 212
35.32389 171
35.344 222
35.36411 195
35.38423 191
35.40434 215
35.42445 202
35.44457 191
35.46468 188
35.4848 201
35.50491 191
35.52502 209
35.54514 202
35.56525 186
35.58536 179
35.60548 174
35.62559 192
35.64571 202
35.66582 191
35.68593 192
35.70605 177
35.72616 171
35.74627 186
35.76639 184
35.7865 189
35.80661 195
35.82673 180
35.84684 170
35.86696 187
35.88707 192
35.90718 191
35.9273 214
35.94741 202
35.96752 182
35.98764 196
36.00775 196
36.02787 212
36.04798 212
36.06809 194
36.08821 210
36.10832 221
36.12843 208
36.14855 230
36.16866 263
36.18878 250
36.20889 244
36.229 287
36.24912 292
36.26923 342
36.28934 337
36.30946 407
36.32957 540
36.34968 656
36.3698 780
36.38991 982
36.41003 1207
36.43014 1485
36.45025 2020
36.47037 2409
36.49048 2721
36.51059 2805
36.53071 2665
36.55082 2331
36.57094 1829
36.59105 1599
36.61116 1358
36.63128 1098
36.65139 822
36.6715 507
36.69162 367
36.71173 334
36.73184 251
36.75196 245
36.77207 247
36.79219 232
36.8123 232
36.83241 209
36.85253 223
36.87264 222
36.89275 182
36.91287 215
36.93298 174
36.9531 183
36.97321 169
36.99332 210
37.01344 210
37.03355 180
37.05366 213
37.07378 176
37.09389 182
37.11401 195
37.13412 175
37.15423 152
37.17435 181
37.19446 169
37.21457 196
37.23469 158
37.2548 156
37.27491 179
37.29503 156
37.31514 148
37.33526 188
37.35537 185
37.37548 180
37.3956 167
37.41571 179
37.43582 159
37.45594 156
37.47605 179
37.49617 150
37.51628 152
37.53639 181
37.55651 184
37.57662 169
37.59673 182
37.61685 197
37.63696 168
37.65708 177
37.67719 180
37.6973 180
37.71742 165
37.73753 160
37.75764 171
37.77776 160
37.79787 170
37.81798 162
37.8381 180
37.85821 189
37.87833 150
37.89844 161
37.91855 181
37.93867 142
37.95878 192
37.97889 151
37.99901 161
38.01912 181
38.03924 184
38.05935 170
38.07946 160
38.09958 147
38.11969 157
38.1398 180
38.15992 183
38.18003 153
38.20015 157
38.22026 182
38.24037 180
38.26049 183
38.2806 171
38.30071 155
38.32083 176
38.34094 182
38.36105 149
38.38117 161
38.40128 171
38.4214 176
38.44151 171
38.46162 179
38.48174 181
38.50185 165
38.52196 143
38.54208 165
38.56219 164
38.58231 176
38.60242 177
38.62253 188
38.64265 176
38.66276 191
38.68287 181
38.70299 159
38.7231 169
38.74321 187
38.76333 170
38.78344 180
38.80356 169
38.82367 186
38.84378 149
38.8639 186
38.88401 188
38.90412 179
38.92424 172
38.94435 181
38.96447 193
38.98458 208
39.00469 211
39.02481 226
39.04492 195
39.06503 220
39.08515 233
39.10526 266
39.12538 259
39.14549 273
39.1656 290
39.18572 293
39.20583 366
39.22594 431
39.24606 486
39.26617 554
39.28628 692
39.3064 884
39.32651 1052
39.34663 1377
39.36674 1657
39.38685 2003
39.40697 2294
39.42708 2449
39.44719 2473
39.46731 2281
39.48742 2024
39.50754 1619
39.52765 1334
39.54776 1136
39.56788 1059
39.58799 769
39.6081 459
39.62822 350
39.64833 286
39.66845 255
39.68856 240
39.70867 240
39.72879 198
39.7489 217
39.76901 235
39.78913 193
39.80924 192
39.82935 197
39.84947 204
39.86958 211
39.8897 186
39.90981 202
39.92992 237
39.95004 205
39.97015 218
39.99026 259
40.01038 259
40.03049 278
40.05061 300
40.07072 342
40.09083 406
40.11095 451
40.13106 550
40.15117 678
40.17129 787
40.1914 944
40.21152 1109
40.23163 1253
40.25174 1402
40.27186 1269
40.29197 1127
40.31208 853
40.3322 778
40.35231 743
40.37242 639
40.39254 550
40.41265 383
40.43277 297
40.45288 247
40.47299 206
40.49311 230
40.51322 215
40.53333 201
40.55345 180
40.57356 181
40.59368 172
40.61379 176
40.6339 175
40.65402 191
40.67413 175
40.69424 159
40.71436 166
40.73447 180
40.75458 156
40.7747 166
40.79481 167
40.81493 185
40.83504 171
40.85515 162
40.87527 153
40.89538 149
40.91549 175
40.93561 160
40.95572 150
40.97584 166
40.99595 176
41.01606 155
41.03618 163
41.05629 155
41.0764 172
41.09652 177
41.11663 175
41.13675 151
41.15686 176
41.17697 183
41.19709 187
41.2172 175
41.23731 169
41.25743 173
41.27754 171
41.29765 183
41.31777 180
41.33788 166
41.358 145
41.37811 144
41.39822 168
41.41834 163
41.43845 157
41.45856 173
41.47868 168
41.49879 161
41.51891 144
41.53902 171
41.55913 171
41.57925 198
41.59936 186
41.61947 166
41.63959 165
41.6597 185
41.67982 197
41.69993 183
41.72004 206
41.74016 188
41.76027 202
41.78038 195
41.8005 177
41.82061 205
41.84072 191
41.86084 198
41.88095 184
41.90107 176
41.92118 177
41.94129 179
41.96141 189
41.98152 220
42.00163 195
42.02175 181
42.04186 202
42.06198 193
42.08209 220
42.1022 235
42.12232 266
42.14243 261
42.16254 260
42.18266 293
42.20277 332
42.22289 416
42.243 458
42.26311 591
42.28323 653
42.30334 833
42.32345 1104
42.34357 1171
42.36368 1542
42.38379 1702
42.40391 1844
42.42402 1914
42.44414 1656
42.46425 1399
42.48436 1206
42.50448 1037
42.52459 972
42.5447 858
42.56482 724
42.58493 400
42.60505 326
42.62516 259
42.64527 246
42.66539 242
42.6855 200
42.70561 216
42.72573 199
42.74584 201
42.76595 201
42.78607 174
42.80618 167
42.8263 183
42.84641 185
42.86652 158
42.88664 165
42.90675 184
42.92686 159
42.94698 182
42.96709 165
42.98721 167
43.00732 171
43.02743 146
43.04755 192
43.06766 175
43.08777 184
43.10789 152
43.128 154
43.14812 149
43.16823 157
43.18834 163
43.20846 159
43.22857 146
43.24868 172
43.2688 154
43.28891 168
43.30902 172
43.32914 123
43.34925 165
43.36937 146
43.38948 157
43.40959 176
43.42971 153
43.44982 165
43.46993 167
43.49005 150
43.51016 168
43.53028 137
43.55039 141
43.5705 158
43.59062 173
43.61073 158
43.63084 159
43.65096 142
43.67107 147
43.69119 154
43.7113 137
43.73141 133
43.75153 152
43.77164 158
43.79175 155
43.81187 145
43.83198 146
43.85209 141
43.87221 139
43.89232 165
43.91244 135
43.93255 162
43.95266 160
43.97278 148
43.99289 134
44.013 141
44.03312 139
44.05323 156
44.07335 151
44.09346 149
44.11357 153
44.13369 159
44.1538 156
44.17391 164
44.19403 167
44.21414 165
44.23426 145
44.25437 152
44.27448 161
44.2946 150
44.31471 140
44.33482 155
44.35494 151
44.37505 148
44.39516 164
44.41528 161
44.43539 174
44.45551 165
44.47562 145
44.49573 171
44.51585 147
44.53596 140
44.55607 153
44.57619 131
44.5963 151
44.61642 136
44.63653 139
44.65664 177
44.67676 139
44.69687 155
44.71698 156
44.7371 165
44.75721 140
44.77732 166
44.79744 142
44.81755 158
44.83767 141
44.85778 154
44.87789 149
44.89801 173
44.91812 147
44.93823 162
44.95835 169
44.97846 159
44.99858 156
45.01869 127
45.0388 155
45.05892 148
45.07903 162
45.09914 146
45.11926 150
45.13937 156
45.15949 159
45.1796 161
45.19971 158
45.21983 160
45.23994 175
45.26005 159
45.28017 173
45.30028 170
45.32039 179
45.34051 182
45.36062 178
45.38074 163
45.40085 169
45.42096 179
45.44108 198
45.46119 226
45.4813 249
45.50142 274
45.52153 249
45.54165 299
45.56176 308
45.58187 354
45.60199 419
45.6221 495
45.64221 605
45.66233 685
45.68244 867
45.70256 943
45.72267 1131
45.74278 1230
45.7629 1199
45.78301 1092
45.80312 947
45.82324 763
45.84335 711
45.86346 692
45.88358 600
45.90369 559
45.92381 429
45.94392 284
45.96403 247
45.98415 175
46.00426 188
46.02437 171
46.04449 169
46.0646 157
46.08472 179
46.10483 166
46.12494 165
46.14506 137
46.16517 145
46.18528 157
46.2054 170
46.22551 145
46.24563 165
46.26574 163
46.28585 139
46.30597 150
46.32608 132
46.34619 144
46.36631 158
46.38642 140
46.40653 146
46.42665 142
46.44676 149
46.46688 131
46.48699 123
46.5071 135
46.52722 143
46.54733 141
46.56744 137
46.58756 141
46.60767 127
46.62779 153
46.6479 147
46.66801 136
46.68813 132
46.70824 135
46.72835 128
46.74847 146
46.76858 150
46.78869 137
46.80881 143
46.82892 137
46.84904 137
46.86915 153
46.88926 136
46.90938 122
46.92949 137
46.9496 144
46.96972 132
46.98983 173
47.00995 131
47.03006 139
47.05017 133
47.07029 148
47.0904 157
47.11051 137
47.13063 135
47.15074 147
47.17086 146
47.19097 132
47.21108 135
47.2312 137
47.25131 138
47.27142 122
47.29154 149
47.31165 154
47.33176 137
47.35188 121
47.37199 141
47.39211 139
47.41222 131
47.43233 137
47.45245 135
47.47256 132
47.49267 146
47.51279 129
47.5329 126
47.55302 137
47.57313 140
47.59324 143
47.61336 139
47.63347 135
47.65358 138
47.6737 154
47.69381 129
47.71393 152
47.73404 147
47.75415 134
47.77427 141
47.79438 124
47.81449 125
47.83461 126
47.85472 126
47.87483 143
47.89495 151
47.91506 143
47.93518 133
47.95529 134
47.9754 137
47.99552 137
48.01563 148
48.03574 143
48.05586 154
48.07597 120
48.09609 138
48.1162 141
48.13631 144
48.15643 131
48.17654 135
48.19665 147
48.21677 127
48.23688 130
48.257 143
48.27711 131
48.29722 122
48.31734 168
48.33745 151
48.35756 150
48.37768 141
48.39779 154
48.4179 153
48.43802 134
48.45813 147
48.47825 166
48.49836 150
48.51847 151
48.53859 152
48.5587 154
48.57881 141
48.59893 158
48.61904 133
48.63916 145
48.65927 153
48.67938 164
48.6995 147
48.71961 156
48.73972 159
48.75984 156
48.77995 162
48.80006 138
48.82018 155
48.84029 158
48.86041 169
48.88052 145
48.90063 148
48.92075 149
48.94086 159
48.96097 159
48.98109 139
49.0012 151
49.02132 160
49.04143 139
49.06154 138
49.08166 146
49.10177 155
49.12188 149
49.142 164
49.16211 164
49.18223 155
49.20234 155
49.22245 142
49.24257 154
49.26268 140
49.28279 146
49.30291 131
49.32302 159
49.34313 168
49.36325 162
49.38336 151
49.40348 159
49.42359 162
49.4437 154
49.46382 176
49.48393 160
49.50404 163
49.52416 185
49.54427 191
49.56439 195
49.5845 178
49.60461 195
49.62473 190
49.64484 184
49.66495 218
49.68507 232
49.70518 232
49.7253 262
49.74541 318
49.76552 350
49.78564 342
49.80575 366
49.82586 411
49.84598 471
49.86609 568
49.8862 704
49.90632 834
49.92643 1023
49.94655 1158
49.96666 1423
49.98677 1760
50.00689 2220
50.027 2760
50.04711 3363
50.06723 3930
50.08734 4308
50.10746 4168
50.12757 3751
50.14768 3144
50.1678 2524
50.18791 2295
50.20802 2231
50.22814 2180
50.24825 1961
50.26837 1517
50.28848 1132
50.30859 764
50.32871 496
50.34882 378
50.36893 361
50.38905 334
50.40916 290
50.42927 273
50.44939 269
50.4695 288
50.48962 293
50.50973 286
50.52984 270
50.54996 263
50.57007 265
50.59018 292
50.6103 264
50.63041 272
50.65053 238
50.67064 225
50.69075 214
50.71087 202
50.73098 207
50.75109 194
50.77121 172
50.79132 163
50.81143 192
50.83155 152
50.85166 167
50.87178 149
50.89189 161
50.912 142
50.93212 164
50.95223 148
50.97234 154
50.99246 160
51.01257 133
51.03269 148
51.0528 139
51.07291 147
51.09303 137
51.11314 135
51.13325 154
51.15337 138
51.17348 138
51.1936 142
51.21371 149
51.23382 103
51.25394 143
51.27405 131
51.29416 126
51.31428 131
51.33439 142
51.3545 125
51.37462 111
51.39473 113
51.41485 135
51.43496 141
51.45507 120
51.47519 130
51.4953 120
51.51541 116
51.53553 112
51.55564 127
51.57576 120
51.59587 121
51.61598 136
51.6361 111
51.65621 107
51.67632 145
51.69644 138
51.71655 151
51.73667 125
51.75678 139
51.77689 130
51.79701 128
51.81712 141
51.83723 122
51.85735 113
51.87746 109
51.89757 138
51.91769 130
51.9378 130
51.95792 120
51.97803 140
51.99814 127
52.01826 167
52.03837 125
52.05848 126
52.0786 117
52.09871 120
52.11883 118
52.13894 131
52.15905 141
52.17917 121
52.19928 130
52.21939 136
52.23951 131
52.25962 121
52.27974 136
52.29985 119
52.31996 140
52.34008 116
52.36019 126
52.3803 122
52.40042 130
52.42053 127
52.44064 145
52.46076 126
52.48087 118
52.50099 109
52.5211 115
52.54121 145
52.56133 141
52.58144 124
52.60155 117
52.62167 121
52.64178 122
52.6619 124
52.68201 109
52.70212 143
52.72224 137
52.74235 129
52.76246 125
52.78258 136
52.80269 134
52.8228 143
52.84292 145
52.86303 146
52.88315 151
52.90326 134
52.92337 134
52.94349 130
52.9636 131
52.98371 123
53.00383 151
53.02394 127
53.04406 150
53.06417 137
53.08428 137
53.1044 129
53.12451 154
53.14462 139
53.16474 136
53.18485 124
53.20497 153
53.22508 114
53.24519 142
53.26531 111
53.28542 145
53.30553 134
53.32565 152
53.34576 136
53.36587 132
53.38599 138
53.4061 156
53.42622 135
53.44633 134
53.46644 145
53.48656 144
53.50667 133
53.52678 155
53.5469 133
53.56701 168
53.58713 151
53.60724 138
53.62735 143
53.64747 153
53.66758 166
53.68769 160
53.70781 148
53.72792 136
53.74804 157
53.76815 165
53.78826 145
53.80838 151
53.82849 138
53.8486 148
53.86872 152
53.88883 149
53.90894 143
53.92906 156
53.94917 134
53.96929 145
53.9894 130
54.00951 142
54.02963 147
54.04974 141
54.06985 139
54.08997 130
54.11008 138
54.1302 188
54.15031 160
54.17042 139
54.19054 161
54.21065 146
54.23076 138
54.25088 151
54.27099 155
54.29111 132
54.31122 179
54.33133 153
54.35145 159
54.37156 131
54.39167 154
54.41179 173
54.4319 189
54.45201 170
54.47213 197
54.49224 186
54.51236 217
54.53247 221
54.55258 216
54.5727 244
54.59281 279
54.61292 306
54.63304 305
54.65315 409
54.67327 438
54.69338 541
54.71349 650
54.73361 760
54.75372 893
54.77383 1068
54.79395 1141
54.81406 1230
54.83417 1232
54.85429 1172
54.8744 1070
54.89452 860
54.91463 786
54.93474 700
54.95486 740
54.97497 677
54.99508 722
55.0152 572
55.03531 469
55.05543 332
55.07554 284
55.09565 314
55.11577 299
55.13588 338
55.15599 345
55.17611 373
55.19622 393
55.21634 450
55.23645 510
55.25656 556
55.27668 587
55.29679 615
55.3169 587
55.33702 424
55.35713 421
55.37724 360
55.39736 327
55.41747 361
55.43759 372
55.4577 344
55.47781 301
55.49793 254
55.51804 217
55.53815 193
55.55827 153
55.57838 157
55.5985 154
55.61861 151
55.63872 152
55.65884 147
55.67895 163
55.69906 154
55.71918 135
55.73929 145
55.75941 153
55.77952 160
55.79963 131
55.81975 142
55.83986 156
55.85997 124
55.88009 145
55.9002 145
55.92031 144
55.94043 140
55.96054 137
55.98066 143
56.00077 159
56.02088 135
56.041 137
56.06111 135
56.08122 119
56.10134 113
56.12145 113
56.14157 115
56.16168 136
56.18179 103
56.20191 132
56.22202 123
56.24213 130
56.26225 128
56.28236 137
56.30248 106
56.32259 137
56.3427 138
56.36282 143
56.38293 125
56.40304 94
56.42316 131
56.44327 134
56.46338 124
56.4835 134
56.50361 123
56.52373 122
56.54384 133
56.56395 136
56.58407 134
56.60418 160
56.62429 137
56.64441 98
56.66452 141
56.68464 118
56.70475 145
56.72486 132
56.74498 133
56.76509 129
56.7852 142
56.80532 119
56.82543 161
56.84554 111
56.86566 132
56.88577 121
56.90589 145
56.926 129
56.94611 148
56.96623 119
56.98634 134
57.00645 135
57.02657 141
57.04668 125
57.0668 162
57.08691 183
57.10702 169
57.12714 183
57.14725 187
57.16736 193
57.18748 181
57.20759 185
57.22771 173
57.24782 167
57.26793 188
57.28805 154
57.30816 161
57.32827 169
57.34839 167
57.3685 142
57.38861 142
57.40873 136
57.42884 134
57.44896 143
57.46907 150
57.48918 122
57.5093 122
57.52941 107
57.54952 109
57.56964 139
57.58975 118
57.60987 144
57.62998 115
57.65009 132
57.67021 120
57.69032 135
57.71043 131
57.73055 137
57.75066 147
57.77078 143
57.79089 124
57.811 126
57.83112 139
57.85123 127
57.87134 138
57.89146 125
57.91157 133
57.93168 146
57.9518 135
57.97191 134
57.99203 140
58.01214 136
58.03225 137
58.05237 130
58.07248 141
58.09259 116
58.11271 132
58.13282 143
58.15294 121
58.17305 123
58.19316 129
58.21328 121
58.23339 129
58.2535 144
58.27362 110
58.29373 126
58.31385 114
58.33396 128
58.35407 137
58.37419 123
58.3943 130
58.41441 146
58.43453 140
58.45464 155
58.47475 137
58.49487 154
58.51498 128
58.5351 128
58.55521 143
58.57532 150
58.59544 140
58.61555 144
58.63566 119
58.65578 116
58.67589 147
58.69601 151
58.71612 123
58.73623 141
58.75635 133
58.77646 145
58.79657 124
58.81669 132
58.8368 148
58.85691 124
58.87703 136
58.89714 121
58.91726 125
58.93737 157
58.95748 147
58.9776 145
58.99771 140
59.01782 142
59.03794 149
59.05805 118
59.07817 137
59.09828 116
59.11839 157
59.13851 156
59.15862 144
59.17873 146
59.19885 139
59.21896 153
59.23908 142
59.25919 158
59.2793 144
59.29942 129
59.31953 152
59.33964 134
59.35976 187
59.37987 164
59.39998 152
59.4201 147
59.44021 199
59.46033 182
59.48044 194
59.50055 221
59.52067 256
59.54078 226
59.56089 257
59.58101 276
59.60112 319
59.62124 316
59.64135 357
59.66146 421
59.68158 460
59.70169 549
59.7218 620
59.74192 818
59.76203 946
59.78215 1148
59.80226 1336
59.82237 1652
59.84249 1902
59.8626 2302
59.88271 2570
59.90283 2523
59.92294 2599
59.94305 2253
59.96317 1913
59.98328 1559
60.0034 1369
60.02351 1388
60.04362 1405
60.06374 1323
60.08385 1273
60.10396 1130
60.12408 885
60.14419 584
60.16431 421
60.18442 320
60.20453 261
60.22465 240
60.24476 243
60.26487 223
60.28499 188
60.3051 179
60.32522 183
60.34533 194
60.36544 181
60.38556 160
60.40567 163
60.42578 175
60.4459 160
60.46601 163
60.48612 154
60.50624 149
60.52635 182
60.54647 165
60.56658 164
60.58669 129
60.60681 143
60.62692 139
60.64703 145
60.66715 146
60.68726 134
60.70738 143
60.72749 154
60.7476 147
60.76772 168
60.78783 164
60.80794 151
60.82806 145
60.84817 132
60.86828 131
60.8884 132
60.90851 133
60.92863 123
60.94874 147
60.96885 132
60.98897 135
61.00908 155
61.02919 129
61.04931 137
61.06942 139
61.08954 142
61.10965 143
61.12976 128
61.14988 163
61.16999 155
61.1901 148
61.21022 151
61.23033 142
61.25045 137
61.27056 138
61.29067 154
61.31079 144
61.3309 142
61.35101 128
61.37113 144
61.39124 136
61.41135 159
61.43147 177
61.45158 155
61.4717 149
61.49181 135
61.51192 142
61.53204 158
61.55215 155
61.57226 159
61.59238 135
61.61249 141
61.63261 166
61.65272 132
61.67283 160
61.69295 159
61.71306 162
61.73317 130
61.75329 148
61.7734 163
61.79352 161
61.81363 149
61.83374 160
61.85386 160
61.87397 131
61.89408 148
61.9142 153
61.93431 140
61.95442 138
61.97454 147
61.99465 140
62.01477 159
62.03488 163
62.05499 151
62.07511 160
62.09522 142
62.11533 131
62.13545 141
62.15556 142
62.17568 140
62.19579 136
62.2159 139
62.23602 147
62.25613 122
62.27624 162
62.29636 137
62.31647 150
62.33659 142
62.3567 116
62.37681 123
62.39693 150
62.41704 151
62.43715 113
62.45727 112
62.47738 130
62.49749 146
62.51761 127
62.53772 144
62.55784 139
62.57795 139
62.59806 125
62.61818 152
62.63829 128
62.6584 139
62.67852 141
62.69863 118
62.71875 104
62.73886 132
62.75897 126
62.77909 120
62.7992 128
62.81931 135
62.83943 129
62.85954 143
62.87965 154
62.89977 159
62.91988 115
62.94 125
62.96011 135
62.98022 129
63.00034 122
63.02045 143
63.04056 146
63.06068 126
63.08079 146
63.10091 130
63.12102 125
63.14113 128
63.16125 135
63.18136 108
63.20147 139
63.22159 105
63.2417 105
63.26182 126
63.28193 132
63.30204 132
63.32216 130
63.34227 122
63.36238 125
63.3825 135
63.40261 138
63.42272 144
63.44284 121
63.46295 133
63.48307 118
63.50318 144
63.52329 121
63.54341 112
63.56352 130
63.58363 130
63.60375 140
63.62386 149
63.64398 123
63.66409 141
63.6842 173
63.70432 177
63.72443 169
63.74454 147
63.76466 204
63.78477 219
63.80489 211
63.825 262
63.84511 284
63.86523 339
63.88534 363
63.90545 403
63.92557 449
63.94568 489
63.96579 548
63.98591 512
64.00602 491
64.02614 454
64.04625 378
64.06636 317
64.08648 282
64.10659 343
64.1267 307
64.14682 346
64.16693 310
64.18705 324
64.20716 248
64.22727 247
64.24739 183
64.2675 168
64.28761 158
64.30773 129
64.32784 143
64.34796 140
64.36807 125
64.38818 126
64.4083 117
64.42841 118
64.44852 122
64.46864 136
64.48875 125
64.50886 125
64.52898 139
64.54909 121
64.56921 113
64.58932 126
64.60943 101
64.62955 147
64.64966 99
64.66977 120
64.68989 117
64.71 136
64.73012 147
64.75023 130
64.77034 130
64.79046 122
64.81057 115
64.83068 108
64.8508 130
64.87091 121
64.89102 126
64.91114 102
64.93125 139
64.95137 110
64.97148 124
64.99159 128
65.01171 122
65.03182 104
65.05193 130
65.07205 132
65.09216 140
65.11228 118
65.13239 127
65.1525 149
65.17262 136
65.19273 128
65.21284 136
65.23296 122
65.25307 131
65.27319 115
65.2933 115
65.31341 128
65.33353 131
65.35364 147
65.37375 138
65.39387 148
65.41398 142
65.43409 150
65.45421 145
65.47432 161
65.49444 148
65.51455 138
65.53466 153
65.55478 182
65.57489 157
65.595 158
65.61512 172
65.63523 201
65.65535 210
65.67546 202
65.69557 241
65.71569 262
65.7358 246
65.75591 217
65.77603 223
65.79614 177
65.81626 173
65.83637 175
65.85648 181
65.8766 186
65.89671 175
65.91682 168
65.93694 164
65.95705 160
65.97716 148
65.99728 149
66.01739 130
66.03751 143
66.05762 133
66.07773 139
66.09785 123
66.11796 142
66.13807 137
66.15819 137
66.1783 137
66.19842 122
66.21853 134
66.23864 139
66.25876 128
66.27887 132
66.29898 129
66.3191 143
66.33921 138
66.35933 116
66.37944 143
66.39955 139
66.41967 140
66.43978 144
66.45989 140
66.48001 137
66.50012 144
66.52023 137
66.54035 136
66.56046 142
66.58058 125
66.60069 131
66.6208 145
66.64092 123
66.66103 131
66.68114 124
66.70126 130
66.72137 132
66.74149 141
66.7616 136
66.78171 155
66.80183 125
66.82194 141
66.84205 145
66.86217 143
66.88228 147
66.90239 138
66.92251 142
66.94262 156
66.96274 140
66.98285 142
67.00296 132
67.02308 142
67.04319 156
67.0633 165
67.08342 150
67.10353 149
67.12365 162
67.14376 167
67.16387 168
67.18399 175
67.2041 163
67.22421 170
67.24433 189
67.26444 183
67.28456 189
67.30467 213
67.32478 209
67.3449 222
67.36501 212
67.38512 254
67.40524 257
67.42535 308
67.44546 342
67.46558 346
67.48569 406
67.50581 441
67.52592 563
67.54603 647
67.56615 734
67.58626 919
67.60637 1037
67.62649 1203
67.6466 1310
67.66672 1481
67.68683 1535
67.70694 1456
67.72706 1346
67.74717 1195
67.76728 999
67.7874 918
67.80751 880
67.82763 905
67.84774 983
67.86785 1049
67.88797 1103
67.90808 1152
67.92819 1128
67.94831 1113
67.96842 1105
67.98853 1190
68.00865 1399
68.02876 1572
68.04888 1758
68.06899 1856
68.0891 2042
68.10922 1889
68.12933 1899
68.14944 1661
68.16956 1649
68.18967 1598
68.20979 1742
68.2299 1841
68.25001 1851
68.27013 1873
68.29024 1761
68.31035 1489
68.33047 1198
68.35058 1011
68.3707 846
68.39081 758
68.41092 717
68.43104 654
68.45115 693
68.47126 611
68.49138 526
68.51149 450
68.5316 340
68.55172 268
68.57183 233
68.59195 216
68.61206 232
68.63217 198
68.65229 175
68.6724 201
68.69251 166
68.71263 158
68.73274 143
68.75286 165
68.77297 159
68.79308 157
68.8132 137
68.83331 152
68.85342 168
68.87354 163
68.89365 148
68.91376 157
68.93388 159
68.95399 147
68.97411 138
68.99422 139
69.01433 147
69.03445 129
69.05456 148
69.07467 135
69.09479 144
69.1149 127
69.13502 123
69.15513 134
69.17524 119
69.19536 120
69.21547 148
69.23558 112
69.2557 127
69.27581 118
69.29593 128
69.31604 137
69.33615 117
69.35627 146
69.37638 128
69.39649 119
69.41661 129
69.43672 151
69.45683 124
69.47695 130
69.49706 125
69.51718 100
69.53729 117
69.5574 123
69.57752 124
69.59763 117
69.61774 110
69.63786 132
69.65797 132
69.67809 132
69.6982 130
69.71831 117
69.73843 119
69.75854 139
69.77865 117
69.79877 125
69.81888 129
69.839 120
69.85911 129
69.87922 140
69.89934 133
69.91945 124
69.93956 116
69.95968 108
69.97979 121
69.9999 106
70.02002 101
70.04013 108
70.06025 129
70.08036 121
70.10047 138
70.12059 133
70.1407 135
70.16081 115
70.18093 113
70.20104 121
70.22116 140
70.24127 129
70.26138 114
70.2815 126
70.30161 109
70.32172 121
70.34184 123
70.36195 127
70.38207 120
70.40218 106
70.42229 105
70.44241 120
70.46252 125
70.48263 110
70.50275 132
70.52286 124
70.54297 138
70.56309 141
70.5832 128
70.60332 128
70.62343 134
70.64354 119
70.66366 125
70.68377 115
70.70388 113
70.724 161
70.74411 104
70.76423 118
70.78434 129
70.80445 130
70.82457 117
70.84468 117
70.86479 117
70.88491 101
70.90502 141
70.92513 117
70.94525 145
70.96536 130
70.98548 111
71.00559 108
71.0257 118
71.04582 129
71.06593 122
71.08604 109
71.10616 120
71.12627 114
71.14639 117
71.1665 125
71.18661 103
71.20673 121
71.22684 128
71.24695 132
71.26707 101
71.28718 121
71.3073 122
71.32741 122
71.34752 95
71.36764 145
71.38775 130
71.40786 140
71.42798 122
71.44809 111
71.4682 119
71.48832 142
71.50843 125
71.52855 111
71.54866 144
71.56877 130
71.58889 120
71.609 109
71.62911 121
71.64923 107
71.66934 122
71.68946 114
71.70957 100
71.72968 110
71.7498 132
71.76991 99
71.79002 110
71.81014 109
71.83025 122
71.85037 113
71.87048 105
71.89059 106
71.91071 123
71.93082 92
71.95093 133
71.97105 121
71.99116 109
72.01127 127
72.03139 112
72.0515 119
72.07162 126
72.09173 111
72.11184 131
72.13196 135
72.15207 130
72.17218 112
72.1923 131
72.21241 141
72.23253 139
72.25264 132
72.27275 115
72.29287 129
72.31298 128
72.33309 121
72.35321 119
72.37332 146
72.39344 129
72.41355 130
72.43366 122
72.45378 121
72.47389 127
72.494 121
72.51412 119
72.53423 117
72.55434 120
72.57446 124
72.59457 90
72.61469 144
72.6348 127
72.65491 100
72.67503 129
72.69514 123
72.71525 145
72.73537 119
72.75548 126
72.7756 135
72.79571 113
72.81582 123
72.83594 131
72.85605 128
72.87616 135
72.89628 146
72.91639 132
72.9365 133
72.95662 139
72.97673 118
72.99685 126
73.01696 141
73.03707 151
73.05719 146
73.0773 163
73.09741 147
73.11753 137
73.13764 177
73.15776 186
73.17787 187
73.19798 205
73.2181 208
73.23821 239
73.25832 278
73.27844 332
73.29855 340
73.31867 360
73.33878 450
73.35889 488
73.37901 519
73.39912 574
73.41923 560
73.43935 539
73.45946 475
73.47957 427
73.49969 384
73.5198 295
73.53992 302
73.56003 347
73.58014 290
73.60026 352
73.62037 293
73.64048 312
73.6606 335
73.68071 245
73.70083 205
73.72094 181
73.74105 167
73.76117 150
73.78128 140
73.80139 131
73.82151 151
73.84162 123
73.86174 143
73.88185 140
73.90196 141
73.92208 127
73.94219 126
73.9623 122
73.98242 148
74.00253 117
74.02264 100
74.04276 110
74.06287 116
74.08299 127
74.1031 118
74.12321 124
74.14333 111
74.16344 112
74.18355 132
74.20367 138
74.22378 114
74.2439 110
74.26401 112
74.28412 135
74.30424 117
74.32435 112
74.34446 130
74.36458 119
74.38469 104
74.40481 136
74.42492 129
74.44503 116
74.46515 109
74.48526 124
74.50537 107
74.52549 120
74.5456 127
74.56571 126
74.58583 126
74.60594 127
74.62606 102
74.64617 109
74.66628 115
74.6864 118
74.70651 120
74.72662 144
74.74674 120
74.76685 123
74.78697 129
74.80708 128
74.82719 135
74.84731 125
74.86742 130
74.88753 135
74.90765 100
74.92776 115
74.94787 116
74.96799 106
74.9881 124
75.00822 138
