3.00117 33974
3.02128 33431
3.0414 32430
3.06151 31856
3.08162 31539
3.10174 30311
3.12185 29908
3.14197 29251
3.16208 28234
3.18219 27986
3.20231 27013
3.22242 26633
3.24253 26201
3.26265 25381
3.28276 24640
3.30288 24207
3.32299 23812
3.3431 23072
3.36322 22675
3.38333 21633
3.40344 21493
3.42356 21034
3.44367 20544
3.46379 19961
3.4839 19111
3.50401 18881
3.52413 18487
3.54424 17884
3.56435 17517
3.58447 17272
3.60458 16759
3.62469 16296
3.64481 15804
3.66492 15691
3.68504 14909
3.70515 14596
3.72526 14158
3.74538 13969
3.76549 13480
3.7856 13024
3.80572 12699
3.82583 12368
3.84595 11841
3.86606 11588
3.88617 11416
3.90629 10902
3.9264 10830
3.94651 10405
3.96663 9989
3.98674 9716
4.00686 9497
4.02697 8953
4.04708 8892
4.0672 8770
4.08731 8460
4.10742 8146
4.12754 7846
4.14765 7426
4.16776 7256
4.18788 7158
4.20799 6810
4.22811 6676
4.24822 6458
4.26833 6208
4.28845 6112
4.30856 5752
4.32867 5636
4.34879 5646
4.3689 5443
4.38902 5278
4.40913 5022
4.42924 4822
4.44936 4777
4.46947 4690
4.48958 4550
4.5097 4356
4.52981 4128
4.54992 4138
4.57004 3928
4.59015 3884
4.61027 3777
4.63038 3606
4.65049 3601
4.67061 3473
4.69072 3324
4.71083 3131
4.73095 3199
4.75106 3057
4.77118 3096
4.79129 2935
4.8114 2848
4.83152 2734
4.85163 2638
4.87174 2622
4.89186 2569
4.91197 2439
4.93209 2386
4.9522 2373
4.97231 2279
4.99243 2208
5.01254 2276
5.03265 2187
5.05277 2142
5.07288 2065
5.09299 2024
5.11311 1984
5.13322 1878
5.15334 1870
5.17345 1775
5.19356 1743
5.21368 1731
5.23379 1646
5.2539 1605
5.27402 1605
5.29413 1501
5.31425 1482
5.33436 1457
5.35447 1467
5.37459 1490
5.3947 1432
5.41481 1382
5.43493 1328
5.45504 1251
5.47516 1258
5.49527 1222
5.51538 1219
5.5355 1149
5.55561 1135
5.57572 1118
5.59584 1140
5.61595 1094
5.63606 1072
5.65618 1025
5.67629 1024
5.69641 1000
5.71652 949
5.73663 948
5.75675 934
5.77686 903
5.79697 899
5.81709 852
5.8372 835
5.85732 854
5.87743 792
5.89754 896
5.91766 790
5.93777 805
5.95788 729
5.978 744
5.99811 817
6.01823 768
6.03834 800
6.05845 757
6.07857 784
6.09868 789
6.11879 771
6.13891 728
6.15902 718
6.17913 757
6.19925 728
6.21936 739
6.23948 723
6.25959 684
6.2797 644
6.29982 698
6.31993 757
6.34004 689
6.36016 717
6.38027 695
6.40039 668
6.4205 670
6.44061 697
6.46073 671
6.48084 675
6.50095 693
6.52107 651
6.54118 688
6.56129 682
6.58141 637
6.60152 636
6.62164 625
6.64175 636
6.66186 689
6.68198 636
6.70209 638
6.7222 590
6.74232 595
6.76243 652
6.78255 643
6.80266 622
6.82277 622
6.84289 592
6.863 647
6.88311 638
6.90323 631
6.92334 581
6.94346 629
6.96357 585
6.98368 580
7.0038 621
7.02391 588
7.04402 560
7.06414 581
7.08425 574
7.10436 590
7.12448 548
7.14459 557
7.16471 623
7.18482 579
7.20493 567
7.22505 557
7.24516 585
7.26527 543
7.28539 569
7.3055 552
7.32562 538
7.34573 597
7.36584 542
7.38596 553
7.40607 535
7.42618 573
7.4463 533
7.46641 536
7.48653 592
7.50664 563
7.52675 562
7.54687 550
7.56698 580
7.58709 539
7.60721 558
7.62732 548
7.64743 485
7.66755 509
7.68766 531
7.70778 564
7.72789 528
7.748 533
7.76812 510
7.78823 546
7.80834 485
7.82846 581
7.84857 498
7.86869 531
7.8888 540
7.90891 508
7.92903 560
7.94914 513
7.96925 507
7.98937 484
8.00948 565
8.0296 502
8.04971 502
8.06982 519
8.08994 549
8.11005 543
8.13016 552
8.15028 525
8.17039 519
8.1905 506
8.21062 521
8.23073 500
8.25085 508
8.27096 472
8.29107 524
8.31119 524
8.3313 553
8.35141 465
8.37153 543
8.39164 506
8.41176 527
8.43187 526
8.45198 483
8.4721 494
8.49221 475
8.51232 503
8.53244 483
8.55255 497
8.57266 498
8.59278 503
8.61289 475
8.63301 466
8.65312 500
8.67323 483
8.69335 494
8.71346 499
8.73357 504
8.75369 481
8.7738 473
8.79392 522
8.81403 564
8.83414 439
8.85426 581
8.87437 523
8.89448 507
8.9146 493
8.93471 516
8.95483 493
8.97494 487
8.99505 498
9.01517 466
9.03528 483
9.05539 500
9.07551 503
9.09562 499
9.11573 491
9.13585 519
9.15596 486
9.17608 482
9.19619 478
9.2163 489
9.23642 513
9.25653 503
9.27664 487
9.29676 541
9.31687 549
9.33699 506
9.3571 499
9.37721 507
9.39733 527
9.41744 473
9.43755 477
9.45767 462
9.47778 502
9.4979 511
9.51801 489
9.53812 460
9.55824 474
9.57835 470
9.59846 488
9.61858 477
9.63869 464
9.6588 508
9.67892 467
9.69903 483
9.71915 471
9.73926 510
9.75937 476
9.77949 499
9.7996 474
9.81971 464
9.83983 497
9.85994 519
9.88006 507
9.90017 467
9.92028 471
9.9404 487
9.96051 510
9.98062 491
10.00074 458
10.02085 462
10.04097 498
10.06108 463
10.08119 447
10.10131 516
10.12142 492
10.14153 467
10.16165 525
10.18176 482
10.20187 453
10.22199 508
10.2421 476
10.26222 481
10.28233 464
10.30244 420
10.32256 406
10.34267 484
10.36278 469
10.3829 466
10.40301 448
10.42313 485
10.44324 421
10.46335 466
10.48347 440
10.50358 482
10.52369 515
10.54381 516
10.56392 484
10.58403 481
10.60415 438
10.62426 484
10.64438 492
10.66449 484
10.6846 467
10.70472 477
10.72483 507
10.74494 481
10.76506 479
10.78517 524
10.80529 528
10.8254 484
10.84551 506
10.86563 521
10.88574 491
10.90585 490
10.92597 515
10.94608 482
10.9662 495
10.98631 537
11.00642 516
11.02654 521
11.04665 518
11.06676 499
11.08688 467
11.10699 501
11.1271 534
11.14722 496
11.16733 520
11.18745 515
11.20756 503
11.22767 473
11.24779 502
11.2679 510
11.28801 512
11.30813 511
11.32824 484
11.34836 526
11.36847 486
11.38858 491
11.4087 502
11.42881 509
11.44892 485
11.46904 540
11.48915 538
11.50927 555
11.52938 529
11.54949 578
11.56961 565
11.58972 522
11.60983 530
11.62995 549
11.65006 536
11.67017 592
11.69029 560
11.7104 583
11.73052 514
11.75063 578
11.77074 555
11.79086 545
11.81097 525
11.83108 522
11.8512 574
11.87131 573
11.89143 588
11.91154 564
11.93165 579
11.95177 540
11.97188 576
11.99199 522
12.01211 631
12.03222 563
12.05234 568
12.07245 573
12.09256 544
12.11268 587
12.13279 569
12.1529 578
12.17302 539
12.19313 561
12.21324 577
12.23336 603
12.25347 577
12.27359 613
12.2937 550
12.31381 533
12.33393 552
12.35404 562
12.37415 510
12.39427 523
12.41438 515
12.4345 442
12.45461 538
12.47472 538
12.49484 454
12.51495 530
12.53506 525
12.55518 498
12.57529 453
12.5954 479
12.61552 448
12.63563 435
12.65575 476
12.67586 485
12.69597 508
12.71609 493
12.7362 498
12.75631 479
12.77643 490
12.79654 473
12.81666 439
12.83677 478
12.85688 452
12.877 472
12.89711 433
12.91722 446
12.93734 438
12.95745 460
12.97757 451
12.99768 432
13.01779 415
13.03791 400
13.05802 410
13.07813 402
13.09825 430
13.11836 457
13.13847 460
13.15859 448
13.1787 431
13.19882 454
13.21893 420
13.23904 443
13.25916 458
13.27927 458
13.29938 423
13.3195 446
13.33961 368
13.35973 429
13.37984 442
13.39995 432
13.42007 460
13.44018 409
13.46029 462
13.48041 431
13.50052 454
13.52064 453
13.54075 421
13.56086 395
13.58098 397
13.60109 481
13.6212 437
13.64132 395
13.66143 397
13.68154 429
13.70166 427
13.72177 433
13.74189 485
13.762 380
13.78211 415
13.80223 418
13.82234 391
13.84245 415
13.86257 378
13.88268 406
13.9028 426
13.92291 388
13.94302 443
13.96314 435
13.98325 412
14.00336 391
14.02348 385
14.04359 396
14.06371 387
14.08382 405
14.10393 417
14.12405 405
14.14416 441
14.16427 411
14.18439 412
14.2045 441
14.22461 438
14.24473 407
14.26484 408
14.28496 408
14.30507 443
14.32518 404
14.3453 416
14.36541 388
14.38552 364
14.40564 405
14.42575 421
14.44587 410
14.46598 422
14.48609 379
14.50621 410
14.52632 422
14.54643 423
14.56655 436
14.58666 403
14.60677 404
14.62689 402
14.647 409
14.66712 395
14.68723 417
14.70734 401
14.72746 381
14.74757 472
14.76768 394
14.7878 387
14.80791 407
14.82803 418
14.84814 390
14.86825 377
14.88837 401
14.90848 415
14.92859 435
14.94871 386
14.96882 363
14.98894 422
15.00905 379
15.02916 398
15.04928 417
15.06939 445
15.0895 444
15.10962 425
15.12973 390
15.14984 383
15.16996 386
15.19007 415
15.21019 399
15.2303 372
15.25041 435
15.27053 414
15.29064 380
15.31075 425
15.33087 415
15.35098 390
15.3711 388
15.39121 404
15.41132 392
15.43144 391
15.45155 382
15.47166 431
15.49178 377
15.51189 379
15.53201 374
15.55212 393
15.57223 422
15.59235 381
15.61246 369
15.63257 383
15.65269 396
15.6728 383
15.69291 426
15.71303 384
15.73314 364
15.75326 379
15.77337 389
15.79348 411
15.8136 360
15.83371 385
15.85382 394
15.87394 394
15.89405 399
15.91417 425
15.93428 390
15.95439 399
15.97451 376
15.99462 398
16.01473 461
16.03485 386
16.05496 421
16.07508 405
16.09519 389
16.1153 379
16.13542 335
16.15553 383
16.17564 375
16.19576 359
16.21587 388
16.23598 396
16.2561 400
16.27621 394
16.29633 404
16.31644 369
16.33655 377
16.35667 427
16.37678 379
16.39689 391
16.41701 398
16.43712 416
16.45724 416
16.47735 400
16.49746 368
16.51758 441
16.53769 428
16.5578 375
16.57792 398
16.59803 398
16.61814 382
16.63826 368
16.65837 402
16.67849 424
16.6986 382
16.71871 418
16.73883 373
16.75894 378
16.77905 400
16.79917 410
16.81928 371
16.8394 373
16.85951 395
16.87962 405
16.89974 385
16.91985 423
16.93996 385
16.96008 376
16.98019 387
17.00031 400
17.02042 393
17.04053 370
17.06065 386
17.08076 401
17.10087 422
17.12099 425
17.1411 364
17.16121 405
17.18133 405
17.20144 390
17.22156 389
17.24167 409
17.26178 357
17.2819 450
17.30201 410
17.32212 393
17.34224 398
17.36235 411
17.38247 419
17.40258 410
17.42269 349
17.44281 406
17.46292 410
17.48303 403
17.50315 384
17.52326 412
17.54338 449
17.56349 392
17.5836 364
17.60372 408
17.62383 409
17.64394 368
17.66406 378
17.68417 384
17.70428 435
17.7244 396
17.74451 421
17.76463 415
17.78474 413
17.80485 414
17.82497 395
17.84508 441
17.86519 419
17.88531 418
17.90542 404
17.92554 429
17.94565 401
17.96576 407
17.98588 398
18.00599 422
18.0261 415
18.04622 396
18.06633 451
18.08645 426
18.10656 426
18.12667 402
18.14679 438
18.1669 414
18.18701 400
18.20713 385
18.22724 395
18.24735 434
18.26747 378
18.28758 410
18.3077 425
18.32781 397
18.34792 388
18.36804 387
18.38815 422
18.40826 423
18.42838 440
18.44849 433
18.46861 410
18.48872 426
18.50883 379
18.52895 384
18.54906 387
18.56917 442
18.58929 396
18.6094 410
18.62951 405
18.64963 452
18.66974 374
18.68986 414
18.70997 421
18.73008 387
18.7502 426
18.77031 417
18.79042 400
18.81054 432
18.83065 447
18.85077 451
18.87088 442
18.89099 447
18.91111 406
18.93122 457
18.95133 393
18.97145 421
18.99156 425
19.01168 422
19.03179 412
19.0519 463
19.07202 416
19.09213 436
19.11224 499
19.13236 425
19.15247 431
19.17258 399
19.1927 434
19.21281 491
19.23293 471
19.25304 467
19.27315 467
19.29327 490
19.31338 437
19.33349 471
19.35361 452
19.37372 499
19.39384 486
19.41395 497
19.43406 501
19.45418 567
19.47429 500
19.4944 571
19.51452 529
19.53463 563
19.55475 578
19.57486 589
19.59497 578
19.61509 608
19.6352 655
19.65531 666
19.67543 702
19.69554 719
19.71565 716
19.73577 695
19.75588 742
19.776 772
19.79611 804
19.81622 872
19.83634 839
19.85645 831
19.87656 837
19.89668 833
19.91679 931
19.93691 810
19.95702 796
19.97713 806
19.99725 815
20.01736 834
20.03747 811
20.05759 807
20.0777 838
20.09782 828
20.11793 758
20.13804 819
20.15816 851
20.17827 805
20.19838 766
20.2185 773
20.23861 799
20.25872 766
20.27884 733
20.29895 813
20.31907 757
20.33918 735
20.35929 759
20.37941 772
20.39952 743
20.41963 781
20.43975 766
20.45986 764
20.47998 755
20.50009 764
20.5202 791
20.54032 859
20.56043 733
20.58054 808
20.60066 774
20.62077 849
20.64088 890
20.661 876
20.68111 1047
20.70123 1109
20.72134 1280
20.74145 1514
20.76157 1867
20.78168 2277
20.80179 2748
20.82191 3139
20.84202 3068
20.86214 2903
20.88225 2444
20.90236 1938
20.92248 1556
20.94259 1155
20.9627 1026
20.98282 936
21.00293 834
21.02305 824
21.04316 909
21.06327 881
21.08339 863
21.1035 854
21.12361 866
21.14373 818
21.16384 845
21.18395 843
21.20407 801
21.22418 783
21.2443 830
21.26441 779
21.28452 799
21.30464 831
21.32475 783
21.34486 815
21.36498 736
21.38509 787
21.40521 769
21.42532 779
21.44543 755
21.46555 763
21.48566 691
21.50577 751
21.52589 735
21.546 668
21.56612 646
21.58623 678
21.60634 667
21.62646 710
21.64657 675
21.66668 622
21.6868 670
21.70691 681
21.72702 636
21.74714 653
21.76725 674
21.78737 632
21.80748 624
21.82759 613
21.84771 643
21.86782 604
21.88793 646
21.90805 624
21.92816 603
21.94828 597
21.96839 625
21.9885 626
22.00862 676
22.02873 654
22.04884 601
22.06896 622
22.08907 580
22.10919 583
22.1293 592
22.14941 596
22.16953 552
22.18964 575
22.20975 637
22.22987 580
22.24998 599
22.27009 582
22.29021 544
22.31032 590
22.33044 541
22.35055 537
22.37066 578
22.39078 539
22.41089 571
22.431 524
22.45112 551
22.47123 578
22.49135 553
22.51146 551
22.53157 550
22.55169 564
22.5718 566
22.59191 581
22.61203 569
22.63214 587
22.65225 547
22.67237 568
22.69248 536
22.7126 550
22.73271 566
22.75282 590
22.77294 521
22.79305 513
22.81316 568
22.83328 555
22.85339 531
22.87351 534
22.89362 514
22.91373 552
22.93385 517
22.95396 540
22.97407 514
22.99419 539
23.0143 527
23.03442 517
23.05453 521
23.07464 539
23.09476 528
23.11487 537
23.13498 554
23.1551 516
23.17521 556
23.19532 498
23.21544 510
23.23555 491
23.25567 519
23.27578 518
23.29589 566
23.31601 518
23.33612 537
23.35623 564
23.37635 534
23.39646 598
23.41658 522
23.43669 530
23.4568 549
23.47692 598
23.49703 600
23.51714 621
23.53726 589
23.55737 625
23.57749 609
23.5976 607
23.61771 628
23.63783 581
23.65794 590
23.67805 614
23.69817 592
23.71828 599
23.73839 584
23.75851 626
23.77862 609
23.79874 629
23.81885 622
23.83896 666
23.85908 588
23.87919 574
23.8993 611
23.91942 588
23.93953 595
23.95965 553
23.97976 585
23.99987 557
24.01999 577
24.0401 519
24.06021 552
24.08033 567
24.10044 556
24.12056 554
24.14067 537
24.16078 537
24.1809 602
24.20101 524
24.22112 526
24.24124 546
24.26135 531
24.28146 530
24.30158 568
24.32169 526
24.34181 545
24.36192 586
24.38203 536
24.40215 557
24.42226 604
24.44237 600
24.46249 556
24.4826 584
24.50272 625
24.52283 567
24.54294 593
24.56306 604
24.58317 601
24.60328 628
24.6234 548
24.64351 588
24.66362 582
24.68374 651
24.70385 595
24.72397 630
24.74408 627
24.76419 613
24.78431 604
24.80442 587
24.82453 590
24.84465 565
24.86476 638
24.88488 641
24.90499 666
24.9251 564
24.94522 601
24.96533 609
24.98544 582
25.00556 653
25.02567 600
25.04579 600
25.0659 646
25.08601 623
25.10613 564
25.12624 630
25.14635 602
25.16647 616
25.18658 586
25.20669 620
25.22681 605
25.24692 592
25.26704 621
25.28715 654
25.30726 609
25.32738 532
25.34749 596
25.3676 586
25.38772 594
25.40783 593
25.42795 607
25.44806 596
25.46817 552
25.48829 561
25.5084 587
25.52851 580
25.54863 576
25.56874 624
25.58886 633
25.60897 657
25.62908 614
25.6492 599
25.66931 665
25.68942 646
25.70954 612
25.72965 667
25.74976 650
25.76988 609
25.78999 633
25.81011 613
25.83022 593
25.85033 650
25.87045 636
25.89056 619
25.91067 621
25.93079 638
25.9509 629
25.97102 632
25.99113 660
26.01124 573
26.03136 631
26.05147 642
26.07158 623
26.0917 660
26.11181 680
26.13193 716
26.15204 770
26.17215 748
26.19227 742
26.21238 705
26.23249 726
26.25261 781
26.27272 843
26.29283 851
26.31295 886
26.33306 949
26.35318 1029
26.37329 1105
26.3934 1257
26.41352 1368
26.43363 1648
26.45374 2108
26.47386 2604
26.49397 3591
26.51409 4758
26.5342 6439
26.55431 8423
26.57443 10521
26.59454 12236
26.61465 12235
26.63477 11259
26.65488 9885
26.67499 7408
26.69511 5622
26.71522 3982
26.73534 2640
26.75545 1869
26.77556 1302
26.79568 1062
26.81579 1013
26.8359 1035
26.85602 919
26.87613 801
26.89625 847
26.91636 808
26.93647 775
26.95659 792
26.9767 747
26.99681 791
27.01693 694
27.03704 673
27.05716 691
27.07727 705
27.09738 679
27.1175 672
27.13761 603
27.15772 608
27.17784 627
27.19795 600
27.21806 666
27.23818 604
27.25829 620
27.27841 572
27.29852 614
27.31863 614
27.33875 598
27.35886 587
27.37897 650
27.39909 651
27.4192 672
27.43932 616
27.45943 628
27.47954 640
27.49966 614
27.51977 625
27.53988 603
27.56 583
27.58011 616
27.60023 597
27.62034 666
27.64045 646
27.66057 611
27.68068 619
27.70079 608
27.72091 578
27.74102 640
27.76113 627
27.78125 610
27.80136 580
27.82148 607
27.84159 563
27.8617 567
27.88182 599
27.90193 560
27.92204 576
27.94216 591
27.96227 581
27.98239 562
28.0025 558
28.02261 588
28.04273 492
28.06284 568
28.08295 520
28.10307 497
28.12318 522
28.1433 521
28.16341 489
28.18352 539
28.20364 489
28.22375 500
28.24386 481
28.26398 490
28.28409 495
28.3042 536
28.32432 534
28.34443 477
28.36455 503
28.38466 450
28.40477 477
28.42489 487
28.445 484
28.46511 445
28.48523 450
28.50534 462
28.52546 461
28.54557 492
28.56568 500
28.5858 486
28.60591 502
28.62602 508
28.64614 489
28.66625 473
28.68636 511
28.70648 481
28.72659 441
28.74671 436
28.76682 425
28.78693 458
28.80705 452
28.82716 466
28.84727 444
28.86739 450
28.8875 472
28.90762 432
28.92773 451
28.94784 429
28.96796 502
28.98807 421
29.00818 446
29.0283 424
29.04841 470
29.06853 438
29.08864 445
29.10875 449
29.12887 466
29.14898 531
29.16909 442
29.18921 466
29.20932 411
29.22943 462
29.24955 463
29.26966 431
29.28978 496
29.30989 469
29.33 458
29.35012 464
29.37023 478
29.39034 510
29.41046 455
29.43057 445
29.45069 463
29.4708 490
29.49091 462
29.51103 480
29.53114 452
29.55125 448
29.57137 484
29.59148 457
29.6116 484
29.63171 498
29.65182 481
29.67194 481
29.69205 470
29.71216 479
29.73228 490
29.75239 448
29.7725 469
29.79262 460
29.81273 449
29.83285 495
29.85296 450
29.87307 468
29.89319 492
29.9133 463
29.93341 470
29.95353 484
29.97364 487
29.99376 451
30.01387 445
30.03398 447
30.0541 457
30.07421 458
30.09432 480
30.11444 446
30.13455 450
30.15467 440
30.17478 457
30.19489 449
30.21501 457
30.23512 497
30.25523 506
30.27535 498
30.29546 489
30.31557 469
30.33569 513
30.3558 434
30.37592 448
30.39603 440
30.41614 498
30.43626 440
30.45637 466
30.47648 460
30.4966 470
30.51671 443
30.53683 459
30.55694 438
30.57705 457
30.59717 455
30.61728 453
30.63739 458
30.65751 464
30.67762 480
30.69773 472
30.71785 451
30.73796 455
30.75808 511
30.77819 464
30.7983 469
30.81842 466
30.83853 457
30.85864 462
30.87876 455
30.89887 436
30.91899 451
30.9391 430
30.95921 470
30.97933 501
30.99944 426
31.01955 425
31.03967 445
31.05978 391
31.0799 414
31.10001 468
31.12012 436
31.14024 417
31.16035 416
31.18046 467
31.20058 459
31.22069 456
31.2408 408
31.26092 441
31.28103 449
31.30115 448
31.32126 447
31.34137 402
31.36149 459
31.3816 406
31.40171 441
31.42183 475
31.44194 438
31.46206 471
31.48217 462
31.50228 421
31.5224 462
31.54251 429
31.56262 451
31.58274 444
31.60285 430
31.62297 412
31.64308 434
31.66319 444
31.68331 422
31.70342 404
31.72353 415
31.74365 438
31.76376 439
31.78387 419
31.80399 427
31.8241 412
31.84422 414
31.86433 435
31.88444 381
31.90456 413
31.92467 446
31.94478 436
31.9649 447
31.98501 452
32.00513 430
32.02524 431
32.04535 412
32.06547 450
32.08558 435
32.10569 405
32.12581 431
32.14592 437
32.16604 398
32.18615 449
32.20626 447
32.22638 454
32.24649 437
32.2666 482
32.28672 474
32.30683 523
32.32694 486
32.34706 481
32.36717 539
32.38729 527
32.4074 513
32.42751 551
32.44763 567
32.46774 574
32.48785 575
32.50797 653
32.52808 637
32.5482 585
32.56831 647
32.58842 635
32.60854 564
32.62865 634
32.64876 581
32.66888 575
32.68899 557
32.7091 560
32.72922 502
32.74933 480
32.76945 514
32.78956 503
32.80967 438
32.82979 457
32.8499 499
32.87001 478
32.89013 474
32.91024 474
32.93036 419
32.95047 452
32.97058 453
32.9907 459
33.01081 452
33.03092 519
33.05104 456
33.07115 452
33.09127 469
33.11138 484
33.13149 495
33.15161 422
33.17172 471
33.19183 453
33.21195 484
33.23206 468
33.25217 432
33.27229 458
33.2924 451
33.31252 462
33.33263 466
33.35274 500
33.37286 464
33.39297 477
33.41308 530
33.4332 458
33.45331 506
33.47343 504
33.49354 467
33.51365 459
33.53377 443
33.55388 468
33.57399 443
33.59411 435
33.61422 447
33.63434 469
33.65445 483
33.67456 439
33.69468 454
33.71479 465
33.7349 462
33.75502 472
33.77513 412
33.79524 502
33.81536 466
33.83547 456
33.85559 423
33.8757 436
33.89581 462
33.91593 454
33.93604 482
33.95615 450
33.97627 440
33.99638 424
34.0165 436
34.03661 449
34.05672 491
34.07684 432
34.09695 458
34.11706 462
34.13718 448
34.15729 445
34.17741 455
34.19752 453
34.21763 463
34.23775 452
34.25786 437
34.27797 456
34.29809 490
34.3182 484
34.33831 441
34.35843 490
34.37854 492
34.39866 457
34.41877 536
34.43888 463
34.459 491
34.47911 504
34.49922 498
34.51934 530
34.53945 508
34.55957 525
34.57968 497
34.59979 516
34.61991 516
34.64002 595
34.66013 563
34.68025 586
34.70036 571
34.72047 566
34.74059 548
34.7607 585
34.78082 638
34.80093 590
34.82104 614
34.84116 611
34.86127 665
34.88138 649
34.9015 668
34.92161 673
34.94173 700
34.96184 647
34.98195 668
35.00207 596
35.02218 612
35.04229 641
35.06241 644
35.08252 626
35.10264 631
35.12275 612
35.14286 675
35.16298 698
35.18309 636
35.2032 737
35.22332 715
35.24343 714
35.26354 707
35.28366 658
35.30377 679
35.32389 696
35.344 667
35.36411 612
35.38423 630
35.40434 715
35.42445 678
35.44457 670
35.46468 679
35.4848 592
35.50491 650
35.52502 667
35.54514 630
35.56525 605
35.58536 647
35.60548 618
35.62559 586
35.64571 582
35.66582 605
35.68593 638
35.70605 605
35.72616 627
35.74627 634
35.76639 611
35.7865 604
35.80661 625
35.82673 624
35.84684 609
35.86696 645
35.88707 569
35.90718 600
35.9273 591
35.94741 619
35.96752 607
35.98764 575
36.00775 594
36.02787 627
36.04798 571
36.06809 556
36.08821 580
36.10832 606
36.12843 538
36.14855 575
36.16866 579
36.18878 587
36.20889 617
36.229 584
36.24912 593
36.26923 623
36.28934 654
36.30946 633
36.32957 714
36.34968 694
36.3698 761
36.38991 863
36.41003 881
36.43014 1053
36.45025 1104
36.47037 1326
36.49048 1292
36.51059 1298
36.53071 1257
36.55082 1173
36.57094 1082
36.59105 1020
36.61116 956
36.63128 884
36.65139 795
36.6715 679
36.69162 665
36.71173 677
36.73184 685
36.75196 688
36.77207 655
36.79219 637
36.8123 610
36.83241 641
36.85253 625
36.87264 693
36.89275 625
36.91287 679
36.93298 628
36.9531 637
36.97321 664
36.99332 615
37.01344 618
37.03355 602
37.05366 605
37.07378 594
37.09389 611
37.11401 615
37.13412 617
37.15423 598
37.17435 582
37.19446 580
37.21457 632
37.23469 571
37.2548 564
37.27491 530
37.29503 500
37.31514 571
37.33526 578
37.35537 525
37.37548 574
37.3956 537
37.41571 560
37.43582 547
37.45594 557
37.47605 521
37.49617 569
37.51628 528
37.53639 519
37.55651 527
37.57662 565
37.59673 490
37.61685 595
37.63696 546
37.65708 553
37.67719 555
37.6973 586
37.71742 551
37.73753 587
37.75764 585
37.77776 539
37.79787 553
37.81798 583
37.8381 569
37.85821 517
37.87833 544
37.89844 557
37.91855 531
37.93867 556
37.95878 543
37.97889 559
37.99901 504
38.01912 509
38.03924 527
38.05935 508
38.07946 556
38.09958 583
38.11969 540
38.1398 511
38.15992 536
38.18003 547
38.20015 555
38.22026 543
38.24037 581
38.26049 576
38.2806 541
38.30071 595
38.32083 588
38.34094 536
38.36105 506
38.38117 527
38.40128 537
38.4214 518
38.44151 554
38.46162 513
38.48174 528
38.50185 509
38.52196 560
38.54208 513
38.56219 518
38.58231 546
38.60242 538
38.62253 517
38.64265 515
38.66276 534
38.68287 517
38.70299 519
38.7231 540
38.74321 512
38.76333 516
38.78344 507
38.80356 509
38.82367 512
38.84378 505
38.8639 528
38.88401 501
38.90412 506
38.92424 465
38.94435 531
38.96447 482
38.98458 500
39.00469 525
39.02481 496
39.04492 491
39.06503 525
39.08515 523
39.10526 518
39.12538 503
39.14549 468
39.1656 548
39.18572 505
39.20583 526
39.22594 563
39.24606 581
39.26617 614
39.28628 626
39.3064 701
39.32651 754
39.34663 897
39.36674 962
39.38685 1108
39.40697 1149
39.42708 1159
39.44719 1128
39.46731 989
39.48742 918
39.50754 856
39.52765 814
39.54776 800
39.56788 691
39.58799 618
39.6081 542
39.62822 497
39.64833 564
39.66845 514
39.68856 500
39.70867 504
39.72879 504
39.7489 472
39.76901 514
39.78913 486
39.80924 451
39.82935 533
39.84947 445
39.86958 489
39.8897 474
39.90981 479
39.92992 479
39.95004 515
39.97015 489
39.99026 521
40.01038 506
40.03049 536
40.05061 472
40.07072 526
40.09083 561
40.11095 539
40.13106 544
40.15117 595
40.17129 670
40.1914 776
40.21152 815
40.23163 779
40.25174 838
40.27186 874
40.29197 784
40.31208 709
40.3322 672
40.35231 670
40.37242 675
40.39254 614
40.41265 584
40.43277 526
40.45288 496
40.47299 486
40.49311 511
40.51322 552
40.53333 507
40.55345 473
40.57356 478
40.59368 478
40.61379 472
40.6339 492
40.65402 455
40.67413 470
40.69424 472
40.71436 469
40.73447 448
40.75458 463
40.7747 468
40.79481 501
40.81493 446
40.83504 474
40.85515 473
40.87527 446
40.89538 460
40.91549 474
40.93561 489
40.95572 456
40.97584 482
40.99595 485
41.01606 480
41.03618 469
41.05629 473
41.0764 467
41.09652 443
41.11663 490
41.13675 474
41.15686 467
41.17697 489
41.19709 444
41.2172 473
41.23731 470
41.25743 466
41.27754 474
41.29765 451
41.31777 496
41.33788 480
41.358 506
41.37811 480
41.39822 505
41.41834 481
41.43845 488
41.45856 462
41.47868 507
41.49879 470
41.51891 503
41.53902 476
41.55913 432
41.57925 478
41.59936 434
41.61947 475
41.63959 461
41.6597 561
41.67982 449
41.69993 456
41.72004 463
41.74016 448
41.76027 459
41.78038 468
41.8005 452
41.82061 468
41.84072 449
41.86084 466
41.88095 455
41.90107 464
41.92118 456
41.94129 450
41.96141 482
41.98152 437
42.00163 410
42.02175 445
42.04186 426
42.06198 471
42.08209 457
42.1022 441
42.12232 477
42.14243 482
42.16254 473
42.18266 459
42.20277 461
42.22289 476
42.243 498
42.26311 539
42.28323 562
42.30334 596
42.32345 749
42.34357 718
42.36368 858
42.38379 922
42.40391 894
42.42402 937
42.44414 811
42.46425 771
42.48436 683
42.50448 681
42.52459 684
42.5447 625
42.56482 535
42.58493 526
42.60505 480
42.62516 440
42.64527 451
42.66539 447
42.6855 459
42.70561 431
42.72573 443
42.74584 412
42.76595 453
42.78607 427
42.80618 390
42.8263 455
42.84641 407
42.86652 413
42.88664 423
42.90675 390
42.92686 470
42.94698 423
42.96709 438
42.98721 439
43.00732 411
43.02743 405
43.04755 468
43.06766 391
43.08777 432
43.10789 468
43.128 434
43.14812 441
43.16823 397
43.18834 406
43.20846 410
43.22857 403
43.24868 443
43.2688 460
43.28891 398
43.30902 436
43.32914 397
43.34925 419
43.36937 387
43.38948 428
43.40959 383
43.42971 444
43.44982 416
43.46993 421
43.49005 446
43.51016 432
43.53028 421
43.55039 398
43.5705 417
43.59062 433
43.61073 385
43.63084 397
43.65096 421
43.67107 410
43.69119 409
43.7113 404
43.73141 397
43.75153 408
43.77164 420
43.79175 417
43.81187 412
43.83198 390
43.85209 434
43.87221 447
43.89232 412
43.91244 394
43.93255 372
43.95266 414
43.97278 391
43.99289 369
44.013 407
44.03312 395
44.05323 392
44.07335 407
44.09346 428
44.11357 450
44.13369 407
44.1538 369
44.17391 422
44.19403 442
44.21414 423
44.23426 395
44.25437 410
44.27448 427
44.2946 431
44.31471 424
44.33482 392
44.35494 427
44.37505 409
44.39516 419
44.41528 428
44.43539 456
44.45551 414
44.47562 403
44.49573 431
44.51585 390
44.53596 413
44.55607 413
44.57619 409
44.5963 410
44.61642 384
44.63653 403
44.65664 431
44.67676 400
44.69687 409
44.71698 387
44.7371 407
44.75721 425
44.77732 442
44.79744 377
44.81755 404
44.83767 402
44.85778 426
44.87789 433
44.89801 388
44.91812 382
44.93823 443
44.95835 387
44.97846 479
44.99858 439
45.01869 433
45.0388 395
45.05892 448
45.07903 412
45.09914 446
45.11926 439
45.13937 417
45.15949 445
45.1796 393
45.19971 449
45.21983 437
45.23994 454
45.26005 447
45.28017 447
45.30028 414
45.32039 425
45.34051 478
45.36062 431
45.38074 411
45.40085 473
45.42096 438
45.44108 464
45.46119 449
45.4813 443
45.50142 468
45.52153 485
45.54165 430
45.56176 478
45.58187 494
45.60199 458
45.6221 522
45.64221 541
45.66233 550
45.68244 649
45.70256 690
45.72267 702
45.74278 764
45.7629 753
45.78301 672
45.80312 678
45.82324 611
45.84335 604
45.86346 588
45.88358 530
45.90369 516
45.92381 485
45.94392 444
45.96403 481
45.98415 431
46.00426 444
46.02437 435
46.04449 423
46.0646 417
46.08472 458
46.10483 425
46.12494 461
46.14506 451
46.16517 429
46.18528 469
46.2054 407
46.22551 432
46.24563 406
46.26574 438
46.28585 442
46.30597 443
46.32608 457
46.34619 396
46.36631 402
46.38642 418
46.40653 417
46.42665 400
46.44676 382
46.46688 391
46.48699 415
46.5071 375
46.52722 420
46.54733 421
46.56744 418
46.58756 428
46.60767 387
46.62779 404
46.6479 414
46.66801 418
46.68813 428
46.70824 355
46.72835 410
46.74847 428
46.76858 412
46.78869 394
46.80881 406
46.82892 424
46.84904 398
46.86915 409
46.88926 440
46.90938 404
46.92949 421
46.9496 406
46.96972 421
46.98983 375
47.00995 379
47.03006 386
47.05017 439
47.07029 437
47.0904 427
47.11051 416
47.13063 404
47.15074 423
47.17086 410
47.19097 410
47.21108 418
47.2312 398
47.25131 431
47.27142 389
47.29154 421
47.31165 391
47.33176 427
47.35188 385
47.37199 411
47.39211 424
47.41222 428
47.43233 421
47.45245 434
47.47256 404
47.49267 424
47.51279 441
47.5329 396
47.55302 428
47.57313 437
47.59324 401
47.61336 391
47.63347 395
47.65358 426
47.6737 398
47.69381 412
47.71393 415
47.73404 416
47.75415 411
47.77427 417
47.79438 435
47.81449 437
47.83461 424
47.85472 426
47.87483 418
47.89495 410
47.91506 426
47.93518 400
47.95529 421
47.9754 423
47.99552 422
48.01563 418
48.03574 424
48.05586 411
48.07597 389
48.09609 410
48.1162 404
48.13631 421
48.15643 421
48.17654 404
48.19665 440
48.21677 407
48.23688 430
48.257 397
48.27711 373
48.29722 394
48.31734 402
48.33745 427
48.35756 417
48.37768 415
48.39779 424
48.4179 403
48.43802 431
48.45813 395
48.47825 408
48.49836 420
48.51847 407
48.53859 422
48.5587 442
48.57881 408
48.59893 445
48.61904 474
48.63916 404
48.65927 441
48.67938 469
48.6995 447
48.71961 424
48.73972 433
48.75984 444
48.77995 461
48.80006 420
48.82018 441
48.84029 426
48.86041 427
48.88052 430
48.90063 429
48.92075 435
48.94086 400
48.96097 408
48.98109 428
49.0012 456
49.02132 426
49.04143 380
49.06154 418
49.08166 437
49.10177 411
49.12188 419
49.142 425
49.16211 427
49.18223 405
49.20234 430
49.22245 423
49.24257 390
49.26268 419
49.28279 359
49.30291 412
49.32302 410
49.34313 424
49.36325 385
49.38336 395
49.40348 428
49.42359 406
49.4437 407
49.46382 412
49.48393 392
49.50404 456
49.52416 427
49.54427 397
49.56439 423
49.5845 422
49.60461 422
49.62473 413
49.64484 406
49.66495 436
49.68507 466
49.70518 408
49.7253 450
49.74541 409
49.76552 456
49.78564 470
49.80575 441
49.82586 505
49.84598 488
49.86609 525
49.8862 537
49.90632 585
49.92643 590
49.94655 737
49.96666 819
49.98677 852
50.00689 1006
50.027 1172
50.04711 1336
50.06723 1533
50.08734 1544
50.10746 1602
50.12757 1414
50.14768 1196
50.1678 1111
50.18791 981
50.20802 1024
50.22814 948
50.24825 906
50.26837 797
50.28848 646
50.30859 531
50.32871 542
50.34882 455
50.36893 443
50.38905 484
50.40916 483
50.42927 480
50.44939 451
50.4695 453
50.48962 433
50.50973 448
50.52984 481
50.54996 469
50.57007 472
50.59018 446
50.6103 443
50.63041 493
50.65053 408
50.67064 449
50.69075 437
50.71087 443
50.73098 420
50.75109 455
50.77121 460
50.79132 389
50.81143 441
50.83155 426
50.85166 434
50.87178 424
50.89189 450
50.912 423
50.93212 432
50.95223 369
50.97234 395
50.99246 427
51.01257 392
51.03269 406
51.0528 400
51.07291 429
51.09303 414
51.11314 416
51.13325 406
51.15337 437
51.17348 369
51.1936 383
51.21371 396
51.23382 398
51.25394 413
51.27405 406
51.29416 392
51.31428 388
51.33439 406
51.3545 418
51.37462 372
51.39473 406
51.41485 405
51.43496 392
51.45507 379
51.47519 405
51.4953 394
51.51541 385
51.53553 390
51.55564 412
51.57576 366
51.59587 391
51.61598 389
51.6361 404
51.65621 380
51.67632 373
51.69644 375
51.71655 407
51.73667 378
51.75678 383
51.77689 358
51.79701 408
51.81712 404
51.83723 401
51.85735 353
51.87746 403
51.89757 385
51.91769 397
51.9378 405
51.95792 395
51.97803 396
51.99814 357
52.01826 403
52.03837 395
52.05848 421
52.0786 388
52.09871 392
52.11883 407
52.13894 405
52.15905 408
52.17917 408
52.19928 378
52.21939 398
52.23951 427
52.25962 367
52.27974 388
52.29985 390
52.31996 433
52.34008 393
52.36019 359
52.3803 422
52.40042 386
52.42053 362
52.44064 456
52.46076 398
52.48087 396
52.50099 427
52.5211 376
52.54121 407
52.56133 411
52.58144 382
52.60155 400
52.62167 384
52.64178 422
52.6619 399
52.68201 431
52.70212 407
52.72224 390
52.74235 412
52.76246 381
52.78258 375
52.80269 398
52.8228 409
52.84292 394
52.86303 401
52.88315 441
52.90326 439
52.92337 447
52.94349 452
52.9636 445
52.98371 439
53.00383 440
53.02394 524
53.04406 457
53.06417 508
53.08428 463
53.1044 491
53.12451 496
53.14462 504
53.16474 534
53.18485 495
53.20497 463
53.22508 481
53.24519 440
53.26531 493
53.28542 492
53.30553 453
53.32565 477
53.34576 489
53.36587 446
53.38599 488
53.4061 455
53.42622 462
53.44633 509
53.46644 467
53.48656 470
53.50667 470
53.52678 481
53.5469 472
53.56701 515
53.58713 474
53.60724 490
53.62735 520
53.64747 440
53.66758 468
53.68769 448
53.70781 497
53.72792 474
53.74804 455
53.76815 440
53.78826 472
53.80838 461
53.82849 508
53.8486 496
53.86872 479
53.88883 457
53.90894 475
53.92906 471
53.94917 443
53.96929 453
53.9894 447
54.00951 458
54.02963 466
54.04974 481
54.06985 449
54.08997 447
54.11008 469
54.1302 506
54.15031 441
54.17042 464
54.19054 472
54.21065 462
54.23076 462
54.25088 467
54.27099 461
54.29111 476
54.31122 467
54.33133 465
54.35145 471
54.37156 501
54.39167 480
54.41179 489
54.4319 462
54.45201 474
54.47213 454
54.49224 477
54.51236 469
54.53247 473
54.55258 479
54.5727 480
54.59281 476
54.61292 478
54.63304 474
54.65315 481
54.67327 561
54.69338 546
54.71349 562
54.73361 656
54.75372 683
54.77383 713
54.79395 771
54.81406 801
54.83417 768
54.85429 717
54.8744 640
54.89452 644
54.91463 614
54.93474 619
54.95486 574
54.97497 548
54.99508 573
55.0152 562
55.03531 522
55.05543 494
55.07554 466
55.09565 464
55.11577 515
55.13588 516
55.15599 479
55.17611 495
55.19622 541
55.21634 595
55.23645 591
55.25656 561
55.27668 601
55.29679 543
55.3169 518
55.33702 489
55.35713 505
55.37724 490
55.39736 535
55.41747 531
55.43759 473
55.4577 453
55.47781 492
55.49793 436
55.51804 473
55.53815 462
55.55827 424
55.57838 454
55.5985 467
55.61861 449
55.63872 423
55.65884 440
55.67895 465
55.69906 473
55.71918 441
55.73929 429
55.75941 438
55.77952 391
55.79963 430
55.81975 403
55.83986 410
55.85997 416
55.88009 437
55.9002 410
55.92031 405
55.94043 458
55.96054 457
55.98066 424
56.00077 415
56.02088 439
56.041 437
56.06111 414
56.08122 437
56.10134 409
56.12145 409
56.14157 399
56.16168 417
56.18179 418
56.20191 422
56.22202 409
56.24213 441
56.26225 403
56.28236 430
56.30248 411
56.32259 455
56.3427 416
56.36282 421
56.38293 443
56.40304 445
56.42316 469
56.44327 404
56.46338 414
56.4835 416
56.50361 419
56.52373 419
56.54384 393
56.56395 439
56.58407 405
56.60418 446
56.62429 424
56.64441 401
56.66452 398
56.68464 402
56.70475 395
56.72486 432
56.74498 437
56.76509 410
56.7852 435
56.80532 379
56.82543 414
56.84554 421
56.86566 425
56.88577 413
56.90589 456
56.926 402
56.94611 413
56.96623 419
56.98634 372
57.00645 413
57.02657 401
57.04668 397
57.0668 400
57.08691 433
57.10702 442
57.12714 383
57.14725 410
57.16736 432
57.18748 432
57.20759 404
57.22771 441
57.24782 393
57.26793 420
57.28805 428
57.30816 417
57.32827 431
57.34839 415
57.3685 380
57.38861 380
57.40873 414
57.42884 403
57.44896 398
57.46907 388
57.48918 431
57.5093 397
57.52941 409
57.54952 382
57.56964 412
57.58975 423
57.60987 393
57.62998 395
57.65009 406
57.67021 429
57.69032 398
57.71043 403
57.73055 380
57.75066 421
57.77078 418
57.79089 384
57.811 430
57.83112 396
57.85123 381
57.87134 409
57.89146 387
57.91157 374
57.93168 358
57.9518 421
57.97191 399
57.99203 397
58.01214 404
58.03225 420
58.05237 379
58.07248 366
58.09259 398
58.11271 361
58.13282 396
58.15294 454
58.17305 381
58.19316 376
58.21328 404
58.23339 382
58.2535 408
58.27362 418
58.29373 362
58.31385 384
58.33396 362
58.35407 413
58.37419 392
58.3943 399
58.41441 401
58.43453 400
58.45464 410
58.47475 446
58.49487 426
58.51498 405
58.5351 373
58.55521 396
58.57532 411
58.59544 397
58.61555 400
58.63566 390
58.65578 418
58.67589 394
58.69601 383
58.71612 429
58.73623 417
58.75635 411
58.77646 403
58.79657 397
58.81669 423
58.8368 413
58.85691 413
58.87703 385
58.89714 360
58.91726 436
58.93737 388
58.95748 411
58.9776 381
58.99771 417
59.01782 430
59.03794 417
59.05805 387
59.07817 408
59.09828 420
59.11839 409
59.13851 385
59.15862 427
59.17873 394
59.19885 396
59.21896 412
59.23908 442
59.25919 411
59.2793 376
59.29942 412
59.31953 438
59.33964 444
59.35976 397
59.37987 407
59.39998 360
59.4201 424
59.44021 397
59.46033 419
59.48044 401
59.50055 432
59.52067 424
59.54078 447
59.56089 455
59.58101 493
59.60112 464
59.62124 502
59.64135 455
59.66146 502
59.68158 478
59.70169 518
59.7218 554
59.74192 593
59.76203 629
59.78215 711
59.80226 741
59.82237 864
59.84249 965
59.8626 1053
59.88271 1173
59.90283 1118
59.92294 1058
59.94305 908
59.96317 844
59.98328 842
60.0034 776
60.02351 788
60.04362 851
60.06374 778
60.08385 726
60.10396 668
60.12408 602
60.14419 533
60.16431 488
60.18442 488
60.20453 456
60.22465 458
60.24476 427
60.26487 445
60.28499 430
60.3051 398
60.32522 391
60.34533 400
60.36544 416
60.38556 380
60.40567 393
60.42578 421
60.4459 444
60.46601 391
60.48612 410
60.50624 400
60.52635 393
60.54647 411
60.56658 398
60.58669 416
60.60681 393
60.62692 429
60.64703 416
60.66715 423
60.68726 445
60.70738 392
60.72749 404
60.7476 407
60.76772 375
60.78783 398
60.80794 417
60.82806 417
60.84817 417
60.86828 390
60.8884 399
60.90851 379
60.92863 394
60.94874 453
60.96885 412
60.98897 399
61.00908 408
61.02919 411
61.04931 408
61.06942 397
61.08954 401
61.10965 426
61.12976 469
61.14988 417
61.16999 434
61.1901 415
61.21022 462
61.23033 435
61.25045 413
61.27056 451
61.29067 445
61.31079 466
61.3309 440
61.35101 421
61.37113 489
61.39124 421
61.41135 439
61.43147 427
61.45158 450
61.4717 438
61.49181 461
61.51192 477
61.53204 491
61.55215 458
61.57226 477
61.59238 509
61.61249 451
61.63261 482
61.65272 475
61.67283 513
61.69295 436
61.71306 458
61.73317 453
61.75329 468
61.7734 479
61.79352 487
61.81363 499
61.83374 484
61.85386 512
61.87397 495
61.89408 472
61.9142 519
61.93431 518
61.95442 503
61.97454 474
61.99465 549
62.01477 498
62.03488 510
62.05499 512
62.07511 526
62.09522 509
62.11533 516
62.13545 509
62.15556 491
62.17568 508
62.19579 532
62.2159 501
62.23602 487
62.25613 536
62.27624 538
62.29636 451
62.31647 499
62.33659 464
62.3567 499
62.37681 479
62.39693 467
62.41704 456
62.43715 449
62.45727 484
62.47738 460
62.49749 443
62.51761 467
62.53772 454
62.55784 430
62.57795 440
62.59806 456
62.61818 416
62.63829 419
62.6584 437
62.67852 396
62.69863 391
62.71875 423
62.73886 446
62.75897 411
62.77909 433
62.7992 430
62.81931 420
62.83943 436
62.85954 430
62.87965 426
62.89977 439
62.91988 414
62.94 429
62.96011 409
62.98022 431
63.00034 434
63.02045 406
63.04056 400
63.06068 424
63.08079 420
63.10091 462
63.12102 421
63.14113 412
63.16125 446
63.18136 476
63.20147 436
63.22159 432
63.2417 420
63.26182 475
63.28193 400
63.30204 426
63.32216 494
63.34227 431
63.36238 406
63.3825 461
63.40261 442
63.42272 429
63.44284 408
63.46295 432
63.48307 446
63.50318 426
63.52329 401
63.54341 405
63.56352 404
63.58363 430
63.60375 416
63.62386 415
63.64398 392
63.66409 405
63.6842 437
63.70432 423
63.72443 429
63.74454 392
63.76466 437
63.78477 420
63.80489 407
63.825 459
63.84511 435
63.86523 455
63.88534 477
63.90545 469
63.92557 506
63.94568 510
63.96579 519
63.98591 517
64.00602 485
64.02614 467
64.04625 420
64.06636 484
64.08648 439
64.10659 450
64.1267 459
64.14682 425
64.16693 443
64.18705 440
64.20716 458
64.22727 405
64.24739 415
64.2675 408
64.28761 409
64.30773 405
64.32784 403
64.34796 379
64.36807 412
64.38818 396
64.4083 384
64.42841 356
64.44852 376
64.46864 376
64.48875 394
64.50886 357
64.52898 381
64.54909 351
64.56921 375
64.58932 399
64.60943 375
64.62955 398
64.64966 399
64.66977 399
64.68989 405
64.71 405
64.73012 380
64.75023 375
64.77034 393
64.79046 390
64.81057 381
64.83068 389
64.8508 351
64.87091 374
64.89102 373
64.91114 413
64.93125 365
64.95137 371
64.97148 385
64.99159 365
65.01171 377
65.03182 403
65.05193 356
65.07205 365
65.09216 401
65.11228 370
65.13239 397
65.1525 366
65.17262 370
65.19273 362
65.21284 384
65.23296 360
65.25307 361
65.27319 354
65.2933 380
65.31341 330
65.33353 401
65.35364 345
65.37375 408
65.39387 360
65.41398 358
65.43409 359
65.45421 355
65.47432 391
65.49444 386
65.51455 378
65.53466 348
65.55478 355
65.57489 382
65.595 377
65.61512 370
65.63523 400
65.65535 397
65.67546 391
65.69557 410
65.71569 407
65.7358 416
65.75591 400
65.77603 401
65.79614 375
65.81626 394
65.83637 394
65.85648 396
65.8766 375
65.89671 376
65.91682 389
65.93694 364
65.95705 375
65.97716 371
65.99728 372
66.01739 386
66.03751 360
66.05762 333
66.07773 371
66.09785 343
66.11796 357
66.13807 357
66.15819 365
66.1783 348
66.19842 389
66.21853 405
66.23864 347
66.25876 360
66.27887 326
66.29898 352
66.3191 389
66.33921 364
66.35933 376
66.37944 379
66.39955 366
66.41967 358
66.43978 360
66.45989 373
66.48001 368
66.50012 360
66.52023 365
66.54035 393
66.56046 387
66.58058 396
66.60069 381
66.6208 407
66.64092 391
66.66103 334
66.68114 369
66.70126 351
66.72137 362
66.74149 351
66.7616 366
66.78171 324
66.80183 355
66.82194 387
66.84205 365
66.86217 358
66.88228 391
66.90239 408
66.92251 368
66.94262 375
66.96274 355
66.98285 369
67.00296 373
67.02308 388
67.04319 376
67.0633 383
67.08342 347
67.10353 343
67.12365 385
67.14376 360
67.16387 397
67.18399 399
67.2041 355
67.22421 420
67.24433 397
67.26444 384
67.28456 417
67.30467 406
67.32478 394
67.3449 380
67.36501 390
67.38512 410
67.40524 413
67.42535 433
67.44546 435
67.46558 485
67.48569 434
67.50581 493
67.52592 474
67.54603 512
67.56615 560
67.58626 608
67.60637 660
67.62649 690
67.6466 814
67.66672 819
67.68683 797
67.70694 770
67.72706 723
67.74717 639
67.76728 631
67.7874 578
67.80751 590
67.82763 659
67.84774 654
67.86785 627
67.88797 687
67.90808 629
67.92819 659
67.94831 633
67.96842 636
67.98853 692
68.00865 733
68.02876 748
68.04888 855
68.06899 904
68.0891 915
68.10922 893
68.12933 850
68.14944 837
68.16956 821
68.18967 786
68.20979 811
68.2299 855
68.25001 878
68.27013 872
68.29024 824
68.31035 748
68.33047 697
68.35058 581
68.3707 564
68.39081 574
68.41092 543
68.43104 560
68.45115 557
68.47126 545
68.49138 522
68.51149 489
68.5316 414
68.55172 407
68.57183 420
68.59195 383
68.61206 399
68.63217 358
68.65229 369
68.6724 411
68.69251 395
68.71263 433
68.73274 374
68.75286 422
68.77297 403
68.79308 415
68.8132 359
68.83331 392
68.85342 399
68.87354 380
68.89365 375
68.91376 391
68.93388 399
68.95399 351
68.97411 358
68.99422 392
69.01433 365
69.03445 388
69.05456 393
69.07467 367
69.09479 381
69.1149 392
69.13502 377
69.15513 396
69.17524 403
69.19536 384
69.21547 356
69.23558 354
69.2557 369
69.27581 315
69.29593 390
69.31604 362
69.33615 365
69.35627 354
69.37638 383
69.39649 350
69.41661 378
69.43672 353
69.45683 393
69.47695 347
69.49706 342
69.51718 378
69.53729 399
69.5574 411
69.57752 356
69.59763 376
69.61774 349
69.63786 340
69.65797 363
69.67809 361
69.6982 353
69.71831 367
69.73843 363
69.75854 374
69.77865 350
69.79877 374
69.81888 350
69.839 366
69.85911 384
69.87922 386
69.89934 356
69.91945 366
69.93956 367
69.95968 380
69.97979 370
69.9999 342
70.02002 370
70.04013 359
70.06025 364
70.08036 383
70.10047 359
70.12059 365
70.1407 352
70.16081 400
70.18093 405
70.20104 355
70.22116 384
70.24127 356
70.26138 350
70.2815 357
70.30161 340
70.32172 380
70.34184 350
70.36195 377
70.38207 345
70.40218 344
70.42229 355
70.44241 340
70.46252 362
70.48263 350
70.50275 381
70.52286 327
70.54297 359
70.56309 357
70.5832 347
70.60332 367
70.62343 350
70.64354 365
70.66366 365
70.68377 355
70.70388 366
70.724 376
70.74411 383
70.76423 325
70.78434 370
70.80445 370
70.82457 342
70.84468 359
70.86479 352
70.88491 330
70.90502 356
70.92513 360
70.94525 324
70.96536 344
70.98548 352
71.00559 337
71.0257 357
71.04582 350
71.06593 385
71.08604 351
71.10616 330
71.12627 359
71.14639 354
71.1665 358
71.18661 331
71.20673 352
71.22684 348
71.24695 350
71.26707 370
71.28718 323
71.3073 359
71.32741 376
71.34752 357
71.36764 377
71.38775 337
71.40786 357
71.42798 356
71.44809 366
71.4682 334
71.48832 362
71.50843 378
71.52855 380
71.54866 341
71.56877 332
71.58889 334
71.609 370
71.62911 324
71.64923 380
71.66934 354
71.68946 361
71.70957 388
71.72968 341
71.7498 350
71.76991 359
71.79002 354
71.81014 358
71.83025 410
71.85037 351
71.87048 369
71.89059 352
71.91071 383
71.93082 360
71.95093 366
71.97105 337
71.99116 389
72.01127 352
72.03139 364
72.0515 337
72.07162 381
72.09173 393
72.11184 362
72.13196 367
72.15207 345
72.17218 339
72.1923 376
72.21241 374
72.23253 382
72.25264 331
72.27275 328
72.29287 366
72.31298 350
72.33309 346
72.35321 312
72.37332 388
72.39344 337
72.41355 346
72.43366 347
72.45378 368
72.47389 337
72.494 388
72.51412 359
72.53423 374
72.55434 357
72.57446 385
72.59457 366
72.61469 377
72.6348 324
72.65491 369
72.67503 346
72.69514 343
72.71525 372
72.73537 357
72.75548 382
72.7756 394
72.79571 377
72.81582 354
72.83594 380
72.85605 362
72.87616 381
72.89628 371
72.91639 334
72.9365 365
72.95662 407
72.97673 379
72.99685 376
73.01696 358
73.03707 386
73.05719 395
73.0773 354
73.09741 358
73.11753 367
73.13764 393
73.15776 398
73.17787 375
73.19798 377
73.2181 400
73.23821 431
73.25832 434
73.27844 441
73.29855 420
73.31867 495
73.33878 430
73.35889 521
73.37901 521
73.39912 482
73.41923 521
73.43935 481
73.45946 499
73.47957 431
73.49969 458
73.5198 436
73.53992 449
73.56003 483
73.58014 426
73.60026 433
73.62037 429
73.64048 422
73.6606 398
73.68071 393
73.70083 386
73.72094 391
73.74105 391
73.76117 386
73.78128 351
73.80139 376
73.82151 332
73.84162 361
73.86174 361
73.88185 375
73.90196 318
73.92208 358
73.94219 370
73.9623 380
73.98242 367
74.00253 335
74.02264 331
74.04276 357
74.06287 345
74.08299 343
74.1031 361
74.12321 339
74.14333 385
74.16344 345
74.18355 334
74.20367 333
74.22378 330
74.2439 362
74.26401 392
74.28412 383
74.30424 382
74.32435 352
74.34446 365
74.36458 360
74.38469 377
74.40481 355
74.42492 348
74.44503 377
74.46515 354
74.48526 381
74.50537 362
74.52549 381
74.5456 362
74.56571 385
74.58583 350
74.60594 341
74.62606 366
74.64617 383
74.66628 344
74.6864 357
74.70651 367
74.72662 349
74.74674 379
74.76685 357
74.78697 356
74.80708 347
74.82719 371
74.84731 338
74.86742 336
74.88753 388
74.90765 332
74.92776 349
74.94787 349
74.96799 371
74.9881 357
75.00822 382
