3.00117 20691
3.02128 20049
3.0414 19477
3.06151 19105
3.08162 18417
3.10174 18258
3.12185 17441
3.14197 17370
3.16208 16564
3.18219 16117
3.20231 15615
3.22242 14927
3.24253 14936
3.26265 14153
3.28276 14077
3.30288 13431
3.32299 12904
3.3431 12796
3.36322 12070
3.38333 11668
3.40344 11254
3.42356 10749
3.44367 10593
3.46379 10164
3.4839 9858
3.50401 10005
3.52413 9271
3.54424 8998
3.56435 8686
3.58447 8377
3.60458 8339
3.62469 7709
3.64481 7515
3.66492 7292
3.68504 7000
3.70515 6952
3.72526 6307
3.74538 6382
3.76549 5954
3.7856 5684
3.80572 5446
3.82583 5156
3.84595 5086
3.86606 4874
3.88617 4684
3.90629 4511
3.9264 4343
3.94651 4176
3.96663 3882
3.98674 3907
4.00686 3703
4.02697 3339
4.04708 3292
4.0672 3212
4.08731 3156
4.10742 3036
4.12754 2779
4.14765 2699
4.16776 2657
4.18788 2591
4.20799 2523
4.22811 2241
4.24822 2343
4.26833 2233
4.28845 2146
4.30856 2167
4.32867 2005
4.34879 1924
4.3689 1962
4.38902 1883
4.40913 1803
4.42924 1721
4.44936 1712
4.46947 1700
4.48958 1728
4.5097 1718
4.52981 1535
4.54992 1549
4.57004 1543
4.59015 1482
4.61027 1482
4.63038 1447
4.65049 1394
4.67061 1404
4.69072 1246
4.71083 1396
4.73095 1230
4.75106 1272
4.77118 1332
4.79129 1228
4.8114 1240
4.83152 1097
4.85163 1135
4.87174 1132
4.89186 1098
4.91197 1042
4.93209 1055
4.9522 1046
4.97231 1030
4.99243 975
5.01254 1077
5.03265 939
5.05277 968
5.07288 945
5.09299 923
5.11311 907
5.13322 877
5.15334 873
5.17345 901
5.19356 860
5.21368 836
5.23379 876
5.2539 793
5.27402 820
5.29413 850
5.31425 718
5.33436 799
5.35447 729
5.37459 736
5.3947 725
5.41481 734
5.43493 705
5.45504 722
5.47516 655
5.49527 696
5.51538 702
5.5355 681
5.55561 614
5.57572 651
5.59584 662
5.61595 632
5.63606 594
5.65618 655
5.67629 606
5.69641 624
5.71652 594
5.73663 589
5.75675 611
5.77686 587
5.79697 557
5.81709 595
5.8372 555
5.85732 535
5.87743 552
5.89754 502
5.91766 522
5.93777 560
5.95788 542
5.978 590
5.99811 559
6.01823 583
6.03834 516
6.05845 566
6.07857 525
6.09868 544
6.11879 571
6.13891 508
6.15902 562
6.17913 543
6.19925 490
6.21936 525
6.23948 518
6.25959 528
6.2797 536
6.29982 509
6.31993 517
6.34004 515
6.36016 540
6.38027 498
6.40039 477
6.4205 485
6.44061 474
6.46073 483
6.48084 457
6.50095 462
6.52107 460
6.54118 491
6.56129 488
6.58141 465
6.60152 496
6.62164 468
6.64175 481
6.66186 446
6.68198 408
6.70209 455
6.7222 435
6.74232 485
6.76243 462
6.78255 469
6.80266 482
6.82277 404
6.84289 463
6.863 424
6.88311 411
6.90323 469
6.92334 437
6.94346 421
6.96357 452
6.98368 459
7.0038 415
7.02391 460
7.04402 463
7.06414 425
7.08425 454
7.10436 468
7.12448 433
7.14459 470
7.16471 459
7.18482 458
7.20493 430
7.22505 466
7.24516 441
7.26527 447
7.28539 449
7.3055 461
7.32562 441
7.34573 405
7.36584 412
7.38596 454
7.40607 439
7.42618 419
7.4463 395
7.46641 450
7.48653 425
7.50664 414
7.52675 423
7.54687 488
7.56698 426
7.58709 433
7.60721 402
7.62732 457
7.64743 421
7.66755 381
7.68766 428
7.70778 421
7.72789 453
7.748 403
7.76812 437
7.78823 403
7.80834 403
7.82846 444
7.84857 421
7.86869 368
7.8888 408
7.90891 445
7.92903 427
7.94914 427
7.96925 487
7.98937 416
8.00948 450
8.0296 411
8.04971 412
8.06982 392
8.08994 411
8.11005 424
8.13016 405
8.15028 395
8.17039 397
8.1905 419
8.21062 457
8.23073 423
8.25085 422
8.27096 458
8.29107 420
8.31119 459
8.3313 443
8.35141 420
8.37153 409
8.39164 429
8.41176 412
8.43187 388
8.45198 457
8.4721 419
8.49221 451
8.51232 415
8.53244 432
8.55255 396
8.57266 428
8.59278 442
8.61289 421
8.63301 416
8.65312 472
8.67323 427
8.69335 445
8.71346 373
8.73357 452
8.75369 443
8.7738 424
8.79392 412
8.81403 425
8.83414 436
8.85426 396
8.87437 485
8.89448 465
8.9146 415
8.93471 396
8.95483 422
8.97494 443
8.99505 452
9.01517 434
9.03528 430
9.05539 433
9.07551 426
9.09562 459
9.11573 402
9.13585 426
9.15596 426
9.17608 415
9.19619 435
9.2163 453
9.23642 375
9.25653 393
9.27664 421
9.29676 413
9.31687 419
9.33699 464
9.3571 419
9.37721 391
9.39733 437
9.41744 430
9.43755 378
9.45767 401
9.47778 437
9.4979 421
9.51801 412
9.53812 423
9.55824 435
9.57835 440
9.59846 383
9.61858 401
9.63869 400
9.6588 403
9.67892 392
9.69903 342
9.71915 392
9.73926 438
9.75937 410
9.77949 431
9.7996 444
9.81971 446
9.83983 412
9.85994 383
9.88006 411
9.90017 440
9.92028 401
9.9404 364
9.96051 425
9.98062 372
10.00074 406
10.02085 439
10.04097 377
10.06108 416
10.08119 408
10.10131 418
10.12142 444
10.14153 399
10.16165 415
10.18176 434
10.20187 437
10.22199 421
10.2421 428
10.26222 444
10.28233 413
10.30244 415
10.32256 453
10.34267 429
10.36278 413
10.3829 381
10.40301 399
10.42313 416
10.44324 404
10.46335 381
10.48347 398
10.50358 405
10.52369 453
10.54381 409
10.56392 385
10.58403 425
10.60415 439
10.62426 462
10.64438 400
10.66449 419
10.6846 415
10.70472 409
10.72483 415
10.74494 390
10.76506 452
10.78517 398
10.80529 401
10.8254 428
10.84551 416
10.86563 403
10.88574 403
10.90585 395
10.92597 444
10.94608 390
10.9662 424
10.98631 439
11.00642 374
11.02654 455
11.04665 405
11.06676 427
11.08688 423
11.10699 412
11.1271 423
11.14722 359
11.16733 433
11.18745 437
11.20756 415
11.22767 413
11.24779 443
11.2679 406
11.28801 470
11.30813 457
11.32824 448
11.34836 429
11.36847 411
11.38858 472
11.4087 407
11.42881 416
11.44892 400
11.46904 405
11.48915 418
11.50927 445
11.52938 417
11.54949 412
11.56961 408
11.58972 412
11.60983 451
11.62995 412
11.65006 416
11.67017 449
11.69029 432
11.7104 464
11.73052 475
11.75063 467
11.77074 496
11.79086 459
11.81097 451
11.83108 443
11.8512 448
11.87131 503
11.89143 452
11.91154 477
11.93165 503
11.95177 494
11.97188 479
11.99199 512
12.01211 465
12.03222 471
12.05234 510
12.07245 530
12.09256 568
12.11268 551
12.13279 535
12.1529 539
12.17302 577
12.19313 564
12.21324 582
12.23336 540
12.25347 599
12.27359 535
12.2937 603
12.31381 550
12.33393 571
12.35404 565
12.37415 559
12.39427 524
12.41438 567
12.4345 533
12.45461 491
12.47472 529
12.49484 464
12.51495 495
12.53506 475
12.55518 444
12.57529 446
12.5954 452
12.61552 460
12.63563 365
12.65575 451
12.67586 430
12.69597 398
12.71609 467
12.7362 435
12.75631 386
12.77643 424
12.79654 421
12.81666 373
12.83677 418
12.85688 390
12.877 411
12.89711 403
12.91722 413
12.93734 443
12.95745 433
12.97757 407
12.99768 391
13.01779 368
13.03791 375
13.05802 407
13.07813 386
13.09825 356
13.11836 352
13.13847 423
13.15859 397
13.1787 406
13.19882 385
13.21893 391
13.23904 439
13.25916 381
13.27927 395
13.29938 425
13.3195 390
13.33961 419
13.35973 390
13.37984 410
13.39995 372
13.42007 397
13.44018 385
13.46029 368
13.48041 394
13.50052 399
13.52064 387
13.54075 387
13.56086 381
13.58098 364
13.60109 407
13.6212 398
13.64132 358
13.66143 358
13.68154 372
13.70166 391
13.72177 324
13.74189 388
13.762 386
13.78211 360
13.80223 384
13.82234 367
13.84245 395
13.86257 364
13.88268 386
13.9028 388
13.92291 390
13.94302 373
13.96314 359
13.98325 365
14.00336 374
14.02348 367
14.04359 381
14.06371 369
14.08382 352
14.10393 334
14.12405 354
14.14416 381
14.16427 381
14.18439 357
14.2045 352
14.22461 357
14.24473 344
14.26484 352
14.28496 405
14.30507 354
14.32518 366
14.3453 337
14.36541 353
14.38552 374
14.40564 356
14.42575 404
14.44587 349
14.46598 360
14.48609 337
14.50621 352
14.52632 354
14.54643 359
14.56655 385
14.58666 343
14.60677 365
14.62689 391
14.647 365
14.66712 354
14.68723 369
14.70734 360
14.72746 353
14.74757 352
14.76768 383
14.7878 358
14.80791 396
14.82803 366
14.84814 357
14.86825 335
14.88837 339
14.90848 382
14.92859 351
14.94871 370
14.96882 403
14.98894 393
15.00905 338
15.02916 358
15.04928 360
15.06939 358
15.0895 364
15.10962 364
15.12973 351
15.14984 350
15.16996 371
15.19007 361
15.21019 356
15.2303 355
15.25041 386
15.27053 336
15.29064 374
15.31075 417
15.33087 311
15.35098 359
15.3711 380
15.39121 370
15.41132 362
15.43144 327
15.45155 354
15.47166 346
15.49178 377
15.51189 335
15.53201 340
15.55212 344
15.57223 334
15.59235 360
15.61246 339
15.63257 343
15.65269 399
15.6728 332
15.69291 404
15.71303 350
15.73314 327
15.75326 335
15.77337 348
15.79348 377
15.8136 379
15.83371 349
15.85382 353
15.87394 371
15.89405 379
15.91417 374
15.93428 383
15.95439 379
15.97451 390
15.99462 392
16.01473 338
16.03485 369
16.05496 362
16.07508 373
16.09519 383
16.1153 326
16.13542 357
16.15553 343
16.17564 335
16.19576 350
16.21587 353
16.23598 337
16.2561 336
16.27621 363
16.29633 342
16.31644 371
16.33655 337
16.35667 380
16.37678 350
16.39689 378
16.41701 405
16.43712 342
16.45724 368
16.47735 392
16.49746 343
16.51758 382
16.53769 369
16.5578 342
16.57792 376
16.59803 420
16.61814 356
16.63826 339
16.65837 350
16.67849 365
16.6986 349
16.71871 358
16.73883 330
16.75894 358
16.77905 375
16.79917 359
16.81928 327
16.8394 338
16.85951 372
16.87962 334
16.89974 390
16.91985 335
16.93996 369
16.96008 375
16.98019 335
17.00031 330
17.02042 366
17.04053 371
17.06065 320
17.08076 344
17.10087 351
17.12099 365
17.1411 371
17.16121 350
17.18133 362
17.20144 405
17.22156 339
17.24167 363
17.26178 346
17.2819 385
17.30201 388
17.32212 369
17.34224 319
17.36235 345
17.38247 368
17.40258 355
17.42269 348
17.44281 364
17.46292 364
17.48303 404
17.50315 365
17.52326 408
17.54338 402
17.56349 358
17.5836 364
17.60372 334
17.62383 381
17.64394 363
17.66406 372
17.68417 368
17.70428 332
17.7244 355
17.74451 362
17.76463 361
17.78474 369
17.80485 388
17.82497 365
17.84508 352
17.86519 373
17.88531 401
17.90542 409
17.92554 391
17.94565 433
17.96576 406
17.98588 354
18.00599 376
18.0261 338
18.04622 432
18.06633 398
18.08645 395
18.10656 359
18.12667 388
18.14679 391
18.1669 393
18.18701 368
18.20713 372
18.22724 389
18.24735 403
18.26747 395
18.28758 357
18.3077 421
18.32781 351
18.34792 382
18.36804 379
18.38815 358
18.40826 359
18.42838 375
18.44849 374
18.46861 394
18.48872 378
18.50883 416
18.52895 423
18.54906 405
18.56917 382
18.58929 387
18.6094 343
18.62951 407
18.64963 382
18.66974 385
18.68986 344
18.70997 418
18.73008 412
18.7502 383
18.77031 363
18.79042 376
18.81054 379
18.83065 345
18.85077 378
18.87088 405
18.89099 366
18.91111 357
18.93122 360
18.95133 340
18.97145 373
18.99156 383
19.01168 403
19.03179 398
19.0519 349
19.07202 371
19.09213 385
19.11224 426
19.13236 399
19.15247 391
19.17258 378
19.1927 398
19.21281 399
19.23293 371
19.25304 379
19.27315 405
19.29327 434
19.31338 422
19.33349 384
19.35361 403
19.37372 440
19.39384 415
19.41395 419
19.43406 411
19.45418 430
19.47429 469
19.4944 425
19.51452 472
19.53463 453
19.55475 467
19.57486 525
19.59497 476
19.61509 493
19.6352 545
19.65531 573
19.67543 566
19.69554 581
19.71565 611
19.73577 666
19.75588 616
19.776 659
19.79611 688
19.81622 712
19.83634 744
19.85645 699
19.87656 748
19.89668 721
19.91679 702
19.93691 729
19.95702 705
19.97713 721
19.99725 670
20.01736 664
20.03747 726
20.05759 659
20.0777 642
20.09782 642
20.11793 637
20.13804 658
20.15816 701
20.17827 664
20.19838 621
20.2185 651
20.23861 669
20.25872 639
20.27884 652
20.29895 616
20.31907 657
20.33918 679
20.35929 612
20.37941 702
20.39952 670
20.41963 686
20.43975 710
20.45986 711
20.47998 700
20.50009 691
20.5202 742
20.54032 749
20.56043 746
20.58054 777
20.60066 769
20.62077 873
20.64088 1008
20.661 1085
20.68111 1283
20.70123 1669
20.72134 2109
20.74145 2548
20.76157 3161
20.78168 3715
20.80179 4148
20.82191 4006
20.84202 3641
20.86214 3262
20.88225 2511
20.90236 1822
20.92248 1451
20.94259 1047
20.9627 935
20.98282 844
21.00293 785
21.02305 792
21.04316 724
21.06327 724
21.08339 684
21.1035 717
21.12361 686
21.14373 719
21.16384 688
21.18395 679
21.20407 693
21.22418 725
21.2443 701
21.26441 679
21.28452 733
21.30464 734
21.32475 725
21.34486 712
21.36498 706
21.38509 750
21.40521 673
21.42532 695
21.44543 664
21.46555 682
21.48566 653
21.50577 648
21.52589 630
21.546 622
21.56612 611
21.58623 620
21.60634 605
21.62646 574
21.64657 587
21.66668 554
21.6868 569
21.70691 569
21.72702 576
21.74714 558
21.76725 548
21.78737 538
21.80748 567
21.82759 532
21.84771 524
21.86782 522
21.88793 554
21.90805 537
21.92816 542
21.94828 539
21.96839 520
21.9885 513
22.00862 558
22.02873 523
22.04884 523
22.06896 522
22.08907 512
22.10919 552
22.1293 526
22.14941 466
22.16953 531
22.18964 549
22.20975 497
22.22987 476
22.24998 519
22.27009 519
22.29021 508
22.31032 503
22.33044 466
22.35055 470
22.37066 501
22.39078 467
22.41089 501
22.431 497
22.45112 452
22.47123 439
22.49135 456
22.51146 468
22.53157 460
22.55169 470
22.5718 494
22.59191 488
22.61203 487
22.63214 433
22.65225 475
22.67237 474
22.69248 404
22.7126 475
22.73271 455
22.75282 479
22.77294 475
22.79305 470
22.81316 485
22.83328 478
22.85339 490
22.87351 469
22.89362 527
22.91373 398
22.93385 459
22.95396 452
22.97407 473
22.99419 465
23.0143 469
23.03442 430
23.05453 450
23.07464 484
23.09476 478
23.11487 437
23.13498 471
23.1551 444
23.17521 479
23.19532 459
23.21544 475
23.23555 479
23.25567 504
23.27578 498
23.29589 471
23.31601 458
23.33612 485
23.35623 434
23.37635 450
23.39646 469
23.41658 420
23.43669 510
23.4568 444
23.47692 466
23.49703 421
23.51714 482
23.53726 464
23.55737 484
23.57749 467
23.5976 451
23.61771 484
23.63783 460
23.65794 481
23.67805 459
23.69817 479
23.71828 494
23.73839 414
23.75851 442
23.77862 436
23.79874 465
23.81885 491
23.83896 525
23.85908 522
23.87919 498
23.8993 524
23.91942 479
23.93953 550
23.95965 521
23.97976 528
23.99987 520
24.01999 501
24.0401 504
24.06021 485
24.08033 504
24.10044 515
24.12056 506
24.14067 500
24.16078 501
24.1809 484
24.20101 476
24.22112 496
24.24124 544
24.26135 479
24.28146 496
24.30158 541
24.32169 511
24.34181 483
24.36192 504
24.38203 526
24.40215 490
24.42226 493
24.44237 514
24.46249 536
24.4826 499
24.50272 563
24.52283 525
24.54294 526
24.56306 521
24.58317 517
24.60328 524
24.6234 503
24.64351 503
24.66362 550
24.68374 540
24.70385 571
24.72397 520
24.74408 538
24.76419 642
24.78431 594
24.80442 576
24.82453 592
24.84465 575
24.86476 584
24.88488 554
24.90499 592
24.9251 559
24.94522 618
24.96533 610
24.98544 633
25.00556 588
25.02567 567
25.04579 589
25.0659 563
25.08601 549
25.10613 545
25.12624 602
25.14635 612
25.16647 526
25.18658 548
25.20669 583
25.22681 561
25.24692 614
25.26704 549
25.28715 526
25.30726 581
25.32738 556
25.34749 513
25.3676 504
25.38772 564
25.40783 509
25.42795 520
25.44806 520
25.46817 534
25.48829 507
25.5084 497
25.52851 521
25.54863 503
25.56874 506
25.58886 546
25.60897 519
25.62908 562
25.6492 551
25.66931 536
25.68942 597
25.70954 564
25.72965 648
25.74976 636
25.76988 537
25.78999 548
25.81011 599
25.83022 551
25.85033 622
25.87045 583
25.89056 558
25.91067 575
25.93079 627
25.9509 656
25.97102 648
25.99113 640
26.01124 650
26.03136 680
26.05147 626
26.07158 630
26.0917 682
26.11181 694
26.13193 702
26.15204 731
26.17215 787
26.19227 819
26.21238 913
26.23249 923
26.25261 1002
26.27272 989
26.29283 1090
26.31295 1209
26.33306 1292
26.35318 1530
26.37329 1787
26.3934 2158
26.41352 2702
26.43363 3418
26.45374 4725
26.47386 6259
26.49397 8096
26.51409 10575
26.5342 12971
26.55431 15452
26.57443 16556
26.59454 16792
26.61465 15548
26.63477 13310
26.65488 10499
26.67499 7688
26.69511 5538
26.71522 3863
26.73534 2533
26.75545 1764
26.77556 1427
26.79568 1176
26.81579 1102
26.8359 1026
26.85602 929
26.87613 868
26.89625 891
26.91636 832
26.93647 776
26.95659 735
26.9767 693
26.99681 662
27.01693 647
27.03704 588
27.05716 617
27.07727 625
27.09738 561
27.1175 606
27.13761 564
27.15772 531
27.17784 576
27.19795 552
27.21806 512
27.23818 587
27.25829 562
27.27841 578
27.29852 571
27.31863 597
27.33875 581
27.35886 572
27.37897 580
27.39909 597
27.4192 634
27.43932 573
27.45943 522
27.47954 553
27.49966 525
27.51977 455
27.53988 510
27.56 518
27.58011 488
27.60023 493
27.62034 475
27.64045 440
27.66057 478
27.68068 476
27.70079 449
27.72091 463
27.74102 473
27.76113 476
27.78125 475
27.80136 522
27.82148 516
27.84159 503
27.8617 497
27.88182 458
27.90193 473
27.92204 466
27.94216 425
27.96227 480
27.98239 483
28.0025 417
28.02261 476
28.04273 456
28.06284 454
28.08295 415
28.10307 443
28.12318 441
28.1433 459
28.16341 419
28.18352 473
28.20364 444
28.22375 402
28.24386 410
28.26398 439
28.28409 443
28.3042 423
28.32432 454
28.34443 416
28.36455 448
28.38466 465
28.40477 426
28.42489 433
28.445 418
28.46511 450
28.48523 414
28.50534 399
28.52546 432
28.54557 418
28.56568 403
28.5858 424
28.60591 426
28.62602 420
28.64614 405
28.66625 399
28.68636 426
28.70648 409
28.72659 425
28.74671 387
28.76682 419
28.78693 415
28.80705 391
28.82716 431
28.84727 414
28.86739 410
28.8875 406
28.90762 419
28.92773 438
28.94784 395
28.96796 435
28.98807 443
29.00818 449
29.0283 398
29.04841 425
29.06853 396
29.08864 444
29.10875 411
29.12887 421
29.14898 453
29.16909 404
29.18921 451
29.20932 426
29.22943 419
29.24955 411
29.26966 387
29.28978 399
29.30989 458
29.33 401
29.35012 417
29.37023 404
29.39034 418
29.41046 436
29.43057 378
29.45069 418
29.4708 401
29.49091 409
29.51103 420
29.53114 408
29.55125 451
29.57137 401
29.59148 408
29.6116 439
29.63171 401
29.65182 394
29.67194 403
29.69205 416
29.71216 377
29.73228 405
29.75239 410
29.7725 399
29.79262 409
29.81273 400
29.83285 418
29.85296 378
29.87307 398
29.89319 386
29.9133 438
29.93341 436
29.95353 401
29.97364 429
29.99376 414
30.01387 438
30.03398 395
30.0541 382
30.07421 416
30.09432 377
30.11444 426
30.13455 394
30.15467 401
30.17478 415
30.19489 371
30.21501 421
30.23512 425
30.25523 415
30.27535 428
30.29546 425
30.31557 426
30.33569 426
30.3558 394
30.37592 411
30.39603 423
30.41614 429
30.43626 397
30.45637 417
30.47648 394
30.4966 390
30.51671 416
30.53683 434
30.55694 376
30.57705 435
30.59717 372
30.61728 448
30.63739 395
30.65751 386
30.67762 393
30.69773 396
30.71785 360
30.73796 439
30.75808 371
30.77819 385
30.7983 398
30.81842 354
30.83853 395
30.85864 356
30.87876 443
30.89887 391
30.91899 389
30.9391 354
30.95921 365
30.97933 392
30.99944 413
31.01955 410
31.03967 371
31.05978 381
31.0799 391
31.10001 364
31.12012 339
31.14024 392
31.16035 384
31.18046 350
31.20058 375
31.22069 408
31.2408 373
31.26092 396
31.28103 373
31.30115 373
31.32126 403
31.34137 388
31.36149 380
31.3816 424
31.40171 422
31.42183 398
31.44194 388
31.46206 360
31.48217 340
31.50228 425
31.5224 407
31.54251 397
31.56262 366
31.58274 390
31.60285 426
31.62297 388
31.64308 391
31.66319 396
31.68331 428
31.70342 374
31.72353 400
31.74365 352
31.76376 356
31.78387 380
31.80399 383
31.8241 388
31.84422 383
31.86433 370
31.88444 341
31.90456 403
31.92467 388
31.94478 399
31.9649 399
31.98501 401
32.00513 400
32.02524 385
32.04535 387
32.06547 357
32.08558 383
32.10569 352
32.12581 377
32.14592 366
32.16604 393
32.18615 370
32.20626 399
32.22638 367
32.24649 401
32.2666 408
32.28672 377
32.30683 378
32.32694 401
32.34706 399
32.36717 369
32.38729 358
32.4074 365
32.42751 411
32.44763 411
32.46774 443
32.48785 421
32.50797 414
32.52808 404
32.5482 410
32.56831 405
32.58842 425
32.60854 426
32.62865 421
32.64876 445
32.66888 435
32.68899 388
32.7091 431
32.72922 419
32.74933 405
32.76945 410
32.78956 441
32.80967 425
32.82979 432
32.8499 460
32.87001 434
32.89013 442
32.91024 466
32.93036 463
32.95047 448
32.97058 480
32.9907 496
33.01081 482
33.03092 480
33.05104 449
33.07115 499
33.09127 511
33.11138 441
33.13149 546
33.15161 472
33.17172 455
33.19183 471
33.21195 516
33.23206 477
33.25217 506
33.27229 465
33.2924 477
33.31252 511
33.33263 443
33.35274 448
33.37286 480
33.39297 464
33.41308 467
33.4332 441
33.45331 455
33.47343 453
33.49354 456
33.51365 439
33.53377 456
33.55388 466
33.57399 429
33.59411 453
33.61422 473
33.63434 439
33.65445 412
33.67456 461
33.69468 400
33.71479 420
33.7349 398
33.75502 416
33.77513 388
33.79524 458
33.81536 439
33.83547 429
33.85559 423
33.8757 386
33.89581 409
33.91593 406
33.93604 390
33.95615 402
33.97627 402
33.99638 414
34.0165 412
34.03661 382
34.05672 428
34.07684 399
34.09695 402
34.11706 403
34.13718 388
34.15729 396
34.17741 429
34.19752 373
34.21763 384
34.23775 430
34.25786 435
34.27797 400
34.29809 415
34.3182 417
34.33831 449
34.35843 425
34.37854 418
34.39866 461
34.41877 403
34.43888 413
34.459 479
34.47911 439
34.49922 466
34.51934 447
34.53945 459
34.55957 450
34.57968 444
34.59979 478
34.61991 473
34.64002 474
34.66013 473
34.68025 482
34.70036 554
34.72047 512
34.74059 568
34.7607 502
34.78082 524
34.80093 532
34.82104 508
34.84116 583
34.86127 592
34.88138 556
34.9015 546
34.92161 552
34.94173 563
34.96184 548
34.98195 512
35.00207 582
35.02218 534
35.04229 550
35.06241 546
35.08252 508
35.10264 536
35.12275 534
35.14286 521
35.16298 541
35.18309 538
35.2032 459
35.22332 484
35.24343 502
35.26354 533
35.28366 535
35.30377 525
35.32389 531
35.344 559
35.36411 554
35.38423 552
35.40434 549
35.42445 566
35.44457 587
35.46468 546
35.4848 589
35.50491 600
35.52502 630
35.54514 604
35.56525 588
35.58536 613
35.60548 655
35.62559 612
35.64571 636
35.66582 601
35.68593 592
35.70605 624
35.72616 610
35.74627 568
35.76639 554
35.7865 590
35.80661 548
35.82673 589
35.84684 625
35.86696 583
35.88707 606
35.90718 555
35.9273 577
35.94741 593
35.96752 538
35.98764 560
36.00775 572
36.02787 578
36.04798 538
36.06809 579
36.08821 550
36.10832 518
36.12843 558
36.14855 494
36.16866 560
36.18878 522
36.20889 587
36.229 599
36.24912 541
36.26923 582
36.28934 634
36.30946 635
36.32957 748
36.34968 847
36.3698 888
36.38991 1064
36.41003 1202
36.43014 1294
36.45025 1421
36.47037 1518
36.49048 1522
36.51059 1514
36.53071 1338
36.55082 1211
36.57094 1023
36.59105 907
36.61116 862
36.63128 756
36.65139 626
36.6715 621
36.69162 540
36.71173 559
36.73184 542
36.75196 495
36.77207 513
36.79219 515
36.8123 541
36.83241 501
36.85253 538
36.87264 566
36.89275 536
36.91287 569
36.93298 543
36.9531 551
36.97321 541
36.99332 516
37.01344 516
37.03355 541
37.05366 550
37.07378 575
37.09389 517
37.11401 488
37.13412 518
37.15423 508
37.17435 504
37.19446 525
37.21457 456
37.23469 500
37.2548 487
37.27491 499
37.29503 488
37.31514 484
37.33526 447
37.35537 472
37.37548 483
37.3956 475
37.41571 464
37.43582 481
37.45594 504
37.47605 459
37.49617 509
37.51628 459
37.53639 460
37.55651 486
37.57662 471
37.59673 480
37.61685 476
37.63696 483
37.65708 488
37.67719 449
37.6973 482
37.71742 488
37.73753 495
37.75764 465
37.77776 490
37.79787 460
37.81798 436
37.8381 490
37.85821 453
37.87833 423
37.89844 448
37.91855 484
37.93867 441
37.95878 427
37.97889 455
37.99901 468
38.01912 471
38.03924 460
38.05935 480
38.07946 456
38.09958 446
38.11969 461
38.1398 491
38.15992 458
38.18003 493
38.20015 461
38.22026 480
38.24037 474
38.26049 455
38.2806 506
38.30071 521
38.32083 464
38.34094 524
38.36105 514
38.38117 470
38.40128 511
38.4214 449
38.44151 489
38.46162 482
38.48174 476
38.50185 483
38.52196 424
38.54208 455
38.56219 479
38.58231 459
38.60242 463
38.62253 487
38.64265 425
38.66276 442
38.68287 408
38.70299 475
38.7231 462
38.74321 456
38.76333 465
38.78344 423
38.80356 474
38.82367 444
38.84378 416
38.8639 430
38.88401 455
38.90412 454
38.92424 443
38.94435 472
38.96447 432
38.98458 475
39.00469 462
39.02481 473
39.04492 462
39.06503 447
39.08515 486
39.10526 483
39.12538 471
39.14549 473
39.1656 531
39.18572 589
39.20583 567
39.22594 588
39.24606 629
39.26617 660
39.28628 819
39.3064 892
39.32651 1093
39.34663 1185
39.36674 1310
39.38685 1435
39.40697 1279
39.42708 1379
39.44719 1213
39.46731 1095
39.48742 964
39.50754 885
39.52765 811
39.54776 690
39.56788 582
39.58799 483
39.6081 501
39.62822 453
39.64833 439
39.66845 453
39.68856 441
39.70867 394
39.72879 477
39.7489 430
39.76901 421
39.78913 418
39.80924 378
39.82935 470
39.84947 430
39.86958 426
39.8897 448
39.90981 448
39.92992 427
39.95004 452
39.97015 435
39.99026 446
40.01038 467
40.03049 489
40.05061 536
40.07072 502
40.09083 555
40.11095 617
40.13106 707
40.15117 704
40.17129 767
40.1914 821
40.21152 851
40.23163 847
40.25174 827
40.27186 765
40.29197 709
40.31208 650
40.3322 595
40.35231 613
40.37242 592
40.39254 496
40.41265 470
40.43277 466
40.45288 428
40.47299 451
40.49311 449
40.51322 449
40.53333 415
40.55345 432
40.57356 423
40.59368 398
40.61379 454
40.6339 438
40.65402 434
40.67413 450
40.69424 465
40.71436 394
40.73447 458
40.75458 441
40.7747 432
40.79481 446
40.81493 435
40.83504 416
40.85515 427
40.87527 443
40.89538 467
40.91549 446
40.93561 422
40.95572 431
40.97584 478
40.99595 420
41.01606 413
41.03618 419
41.05629 420
41.0764 420
41.09652 430
41.11663 451
41.13675 440
41.15686 416
41.17697 429
41.19709 435
41.2172 435
41.23731 407
41.25743 439
41.27754 411
41.29765 429
41.31777 433
41.33788 410
41.358 406
41.37811 410
41.39822 394
41.41834 405
41.43845 423
41.45856 421
41.47868 433
41.49879 412
41.51891 426
41.53902 428
41.55913 394
41.57925 406
41.59936 379
41.61947 399
41.63959 407
41.6597 399
41.67982 386
41.69993 414
41.72004 404
41.74016 407
41.76027 412
41.78038 366
41.8005 380
41.82061 391
41.84072 372
41.86084 368
41.88095 397
41.90107 404
41.92118 372
41.94129 404
41.96141 371
41.98152 375
42.00163 423
42.02175 405
42.04186 388
42.06198 410
42.08209 398
42.1022 427
42.12232 439
42.14243 429
42.16254 459
42.18266 533
42.20277 460
42.22289 511
42.243 575
42.26311 693
42.28323 719
42.30334 818
42.32345 930
42.34357 950
42.36368 1048
42.38379 1046
42.40391 1004
42.42402 931
42.44414 891
42.46425 764
42.48436 717
42.50448 646
42.52459 574
42.5447 566
42.56482 478
42.58493 496
42.60505 443
42.62516 418
42.64527 369
42.66539 402
42.6855 389
42.70561 357
42.72573 361
42.74584 383
42.76595 374
42.78607 417
42.80618 327
42.8263 359
42.84641 346
42.86652 399
42.88664 348
42.90675 375
42.92686 357
42.94698 357
42.96709 339
42.98721 339
43.00732 343
43.02743 321
43.04755 392
43.06766 348
43.08777 361
43.10789 374
43.128 355
43.14812 370
43.16823 363
43.18834 354
43.20846 350
43.22857 349
43.24868 357
43.2688 327
43.28891 374
43.30902 335
43.32914 338
43.34925 326
43.36937 385
43.38948 355
43.40959 333
43.42971 374
43.44982 347
43.46993 365
43.49005 343
43.51016 379
43.53028 376
43.55039 325
43.5705 331
43.59062 336
43.61073 374
43.63084 360
43.65096 366
43.67107 369
43.69119 343
43.7113 369
43.73141 331
43.75153 359
43.77164 354
43.79175 345
43.81187 367
43.83198 329
43.85209 346
43.87221 345
43.89232 382
43.91244 366
43.93255 348
43.95266 354
43.97278 343
43.99289 364
44.013 379
44.03312 371
44.05323 399
44.07335 370
44.09346 336
44.11357 328
44.13369 399
44.1538 319
44.17391 373
44.19403 350
44.21414 362
44.23426 365
44.25437 354
44.27448 340
44.2946 368
44.31471 365
44.33482 385
44.35494 328
44.37505 350
44.39516 377
44.41528 314
44.43539 346
44.45551 330
44.47562 352
44.49573 358
44.51585 363
44.53596 341
44.55607 371
44.57619 355
44.5963 340
44.61642 384
44.63653 367
44.65664 369
44.67676 382
44.69687 362
44.71698 348
44.7371 348
44.75721 359
44.77732 381
44.79744 356
44.81755 358
44.83767 372
44.85778 363
44.87789 379
44.89801 351
44.91812 383
44.93823 340
44.95835 379
44.97846 349
44.99858 360
45.01869 345
45.0388 376
45.05892 355
45.07903 368
45.09914 373
45.11926 383
45.13937 371
45.15949 346
45.1796 401
45.19971 373
45.21983 351
45.23994 356
45.26005 382
45.28017 393
45.30028 367
45.32039 379
45.34051 385
45.36062 379
45.38074 399
45.40085 402
45.42096 382
45.44108 439
45.46119 437
45.4813 421
45.50142 410
45.52153 450
45.54165 458
45.56176 477
45.58187 551
45.60199 606
45.6221 626
45.64221 653
45.66233 736
45.68244 750
45.70256 800
45.72267 814
45.74278 805
45.7629 732
45.78301 685
45.80312 662
45.82324 599
45.84335 579
45.86346 532
45.88358 525
45.90369 487
45.92381 431
45.94392 397
45.96403 394
45.98415 403
46.00426 369
46.02437 362
46.04449 398
46.0646 347
46.08472 374
46.10483 376
46.12494 384
46.14506 369
46.16517 343
46.18528 337
46.2054 382
46.22551 375
46.24563 375
46.26574 354
46.28585 346
46.30597 364
46.32608 370
46.34619 367
46.36631 400
46.38642 362
46.40653 331
46.42665 348
46.44676 349
46.46688 347
46.48699 346
46.5071 371
46.52722 388
46.54733 387
46.56744 358
46.58756 352
46.60767 361
46.62779 323
46.6479 374
46.66801 363
46.68813 377
46.70824 353
46.72835 382
46.74847 403
46.76858 381
46.78869 360
46.80881 363
46.82892 338
46.84904 367
46.86915 362
46.88926 382
46.90938 353
46.92949 336
46.9496 328
46.96972 375
46.98983 364
47.00995 350
47.03006 339
47.05017 317
47.07029 352
47.0904 367
47.11051 364
47.13063 359
47.15074 353
47.17086 357
47.19097 359
47.21108 361
47.2312 346
47.25131 358
47.27142 345
47.29154 333
47.31165 351
47.33176 325
47.35188 369
47.37199 327
47.39211 377
47.41222 349
47.43233 318
47.45245 341
47.47256 348
47.49267 343
47.51279 381
47.5329 341
47.55302 345
47.57313 372
47.59324 309
47.61336 388
47.63347 361
47.65358 374
47.6737 364
47.69381 372
47.71393 368
47.73404 367
47.75415 364
47.77427 352
47.79438 363
47.81449 367
47.83461 385
47.85472 349
47.87483 353
47.89495 382
47.91506 358
47.93518 394
47.95529 382
47.9754 359
47.99552 374
48.01563 374
48.03574 382
48.05586 391
48.07597 358
48.09609 336
48.1162 358
48.13631 336
48.15643 336
48.17654 339
48.19665 363
48.21677 356
48.23688 372
48.257 350
48.27711 362
48.29722 348
48.31734 341
48.33745 361
48.35756 339
48.37768 381
48.39779 353
48.4179 347
48.43802 345
48.45813 377
48.47825 372
48.49836 375
48.51847 353
48.53859 363
48.5587 391
48.57881 367
48.59893 347
48.61904 338
48.63916 369
48.65927 366
48.67938 319
48.6995 393
48.71961 359
48.73972 398
48.75984 347
48.77995 389
48.80006 366
48.82018 347
48.84029 373
48.86041 343
48.88052 356
48.90063 376
48.92075 368
48.94086 363
48.96097 365
48.98109 371
49.0012 375
49.02132 348
49.04143 370
49.06154 343
49.08166 335
49.10177 357
49.12188 360
49.142 372
49.16211 409
49.18223 380
49.20234 364
49.22245 382
49.24257 377
49.26268 401
49.28279 356
49.30291 384
49.32302 408
49.34313 386
49.36325 415
49.38336 391
49.40348 392
49.42359 378
49.4437 424
49.46382 398
49.48393 385
49.50404 362
49.52416 411
49.54427 398
49.56439 405
49.5845 375
49.60461 408
49.62473 392
49.64484 389
49.66495 408
49.68507 425
49.70518 442
49.7253 468
49.74541 474
49.76552 486
49.78564 492
49.80575 531
49.82586 553
49.84598 629
49.86609 639
49.8862 739
49.90632 815
49.92643 887
49.94655 1070
49.96666 1207
49.98677 1435
50.00689 1547
50.027 1752
50.04711 1918
50.06723 1952
50.08734 1881
50.10746 1726
50.12757 1542
50.14768 1384
50.1678 1281
50.18791 1182
50.20802 1120
50.22814 1036
50.24825 812
50.26837 688
50.28848 621
50.30859 522
50.32871 471
50.34882 464
50.36893 453
50.38905 401
50.40916 395
50.42927 399
50.44939 362
50.4695 384
50.48962 454
50.50973 440
50.52984 395
50.54996 398
50.57007 416
50.59018 414
50.6103 374
50.63041 391
50.65053 380
50.67064 390
50.69075 380
50.71087 375
50.73098 343
50.75109 370
50.77121 369
50.79132 382
50.81143 341
50.83155 382
50.85166 360
50.87178 352
50.89189 384
50.912 379
50.93212 371
50.95223 339
50.97234 351
50.99246 373
51.01257 369
51.03269 346
51.0528 336
51.07291 334
51.09303 383
51.11314 320
51.13325 376
51.15337 349
51.17348 352
51.1936 350
51.21371 359
51.23382 342
51.25394 347
51.27405 326
51.29416 365
51.31428 382
51.33439 359
51.3545 352
51.37462 362
51.39473 338
51.41485 355
51.43496 370
51.45507 337
51.47519 332
51.4953 364
51.51541 323
51.53553 335
51.55564 324
51.57576 360
51.59587 368
51.61598 338
51.6361 325
51.65621 355
51.67632 351
51.69644 330
51.71655 351
51.73667 357
51.75678 365
51.77689 376
51.79701 312
51.81712 347
51.83723 338
51.85735 362
51.87746 322
51.89757 359
51.91769 336
51.9378 337
51.95792 361
51.97803 322
51.99814 332
52.01826 325
52.03837 350
52.05848 334
52.0786 339
52.09871 323
52.11883 327
52.13894 318
52.15905 315
52.17917 322
52.19928 347
52.21939 348
52.23951 338
52.25962 325
52.27974 337
52.29985 370
52.31996 326
52.34008 347
52.36019 321
52.3803 327
52.40042 354
52.42053 343
52.44064 342
52.46076 334
52.48087 382
52.50099 327
52.5211 338
52.54121 366
52.56133 309
52.58144 340
52.60155 361
52.62167 372
52.64178 341
52.6619 361
52.68201 344
52.70212 324
52.72224 323
52.74235 339
52.76246 328
52.78258 327
52.80269 359
52.8228 335
52.84292 357
52.86303 305
52.88315 378
52.90326 345
52.92337 347
52.94349 327
52.9636 344
52.98371 324
53.00383 382
53.02394 351
53.04406 350
53.06417 365
53.08428 351
53.1044 401
53.12451 374
53.14462 336
53.16474 410
53.18485 318
53.20497 402
53.22508 315
53.24519 386
53.26531 392
53.28542 369
53.30553 366
53.32565 370
53.34576 352
53.36587 368
53.38599 374
53.4061 363
53.42622 374
53.44633 383
53.46644 426
53.48656 392
53.50667 390
53.52678 405
53.5469 420
53.56701 410
53.58713 428
53.60724 431
53.62735 442
53.64747 412
53.66758 416
53.68769 443
53.70781 440
53.72792 405
53.74804 428
53.76815 433
53.78826 400
53.80838 474
53.82849 442
53.8486 470
53.86872 451
53.88883 489
53.90894 457
53.92906 425
53.94917 454
53.96929 472
53.9894 458
54.00951 453
54.02963 478
54.04974 450
54.06985 433
54.08997 437
54.11008 477
54.1302 448
54.15031 431
54.17042 465
54.19054 485
54.21065 453
54.23076 496
54.25088 490
54.27099 473
54.29111 485
54.31122 480
54.33133 496
54.35145 455
54.37156 472
54.39167 511
54.41179 505
54.4319 472
54.45201 421
54.47213 459
54.49224 452
54.51236 473
54.53247 462
54.55258 485
54.5727 503
54.59281 479
54.61292 527
54.63304 589
54.65315 594
54.67327 632
54.69338 633
54.71349 721
54.73361 701
54.75372 794
54.77383 837
54.79395 902
54.81406 844
54.83417 768
54.85429 763
54.8744 716
54.89452 679
54.91463 691
54.93474 629
54.95486 603
54.97497 614
54.99508 531
55.0152 559
55.03531 493
55.05543 499
55.07554 510
55.09565 533
55.11577 472
55.13588 521
55.15599 562
55.17611 533
55.19622 576
55.21634 633
55.23645 550
55.25656 613
55.27668 576
55.29679 523
55.3169 568
55.33702 521
55.35713 484
55.37724 496
55.39736 473
55.41747 486
55.43759 441
55.4577 428
55.47781 396
55.49793 391
55.51804 426
55.53815 393
55.55827 395
55.57838 424
55.5985 386
55.61861 393
55.63872 373
55.65884 408
55.67895 409
55.69906 396
55.71918 407
55.73929 393
55.75941 342
55.77952 372
55.79963 342
55.81975 345
55.83986 402
55.85997 381
55.88009 389
55.9002 358
55.92031 369
55.94043 353
55.96054 349
55.98066 373
56.00077 383
56.02088 400
56.041 344
56.06111 351
56.08122 353
56.10134 335
56.12145 345
56.14157 360
56.16168 345
56.18179 367
56.20191 355
56.22202 368
56.24213 321
56.26225 358
56.28236 335
56.30248 382
56.32259 389
56.3427 330
56.36282 362
56.38293 382
56.40304 381
56.42316 369
56.44327 348
56.46338 331
56.4835 386
56.50361 362
56.52373 363
56.54384 387
56.56395 359
56.58407 330
56.60418 368
56.62429 354
56.64441 374
56.66452 375
56.68464 368
56.70475 340
56.72486 347
56.74498 358
56.76509 392
56.7852 364
56.80532 379
56.82543 365
56.84554 344
56.86566 320
56.88577 327
56.90589 376
56.926 358
56.94611 376
56.96623 379
56.98634 363
57.00645 359
57.02657 370
57.04668 338
57.0668 381
57.08691 386
57.10702 352
57.12714 377
57.14725 395
57.16736 321
57.18748 372
57.20759 372
57.22771 329
57.24782 355
57.26793 380
57.28805 377
57.30816 374
57.32827 358
57.34839 321
57.3685 345
57.38861 358
57.40873 352
57.42884 350
57.44896 376
57.46907 352
57.48918 357
57.5093 339
57.52941 362
57.54952 367
57.56964 352
57.58975 356
57.60987 339
57.62998 356
57.65009 348
57.67021 357
57.69032 333
57.71043 357
57.73055 362
57.75066 365
57.77078 332
57.79089 322
57.811 357
57.83112 356
57.85123 327
57.87134 363
57.89146 356
57.91157 344
57.93168 347
57.9518 302
57.97191 355
57.99203 363
58.01214 350
58.03225 319
58.05237 359
58.07248 364
58.09259 364
58.11271 322
58.13282 361
58.15294 329
58.17305 355
58.19316 373
58.21328 334
58.23339 346
58.2535 340
58.27362 337
58.29373 331
58.31385 354
58.33396 309
58.35407 336
58.37419 334
58.3943 345
58.41441 341
58.43453 365
58.45464 348
58.47475 349
58.49487 332
58.51498 341
58.5351 343
58.55521 358
58.57532 352
58.59544 351
58.61555 343
58.63566 349
58.65578 336
58.67589 333
58.69601 339
58.71612 309
58.73623 352
58.75635 348
58.77646 348
58.79657 323
58.81669 358
58.8368 332
58.85691 387
58.87703 362
58.89714 368
58.91726 375
58.93737 347
58.95748 312
58.9776 327
58.99771 373
59.01782 370
59.03794 319
59.05805 350
59.07817 341
59.09828 311
59.11839 323
59.13851 310
59.15862 370
59.17873 323
59.19885 353
59.21896 343
59.23908 363
59.25919 380
59.2793 323
59.29942 345
59.31953 327
59.33964 348
59.35976 379
59.37987 371
59.39998 356
59.4201 387
59.44021 392
59.46033 416
59.48044 411
59.50055 397
59.52067 436
59.54078 409
59.56089 450
59.58101 466
59.60112 477
59.62124 492
59.64135 495
59.66146 536
59.68158 557
59.70169 609
59.7218 707
59.74192 741
59.76203 914
59.78215 963
59.80226 1048
59.82237 1192
59.84249 1256
59.8626 1349
59.88271 1340
59.90283 1244
59.92294 1121
59.94305 992
59.96317 904
59.98328 870
60.0034 834
60.02351 832
60.04362 852
60.06374 796
60.08385 687
60.10396 585
60.12408 540
60.14419 504
60.16431 422
60.18442 456
60.20453 418
60.22465 375
60.24476 381
60.26487 390
60.28499 359
60.3051 390
60.32522 379
60.34533 347
60.36544 342
60.38556 361
60.40567 360
60.42578 377
60.4459 340
60.46601 323
60.48612 341
60.50624 318
60.52635 355
60.54647 365
60.56658 361
60.58669 362
60.60681 326
60.62692 339
60.64703 331
60.66715 342
60.68726 330
60.70738 351
60.72749 345
60.7476 353
60.76772 369
60.78783 323
60.80794 338
60.82806 342
60.84817 347
60.86828 314
60.8884 333
60.90851 354
60.92863 353
60.94874 343
60.96885 312
60.98897 323
61.00908 363
61.02919 325
61.04931 352
61.06942 340
61.08954 327
61.10965 341
61.12976 320
61.14988 338
61.16999 344
61.1901 349
61.21022 317
61.23033 350
61.25045 345
61.27056 339
61.29067 339
61.31079 343
61.3309 359
61.35101 345
61.37113 392
61.39124 361
61.41135 371
61.43147 334
61.45158 363
61.4717 376
61.49181 401
61.51192 388
61.53204 355
61.55215 383
61.57226 387
61.59238 374
61.61249 366
61.63261 388
61.65272 370
61.67283 417
61.69295 405
61.71306 379
61.73317 410
61.75329 388
61.7734 412
61.79352 379
61.81363 417
61.83374 405
61.85386 357
61.87397 407
61.89408 386
61.9142 419
61.93431 438
61.95442 434
61.97454 410
61.99465 442
62.01477 437
62.03488 398
62.05499 424
62.07511 432
62.09522 415
62.11533 397
62.13545 450
62.15556 427
62.17568 407
62.19579 456
62.2159 475
62.23602 429
62.25613 442
62.27624 462
62.29636 463
62.31647 427
62.33659 420
62.3567 438
62.37681 405
62.39693 427
62.41704 403
62.43715 408
62.45727 392
62.47738 369
62.49749 380
62.51761 384
62.53772 384
62.55784 415
62.57795 362
62.59806 396
62.61818 367
62.63829 375
62.6584 394
62.67852 379
62.69863 366
62.71875 382
62.73886 380
62.75897 365
62.77909 380
62.7992 379
62.81931 341
62.83943 347
62.85954 378
62.87965 329
62.89977 356
62.91988 379
62.94 290
62.96011 400
62.98022 359
63.00034 373
63.02045 354
63.04056 359
63.06068 401
63.08079 373
63.10091 379
63.12102 366
63.14113 322
63.16125 374
63.18136 328
63.20147 372
63.22159 358
63.2417 386
63.26182 344
63.28193 339
63.30204 349
63.32216 348
63.34227 374
63.36238 346
63.3825 330
63.40261 358
63.42272 362
63.44284 390
63.46295 347
63.48307 370
63.50318 354
63.52329 351
63.54341 395
63.56352 344
63.58363 385
63.60375 370
63.62386 363
63.64398 339
63.66409 404
63.6842 375
63.70432 343
63.72443 408
63.74454 372
63.76466 421
63.78477 421
63.80489 432
63.825 463
63.84511 472
63.86523 488
63.88534 490
63.90545 551
63.92557 547
63.94568 582
63.96579 544
63.98591 562
64.00602 523
64.02614 490
64.04625 467
64.06636 434
64.08648 439
64.10659 448
64.1267 491
64.14682 446
64.16693 429
64.18705 446
64.20716 413
64.22727 392
64.24739 367
64.2675 349
64.28761 378
64.30773 365
64.32784 386
64.34796 392
64.36807 370
64.38818 333
64.4083 339
64.42841 393
64.44852 329
64.46864 376
64.48875 318
64.50886 339
64.52898 361
64.54909 320
64.56921 353
64.58932 319
64.60943 327
64.62955 340
64.64966 346
64.66977 357
64.68989 319
64.71 315
64.73012 348
64.75023 319
64.77034 346
64.79046 308
64.81057 314
64.83068 331
64.8508 324
64.87091 349
64.89102 366
64.91114 332
64.93125 321
64.95137 350
64.97148 338
64.99159 334
65.01171 321
65.03182 335
65.05193 343
65.07205 326
65.09216 323
65.11228 318
65.13239 319
65.1525 320
65.17262 324
65.19273 297
65.21284 345
65.23296 342
65.25307 305
65.27319 336
65.2933 306
65.31341 292
65.33353 325
65.35364 336
65.37375 314
65.39387 330
65.41398 323
65.43409 330
65.45421 361
65.47432 335
65.49444 308
65.51455 329
65.53466 312
65.55478 317
65.57489 377
65.595 338
65.61512 335
65.63523 349
65.65535 357
65.67546 319
65.69557 377
65.71569 364
65.7358 357
65.75591 336
65.77603 345
65.79614 305
65.81626 357
65.83637 358
65.85648 366
65.8766 357
65.89671 319
65.91682 338
65.93694 329
65.95705 313
65.97716 308
65.99728 319
66.01739 320
66.03751 340
66.05762 307
66.07773 300
66.09785 324
66.11796 304
66.13807 295
66.15819 328
66.1783 349
66.19842 298
66.21853 357
66.23864 321
66.25876 334
66.27887 331
66.29898 296
66.3191 330
66.33921 307
66.35933 309
66.37944 323
66.39955 324
66.41967 315
66.43978 327
66.45989 291
66.48001 308
66.50012 328
66.52023 301
66.54035 317
66.56046 322
66.58058 330
66.60069 336
66.6208 317
66.64092 311
66.66103 377
66.68114 309
66.70126 296
66.72137 302
66.74149 311
66.7616 342
66.78171 311
66.80183 338
66.82194 306
66.84205 337
66.86217 324
66.88228 335
66.90239 300
66.92251 336
66.94262 323
66.96274 333
66.98285 366
67.00296 319
67.02308 330
67.04319 342
67.0633 342
67.08342 325
67.10353 325
67.12365 359
67.14376 345
67.16387 362
67.18399 340
67.2041 348
67.22421 363
67.24433 369
67.26444 363
67.28456 362
67.30467 337
67.32478 365
67.3449 368
67.36501 394
67.38512 377
67.40524 405
67.42535 412
67.44546 440
67.46558 428
67.48569 501
67.50581 571
67.52592 577
67.54603 605
67.56615 663
67.58626 734
67.60637 763
67.62649 799
67.6466 905
67.66672 902
67.68683 854
67.70694 810
67.72706 778
67.74717 709
67.76728 727
67.7874 725
67.80751 749
67.82763 727
67.84774 768
67.86785 750
67.88797 728
67.90808 734
67.92819 757
67.94831 747
67.96842 870
67.98853 893
68.00865 968
68.02876 1050
68.04888 1120
68.06899 1113
68.0891 1044
68.10922 1082
68.12933 1001
68.14944 976
68.16956 974
68.18967 970
68.20979 1011
68.2299 1036
68.25001 1052
68.27013 951
68.29024 791
68.31035 775
68.33047 636
68.35058 619
68.3707 630
68.39081 590
68.41092 570
68.43104 583
68.45115 496
68.47126 493
68.49138 470
68.51149 443
68.5316 396
68.55172 335
68.57183 339
68.59195 321
68.61206 369
68.63217 356
68.65229 338
68.6724 331
68.69251 337
68.71263 339
68.73274 365
68.75286 340
68.77297 372
68.79308 311
68.8132 324
68.83331 310
68.85342 323
68.87354 307
68.89365 343
68.91376 354
68.93388 305
68.95399 354
68.97411 326
68.99422 334
69.01433 321
69.03445 319
69.05456 295
69.07467 329
69.09479 305
69.1149 306
69.13502 334
69.15513 343
69.17524 301
69.19536 326
69.21547 274
69.23558 311
69.2557 332
69.27581 301
69.29593 296
69.31604 301
69.33615 303
69.35627 306
69.37638 337
69.39649 307
69.41661 336
69.43672 290
69.45683 315
69.47695 358
69.49706 301
69.51718 303
69.53729 335
69.5574 308
69.57752 316
69.59763 331
69.61774 283
69.63786 344
69.65797 319
69.67809 299
69.6982 304
69.71831 339
69.73843 324
69.75854 298
69.77865 299
69.79877 306
69.81888 307
69.839 295
69.85911 302
69.87922 304
69.89934 288
69.91945 313
69.93956 313
69.95968 339
69.97979 297
69.9999 291
70.02002 322
70.04013 314
70.06025 350
70.08036 291
70.10047 305
70.12059 317
70.1407 306
70.16081 303
70.18093 318
70.20104 295
70.22116 301
70.24127 287
70.26138 297
70.2815 333
70.30161 319
70.32172 292
70.34184 323
70.36195 339
70.38207 310
70.40218 303
70.42229 306
70.44241 317
70.46252 323
70.48263 291
70.50275 287
70.52286 286
70.54297 305
70.56309 319
70.5832 301
70.60332 308
70.62343 272
70.64354 309
70.66366 276
70.68377 293
70.70388 289
70.724 298
70.74411 285
70.76423 310
70.78434 288
70.80445 282
70.82457 300
70.84468 290
70.86479 295
70.88491 284
70.90502 298
70.92513 296
70.94525 286
70.96536 329
70.98548 299
71.00559 290
71.0257 298
71.04582 320
71.06593 304
71.08604 303
71.10616 297
71.12627 273
71.14639 282
71.1665 290
71.18661 312
71.20673 335
71.22684 296
71.24695 311
71.26707 253
71.28718 304
71.3073 298
71.32741 293
71.34752 286
71.36764 279
71.38775 317
71.40786 299
71.42798 290
71.44809 285
71.4682 293
71.48832 305
71.50843 269
71.52855 273
71.54866 297
71.56877 315
71.58889 305
71.609 322
71.62911 278
71.64923 294
71.66934 315
71.68946 285
71.70957 310
71.72968 291
71.7498 307
71.76991 291
71.79002 315
71.81014 336
71.83025 319
71.85037 287
71.87048 285
71.89059 304
71.91071 317
71.93082 326
71.95093 297
71.97105 319
71.99116 301
72.01127 302
72.03139 348
72.0515 295
72.07162 296
72.09173 291
72.11184 288
72.13196 311
72.15207 294
72.17218 326
72.1923 308
72.21241 337
72.23253 304
72.25264 325
72.27275 292
72.29287 302
72.31298 310
72.33309 323
72.35321 315
72.37332 293
72.39344 291
72.41355 303
72.43366 320
72.45378 304
72.47389 315
72.494 326
72.51412 289
72.53423 312
72.55434 322
72.57446 314
72.59457 301
72.61469 300
72.6348 289
72.65491 293
72.67503 325
72.69514 328
72.71525 330
72.73537 315
72.75548 274
72.7756 284
72.79571 299
72.81582 272
72.83594 292
72.85605 295
72.87616 273
72.89628 270
72.91639 300
72.9365 300
72.95662 315
72.97673 330
72.99685 291
73.01696 310
73.03707 305
73.05719 321
73.0773 322
73.09741 348
73.11753 333
73.13764 352
73.15776 333
73.17787 365
73.19798 368
73.2181 415
73.23821 350
73.25832 395
73.27844 434
73.29855 451
73.31867 416
73.33878 483
73.35889 486
73.37901 475
73.39912 503
73.41923 486
73.43935 437
73.45946 454
73.47957 407
73.49969 402
73.5198 403
73.53992 412
73.56003 449
73.58014 401
73.60026 378
73.62037 351
73.64048 382
73.6606 350
73.68071 349
73.70083 336
73.72094 347
73.74105 337
73.76117 309
73.78128 309
73.80139 329
73.82151 310
73.84162 307
73.86174 281
73.88185 301
73.90196 282
73.92208 292
73.94219 301
73.9623 316
73.98242 293
74.00253 304
74.02264 295
74.04276 306
74.06287 298
74.08299 285
74.1031 283
74.12321 327
74.14333 308
74.16344 278
74.18355 324
74.20367 300
74.22378 282
74.2439 296
74.26401 296
74.28412 311
74.30424 288
74.32435 305
74.34446 309
74.36458 291
74.38469 325
74.40481 291
74.42492 318
74.44503 283
74.46515 301
74.48526 305
74.50537 284
74.52549 278
74.5456 294
74.56571 301
74.58583 257
74.60594 301
74.62606 290
74.64617 291
74.66628 328
74.6864 297
74.70651 313
74.72662 295
74.74674 283
74.76685 312
74.78697 299
74.80708 317
74.82719 281
74.84731 310
74.86742 292
74.88753 282
74.90765 290
74.92776 273
74.94787 310
74.96799 318
74.9881 288
75.00822 316
