3.00117 15567
3.02128 15246
3.0414 14747
3.06151 14396
3.08162 14236
3.10174 13541
3.12185 13136
3.14197 12810
3.16208 12460
3.18219 11899
3.20231 11494
3.22242 11114
3.24253 10367
3.26265 10355
3.28276 10204
3.30288 9497
3.32299 9510
3.3431 9213
3.36322 8720
3.38333 8534
3.40344 7959
3.42356 7723
3.44367 7456
3.46379 7217
3.4839 7055
3.50401 6617
3.52413 6653
3.54424 6032
3.56435 5844
3.58447 5605
3.60458 5216
3.62469 5190
3.64481 4867
3.66492 4615
3.68504 4588
3.70515 4323
3.72526 4207
3.74538 3995
3.76549 3755
3.7856 3762
3.80572 3430
3.82583 3359
3.84595 3110
3.86606 2946
3.88617 2936
3.90629 2702
3.9264 2749
3.94651 2460
3.96663 2411
3.98674 2339
4.00686 2189
4.02697 2102
4.04708 1980
4.0672 1847
4.08731 1900
4.10742 1793
4.12754 1759
4.14765 1673
4.16776 1560
4.18788 1618
4.20799 1565
4.22811 1511
4.24822 1349
4.26833 1330
4.28845 1356
4.30856 1345
4.32867 1325
4.34879 1222
4.3689 1149
4.38902 1264
4.40913 1174
4.42924 1158
4.44936 1068
4.46947 1015
4.48958 1045
4.5097 1001
4.52981 1013
4.54992 910
4.57004 949
4.59015 901
4.61027 936
4.63038 803
4.65049 879
4.67061 796
4.69072 778
4.71083 812
4.73095 808
4.75106 750
4.77118 721
4.79129 725
4.8114 777
4.83152 666
4.85163 667
4.87174 611
4.89186 672
4.91197 651
4.93209 582
4.9522 580
4.97231 569
4.99243 590
5.01254 558
5.03265 493
5.05277 544
5.07288 513
5.09299 492
5.11311 526
5.13322 386
5.15334 495
5.17345 478
5.19356 420
5.21368 469
5.23379 421
5.2539 411
5.27402 425
5.29413 382
5.31425 466
5.33436 378
5.35447 342
5.37459 328
5.3947 366
5.41481 390
5.43493 317
5.45504 344
5.47516 304
5.49527 315
5.51538 304
5.5355 329
5.55561 309
5.57572 315
5.59584 273
5.61595 290
5.63606 265
5.65618 278
5.67629 256
5.69641 267
5.71652 269
5.73663 247
5.75675 251
5.77686 276
5.79697 220
5.81709 246
5.8372 211
5.85732 225
5.87743 233
5.89754 228
5.91766 245
5.93777 256
5.95788 235
5.978 223
5.99811 235
6.01823 215
6.03834 212
6.05845 199
6.07857 212
6.09868 209
6.11879 207
6.13891 205
6.15902 223
6.17913 214
6.19925 211
6.21936 230
6.23948 211
6.25959 221
6.2797 228
6.29982 213
6.31993 182
6.34004 204
6.36016 174
6.38027 209
6.40039 186
6.4205 187
6.44061 196
6.46073 204
6.48084 190
6.50095 193
6.52107 183
6.54118 181
6.56129 186
6.58141 183
6.60152 183
6.62164 181
6.64175 191
6.66186 178
6.68198 189
6.70209 181
6.7222 179
6.74232 207
6.76243 196
6.78255 176
6.80266 220
6.82277 204
6.84289 192
6.863 172
6.88311 182
6.90323 174
6.92334 192
6.94346 171
6.96357 194
6.98368 183
7.0038 182
7.02391 169
7.04402 173
7.06414 174
7.08425 163
7.10436 168
7.12448 195
7.14459 178
7.16471 178
7.18482 217
7.20493 189
7.22505 183
7.24516 192
7.26527 189
7.28539 201
7.3055 213
7.32562 188
7.34573 182
7.36584 198
7.38596 189
7.40607 232
7.42618 171
7.4463 186
7.46641 182
7.48653 154
7.50664 205
7.52675 182
7.54687 207
7.56698 205
7.58709 203
7.60721 187
7.62732 214
7.64743 203
7.66755 174
7.68766 203
7.70778 213
7.72789 173
7.748 161
7.76812 214
7.78823 224
7.80834 214
7.82846 193
7.84857 187
7.86869 188
7.8888 214
7.90891 209
7.92903 186
7.94914 196
7.96925 211
7.98937 208
8.00948 220
8.0296 195
8.04971 200
8.06982 201
8.08994 183
8.11005 210
8.13016 205
8.15028 201
8.17039 186
8.1905 218
8.21062 196
8.23073 213
8.25085 223
8.27096 176
8.29107 216
8.31119 190
8.3313 184
8.35141 190
8.37153 225
8.39164 221
8.41176 225
8.43187 220
8.45198 184
8.4721 211
8.49221 205
8.51232 220
8.53244 197
8.55255 232
8.57266 214
8.59278 249
8.61289 255
8.63301 205
8.65312 233
8.67323 244
8.69335 225
8.71346 242
8.73357 228
8.75369 213
8.7738 207
8.79392 189
8.81403 209
8.83414 216
8.85426 230
8.87437 210
8.89448 217
8.9146 210
8.93471 211
8.95483 202
8.97494 200
8.99505 226
9.01517 193
9.03528 229
9.05539 233
9.07551 212
9.09562 220
9.11573 238
9.13585 192
9.15596 209
9.17608 203
9.19619 207
9.2163 216
9.23642 232
9.25653 221
9.27664 272
9.29676 245
9.31687 208
9.33699 239
9.3571 219
9.37721 226
9.39733 228
9.41744 228
9.43755 230
9.45767 218
9.47778 193
9.4979 239
9.51801 191
9.53812 178
9.55824 215
9.57835 209
9.59846 230
9.61858 238
9.63869 198
9.6588 207
9.67892 214
9.69903 229
9.71915 234
9.73926 190
9.75937 217
9.77949 241
9.7996 240
9.81971 241
9.83983 242
9.85994 213
9.88006 251
9.90017 212
9.92028 208
9.9404 238
9.96051 224
9.98062 246
10.00074 219
10.02085 207
10.04097 212
10.06108 240
10.08119 197
10.10131 245
10.12142 261
10.14153 199
10.16165 218
10.18176 217
10.20187 208
10.22199 212
10.2421 237
10.26222 221
10.28233 235
10.30244 224
10.32256 236
10.34267 234
10.36278 214
10.3829 251
10.40301 232
10.42313 222
10.44324 230
10.46335 224
10.48347 261
10.50358 247
10.52369 242
10.54381 220
10.56392 282
10.58403 219
10.60415 270
10.62426 236
10.64438 222
10.66449 243
10.6846 207
10.70472 263
10.72483 247
10.74494 217
10.76506 242
10.78517 238
10.80529 257
10.8254 241
10.84551 229
10.86563 259
10.88574 234
10.90585 233
10.92597 221
10.94608 221
10.9662 235
10.98631 262
11.00642 214
11.02654 249
11.04665 170
11.06676 210
11.08688 215
11.10699 209
11.1271 213
11.14722 205
11.16733 216
11.18745 240
11.20756 224
11.22767 224
11.24779 240
11.2679 193
11.28801 205
11.30813 199
11.32824 201
11.34836 216
11.36847 205
11.38858 194
11.4087 232
11.42881 217
11.44892 200
11.46904 212
11.48915 228
11.50927 240
11.52938 196
11.54949 219
11.56961 221
11.58972 239
11.60983 273
11.62995 243
11.65006 226
11.67017 226
11.69029 231
11.7104 207
11.73052 221
11.75063 214
11.77074 236
11.79086 194
11.81097 221
11.83108 239
11.8512 235
11.87131 232
11.89143 196
11.91154 215
11.93165 225
11.95177 192
11.97188 247
11.99199 244
12.01211 217
12.03222 229
12.05234 269
12.07245 206
12.09256 218
12.11268 211
12.13279 213
12.1529 215
12.17302 197
12.19313 197
12.21324 230
12.23336 180
12.25347 214
12.27359 223
12.2937 207
12.31381 191
12.33393 237
12.35404 200
12.37415 207
12.39427 192
12.41438 208
12.4345 196
12.45461 225
12.47472 204
12.49484 208
12.51495 206
12.53506 214
12.55518 195
12.57529 222
12.5954 186
12.61552 195
12.63563 201
12.65575 226
12.67586 228
12.69597 189
12.71609 218
12.7362 221
12.75631 183
12.77643 191
12.79654 184
12.81666 203
12.83677 194
12.85688 219
12.877 181
12.89711 232
12.91722 190
12.93734 216
12.95745 177
12.97757 207
12.99768 221
13.01779 217
13.03791 218
13.05802 209
13.07813 166
13.09825 219
13.11836 246
13.13847 226
13.15859 208
13.1787 190
13.19882 210
13.21893 203
13.23904 205
13.25916 183
13.27927 235
13.29938 201
13.3195 178
13.33961 208
13.35973 189
13.37984 203
13.39995 211
13.42007 218
13.44018 205
13.46029 199
13.48041 232
13.50052 215
13.52064 196
13.54075 228
13.56086 193
13.58098 203
13.60109 235
13.6212 197
13.64132 201
13.66143 237
13.68154 225
13.70166 195
13.72177 207
13.74189 209
13.762 212
13.78211 202
13.80223 186
13.82234 187
13.84245 218
13.86257 191
13.88268 180
13.9028 207
13.92291 180
13.94302 180
13.96314 193
13.98325 191
14.00336 171
14.02348 184
14.04359 195
14.06371 172
14.08382 179
14.10393 189
14.12405 182
14.14416 195
14.16427 204
14.18439 200
14.2045 186
14.22461 176
14.24473 195
14.26484 173
14.28496 178
14.30507 185
14.32518 190
14.3453 189
14.36541 211
14.38552 172
14.40564 176
14.42575 156
14.44587 179
14.46598 208
14.48609 161
14.50621 188
14.52632 195
14.54643 195
14.56655 192
14.58666 191
14.60677 147
14.62689 196
14.647 172
14.66712 185
14.68723 179
14.70734 171
14.72746 176
14.74757 193
14.76768 183
14.7878 200
14.80791 169
14.82803 210
14.84814 161
14.86825 176
14.88837 195
14.90848 176
14.92859 185
14.94871 171
14.96882 221
14.98894 173
15.00905 219
15.02916 182
15.04928 203
15.06939 183
15.0895 171
15.10962 187
15.12973 178
15.14984 214
15.16996 179
15.19007 187
15.21019 177
15.2303 181
15.25041 148
15.27053 165
15.29064 178
15.31075 144
15.33087 169
15.35098 185
15.3711 154
15.39121 142
15.41132 162
15.43144 189
15.45155 190
15.47166 155
15.49178 162
15.51189 180
15.53201 185
15.55212 152
15.57223 167
15.59235 172
15.61246 164
15.63257 160
15.65269 164
15.6728 144
15.69291 150
15.71303 181
15.73314 176
15.75326 166
15.77337 169
15.79348 181
15.8136 149
15.83371 203
15.85382 167
15.87394 158
15.89405 162
15.91417 157
15.93428 172
15.95439 167
15.97451 166
15.99462 157
16.01473 140
16.03485 179
16.05496 144
16.07508 190
16.09519 147
16.1153 177
16.13542 180
16.15553 158
16.17564 167
16.19576 137
16.21587 159
16.23598 144
16.2561 148
16.27621 160
16.29633 186
16.31644 171
16.33655 158
16.35667 177
16.37678 146
16.39689 174
16.41701 156
16.43712 173
16.45724 176
16.47735 162
16.49746 151
16.51758 170
16.53769 164
16.5578 166
16.57792 144
16.59803 129
16.61814 137
16.63826 175
16.65837 170
16.67849 166
16.6986 145
16.71871 149
16.73883 160
16.75894 156
16.77905 187
16.79917 179
16.81928 175
16.8394 165
16.85951 146
16.87962 156
16.89974 168
16.91985 169
16.93996 159
16.96008 170
16.98019 196
17.00031 186
17.02042 154
17.04053 156
17.06065 194
17.08076 174
17.10087 144
17.12099 168
17.1411 153
17.16121 157
17.18133 156
17.20144 174
17.22156 173
17.24167 153
17.26178 156
17.2819 133
17.30201 154
17.32212 168
17.34224 162
17.36235 150
17.38247 161
17.40258 151
17.42269 166
17.44281 172
17.46292 137
17.48303 151
17.50315 152
17.52326 174
17.54338 145
17.56349 157
17.5836 174
17.60372 202
17.62383 159
17.64394 167
17.66406 174
17.68417 165
17.70428 173
17.7244 156
17.74451 143
17.76463 177
17.78474 170
17.80485 153
17.82497 146
17.84508 154
17.86519 156
17.88531 159
17.90542 151
17.92554 152
17.94565 163
17.96576 148
17.98588 153
18.00599 175
18.0261 164
18.04622 166
18.06633 142
18.08645 157
18.10656 163
18.12667 152
18.14679 124
18.1669 139
18.18701 129
18.20713 151
18.22724 177
18.24735 147
18.26747 164
18.28758 146
18.3077 161
18.32781 162
18.34792 153
18.36804 158
18.38815 162
18.40826 175
18.42838 156
18.44849 179
18.46861 155
18.48872 154
18.50883 160
18.52895 174
18.54906 142
18.56917 145
18.58929 162
18.6094 178
18.62951 126
18.64963 165
18.66974 147
18.68986 161
18.70997 151
18.73008 166
18.7502 170
18.77031 183
18.79042 178
18.81054 163
18.83065 172
18.85077 154
18.87088 145
18.89099 156
18.91111 148
18.93122 177
18.95133 146
18.97145 159
18.99156 169
19.01168 160
19.03179 146
19.0519 167
19.07202 173
19.09213 186
19.11224 163
19.13236 205
19.15247 176
19.17258 158
19.1927 172
19.21281 193
19.23293 151
19.25304 183
19.27315 159
19.29327 171
19.31338 158
19.33349 164
19.35361 165
19.37372 189
19.39384 191
19.41395 173
19.43406 214
19.45418 179
19.47429 165
19.4944 188
19.51452 191
19.53463 182
19.55475 190
19.57486 215
19.59497 227
19.61509 203
19.6352 204
19.65531 201
19.67543 238
19.69554 196
19.71565 238
19.73577 234
19.75588 242
19.776 240
19.79611 227
19.81622 261
19.83634 252
19.85645 252
19.87656 275
19.89668 247
19.91679 274
19.93691 267
19.95702 260
19.97713 269
19.99725 264
20.01736 289
20.03747 250
20.05759 252
20.0777 266
20.09782 290
20.11793 297
20.13804 300
20.15816 317
20.17827 293
20.19838 291
20.2185 249
20.23861 312
20.25872 294
20.27884 286
20.29895 302
20.31907 306
20.33918 309
20.35929 315
20.37941 295
20.39952 323
20.41963 304
20.43975 338
20.45986 337
20.47998 331
20.50009 357
20.5202 376
20.54032 388
20.56043 408
20.58054 461
20.60066 499
20.62077 569
20.64088 637
20.661 778
20.68111 1020
20.70123 1378
20.72134 1944
20.74145 2699
20.76157 3702
20.78168 4764
20.80179 6012
20.82191 6940
20.84202 7358
20.86214 6766
20.88225 5303
20.90236 3902
20.92248 2625
20.94259 1707
20.9627 1071
20.98282 864
21.00293 702
21.02305 696
21.04316 581
21.06327 572
21.08339 493
21.1035 427
21.12361 421
21.14373 369
21.16384 303
21.18395 292
21.20407 292
21.22418 268
21.2443 286
21.26441 244
21.28452 271
21.30464 273
21.32475 263
21.34486 242
21.36498 240
21.38509 255
21.40521 249
21.42532 235
21.44543 256
21.46555 236
21.48566 238
21.50577 246
21.52589 236
21.546 235
21.56612 211
21.58623 238
21.60634 267
21.62646 238
21.64657 222
21.66668 230
21.6868 230
21.70691 221
21.72702 223
21.74714 238
21.76725 238
21.78737 232
21.80748 211
21.82759 211
21.84771 232
21.86782 228
21.88793 225
21.90805 243
21.92816 287
21.94828 263
21.96839 250
21.9885 282
22.00862 268
22.02873 256
22.04884 244
22.06896 252
22.08907 220
22.10919 211
22.1293 235
22.14941 220
22.16953 231
22.18964 213
22.20975 209
22.22987 234
22.24998 240
22.27009 214
22.29021 235
22.31032 264
22.33044 252
22.35055 195
22.37066 231
22.39078 230
22.41089 218
22.431 191
22.45112 223
22.47123 235
22.49135 226
22.51146 212
22.53157 215
22.55169 240
22.5718 255
22.59191 240
22.61203 182
22.63214 236
22.65225 218
22.67237 201
22.69248 199
22.7126 205
22.73271 198
22.75282 217
22.77294 222
22.79305 170
22.81316 196
22.83328 216
22.85339 202
22.87351 201
22.89362 215
22.91373 229
22.93385 232
22.95396 229
22.97407 241
22.99419 244
23.0143 232
23.03442 225
23.05453 242
23.07464 228
23.09476 239
23.11487 206
23.13498 241
23.1551 265
23.17521 240
23.19532 259
23.21544 242
23.23555 253
23.25567 267
23.27578 222
23.29589 241
23.31601 260
23.33612 243
23.35623 229
23.37635 242
23.39646 256
23.41658 257
23.43669 229
23.4568 259
23.47692 288
23.49703 278
23.51714 256
23.53726 257
23.55737 246
23.57749 254
23.5976 278
23.61771 257
23.63783 265
23.65794 272
23.67805 239
23.69817 213
23.71828 246
23.73839 272
23.75851 262
23.77862 239
23.79874 263
23.81885 239
23.83896 271
23.85908 304
23.87919 267
23.8993 307
23.91942 305
23.93953 297
23.95965 344
23.97976 318
23.99987 343
24.01999 303
24.0401 263
24.06021 280
24.08033 254
24.10044 238
24.12056 226
24.14067 200
24.16078 239
24.1809 216
24.20101 234
24.22112 229
24.24124 228
24.26135 213
24.28146 244
24.30158 236
24.32169 251
24.34181 237
24.36192 203
24.38203 223
24.40215 226
24.42226 182
24.44237 204
24.46249 222
24.4826 211
24.50272 203
24.52283 220
24.54294 227
24.56306 202
24.58317 220
24.60328 230
24.6234 203
24.64351 222
24.66362 225
24.68374 229
24.70385 234
24.72397 241
24.74408 247
24.76419 218
24.78431 222
24.80442 219
24.82453 213
24.84465 233
24.86476 220
24.88488 219
24.90499 226
24.9251 246
24.94522 247
24.96533 237
24.98544 215
25.00556 234
25.02567 250
25.04579 214
25.0659 230
25.08601 213
25.10613 214
25.12624 234
25.14635 211
25.16647 222
25.18658 251
25.20669 235
25.22681 245
25.24692 215
25.26704 214
25.28715 254
25.30726 250
25.32738 202
25.34749 223
25.3676 221
25.38772 254
25.40783 267
25.42795 282
25.44806 292
25.46817 320
25.48829 321
25.5084 370
25.52851 394
25.54863 376
25.56874 408
25.58886 423
25.60897 409
25.62908 416
25.6492 399
25.66931 417
25.68942 417
25.70954 411
25.72965 425
25.74976 408
25.76988 464
25.78999 373
25.81011 407
25.83022 433
25.85033 411
25.87045 394
25.89056 422
25.91067 467
25.93079 410
25.9509 454
25.97102 466
25.99113 481
26.01124 496
26.03136 483
26.05147 540
26.07158 532
26.0917 601
26.11181 569
26.13193 612
26.15204 681
26.17215 719
26.19227 748
26.21238 768
26.23249 817
26.25261 935
26.27272 1053
26.29283 1130
26.31295 1299
26.33306 1451
26.35318 1665
26.37329 1940
26.3934 2412
26.41352 2986
26.43363 3792
26.45374 5023
26.47386 6899
26.49397 9688
26.51409 13091
26.5342 17580
26.55431 22261
26.57443 27536
26.59454 31180
26.61465 32263
26.63477 30319
26.65488 25730
26.67499 19590
26.69511 14230
26.71522 10003
26.73534 6206
26.75545 3556
26.77556 2363
26.79568 1788
26.81579 1477
26.8359 1335
26.85602 1229
26.87613 1178
26.89625 1084
26.91636 1010
26.93647 948
26.95659 849
26.9767 796
26.99681 823
27.01693 750
27.03704 711
27.05716 708
27.07727 644
27.09738 649
27.1175 563
27.13761 554
27.15772 517
27.17784 471
27.19795 506
27.21806 495
27.23818 459
27.25829 470
27.27841 491
27.29852 498
27.31863 521
27.33875 597
27.35886 585
27.37897 619
27.39909 619
27.4192 724
27.43932 707
27.45943 714
27.47954 714
27.49966 638
27.51977 576
27.53988 535
27.56 427
27.58011 416
27.60023 375
27.62034 393
27.64045 341
27.66057 399
27.68068 390
27.70079 396
27.72091 401
27.74102 401
27.76113 375
27.78125 387
27.80136 375
27.82148 405
27.84159 371
27.8617 363
27.88182 355
27.90193 359
27.92204 367
27.94216 355
27.96227 374
27.98239 327
28.0025 307
28.02261 289
28.04273 317
28.06284 269
28.08295 284
28.10307 285
28.12318 285
28.1433 288
28.16341 271
28.18352 247
28.20364 275
28.22375 280
28.24386 244
28.26398 275
28.28409 248
28.3042 271
28.32432 236
28.34443 244
28.36455 280
28.38466 214
28.40477 220
28.42489 254
28.445 269
28.46511 221
28.48523 277
28.50534 270
28.52546 243
28.54557 208
28.56568 229
28.5858 225
28.60591 217
28.62602 250
28.64614 225
28.66625 249
28.68636 249
28.70648 237
28.72659 232
28.74671 215
28.76682 226
28.78693 228
28.80705 221
28.82716 228
28.84727 225
28.86739 214
28.8875 241
28.90762 207
28.92773 229
28.94784 238
28.96796 222
28.98807 201
29.00818 218
29.0283 213
29.04841 253
29.06853 228
29.08864 213
29.10875 218
29.12887 193
29.14898 217
29.16909 206
29.18921 255
29.20932 239
29.22943 231
29.24955 245
29.26966 229
29.28978 232
29.30989 242
29.33 233
29.35012 242
29.37023 235
29.39034 236
29.41046 249
29.43057 260
29.45069 260
29.4708 275
29.49091 234
29.51103 231
29.53114 228
29.55125 269
29.57137 226
29.59148 237
29.6116 243
29.63171 240
29.65182 253
29.67194 253
29.69205 222
29.71216 228
29.73228 238
29.75239 264
29.7725 252
29.79262 237
29.81273 265
29.83285 247
29.85296 274
29.87307 248
29.89319 236
29.9133 244
29.93341 248
29.95353 224
29.97364 226
29.99376 239
30.01387 255
30.03398 235
30.0541 236
30.07421 242
30.09432 231
30.11444 242
30.13455 272
30.15467 251
30.17478 262
30.19489 253
30.21501 246
30.23512 250
30.25523 245
30.27535 266
30.29546 223
30.31557 242
30.33569 236
30.3558 215
30.37592 250
30.39603 228
30.41614 229
30.43626 246
30.45637 222
30.47648 217
30.4966 234
30.51671 195
30.53683 230
30.55694 208
30.57705 220
30.59717 240
30.61728 199
30.63739 219
30.65751 227
30.67762 244
30.69773 281
30.71785 257
30.73796 240
30.75808 270
30.77819 258
30.7983 271
30.81842 291
30.83853 264
30.85864 241
30.87876 244
30.89887 225
30.91899 231
30.9391 188
30.95921 187
30.97933 182
30.99944 178
31.01955 188
31.03967 191
31.05978 191
31.0799 192
31.10001 203
31.12012 193
31.14024 175
31.16035 174
31.18046 189
31.20058 189
31.22069 188
31.2408 184
31.26092 190
31.28103 196
31.30115 175
31.32126 194
31.34137 195
31.36149 185
31.3816 168
31.40171 201
31.42183 188
31.44194 207
31.46206 162
31.48217 157
31.50228 177
31.5224 200
31.54251 182
31.56262 178
31.58274 185
31.60285 189
31.62297 159
31.64308 178
31.66319 165
31.68331 148
31.70342 172
31.72353 170
31.74365 166
31.76376 165
31.78387 179
31.80399 161
31.8241 181
31.84422 170
31.86433 164
31.88444 170
31.90456 189
31.92467 162
31.94478 179
31.9649 168
31.98501 201
32.00513 174
32.02524 203
32.04535 166
32.06547 190
32.08558 195
32.10569 183
32.12581 205
32.14592 177
32.16604 202
32.18615 186
32.20626 177
32.22638 190
32.24649 175
32.2666 158
32.28672 195
32.30683 186
32.32694 193
32.34706 184
32.36717 197
32.38729 179
32.4074 204
32.42751 179
32.44763 206
32.46774 156
32.48785 210
32.50797 167
32.52808 167
32.5482 182
32.56831 133
32.58842 152
32.60854 186
32.62865 157
32.64876 168
32.66888 176
32.68899 183
32.7091 174
32.72922 144
32.74933 169
32.76945 149
32.78956 169
32.80967 179
32.82979 178
32.8499 164
32.87001 152
32.89013 171
32.91024 157
32.93036 152
32.95047 172
32.97058 163
32.9907 183
33.01081 159
33.03092 187
33.05104 176
33.07115 164
33.09127 163
33.11138 159
33.13149 154
33.15161 184
33.17172 169
33.19183 155
33.21195 182
33.23206 154
33.25217 162
33.27229 188
33.2924 163
33.31252 163
33.33263 149
33.35274 174
33.37286 143
33.39297 147
33.41308 166
33.4332 169
33.45331 158
33.47343 154
33.49354 149
33.51365 164
33.53377 161
33.55388 181
33.57399 169
33.59411 181
33.61422 138
33.63434 155
33.65445 162
33.67456 175
33.69468 144
33.71479 148
33.7349 173
33.75502 163
33.77513 163
33.79524 160
33.81536 164
33.83547 139
33.85559 146
33.8757 182
33.89581 153
33.91593 157
33.93604 161
33.95615 143
33.97627 156
33.99638 171
34.0165 144
34.03661 178
34.05672 167
34.07684 190
34.09695 166
34.11706 182
34.13718 211
34.15729 192
34.17741 169
34.19752 192
34.21763 182
34.23775 202
34.25786 201
34.27797 193
34.29809 196
34.3182 204
34.33831 204
34.35843 182
34.37854 191
34.39866 183
34.41877 188
34.43888 161
34.459 179
34.47911 204
34.49922 189
34.51934 182
34.53945 193
34.55957 217
34.57968 220
34.59979 211
34.61991 183
34.64002 196
34.66013 186
34.68025 216
34.70036 185
34.72047 208
34.74059 222
34.7607 221
34.78082 218
34.80093 224
34.82104 210
34.84116 206
34.86127 224
34.88138 214
34.9015 224
34.92161 213
34.94173 196
34.96184 199
34.98195 222
35.00207 229
35.02218 218
35.04229 205
35.06241 196
35.08252 204
35.10264 220
35.12275 217
35.14286 204
35.16298 235
35.18309 230
35.2032 200
35.22332 199
35.24343 205
35.26354 236
35.28366 228
35.30377 192
35.32389 213
35.344 237
35.36411 223
35.38423 193
35.40434 197
35.42445 228
35.44457 229
35.46468 218
35.4848 244
35.50491 233
35.52502 227
35.54514 232
35.56525 230
35.58536 205
35.60548 220
35.62559 223
35.64571 209
35.66582 233
35.68593 236
35.70605 226
35.72616 235
35.74627 209
35.76639 234
35.7865 209
35.80661 227
35.82673 183
35.84684 205
35.86696 211
35.88707 214
35.90718 199
35.9273 184
35.94741 214
35.96752 199
35.98764 178
36.00775 216
36.02787 197
36.04798 215
36.06809 206
36.08821 206
36.10832 223
36.12843 239
36.14855 236
36.16866 267
36.18878 262
36.20889 267
36.229 277
36.24912 300
36.26923 311
36.28934 372
36.30946 453
36.32957 503
36.34968 629
36.3698 719
36.38991 933
36.41003 1112
36.43014 1363
36.45025 1681
36.47037 1930
36.49048 2081
36.51059 2131
36.53071 2086
36.55082 1720
36.57094 1444
36.59105 1256
36.61116 1094
36.63128 847
36.65139 658
36.6715 477
36.69162 384
36.71173 287
36.73184 264
36.75196 266
36.77207 264
36.79219 239
36.8123 239
36.83241 231
36.85253 214
36.87264 225
36.89275 227
36.91287 232
36.93298 215
36.9531 189
36.97321 224
36.99332 201
37.01344 216
37.03355 201
37.05366 203
37.07378 216
37.09389 184
37.11401 211
37.13412 199
37.15423 204
37.17435 191
37.19446 167
37.21457 189
37.23469 186
37.2548 166
37.27491 206
37.29503 168
37.31514 194
37.33526 193
37.35537 187
37.37548 181
37.3956 163
37.41571 202
37.43582 187
37.45594 185
37.47605 181
37.49617 171
37.51628 159
37.53639 180
37.55651 150
37.57662 172
37.59673 204
37.61685 179
37.63696 192
37.65708 170
37.67719 160
37.6973 179
37.71742 171
37.73753 181
37.75764 160
37.77776 195
37.79787 180
37.81798 184
37.8381 171
37.85821 168
37.87833 195
37.89844 161
37.91855 164
37.93867 197
37.95878 182
37.97889 182
37.99901 166
38.01912 162
38.03924 169
38.05935 176
38.07946 166
38.09958 199
38.11969 163
38.1398 175
38.15992 156
38.18003 188
38.20015 188
38.22026 185
38.24037 180
38.26049 173
38.2806 183
38.30071 174
38.32083 198
38.34094 148
38.36105 197
38.38117 178
38.40128 188
38.4214 189
38.44151 203
38.46162 204
38.48174 190
38.50185 193
38.52196 185
38.54208 196
38.56219 180
38.58231 215
38.60242 204
38.62253 181
38.64265 164
38.66276 161
38.68287 176
38.70299 192
38.7231 173
38.74321 182
38.76333 189
38.78344 200
38.80356 188
38.82367 164
38.84378 162
38.8639 185
38.88401 193
38.90412 202
38.92424 195
38.94435 205
38.96447 210
38.98458 198
39.00469 221
39.02481 220
39.04492 222
39.06503 229
39.08515 213
39.10526 236
39.12538 250
39.14549 262
39.1656 319
39.18572 312
39.20583 350
39.22594 422
39.24606 463
39.26617 528
39.28628 647
39.3064 813
39.32651 1049
39.34663 1206
39.36674 1538
39.38685 1795
39.40697 1991
39.42708 2044
39.44719 2002
39.46731 1733
39.48742 1421
39.50754 1216
39.52765 1147
39.54776 945
39.56788 744
39.58799 628
39.6081 380
39.62822 343
39.64833 270
39.66845 307
39.68856 244
39.70867 237
39.72879 193
39.7489 186
39.76901 211
39.78913 203
39.80924 169
39.82935 216
39.84947 189
39.86958 203
39.8897 230
39.90981 198
39.92992 200
39.95004 256
39.97015 245
39.99026 239
40.01038 258
40.03049 281
40.05061 292
40.07072 341
40.09083 378
40.11095 405
40.13106 475
40.15117 583
40.17129 691
40.1914 813
40.21152 947
40.23163 1060
40.25174 1057
40.27186 1029
40.29197 950
40.31208 744
40.3322 667
40.35231 578
40.37242 541
40.39254 510
40.41265 359
40.43277 302
40.45288 220
40.47299 209
40.49311 199
40.51322 212
40.53333 215
40.55345 186
40.57356 201
40.59368 170
40.61379 174
40.6339 188
40.65402 162
40.67413 176
40.69424 163
40.71436 180
40.73447 163
40.75458 176
40.7747 157
40.79481 170
40.81493 158
40.83504 158
40.85515 148
40.87527 183
40.89538 171
40.91549 156
40.93561 186
40.95572 152
40.97584 156
40.99595 172
41.01606 198
41.03618 186
41.05629 158
41.0764 180
41.09652 170
41.11663 171
41.13675 175
41.15686 167
41.17697 153
41.19709 167
41.2172 188
41.23731 160
41.25743 175
41.27754 172
41.29765 157
41.31777 189
41.33788 196
41.358 178
41.37811 176
41.39822 187
41.41834 170
41.43845 179
41.45856 170
41.47868 199
41.49879 167
41.51891 190
41.53902 172
41.55913 190
41.57925 179
41.59936 198
41.61947 181
41.63959 191
41.6597 215
41.67982 212
41.69993 234
41.72004 212
41.74016 228
41.76027 245
41.78038 232
41.8005 232
41.82061 215
41.84072 227
41.86084 202
41.88095 211
41.90107 209
41.92118 193
41.94129 204
41.96141 194
41.98152 202
42.00163 163
42.02175 194
42.04186 220
42.06198 205
42.08209 205
42.1022 232
42.12232 244
42.14243 264
42.16254 276
42.18266 313
42.20277 324
42.22289 376
42.243 422
42.26311 532
42.28323 667
42.30334 768
42.32345 923
42.34357 1131
42.36368 1284
42.38379 1406
42.40391 1528
42.42402 1442
42.44414 1326
42.46425 1090
42.48436 1006
42.50448 868
42.52459 797
42.5447 704
42.56482 527
42.58493 405
42.60505 334
42.62516 250
42.64527 225
42.66539 237
42.6855 207
42.70561 215
42.72573 204
42.74584 203
42.76595 174
42.78607 205
42.80618 199
42.8263 208
42.84641 174
42.86652 178
42.88664 171
42.90675 188
42.92686 172
42.94698 175
42.96709 158
42.98721 189
43.00732 158
43.02743 161
43.04755 176
43.06766 183
43.08777 146
43.10789 159
43.128 162
43.14812 160
43.16823 147
43.18834 178
43.20846 160
43.22857 166
43.24868 134
43.2688 164
43.28891 157
43.30902 148
43.32914 133
43.34925 174
43.36937 150
43.38948 162
43.40959 163
43.42971 151
43.44982 158
43.46993 171
43.49005 151
43.51016 155
43.53028 137
43.55039 145
43.5705 154
43.59062 166
43.61073 134
43.63084 149
43.65096 145
43.67107 139
43.69119 147
43.7113 172
43.73141 157
43.75153 161
43.77164 133
43.79175 150
43.81187 152
43.83198 164
43.85209 152
43.87221 147
43.89232 168
43.91244 153
43.93255 147
43.95266 160
43.97278 164
43.99289 166
44.013 157
44.03312 155
44.05323 171
44.07335 143
44.09346 157
44.11357 165
44.13369 171
44.1538 163
44.17391 145
44.19403 172
44.21414 151
44.23426 151
44.25437 169
44.27448 161
44.2946 171
44.31471 160
44.33482 165
44.35494 152
44.37505 165
44.39516 140
44.41528 142
44.43539 166
44.45551 162
44.47562 148
44.49573 163
44.51585 151
44.53596 157
44.55607 145
44.57619 154
44.5963 167
44.61642 152
44.63653 148
44.65664 159
44.67676 157
44.69687 138
44.71698 149
44.7371 173
44.75721 150
44.77732 154
44.79744 165
44.81755 171
44.83767 168
44.85778 148
44.87789 166
44.89801 135
44.91812 154
44.93823 173
44.95835 153
44.97846 170
44.99858 164
45.01869 138
45.0388 151
45.05892 130
45.07903 148
45.09914 158
45.11926 149
45.13937 134
45.15949 181
45.1796 157
45.19971 160
45.21983 173
45.23994 154
45.26005 181
45.28017 165
45.30028 160
45.32039 174
45.34051 216
45.36062 165
45.38074 200
45.40085 190
45.42096 209
45.44108 193
45.46119 215
45.4813 198
45.50142 248
45.52153 266
45.54165 268
45.56176 339
45.58187 379
45.60199 402
45.6221 482
45.64221 540
45.66233 637
45.68244 777
45.70256 881
45.72267 931
45.74278 997
45.7629 946
45.78301 873
45.80312 752
45.82324 684
45.84335 596
45.86346 602
45.88358 523
45.90369 426
45.92381 402
45.94392 280
45.96403 216
45.98415 197
46.00426 191
46.02437 165
46.04449 172
46.0646 172
46.08472 156
46.10483 158
46.12494 160
46.14506 180
46.16517 158
46.18528 176
46.2054 134
46.22551 171
46.24563 162
46.26574 160
46.28585 178
46.30597 146
46.32608 144
46.34619 157
46.36631 145
46.38642 161
46.40653 141
46.42665 133
46.44676 156
46.46688 177
46.48699 155
46.5071 166
46.52722 153
46.54733 157
46.56744 147
46.58756 162
46.60767 130
46.62779 142
46.6479 139
46.66801 133
46.68813 138
46.70824 132
46.72835 129
46.74847 151
46.76858 132
46.78869 144
46.80881 134
46.82892 153
46.84904 148
46.86915 147
46.88926 133
46.90938 123
46.92949 149
46.9496 131
46.96972 163
46.98983 135
47.00995 151
47.03006 163
47.05017 154
47.07029 176
47.0904 178
47.11051 162
47.13063 163
47.15074 166
47.17086 152
47.19097 137
47.21108 169
47.2312 154
47.25131 144
47.27142 144
47.29154 150
47.31165 149
47.33176 130
47.35188 163
47.37199 137
47.39211 148
47.41222 150
47.43233 164
47.45245 163
47.47256 153
47.49267 158
47.51279 155
47.5329 131
47.55302 161
47.57313 170
47.59324 158
47.61336 145
47.63347 137
47.65358 138
47.6737 139
47.69381 142
47.71393 131
47.73404 133
47.75415 131
47.77427 148
47.79438 130
47.81449 145
47.83461 137
47.85472 141
47.87483 130
47.89495 146
47.91506 134
47.93518 141
47.95529 141
47.9754 143
47.99552 138
48.01563 152
48.03574 142
48.05586 148
48.07597 145
48.09609 136
48.1162 138
48.13631 153
48.15643 138
48.17654 150
48.19665 145
48.21677 148
48.23688 127
48.257 147
48.27711 145
48.29722 131
48.31734 147
48.33745 147
48.35756 154
48.37768 135
48.39779 152
48.4179 168
48.43802 154
48.45813 144
48.47825 151
48.49836 146
48.51847 112
48.53859 152
48.5587 148
48.57881 144
48.59893 169
48.61904 150
48.63916 165
48.65927 139
48.67938 161
48.6995 145
48.71961 164
48.73972 149
48.75984 160
48.77995 150
48.80006 172
48.82018 158
48.84029 146
48.86041 165
48.88052 164
48.90063 169
48.92075 185
48.94086 156
48.96097 192
48.98109 182
49.0012 161
49.02132 170
49.04143 177
49.06154 166
49.08166 179
49.10177 166
49.12188 173
49.142 181
49.16211 168
49.18223 144
49.20234 178
49.22245 185
49.24257 179
49.26268 173
49.28279 158
49.30291 171
49.32302 165
49.34313 148
49.36325 179
49.38336 163
49.40348 161
49.42359 189
49.4437 197
49.46382 180
49.48393 178
49.50404 174
49.52416 172
49.54427 194
49.56439 192
49.5845 204
49.60461 211
49.62473 232
49.64484 235
49.66495 258
49.68507 258
49.70518 260
49.7253 290
49.74541 300
49.76552 341
49.78564 373
49.80575 407
49.82586 455
49.84598 509
49.86609 559
49.8862 628
49.90632 740
49.92643 904
49.94655 1071
49.96666 1379
49.98677 1631
50.00689 1953
50.027 2334
50.04711 2713
50.06723 3049
50.08734 3289
50.10746 3072
50.12757 2815
50.14768 2322
50.1678 1961
50.18791 1821
50.20802 1720
50.22814 1620
50.24825 1434
50.26837 1204
50.28848 773
50.30859 543
50.32871 424
50.34882 338
50.36893 338
50.38905 317
50.40916 303
50.42927 301
50.44939 287
50.4695 312
50.48962 329
50.50973 309
50.52984 312
50.54996 316
50.57007 335
50.59018 309
50.6103 297
50.63041 268
50.65053 275
50.67064 241
50.69075 263
50.71087 228
50.73098 206
50.75109 212
50.77121 209
50.79132 210
50.81143 179
50.83155 198
50.85166 182
50.87178 171
50.89189 163
50.912 154
50.93212 167
50.95223 154
50.97234 142
50.99246 158
51.01257 148
51.03269 147
51.0528 154
51.07291 138
51.09303 150
51.11314 154
51.13325 145
51.15337 162
51.17348 173
51.1936 171
51.21371 159
51.23382 176
51.25394 150
51.27405 152
51.29416 144
51.31428 160
51.33439 160
51.3545 153
51.37462 159
51.39473 155
51.41485 143
51.43496 125
51.45507 137
51.47519 128
51.4953 130
51.51541 147
51.53553 153
51.55564 124
51.57576 129
51.59587 126
51.61598 128
51.6361 143
51.65621 129
51.67632 118
51.69644 132
51.71655 136
51.73667 123
51.75678 124
51.77689 135
51.79701 126
51.81712 146
51.83723 134
51.85735 142
51.87746 126
51.89757 132
51.91769 139
51.9378 146
51.95792 110
51.97803 139
51.99814 134
52.01826 133
52.03837 128
52.05848 110
52.0786 120
52.09871 139
52.11883 131
52.13894 116
52.15905 120
52.17917 124
52.19928 139
52.21939 149
52.23951 129
52.25962 125
52.27974 132
52.29985 129
52.31996 138
52.34008 116
52.36019 130
52.3803 130
52.40042 141
52.42053 111
52.44064 128
52.46076 130
52.48087 145
52.50099 131
52.5211 130
52.54121 139
52.56133 146
52.58144 120
52.60155 138
52.62167 131
52.64178 141
52.6619 145
52.68201 134
52.70212 144
52.72224 148
52.74235 141
52.76246 137
52.78258 149
52.80269 148
52.8228 150
52.84292 117
52.86303 153
52.88315 126
52.90326 136
52.92337 141
52.94349 123
52.9636 116
52.98371 164
53.00383 130
53.02394 118
53.04406 144
53.06417 129
53.08428 139
53.1044 159
53.12451 141
53.14462 144
53.16474 132
53.18485 155
53.20497 142
53.22508 118
53.24519 139
53.26531 134
53.28542 153
53.30553 151
53.32565 129
53.34576 154
53.36587 151
53.38599 126
53.4061 158
53.42622 126
53.44633 154
53.46644 145
53.48656 133
53.50667 145
53.52678 134
53.5469 157
53.56701 134
53.58713 132
53.60724 143
53.62735 160
53.64747 146
53.66758 138
53.68769 136
53.70781 142
53.72792 153
53.74804 160
53.76815 171
53.78826 153
53.80838 158
53.82849 148
53.8486 158
53.86872 159
53.88883 130
53.90894 141
53.92906 146
53.94917 156
53.96929 170
53.9894 166
54.00951 155
54.02963 164
54.04974 143
54.06985 148
54.08997 175
54.11008 149
54.1302 146
54.15031 159
54.17042 156
54.19054 148
54.21065 148
54.23076 169
54.25088 183
54.27099 166
54.29111 173
54.31122 174
54.33133 161
54.35145 173
54.37156 167
54.39167 195
54.41179 188
54.4319 170
54.45201 204
54.47213 200
54.49224 208
54.51236 218
54.53247 239
54.55258 249
54.5727 251
54.59281 260
54.61292 273
54.63304 331
54.65315 376
54.67327 428
54.69338 487
54.71349 583
54.73361 622
54.75372 829
54.77383 866
54.79395 932
54.81406 996
54.83417 1002
54.85429 883
54.8744 734
54.89452 585
54.91463 615
54.93474 572
54.95486 599
54.97497 546
54.99508 526
55.0152 493
55.03531 395
55.05543 326
55.07554 299
55.09565 298
55.11577 290
55.13588 329
55.15599 308
55.17611 358
55.19622 405
55.21634 416
55.23645 484
55.25656 509
55.27668 515
55.29679 512
55.3169 447
55.33702 393
55.35713 316
55.37724 365
55.39736 377
55.41747 331
55.43759 303
55.4577 292
55.47781 237
55.49793 213
55.51804 208
55.53815 152
55.55827 169
55.57838 176
55.5985 147
55.61861 158
55.63872 168
55.65884 178
55.67895 157
55.69906 163
55.71918 147
55.73929 143
55.75941 150
55.77952 148
55.79963 131
55.81975 141
55.83986 151
55.85997 150
55.88009 152
55.9002 149
55.92031 141
55.94043 163
55.96054 124
55.98066 129
56.00077 124
56.02088 145
56.041 180
56.06111 138
56.08122 140
56.10134 144
56.12145 144
56.14157 128
56.16168 150
56.18179 132
56.20191 136
56.22202 146
56.24213 140
56.26225 140
56.28236 149
56.30248 124
56.32259 124
56.3427 156
56.36282 131
56.38293 125
56.40304 144
56.42316 118
56.44327 142
56.46338 134
56.4835 152
56.50361 134
56.52373 149
56.54384 117
56.56395 141
56.58407 137
56.60418 143
56.62429 157
56.64441 141
56.66452 156
56.68464 161
56.70475 149
56.72486 138
56.74498 156
56.76509 140
56.7852 154
56.80532 125
56.82543 135
56.84554 143
56.86566 134
56.88577 141
56.90589 135
56.926 135
56.94611 130
56.96623 159
56.98634 144
57.00645 161
57.02657 166
57.04668 142
57.0668 151
57.08691 140
57.10702 161
57.12714 200
57.14725 184
57.16736 201
57.18748 200
57.20759 188
57.22771 161
57.24782 159
57.26793 174
57.28805 159
57.30816 138
57.32827 135
57.34839 139
57.3685 141
57.38861 151
57.40873 143
57.42884 138
57.44896 141
57.46907 130
57.48918 142
57.5093 147
57.52941 149
57.54952 126
57.56964 144
57.58975 161
57.60987 145
57.62998 131
57.65009 135
57.67021 132
57.69032 135
57.71043 113
57.73055 121
57.75066 125
57.77078 142
57.79089 159
57.811 151
57.83112 145
57.85123 129
57.87134 126
57.89146 140
57.91157 121
57.93168 137
57.9518 133
57.97191 125
57.99203 127
58.01214 145
58.03225 146
58.05237 137
58.07248 150
58.09259 136
58.11271 150
58.13282 143
58.15294 137
58.17305 138
58.19316 156
58.21328 131
58.23339 138
58.2535 150
58.27362 113
58.29373 136
58.31385 126
58.33396 134
58.35407 155
58.37419 131
58.3943 127
58.41441 144
58.43453 132
58.45464 126
58.47475 142
58.49487 158
58.51498 148
58.5351 152
58.55521 145
58.57532 148
58.59544 193
58.61555 156
58.63566 139
58.65578 161
58.67589 143
58.69601 153
58.71612 141
58.73623 138
58.75635 133
58.77646 150
58.79657 130
58.81669 143
58.8368 141
58.85691 134
58.87703 137
58.89714 163
58.91726 154
58.93737 135
58.95748 130
58.9776 147
58.99771 132
59.01782 117
59.03794 138
59.05805 120
59.07817 146
59.09828 169
59.11839 149
59.13851 137
59.15862 141
59.17873 142
59.19885 146
59.21896 133
59.23908 157
59.25919 148
59.2793 167
59.29942 181
59.31953 168
59.33964 155
59.35976 178
59.37987 181
59.39998 172
59.4201 183
59.44021 197
59.46033 183
59.48044 199
59.50055 221
59.52067 235
59.54078 228
59.56089 254
59.58101 281
59.60112 282
59.62124 314
59.64135 374
59.66146 394
59.68158 463
59.70169 499
59.7218 630
59.74192 723
59.76203 796
59.78215 1013
59.80226 1146
59.82237 1394
59.84249 1560
59.8626 1868
59.88271 1977
59.90283 1950
59.92294 1972
59.94305 1697
59.96317 1481
59.98328 1222
60.0034 1127
60.02351 1056
60.04362 1081
60.06374 1086
60.08385 969
60.10396 834
60.12408 698
60.14419 488
60.16431 374
60.18442 301
60.20453 218
60.22465 213
60.24476 243
60.26487 223
60.28499 167
60.3051 189
60.32522 175
60.34533 184
60.36544 197
60.38556 189
60.40567 160
60.42578 163
60.4459 154
60.46601 149
60.48612 167
60.50624 165
60.52635 156
60.54647 159
60.56658 136
60.58669 158
60.60681 145
60.62692 143
60.64703 164
60.66715 145
60.68726 172
60.70738 139
60.72749 128
60.7476 160
60.76772 133
60.78783 142
60.80794 152
60.82806 139
60.84817 126
60.86828 154
60.8884 155
60.90851 129
60.92863 116
60.94874 132
60.96885 157
60.98897 133
61.00908 145
61.02919 134
61.04931 163
61.06942 141
61.08954 138
61.10965 139
61.12976 160
61.14988 161
61.16999 137
61.1901 138
61.21022 157
61.23033 156
61.25045 160
61.27056 155
61.29067 148
61.31079 153
61.3309 159
61.35101 141
61.37113 157
61.39124 127
61.41135 145
61.43147 141
61.45158 139
61.4717 136
61.49181 144
61.51192 143
61.53204 138
61.55215 133
61.57226 142
61.59238 160
61.61249 146
61.63261 164
61.65272 177
61.67283 148
61.69295 135
61.71306 151
61.73317 135
61.75329 158
61.7734 159
61.79352 154
61.81363 139
61.83374 150
61.85386 134
61.87397 160
61.89408 167
61.9142 158
61.93431 164
61.95442 170
61.97454 152
61.99465 174
62.01477 145
62.03488 147
62.05499 136
62.07511 150
62.09522 140
62.11533 157
62.13545 134
62.15556 143
62.17568 140
62.19579 147
62.2159 171
62.23602 159
62.25613 153
62.27624 159
62.29636 142
62.31647 143
62.33659 134
62.3567 124
62.37681 125
62.39693 152
62.41704 136
62.43715 155
62.45727 164
62.47738 138
62.49749 130
62.51761 148
62.53772 164
62.55784 143
62.57795 140
62.59806 144
62.61818 140
62.63829 123
62.6584 162
62.67852 147
62.69863 137
62.71875 135
62.73886 129
62.75897 145
62.77909 156
62.7992 135
62.81931 122
62.83943 161
62.85954 133
62.87965 128
62.89977 156
62.91988 146
62.94 154
62.96011 160
62.98022 134
63.00034 148
63.02045 139
63.04056 139
63.06068 158
63.08079 145
63.10091 139
63.12102 131
63.14113 125
63.16125 129
63.18136 116
63.20147 142
63.22159 142
63.2417 141
63.26182 142
63.28193 138
63.30204 142
63.32216 142
63.34227 129
63.36238 125
63.3825 123
63.40261 116
63.42272 136
63.44284 146
63.46295 153
63.48307 159
63.50318 134
63.52329 124
63.54341 146
63.56352 146
63.58363 166
63.60375 156
63.62386 155
63.64398 146
63.66409 162
63.6842 159
63.70432 163
63.72443 175
63.74454 177
63.76466 189
63.78477 239
63.80489 237
63.825 263
63.84511 273
63.86523 298
63.88534 332
63.90545 386
63.92557 421
63.94568 460
63.96579 468
63.98591 441
64.00602 456
64.02614 425
64.04625 334
64.06636 337
64.08648 310
64.10659 293
64.1267 310
64.14682 306
64.16693 290
64.18705 261
64.20716 255
64.22727 204
64.24739 158
64.2675 153
64.28761 154
64.30773 158
64.32784 137
64.34796 153
64.36807 150
64.38818 149
64.4083 146
64.42841 143
64.44852 120
64.46864 131
64.48875 145
64.50886 139
64.52898 134
64.54909 138
64.56921 129
64.58932 120
64.60943 117
64.62955 109
64.64966 152
64.66977 143
64.68989 131
64.71 128
64.73012 139
64.75023 119
64.77034 123
64.79046 127
64.81057 153
64.83068 129
64.8508 139
64.87091 126
64.89102 128
64.91114 147
64.93125 144
64.95137 137
64.97148 151
64.99159 146
65.01171 129
65.03182 119
65.05193 113
65.07205 138
65.09216 130
65.11228 126
65.13239 121
65.1525 133
65.17262 125
65.19273 130
65.21284 130
65.23296 147
65.25307 132
65.27319 134
65.2933 131
65.31341 154
65.33353 130
65.35364 166
65.37375 150
65.39387 133
65.41398 150
65.43409 152
65.45421 136
65.47432 134
65.49444 174
65.51455 143
65.53466 164
65.55478 167
65.57489 164
65.595 160
65.61512 187
65.63523 180
65.65535 220
65.67546 196
65.69557 197
65.71569 208
65.7358 227
65.75591 194
65.77603 185
65.79614 150
65.81626 163
65.83637 155
65.85648 158
65.8766 191
65.89671 167
65.91682 164
65.93694 159
65.95705 161
65.97716 136
65.99728 141
66.01739 137
66.03751 136
66.05762 150
66.07773 170
66.09785 126
66.11796 132
66.13807 138
66.15819 135
66.1783 145
66.19842 138
66.21853 144
66.23864 128
66.25876 148
66.27887 142
66.29898 137
66.3191 135
66.33921 142
66.35933 146
66.37944 140
66.39955 143
66.41967 143
66.43978 119
66.45989 162
66.48001 151
66.50012 164
66.52023 129
66.54035 136
66.56046 156
66.58058 143
66.60069 129
66.6208 130
66.64092 141
66.66103 129
66.68114 109
66.70126 152
66.72137 127
66.74149 156
66.7616 135
66.78171 141
66.80183 155
66.82194 135
66.84205 132
66.86217 148
66.88228 147
66.90239 143
66.92251 148
66.94262 146
66.96274 146
66.98285 152
67.00296 163
67.02308 134
67.04319 159
67.0633 157
67.08342 178
67.10353 157
67.12365 172
67.14376 177
67.16387 190
67.18399 177
67.2041 174
67.22421 191
67.24433 183
67.26444 211
67.28456 209
67.30467 184
67.32478 229
67.3449 233
67.36501 241
67.38512 219
67.40524 269
67.42535 284
67.44546 299
67.46558 369
67.48569 391
67.50581 432
67.52592 518
67.54603 580
67.56615 642
67.58626 786
67.60637 890
67.62649 980
67.6466 1086
67.66672 1202
67.68683 1209
67.70694 1171
67.72706 1078
67.74717 940
67.76728 824
67.7874 812
67.80751 789
67.82763 828
67.84774 881
67.86785 888
67.88797 923
67.90808 909
67.92819 895
67.94831 981
67.96842 979
67.98853 1102
68.00865 1185
68.02876 1396
68.04888 1447
68.06899 1540
68.0891 1618
68.10922 1582
68.12933 1464
68.14944 1422
68.16956 1305
68.18967 1309
68.20979 1407
68.2299 1445
68.25001 1483
68.27013 1422
68.29024 1346
68.31035 1203
68.33047 959
68.35058 802
68.3707 687
68.39081 610
68.41092 577
68.43104 562
68.45115 552
68.47126 516
68.49138 486
68.51149 361
68.5316 308
68.55172 254
68.57183 232
68.59195 224
68.61206 183
68.63217 183
68.65229 189
68.6724 170
68.69251 191
68.71263 151
68.73274 159
68.75286 153
68.77297 155
68.79308 163
68.8132 163
68.83331 153
68.85342 157
68.87354 160
68.89365 159
68.91376 154
68.93388 135
68.95399 152
68.97411 148
68.99422 153
69.01433 148
69.03445 120
69.05456 134
69.07467 141
69.09479 140
69.1149 154
69.13502 142
69.15513 119
69.17524 143
69.19536 127
69.21547 129
69.23558 139
69.2557 142
69.27581 138
69.29593 112
69.31604 138
69.33615 152
69.35627 123
69.37638 117
69.39649 130
69.41661 138
69.43672 143
69.45683 145
69.47695 120
69.49706 116
69.51718 137
69.53729 131
69.5574 139
69.57752 141
69.59763 122
69.61774 124
69.63786 132
69.65797 106
69.67809 110
69.6982 126
69.71831 140
69.73843 127
69.75854 138
69.77865 118
69.79877 106
69.81888 118
69.839 111
69.85911 114
69.87922 105
69.89934 123
69.91945 131
69.93956 130
69.95968 124
69.97979 125
69.9999 121
70.02002 133
70.04013 122
70.06025 135
70.08036 136
70.10047 126
70.12059 115
70.1407 132
70.16081 134
70.18093 137
70.20104 100
70.22116 132
70.24127 113
70.26138 124
70.2815 114
70.30161 122
70.32172 115
70.34184 117
70.36195 113
70.38207 106
70.40218 133
70.42229 105
70.44241 134
70.46252 147
70.48263 112
70.50275 112
70.52286 120
70.54297 110
70.56309 124
70.5832 115
70.60332 137
70.62343 125
70.64354 143
70.66366 120
70.68377 119
70.70388 125
70.724 110
70.74411 106
70.76423 122
70.78434 135
70.80445 117
70.82457 129
70.84468 133
70.86479 117
70.88491 120
70.90502 107
70.92513 118
70.94525 127
70.96536 127
70.98548 107
71.00559 102
71.0257 125
71.04582 127
71.06593 121
71.08604 134
71.10616 130
71.12627 117
71.14639 132
71.1665 117
71.18661 124
71.20673 119
71.22684 126
71.24695 117
71.26707 117
71.28718 120
71.3073 118
71.32741 111
71.34752 122
71.36764 113
71.38775 125
71.40786 124
71.42798 116
71.44809 122
71.4682 129
71.48832 122
71.50843 104
71.52855 119
71.54866 131
71.56877 127
71.58889 109
71.609 130
71.62911 121
71.64923 127
71.66934 119
71.68946 128
71.70957 127
71.72968 133
71.7498 127
71.76991 97
71.79002 123
71.81014 135
71.83025 130
71.85037 125
71.87048 130
71.89059 119
71.91071 139
71.93082 125
71.95093 131
71.97105 115
71.99116 121
72.01127 124
72.03139 121
72.0515 99
72.07162 109
72.09173 114
72.11184 137
72.13196 123
72.15207 132
72.17218 140
72.1923 123
72.21241 114
72.23253 110
72.25264 130
72.27275 142
72.29287 131
72.31298 130
72.33309 129
72.35321 119
72.37332 115
72.39344 133
72.41355 129
72.43366 118
72.45378 127
72.47389 135
72.494 130
72.51412 118
72.53423 120
72.55434 129
72.57446 129
72.59457 135
72.61469 122
72.6348 132
72.65491 125
72.67503 130
72.69514 128
72.71525 123
72.73537 146
72.75548 124
72.7756 135
72.79571 117
72.81582 120
72.83594 121
72.85605 129
72.87616 127
72.89628 132
72.91639 145
72.9365 134
72.95662 143
72.97673 144
72.99685 147
73.01696 152
73.03707 142
73.05719 149
73.0773 158
73.09741 176
73.11753 184
73.13764 175
73.15776 161
73.17787 186
73.19798 191
73.2181 215
73.23821 242
73.25832 273
73.27844 314
73.29855 348
73.31867 388
73.33878 431
73.35889 454
73.37901 440
73.39912 475
73.41923 494
73.43935 451
73.45946 406
73.47957 346
73.49969 326
73.5198 285
73.53992 266
73.56003 279
73.58014 298
73.60026 295
73.62037 290
73.64048 303
73.6606 262
73.68071 230
73.70083 218
73.72094 198
73.74105 160
73.76117 165
73.78128 139
73.80139 149
73.82151 134
73.84162 142
73.86174 132
73.88185 123
73.90196 139
73.92208 143
73.94219 146
73.9623 132
73.98242 130
74.00253 126
74.02264 116
74.04276 138
74.06287 118
74.08299 128
74.1031 143
74.12321 121
74.14333 133
74.16344 135
74.18355 115
74.20367 143
74.22378 115
74.2439 112
74.26401 134
74.28412 116
74.30424 136
74.32435 123
74.34446 138
74.36458 130
74.38469 120
74.40481 113
74.42492 117
74.44503 119
74.46515 106
74.48526 134
74.50537 113
74.52549 117
74.5456 124
74.56571 132
74.58583 143
74.60594 120
74.62606 130
74.64617 127
74.66628 109
74.6864 143
74.70651 146
74.72662 116
74.74674 120
74.76685 119
74.78697 125
74.80708 135
74.82719 155
74.84731 141
74.86742 131
74.88753 125
74.90765 143
74.92776 128
74.94787 126
74.96799 142
74.9881 151
75.00822 154
