3.00117 20363
3.02128 20003
3.0414 19387
3.06151 18927
3.08162 18443
3.10174 17797
3.12185 17707
3.14197 17093
3.16208 16181
3.18219 16071
3.20231 15484
3.22242 15149
3.24253 14744
3.26265 13951
3.28276 13599
3.30288 13464
3.32299 12673
3.3431 12432
3.36322 12174
3.38333 11934
3.40344 11222
3.42356 10693
3.44367 10521
3.46379 10211
3.4839 10019
3.50401 9485
3.52413 9288
3.54424 8870
3.56435 8585
3.58447 8403
3.60458 7882
3.62469 7717
3.64481 7612
3.66492 6977
3.68504 7052
3.70515 6495
3.72526 6373
3.74538 6188
3.76549 5804
3.7856 5735
3.80572 5404
3.82583 5301
3.84595 5174
3.86606 4724
3.88617 4542
3.90629 4392
3.9264 4291
3.94651 4179
3.96663 3688
3.98674 3726
4.00686 3613
4.02697 3449
4.04708 3427
4.0672 3118
4.08731 3077
4.10742 2843
4.12754 2766
4.14765 2714
4.16776 2525
4.18788 2458
4.20799 2343
4.22811 2332
4.24822 2274
4.26833 2093
4.28845 2016
4.30856 2051
4.32867 1877
4.34879 2059
4.3689 1774
4.38902 1843
4.40913 1835
4.42924 1710
4.44936 1811
4.46947 1590
4.48958 1584
4.5097 1450
4.52981 1528
4.54992 1549
4.57004 1400
4.59015 1424
4.61027 1381
4.63038 1344
4.65049 1351
4.67061 1329
4.69072 1286
4.71083 1258
4.73095 1194
4.75106 1255
4.77118 1181
4.79129 1177
4.8114 1097
4.83152 1071
4.85163 1144
4.87174 1038
4.89186 979
4.91197 1053
4.93209 1008
4.9522 1067
4.97231 928
4.99243 940
5.01254 890
5.03265 900
5.05277 866
5.07288 872
5.09299 949
5.11311 860
5.13322 927
5.15334 863
5.17345 804
5.19356 826
5.21368 758
5.23379 740
5.2539 800
5.27402 716
5.29413 705
5.31425 744
5.33436 762
5.35447 682
5.37459 679
5.3947 683
5.41481 700
5.43493 706
5.45504 646
5.47516 648
5.49527 638
5.51538 672
5.5355 629
5.55561 587
5.57572 600
5.59584 634
5.61595 580
5.63606 582
5.65618 564
5.67629 538
5.69641 575
5.71652 566
5.73663 541
5.75675 554
5.77686 563
5.79697 550
5.81709 522
5.8372 554
5.85732 490
5.87743 476
5.89754 506
5.91766 512
5.93777 493
5.95788 439
5.978 510
5.99811 499
6.01823 473
6.03834 545
6.05845 474
6.07857 498
6.09868 455
6.11879 439
6.13891 460
6.15902 517
6.17913 475
6.19925 495
6.21936 481
6.23948 437
6.25959 466
6.2797 460
6.29982 462
6.31993 451
6.34004 503
6.36016 440
6.38027 434
6.40039 449
6.4205 462
6.44061 452
6.46073 462
6.48084 487
6.50095 433
6.52107 439
6.54118 430
6.56129 430
6.58141 457
6.60152 435
6.62164 460
6.64175 426
6.66186 394
6.68198 493
6.70209 411
6.7222 489
6.74232 456
6.76243 424
6.78255 444
6.80266 450
6.82277 444
6.84289 440
6.863 436
6.88311 456
6.90323 420
6.92334 493
6.94346 405
6.96357 431
6.98368 442
7.0038 476
7.02391 436
7.04402 436
7.06414 467
7.08425 459
7.10436 402
7.12448 425
7.14459 408
7.16471 410
7.18482 448
7.20493 415
7.22505 469
7.24516 482
7.26527 434
7.28539 452
7.3055 435
7.32562 426
7.34573 423
7.36584 450
7.38596 425
7.40607 445
7.42618 467
7.4463 410
7.46641 433
7.48653 470
7.50664 464
7.52675 366
7.54687 440
7.56698 450
7.58709 420
7.60721 450
7.62732 395
7.64743 431
7.66755 456
7.68766 445
7.70778 432
7.72789 423
7.748 468
7.76812 441
7.78823 455
7.80834 442
7.82846 404
7.84857 436
7.86869 413
7.8888 426
7.90891 410
7.92903 406
7.94914 419
7.96925 488
7.98937 445
8.00948 445
8.0296 435
8.04971 452
8.06982 491
8.08994 477
8.11005 458
8.13016 409
8.15028 405
8.17039 404
8.1905 482
8.21062 406
8.23073 436
8.25085 417
8.27096 448
8.29107 449
8.31119 425
8.3313 485
8.35141 449
8.37153 448
8.39164 486
8.41176 472
8.43187 394
8.45198 446
8.4721 442
8.49221 433
8.51232 487
8.53244 436
8.55255 428
8.57266 481
8.59278 408
8.61289 424
8.63301 480
8.65312 432
8.67323 461
8.69335 479
8.71346 427
8.73357 441
8.75369 476
8.7738 417
8.79392 412
8.81403 452
8.83414 420
8.85426 410
8.87437 447
8.89448 448
8.9146 459
8.93471 468
8.95483 396
8.97494 461
8.99505 482
9.01517 401
9.03528 444
9.05539 430
9.07551 450
9.09562 455
9.11573 446
9.13585 430
9.15596 456
9.17608 429
9.19619 469
9.2163 436
9.23642 442
9.25653 452
9.27664 436
9.29676 398
9.31687 401
9.33699 475
9.3571 453
9.37721 470
9.39733 461
9.41744 457
9.43755 436
9.45767 420
9.47778 419
9.4979 432
9.51801 423
9.53812 500
9.55824 415
9.57835 440
9.59846 420
9.61858 439
9.63869 464
9.6588 454
9.67892 443
9.69903 414
9.71915 437
9.73926 468
9.75937 405
9.77949 415
9.7996 450
9.81971 425
9.83983 421
9.85994 451
9.88006 407
9.90017 388
9.92028 451
9.9404 471
9.96051 385
9.98062 424
10.00074 461
10.02085 441
10.04097 454
10.06108 464
10.08119 393
10.10131 387
10.12142 469
10.14153 485
10.16165 447
10.18176 424
10.20187 452
10.22199 442
10.2421 472
10.26222 445
10.28233 429
10.30244 497
10.32256 456
10.34267 452
10.36278 406
10.3829 482
10.40301 465
10.42313 472
10.44324 444
10.46335 433
10.48347 447
10.50358 495
10.52369 474
10.54381 436
10.56392 426
10.58403 454
10.60415 479
10.62426 470
10.64438 418
10.66449 433
10.6846 408
10.70472 449
10.72483 445
10.74494 457
10.76506 414
10.78517 436
10.80529 477
10.8254 464
10.84551 463
10.86563 470
10.88574 498
10.90585 459
10.92597 470
10.94608 435
10.9662 448
10.98631 432
11.00642 454
11.02654 462
11.04665 429
11.06676 423
11.08688 437
11.10699 426
11.1271 442
11.14722 440
11.16733 434
11.18745 462
11.20756 465
11.22767 440
11.24779 437
11.2679 455
11.28801 490
11.30813 473
11.32824 465
11.34836 443
11.36847 488
11.38858 451
11.4087 438
11.42881 497
11.44892 455
11.46904 486
11.48915 512
11.50927 469
11.52938 440
11.54949 446
11.56961 429
11.58972 480
11.60983 497
11.62995 498
11.65006 471
11.67017 499
11.69029 498
11.7104 457
11.73052 512
11.75063 515
11.77074 502
11.79086 485
11.81097 497
11.83108 534
11.8512 505
11.87131 518
11.89143 538
11.91154 535
11.93165 550
11.95177 567
11.97188 598
11.99199 612
12.01211 611
12.03222 605
12.05234 649
12.07245 680
12.09256 701
12.11268 686
12.13279 760
12.1529 778
12.17302 795
12.19313 817
12.21324 885
12.23336 850
12.25347 866
12.27359 897
12.2937 883
12.31381 884
12.33393 877
12.35404 884
12.37415 820
12.39427 814
12.41438 820
12.4345 777
12.45461 752
12.47472 721
12.49484 662
12.51495 661
12.53506 610
12.55518 670
12.57529 552
12.5954 543
12.61552 535
12.63563 555
12.65575 585
12.67586 509
12.69597 533
12.71609 512
12.7362 502
12.75631 510
12.77643 500
12.79654 498
12.81666 452
12.83677 467
12.85688 465
12.877 389
12.89711 510
12.91722 451
12.93734 470
12.95745 440
12.97757 435
12.99768 458
13.01779 462
13.03791 504
13.05802 437
13.07813 488
13.09825 468
13.11836 423
13.13847 470
13.15859 435
13.1787 460
13.19882 446
13.21893 428
13.23904 419
13.25916 423
13.27927 453
13.29938 440
13.3195 441
13.33961 410
13.35973 437
13.37984 443
13.39995 430
13.42007 443
13.44018 458
13.46029 383
13.48041 431
13.50052 421
13.52064 406
13.54075 453
13.56086 437
13.58098 422
13.60109 405
13.6212 434
13.64132 390
13.66143 424
13.68154 418
13.70166 413
13.72177 439
13.74189 429
13.762 440
13.78211 444
13.80223 411
13.82234 443
13.84245 419
13.86257 470
13.88268 374
13.9028 399
13.92291 418
13.94302 379
13.96314 396
13.98325 433
14.00336 391
14.02348 412
14.04359 404
14.06371 411
14.08382 443
14.10393 438
14.12405 385
14.14416 461
14.16427 392
14.18439 412
14.2045 410
14.22461 418
14.24473 404
14.26484 396
14.28496 419
14.30507 416
14.32518 440
14.3453 407
14.36541 442
14.38552 385
14.40564 391
14.42575 418
14.44587 420
14.46598 406
14.48609 426
14.50621 421
14.52632 375
14.54643 386
14.56655 407
14.58666 427
14.60677 378
14.62689 385
14.647 421
14.66712 391
14.68723 408
14.70734 386
14.72746 382
14.74757 414
14.76768 378
14.7878 408
14.80791 357
14.82803 388
14.84814 444
14.86825 393
14.88837 375
14.90848 443
14.92859 427
14.94871 399
14.96882 411
14.98894 399
15.00905 347
15.02916 418
15.04928 453
15.06939 439
15.0895 420
15.10962 391
15.12973 430
15.14984 412
15.16996 406
15.19007 406
15.21019 431
15.2303 385
15.25041 472
15.27053 394
15.29064 425
15.31075 408
15.33087 428
15.35098 425
15.3711 413
15.39121 398
15.41132 415
15.43144 402
15.45155 391
15.47166 397
15.49178 394
15.51189 439
15.53201 381
15.55212 386
15.57223 429
15.59235 421
15.61246 406
15.63257 409
15.65269 380
15.6728 401
15.69291 392
15.71303 403
15.73314 432
15.75326 409
15.77337 390
15.79348 455
15.8136 370
15.83371 415
15.85382 409
15.87394 387
15.89405 383
15.91417 438
15.93428 385
15.95439 437
15.97451 417
15.99462 431
16.01473 407
16.03485 364
16.05496 367
16.07508 405
16.09519 369
16.1153 402
16.13542 415
16.15553 437
16.17564 409
16.19576 397
16.21587 423
16.23598 393
16.2561 429
16.27621 378
16.29633 370
16.31644 388
16.33655 403
16.35667 419
16.37678 384
16.39689 391
16.41701 459
16.43712 389
16.45724 372
16.47735 398
16.49746 408
16.51758 403
16.53769 448
16.5578 387
16.57792 374
16.59803 435
16.61814 380
16.63826 401
16.65837 383
16.67849 418
16.6986 440
16.71871 363
16.73883 400
16.75894 431
16.77905 374
16.79917 387
16.81928 446
16.8394 412
16.85951 412
16.87962 387
16.89974 397
16.91985 421
16.93996 366
16.96008 416
16.98019 426
17.00031 421
17.02042 373
17.04053 418
17.06065 384
17.08076 398
17.10087 413
17.12099 375
17.1411 395
17.16121 412
17.18133 406
17.20144 465
17.22156 398
17.24167 423
17.26178 394
17.2819 389
17.30201 433
17.32212 334
17.34224 360
17.36235 404
17.38247 421
17.40258 387
17.42269 383
17.44281 399
17.46292 423
17.48303 404
17.50315 398
17.52326 377
17.54338 444
17.56349 397
17.5836 406
17.60372 417
17.62383 405
17.64394 403
17.66406 381
17.68417 398
17.70428 416
17.7244 421
17.74451 437
17.76463 421
17.78474 401
17.80485 428
17.82497 422
17.84508 375
17.86519 397
17.88531 409
17.90542 430
17.92554 412
17.94565 424
17.96576 405
17.98588 379
18.00599 412
18.0261 419
18.04622 408
18.06633 402
18.08645 386
18.10656 387
18.12667 428
18.14679 386
18.1669 398
18.18701 415
18.20713 464
18.22724 461
18.24735 450
18.26747 434
18.28758 411
18.3077 429
18.32781 412
18.34792 468
18.36804 388
18.38815 443
18.40826 390
18.42838 461
18.44849 413
18.46861 390
18.48872 444
18.50883 425
18.52895 409
18.54906 485
18.56917 413
18.58929 445
18.6094 386
18.62951 418
18.64963 444
18.66974 408
18.68986 382
18.70997 430
18.73008 379
18.7502 405
18.77031 439
18.79042 384
18.81054 424
18.83065 388
18.85077 413
18.87088 413
18.89099 395
18.91111 413
18.93122 396
18.95133 410
18.97145 408
18.99156 413
19.01168 402
19.03179 427
19.0519 445
19.07202 442
19.09213 446
19.11224 481
19.13236 420
19.15247 464
19.17258 403
19.1927 394
19.21281 406
19.23293 405
19.25304 422
19.27315 402
19.29327 417
19.31338 424
19.33349 404
19.35361 398
19.37372 420
19.39384 460
19.41395 406
19.43406 442
19.45418 439
19.47429 422
19.4944 442
19.51452 401
19.53463 433
19.55475 459
19.57486 503
19.59497 455
19.61509 452
19.6352 455
19.65531 476
19.67543 519
19.69554 583
19.71565 584
19.73577 586
19.75588 645
19.776 695
19.79611 700
19.81622 721
19.83634 741
19.85645 757
19.87656 741
19.89668 785
19.91679 781
19.93691 735
19.95702 721
19.97713 746
19.99725 755
20.01736 748
20.03747 676
20.05759 693
20.0777 650
20.09782 721
20.11793 666
20.13804 687
20.15816 734
20.17827 681
20.19838 695
20.2185 671
20.23861 739
20.25872 692
20.27884 737
20.29895 744
20.31907 758
20.33918 742
20.35929 751
20.37941 743
20.39952 722
20.41963 730
20.43975 731
20.45986 729
20.47998 711
20.50009 753
20.5202 761
20.54032 763
20.56043 769
20.58054 814
20.60066 811
20.62077 831
20.64088 854
20.661 917
20.68111 1022
20.70123 1236
20.72134 1361
20.74145 1805
20.76157 2155
20.78168 2679
20.80179 3035
20.82191 3233
20.84202 3134
20.86214 2843
20.88225 2445
20.90236 1914
20.92248 1566
20.94259 1201
20.9627 1022
20.98282 856
21.00293 809
21.02305 752
21.04316 815
21.06327 787
21.08339 727
21.1035 771
21.12361 789
21.14373 706
21.16384 736
21.18395 705
21.20407 679
21.22418 703
21.2443 683
21.26441 697
21.28452 653
21.30464 717
21.32475 716
21.34486 681
21.36498 726
21.38509 728
21.40521 691
21.42532 693
21.44543 670
21.46555 666
21.48566 633
21.50577 674
21.52589 678
21.546 609
21.56612 605
21.58623 620
21.60634 591
21.62646 579
21.64657 539
21.66668 566
21.6868 649
21.70691 611
21.72702 610
21.74714 581
21.76725 634
21.78737 565
21.80748 556
21.82759 568
21.84771 526
21.86782 595
21.88793 533
21.90805 556
21.92816 577
21.94828 643
21.96839 558
21.9885 575
22.00862 510
22.02873 579
22.04884 564
22.06896 493
22.08907 518
22.10919 561
22.1293 518
22.14941 564
22.16953 527
22.18964 591
22.20975 517
22.22987 522
22.24998 507
22.27009 548
22.29021 561
22.31032 556
22.33044 540
22.35055 589
22.37066 503
22.39078 507
22.41089 555
22.431 573
22.45112 567
22.47123 539
22.49135 506
22.51146 538
22.53157 531
22.55169 490
22.5718 489
22.59191 551
22.61203 520
22.63214 568
22.65225 495
22.67237 507
22.69248 534
22.7126 534
22.73271 483
22.75282 518
22.77294 521
22.79305 512
22.81316 478
22.83328 562
22.85339 520
22.87351 524
22.89362 511
22.91373 496
22.93385 495
22.95396 477
22.97407 514
22.99419 541
23.0143 497
23.03442 526
23.05453 535
23.07464 513
23.09476 501
23.11487 525
23.13498 548
23.1551 512
23.17521 493
23.19532 468
23.21544 533
23.23555 508
23.25567 523
23.27578 523
23.29589 541
23.31601 484
23.33612 491
23.35623 513
23.37635 497
23.39646 529
23.41658 528
23.43669 532
23.4568 525
23.47692 486
23.49703 487
23.51714 501
23.53726 512
23.55737 540
23.57749 516
23.5976 513
23.61771 565
23.63783 507
23.65794 547
23.67805 571
23.69817 600
23.71828 575
23.73839 657
23.75851 618
23.77862 655
23.79874 696
23.81885 604
23.83896 614
23.85908 625
23.87919 597
23.8993 601
23.91942 651
23.93953 640
23.95965 571
23.97976 570
23.99987 605
24.01999 531
24.0401 645
24.06021 596
24.08033 577
24.10044 602
24.12056 633
24.14067 642
24.16078 628
24.1809 601
24.20101 604
24.22112 596
24.24124 565
24.26135 649
24.28146 592
24.30158 630
24.32169 573
24.34181 599
24.36192 585
24.38203 638
24.40215 615
24.42226 591
24.44237 550
24.46249 586
24.4826 606
24.50272 614
24.52283 631
24.54294 655
24.56306 691
24.58317 643
24.60328 651
24.6234 676
24.64351 775
24.66362 689
24.68374 734
24.70385 764
24.72397 776
24.74408 743
24.76419 807
24.78431 811
24.80442 772
24.82453 778
24.84465 792
24.86476 790
24.88488 853
24.90499 816
24.9251 840
24.94522 791
24.96533 742
24.98544 769
25.00556 733
25.02567 678
25.04579 705
25.0659 686
25.08601 645
25.10613 675
25.12624 630
25.14635 656
25.16647 616
25.18658 639
25.20669 620
25.22681 598
25.24692 610
25.26704 607
25.28715 642
25.30726 598
25.32738 582
25.34749 531
25.3676 549
25.38772 567
25.40783 536
25.42795 543
25.44806 580
25.46817 507
25.48829 507
25.5084 521
25.52851 541
25.54863 550
25.56874 553
25.58886 525
25.60897 556
25.62908 576
25.6492 566
25.66931 587
25.68942 531
25.70954 554
25.72965 610
25.74976 638
25.76988 574
25.78999 603
25.81011 600
25.83022 587
25.85033 593
25.87045 570
25.89056 591
25.91067 611
25.93079 574
25.9509 595
25.97102 631
25.99113 648
26.01124 599
26.03136 621
26.05147 596
26.07158 619
26.0917 667
26.11181 633
26.13193 662
26.15204 711
26.17215 721
26.19227 738
26.21238 737
26.23249 829
26.25261 899
26.27272 859
26.29283 927
26.31295 938
26.33306 982
26.35318 1094
26.37329 1196
26.3934 1398
26.41352 1696
26.43363 2012
26.45374 2516
26.47386 3352
26.49397 4387
26.51409 6148
26.5342 7903
26.55431 10001
26.57443 11665
26.59454 12663
26.61465 12262
26.63477 11372
26.65488 9699
26.67499 7487
26.69511 5667
26.71522 4080
26.73534 2866
26.75545 1995
26.77556 1442
26.79568 1214
26.81579 1060
26.8359 982
26.85602 970
26.87613 926
26.89625 831
26.91636 789
26.93647 773
26.95659 759
26.9767 755
26.99681 659
27.01693 612
27.03704 581
27.05716 657
27.07727 585
27.09738 559
27.1175 611
27.13761 584
27.15772 583
27.17784 531
27.19795 507
27.21806 545
27.23818 537
27.25829 536
27.27841 545
27.29852 546
27.31863 544
27.33875 565
27.35886 574
27.37897 552
27.39909 582
27.4192 569
27.43932 543
27.45943 531
27.47954 522
27.49966 537
27.51977 536
27.53988 517
27.56 523
27.58011 512
27.60023 547
27.62034 498
27.64045 506
27.66057 493
27.68068 494
27.70079 476
27.72091 481
27.74102 457
27.76113 541
27.78125 535
27.80136 491
27.82148 545
27.84159 438
27.8617 547
27.88182 502
27.90193 476
27.92204 498
27.94216 471
27.96227 474
27.98239 497
28.0025 482
28.02261 495
28.04273 521
28.06284 495
28.08295 503
28.10307 440
28.12318 451
28.1433 489
28.16341 448
28.18352 442
28.20364 469
28.22375 419
28.24386 458
28.26398 433
28.28409 469
28.3042 450
28.32432 508
28.34443 476
28.36455 443
28.38466 471
28.40477 446
28.42489 470
28.445 465
28.46511 434
28.48523 471
28.50534 483
28.52546 439
28.54557 425
28.56568 464
28.5858 430
28.60591 471
28.62602 450
28.64614 414
28.66625 430
28.68636 439
28.70648 440
28.72659 435
28.74671 468
28.76682 443
28.78693 439
28.80705 457
28.82716 470
28.84727 457
28.86739 501
28.8875 467
28.90762 430
28.92773 479
28.94784 430
28.96796 442
28.98807 423
29.00818 462
29.0283 419
29.04841 481
29.06853 441
29.08864 444
29.10875 460
29.12887 434
29.14898 474
29.16909 438
29.18921 483
29.20932 458
29.22943 423
29.24955 462
29.26966 458
29.28978 445
29.30989 444
29.33 446
29.35012 507
29.37023 461
29.39034 435
29.41046 445
29.43057 446
29.45069 458
29.4708 458
29.49091 453
29.51103 440
29.53114 443
29.55125 449
29.57137 466
29.59148 460
29.6116 463
29.63171 426
29.65182 453
29.67194 486
29.69205 450
29.71216 496
29.73228 467
29.75239 440
29.7725 456
29.79262 438
29.81273 478
29.83285 465
29.85296 490
29.87307 421
29.89319 478
29.9133 430
29.93341 448
29.95353 439
29.97364 465
29.99376 422
30.01387 456
30.03398 441
30.0541 458
30.07421 466
30.09432 450
30.11444 474
30.13455 422
30.15467 460
30.17478 462
30.19489 450
30.21501 497
30.23512 429
30.25523 455
30.27535 474
30.29546 477
30.31557 446
30.33569 457
30.3558 482
30.37592 467
30.39603 470
30.41614 443
30.43626 509
30.45637 482
30.47648 485
30.4966 457
30.51671 504
30.53683 444
30.55694 452
30.57705 460
30.59717 462
30.61728 435
30.63739 422
30.65751 487
30.67762 428
30.69773 458
30.71785 422
30.73796 447
30.75808 486
30.77819 455
30.7983 419
30.81842 454
30.83853 467
30.85864 449
30.87876 447
30.89887 455
30.91899 430
30.9391 463
30.95921 423
30.97933 422
30.99944 453
31.01955 474
31.03967 468
31.05978 434
31.0799 470
31.10001 451
31.12012 404
31.14024 468
31.16035 445
31.18046 450
31.20058 458
31.22069 473
31.2408 480
31.26092 458
31.28103 487
31.30115 419
31.32126 485
31.34137 461
31.36149 410
31.3816 459
31.40171 423
31.42183 422
31.44194 494
31.46206 411
31.48217 474
31.50228 447
31.5224 443
31.54251 399
31.56262 398
31.58274 433
31.60285 434
31.62297 410
31.64308 428
31.66319 447
31.68331 435
31.70342 463
31.72353 462
31.74365 429
31.76376 423
31.78387 387
31.80399 423
31.8241 457
31.84422 435
31.86433 433
31.88444 421
31.90456 429
31.92467 437
31.94478 448
31.9649 448
31.98501 452
32.00513 453
32.02524 457
32.04535 443
32.06547 463
32.08558 460
32.10569 445
32.12581 447
32.14592 486
32.16604 472
32.18615 487
32.20626 449
32.22638 485
32.24649 512
32.2666 490
32.28672 518
32.30683 515
32.32694 556
32.34706 534
32.36717 553
32.38729 588
32.4074 627
32.42751 675
32.44763 684
32.46774 678
32.48785 736
32.50797 699
32.52808 713
32.5482 667
32.56831 672
32.58842 640
32.60854 683
32.62865 592
32.64876 599
32.66888 537
32.68899 593
32.7091 552
32.72922 550
32.74933 572
32.76945 571
32.78956 590
32.80967 559
32.82979 567
32.8499 605
32.87001 557
32.89013 605
32.91024 579
32.93036 594
32.95047 577
32.97058 656
32.9907 645
33.01081 658
33.03092 665
33.05104 724
33.07115 746
33.09127 714
33.11138 768
33.13149 699
33.15161 802
33.17172 711
33.19183 674
33.21195 662
33.23206 704
33.25217 654
33.27229 647
33.2924 669
33.31252 571
33.33263 545
33.35274 598
33.37286 573
33.39297 525
33.41308 537
33.4332 544
33.45331 518
33.47343 521
33.49354 478
33.51365 523
33.53377 532
33.55388 517
33.57399 517
33.59411 479
33.61422 446
33.63434 478
33.65445 485
33.67456 480
33.69468 479
33.71479 440
33.7349 508
33.75502 489
33.77513 468
33.79524 441
33.81536 458
33.83547 481
33.85559 449
33.8757 484
33.89581 456
33.91593 448
33.93604 463
33.95615 438
33.97627 475
33.99638 443
34.0165 472
34.03661 455
34.05672 445
34.07684 465
34.09695 421
34.11706 447
34.13718 426
34.15729 451
34.17741 447
34.19752 418
34.21763 481
34.23775 478
34.25786 481
34.27797 465
34.29809 489
34.3182 500
34.33831 430
34.35843 454
34.37854 448
34.39866 432
34.41877 455
34.43888 467
34.459 478
34.47911 474
34.49922 464
34.51934 481
34.53945 418
34.55957 476
34.57968 499
34.59979 476
34.61991 518
34.64002 547
34.66013 500
34.68025 521
34.70036 564
34.72047 533
34.74059 560
34.7607 544
34.78082 566
34.80093 617
34.82104 623
34.84116 671
34.86127 633
34.88138 636
34.9015 656
34.92161 653
34.94173 685
34.96184 622
34.98195 720
35.00207 655
35.02218 645
35.04229 669
35.06241 669
35.08252 655
35.10264 673
35.12275 730
35.14286 766
35.16298 744
35.18309 802
35.2032 769
35.22332 819
35.24343 719
35.26354 770
35.28366 771
35.30377 724
35.32389 740
35.344 743
35.36411 698
35.38423 677
35.40434 754
35.42445 700
35.44457 765
35.46468 748
35.4848 780
35.50491 787
35.52502 816
35.54514 803
35.56525 849
35.58536 798
35.60548 859
35.62559 884
35.64571 885
35.66582 824
35.68593 957
35.70605 800
35.72616 802
35.74627 820
35.76639 824
35.7865 791
35.80661 749
35.82673 760
35.84684 731
35.86696 759
35.88707 703
35.90718 702
35.9273 678
35.94741 675
35.96752 656
35.98764 633
36.00775 608
36.02787 634
36.04798 623
36.06809 580
36.08821 596
36.10832 526
36.12843 620
36.14855 563
36.16866 571
36.18878 576
36.20889 564
36.229 574
36.24912 587
36.26923 650
36.28934 615
36.30946 573
36.32957 678
36.34968 713
36.3698 762
36.38991 825
36.41003 963
36.43014 1090
36.45025 1153
36.47037 1246
36.49048 1271
36.51059 1277
36.53071 1187
36.55082 1130
36.57094 1030
36.59105 935
36.61116 854
36.63128 735
36.65139 698
36.6715 602
36.69162 583
36.71173 592
36.73184 543
36.75196 520
36.77207 510
36.79219 540
36.8123 536
36.83241 535
36.85253 537
36.87264 567
36.89275 563
36.91287 532
36.93298 537
36.9531 531
36.97321 493
36.99332 541
37.01344 498
37.03355 462
37.05366 467
37.07378 556
37.09389 506
37.11401 475
37.13412 475
37.15423 466
37.17435 495
37.19446 477
37.21457 502
37.23469 466
37.2548 483
37.27491 490
37.29503 492
37.31514 501
37.33526 509
37.35537 502
37.37548 471
37.3956 465
37.41571 500
37.43582 493
37.45594 472
37.47605 522
37.49617 501
37.51628 483
37.53639 488
37.55651 502
37.57662 536
37.59673 574
37.61685 558
37.63696 488
37.65708 533
37.67719 532
37.6973 506
37.71742 539
37.73753 492
37.75764 531
37.77776 568
37.79787 503
37.81798 510
37.8381 498
37.85821 579
37.87833 513
37.89844 476
37.91855 528
37.93867 485
37.95878 505
37.97889 507
37.99901 526
38.01912 528
38.03924 486
38.05935 579
38.07946 539
38.09958 552
38.11969 541
38.1398 560
38.15992 556
38.18003 560
38.20015 581
38.22026 590
38.24037 582
38.26049 599
38.2806 598
38.30071 607
38.32083 647
38.34094 648
38.36105 631
38.38117 647
38.40128 663
38.4214 691
38.44151 630
38.46162 611
38.48174 613
38.50185 629
38.52196 611
38.54208 561
38.56219 566
38.58231 559
38.60242 589
38.62253 551
38.64265 581
38.66276 558
38.68287 561
38.70299 533
38.7231 522
38.74321 525
38.76333 545
38.78344 508
38.80356 534
38.82367 546
38.84378 529
38.8639 489
38.88401 532
38.90412 524
38.92424 499
38.94435 562
38.96447 530
38.98458 550
39.00469 579
39.02481 533
39.04492 556
39.06503 525
39.08515 521
39.10526 574
39.12538 566
39.14549 610
39.1656 598
39.18572 599
39.20583 589
39.22594 669
39.24606 623
39.26617 657
39.28628 715
39.3064 820
39.32651 856
39.34663 1035
39.36674 1096
39.38685 1138
39.40697 1213
39.42708 1186
39.44719 1173
39.46731 1094
39.48742 942
39.50754 873
39.52765 794
39.54776 733
39.56788 682
39.58799 592
39.6081 582
39.62822 534
39.64833 478
39.66845 499
39.68856 501
39.70867 489
39.72879 505
39.7489 477
39.76901 511
39.78913 449
39.80924 451
39.82935 513
39.84947 468
39.86958 481
39.8897 459
39.90981 511
39.92992 465
39.95004 490
39.97015 466
39.99026 487
40.01038 541
40.03049 535
40.05061 518
40.07072 509
40.09083 577
40.11095 562
40.13106 660
40.15117 685
40.17129 800
40.1914 814
40.21152 841
40.23163 855
40.25174 881
40.27186 826
40.29197 785
40.31208 748
40.3322 714
40.35231 691
40.37242 651
40.39254 584
40.41265 577
40.43277 586
40.45288 531
40.47299 501
40.49311 477
40.51322 467
40.53333 459
40.55345 486
40.57356 500
40.59368 535
40.61379 472
40.6339 505
40.65402 519
40.67413 492
40.69424 498
40.71436 511
40.73447 566
40.75458 555
40.7747 493
40.79481 490
40.81493 591
40.83504 555
40.85515 531
40.87527 527
40.89538 505
40.91549 550
40.93561 496
40.95572 538
40.97584 542
40.99595 527
41.01606 518
41.03618 511
41.05629 508
41.0764 539
41.09652 501
41.11663 483
41.13675 486
41.15686 482
41.17697 495
41.19709 482
41.2172 468
41.23731 508
41.25743 445
41.27754 446
41.29765 469
41.31777 469
41.33788 486
41.358 460
41.37811 482
41.39822 487
41.41834 469
41.43845 454
41.45856 463
41.47868 455
41.49879 471
41.51891 426
41.53902 494
41.55913 428
41.57925 414
41.59936 435
41.61947 451
41.63959 404
41.6597 444
41.67982 430
41.69993 441
41.72004 449
41.74016 423
41.76027 447
41.78038 443
41.8005 437
41.82061 414
41.84072 455
41.86084 426
41.88095 448
41.90107 415
41.92118 434
41.94129 459
41.96141 427
41.98152 445
42.00163 435
42.02175 415
42.04186 432
42.06198 443
42.08209 453
42.1022 444
42.12232 483
42.14243 457
42.16254 484
42.18266 478
42.20277 502
42.22289 509
42.243 537
42.26311 559
42.28323 606
42.30334 709
42.32345 783
42.34357 824
42.36368 891
42.38379 883
42.40391 862
42.42402 860
42.44414 835
42.46425 772
42.48436 740
42.50448 711
42.52459 628
42.5447 597
42.56482 527
42.58493 511
42.60505 472
42.62516 437
42.64527 478
42.66539 446
42.6855 411
42.70561 423
42.72573 393
42.74584 437
42.76595 416
42.78607 427
42.80618 402
42.8263 427
42.84641 421
42.86652 401
42.88664 392
42.90675 427
42.92686 413
42.94698 421
42.96709 413
42.98721 400
43.00732 433
43.02743 415
43.04755 413
43.06766 411
43.08777 372
43.10789 387
43.128 448
43.14812 402
43.16823 419
43.18834 433
43.20846 415
43.22857 401
43.24868 436
43.2688 443
43.28891 432
43.30902 422
43.32914 413
43.34925 425
43.36937 433
43.38948 448
43.40959 403
43.42971 378
43.44982 391
43.46993 422
43.49005 415
43.51016 428
43.53028 411
43.55039 421
43.5705 413
43.59062 391
43.61073 410
43.63084 406
43.65096 407
43.67107 456
43.69119 385
43.7113 400
43.73141 426
43.75153 443
43.77164 435
43.79175 434
43.81187 391
43.83198 443
43.85209 402
43.87221 409
43.89232 422
43.91244 416
43.93255 396
43.95266 407
43.97278 451
43.99289 425
44.013 396
44.03312 420
44.05323 387
44.07335 409
44.09346 418
44.11357 372
44.13369 440
44.1538 412
44.17391 408
44.19403 426
44.21414 434
44.23426 395
44.25437 382
44.27448 434
44.2946 351
44.31471 388
44.33482 393
44.35494 401
44.37505 400
44.39516 421
44.41528 409
44.43539 419
44.45551 394
44.47562 413
44.49573 373
44.51585 412
44.53596 377
44.55607 390
44.57619 432
44.5963 416
44.61642 420
44.63653 412
44.65664 374
44.67676 393
44.69687 434
44.71698 412
44.7371 432
44.75721 418
44.77732 422
44.79744 430
44.81755 419
44.83767 457
44.85778 450
44.87789 416
44.89801 459
44.91812 406
44.93823 471
44.95835 456
44.97846 451
44.99858 450
45.01869 458
45.0388 449
45.05892 480
45.07903 417
45.09914 438
45.11926 401
45.13937 461
45.15949 399
45.1796 440
45.19971 419
45.21983 448
45.23994 418
45.26005 472
45.28017 439
45.30028 454
45.32039 452
45.34051 445
45.36062 480
45.38074 497
45.40085 443
45.42096 461
45.44108 464
45.46119 512
45.4813 482
45.50142 513
45.52153 519
45.54165 501
45.56176 539
45.58187 480
45.60199 538
45.6221 555
45.64221 591
45.66233 640
45.68244 707
45.70256 720
45.72267 724
45.74278 763
45.7629 739
45.78301 659
45.80312 682
45.82324 609
45.84335 612
45.86346 605
45.88358 581
45.90369 548
45.92381 506
45.94392 500
45.96403 463
45.98415 478
46.00426 459
46.02437 453
46.04449 431
46.0646 466
46.08472 423
46.10483 404
46.12494 411
46.14506 436
46.16517 465
46.18528 457
46.2054 420
46.22551 424
46.24563 415
46.26574 407
46.28585 434
46.30597 458
46.32608 439
46.34619 437
46.36631 419
46.38642 420
46.40653 458
46.42665 436
46.44676 449
46.46688 434
46.48699 438
46.5071 390
46.52722 427
46.54733 460
46.56744 420
46.58756 431
46.60767 433
46.62779 409
46.6479 438
46.66801 442
46.68813 457
46.70824 425
46.72835 426
46.74847 429
46.76858 422
46.78869 459
46.80881 421
46.82892 417
46.84904 430
46.86915 426
46.88926 420
46.90938 432
46.92949 431
46.9496 435
46.96972 410
46.98983 450
47.00995 402
47.03006 402
47.05017 402
47.07029 433
47.0904 397
47.11051 460
47.13063 424
47.15074 405
47.17086 428
47.19097 435
47.21108 399
47.2312 433
47.25131 403
47.27142 455
47.29154 420
47.31165 428
47.33176 432
47.35188 429
47.37199 398
47.39211 411
47.41222 415
47.43233 426
47.45245 396
47.47256 398
47.49267 454
47.51279 410
47.5329 424
47.55302 406
47.57313 449
47.59324 420
47.61336 411
47.63347 433
47.65358 436
47.6737 464
47.69381 441
47.71393 408
47.73404 439
47.75415 417
47.77427 432
47.79438 420
47.81449 430
47.83461 428
47.85472 429
47.87483 465
47.89495 402
47.91506 438
47.93518 452
47.95529 402
47.9754 453
47.99552 423
48.01563 440
48.03574 424
48.05586 439
48.07597 450
48.09609 430
48.1162 454
48.13631 424
48.15643 432
48.17654 394
48.19665 419
48.21677 444
48.23688 425
48.257 425
48.27711 440
48.29722 414
48.31734 464
48.33745 434
48.35756 424
48.37768 449
48.39779 456
48.4179 422
48.43802 430
48.45813 434
48.47825 436
48.49836 458
48.51847 470
48.53859 517
48.5587 453
48.57881 469
48.59893 424
48.61904 505
48.63916 462
48.65927 473
48.67938 532
48.6995 508
48.71961 467
48.73972 498
48.75984 458
48.77995 471
48.80006 468
48.82018 488
48.84029 448
48.86041 469
48.88052 465
48.90063 478
48.92075 476
48.94086 456
48.96097 432
48.98109 474
49.0012 456
49.02132 448
49.04143 464
49.06154 455
49.08166 486
49.10177 459
49.12188 432
49.142 456
49.16211 439
49.18223 464
49.20234 476
49.22245 465
49.24257 453
49.26268 476
49.28279 465
49.30291 461
49.32302 481
49.34313 524
49.36325 549
49.38336 519
49.40348 512
49.42359 542
49.4437 519
49.46382 518
49.48393 553
49.50404 505
49.52416 512
49.54427 541
49.56439 547
49.5845 506
49.60461 559
49.62473 521
49.64484 506
49.66495 504
49.68507 490
49.70518 489
49.7253 517
49.74541 495
49.76552 483
49.78564 558
49.80575 515
49.82586 595
49.84598 545
49.86609 580
49.8862 618
49.90632 661
49.92643 754
49.94655 812
49.96666 952
49.98677 1078
50.00689 1168
50.027 1344
50.04711 1556
50.06723 1571
50.08734 1539
50.10746 1496
50.12757 1382
50.14768 1212
50.1678 1106
50.18791 1091
50.20802 1069
50.22814 990
50.24825 873
50.26837 736
50.28848 663
50.30859 511
50.32871 539
50.34882 471
50.36893 477
50.38905 471
50.40916 454
50.42927 482
50.44939 511
50.4695 447
50.48962 456
50.50973 490
50.52984 446
50.54996 480
50.57007 475
50.59018 449
50.6103 441
50.63041 443
50.65053 426
50.67064 451
50.69075 449
50.71087 448
50.73098 448
50.75109 412
50.77121 427
50.79132 447
50.81143 433
50.83155 415
50.85166 418
50.87178 425
50.89189 431
50.912 404
50.93212 468
50.95223 457
50.97234 449
50.99246 425
51.01257 407
51.03269 424
51.0528 433
51.07291 435
51.09303 412
51.11314 393
51.13325 446
51.15337 351
51.17348 409
51.1936 390
51.21371 405
51.23382 374
51.25394 407
51.27405 393
51.29416 405
51.31428 413
51.33439 433
51.3545 426
51.37462 364
51.39473 394
51.41485 367
51.43496 377
51.45507 393
51.47519 387
51.4953 381
51.51541 388
51.53553 403
51.55564 408
51.57576 402
51.59587 397
51.61598 403
51.6361 372
51.65621 408
51.67632 379
51.69644 375
51.71655 378
51.73667 400
51.75678 380
51.77689 419
51.79701 364
51.81712 393
51.83723 378
51.85735 418
51.87746 350
51.89757 407
51.91769 402
51.9378 366
51.95792 374
51.97803 368
51.99814 374
52.01826 395
52.03837 446
52.05848 390
52.0786 395
52.09871 407
52.11883 390
52.13894 393
52.15905 401
52.17917 410
52.19928 419
52.21939 366
52.23951 391
52.25962 422
52.27974 384
52.29985 376
52.31996 382
52.34008 383
52.36019 436
52.3803 410
52.40042 389
52.42053 380
52.44064 392
52.46076 425
52.48087 420
52.50099 413
52.5211 397
52.54121 426
52.56133 396
52.58144 439
52.60155 400
52.62167 410
52.64178 408
52.6619 438
52.68201 406
52.70212 427
52.72224 445
52.74235 440
52.76246 452
52.78258 420
52.80269 425
52.8228 427
52.84292 476
52.86303 448
52.88315 435
52.90326 445
52.92337 460
52.94349 463
52.9636 469
52.98371 484
53.00383 503
53.02394 493
53.04406 481
53.06417 479
53.08428 487
53.1044 511
53.12451 473
53.14462 474
53.16474 456
53.18485 450
53.20497 505
53.22508 490
53.24519 452
53.26531 480
53.28542 524
53.30553 456
53.32565 452
53.34576 475
53.36587 497
53.38599 489
53.4061 464
53.42622 470
53.44633 472
53.46644 480
53.48656 469
53.50667 441
53.52678 470
53.5469 511
53.56701 453
53.58713 492
53.60724 477
53.62735 471
53.64747 468
53.66758 504
53.68769 502
53.70781 477
53.72792 504
53.74804 466
53.76815 494
53.78826 490
53.80838 501
53.82849 519
53.8486 479
53.86872 559
53.88883 514
53.90894 533
53.92906 491
53.94917 574
53.96929 554
53.9894 585
54.00951 574
54.02963 527
54.04974 599
54.06985 573
54.08997 593
54.11008 535
54.1302 574
54.15031 589
54.17042 586
54.19054 592
54.21065 559
54.23076 580
54.25088 529
54.27099 555
54.29111 581
54.31122 538
54.33133 536
54.35145 562
54.37156 563
54.39167 482
54.41179 517
54.4319 505
54.45201 535
54.47213 512
54.49224 565
54.51236 492
54.53247 530
54.55258 548
54.5727 485
54.59281 480
54.61292 539
54.63304 556
54.65315 589
54.67327 579
54.69338 629
54.71349 623
54.73361 690
54.75372 710
54.77383 799
54.79395 779
54.81406 838
54.83417 766
54.85429 758
54.8744 701
54.89452 621
54.91463 652
54.93474 681
54.95486 625
54.97497 595
54.99508 630
55.0152 605
55.03531 594
55.05543 551
55.07554 500
55.09565 506
55.11577 533
55.13588 545
55.15599 567
55.17611 559
55.19622 545
55.21634 622
55.23645 591
55.25656 618
55.27668 655
55.29679 551
55.3169 550
55.33702 533
55.35713 568
55.37724 527
55.39736 562
55.41747 521
55.43759 556
55.4577 530
55.47781 482
55.49793 470
55.51804 514
55.53815 503
55.55827 455
55.57838 444
55.5985 491
55.61861 450
55.63872 468
55.65884 472
55.67895 415
55.69906 469
55.71918 421
55.73929 461
55.75941 448
55.77952 439
55.79963 451
55.81975 427
55.83986 423
55.85997 429
55.88009 476
55.9002 469
55.92031 413
55.94043 442
55.96054 426
55.98066 414
56.00077 419
56.02088 452
56.041 456
56.06111 406
56.08122 438
56.10134 425
56.12145 455
56.14157 456
56.16168 422
56.18179 441
56.20191 441
56.22202 436
56.24213 439
56.26225 434
56.28236 422
56.30248 467
56.32259 434
56.3427 474
56.36282 446
56.38293 450
56.40304 448
56.42316 427
56.44327 431
56.46338 435
56.4835 410
56.50361 421
56.52373 391
56.54384 400
56.56395 382
56.58407 474
56.60418 415
56.62429 427
56.64441 461
56.66452 412
56.68464 484
56.70475 441
56.72486 463
56.74498 413
56.76509 432
56.7852 413
56.80532 385
56.82543 422
56.84554 402
56.86566 425
56.88577 444
56.90589 399
56.926 464
56.94611 431
56.96623 432
56.98634 406
57.00645 446
57.02657 425
57.04668 442
57.0668 420
57.08691 397
57.10702 400
57.12714 455
57.14725 417
57.16736 434
57.18748 431
57.20759 464
57.22771 459
57.24782 451
57.26793 433
57.28805 412
57.30816 422
57.32827 425
57.34839 478
57.3685 428
57.38861 413
57.40873 402
57.42884 425
57.44896 398
57.46907 419
57.48918 411
57.5093 436
57.52941 428
57.54952 441
57.56964 441
57.58975 431
57.60987 416
57.62998 432
57.65009 451
57.67021 435
57.69032 397
57.71043 434
57.73055 406
57.75066 417
57.77078 443
57.79089 459
57.811 444
57.83112 438
57.85123 405
57.87134 397
57.89146 409
57.91157 402
57.93168 401
57.9518 398
57.97191 402
57.99203 425
58.01214 423
58.03225 385
58.05237 393
58.07248 407
58.09259 427
58.11271 388
58.13282 389
58.15294 401
58.17305 416
58.19316 408
58.21328 393
58.23339 413
58.2535 384
58.27362 422
58.29373 412
58.31385 407
58.33396 422
58.35407 408
58.37419 386
58.3943 399
58.41441 394
58.43453 427
58.45464 384
58.47475 425
58.49487 384
58.51498 375
58.5351 429
58.55521 394
58.57532 414
58.59544 387
58.61555 367
58.63566 371
58.65578 388
58.67589 414
58.69601 426
58.71612 393
58.73623 421
58.75635 382
58.77646 384
58.79657 386
58.81669 426
58.8368 420
58.85691 420
58.87703 419
58.89714 418
58.91726 365
58.93737 401
58.95748 402
58.9776 394
58.99771 391
59.01782 404
59.03794 388
59.05805 431
59.07817 416
59.09828 411
59.11839 417
59.13851 414
59.15862 414
59.17873 416
59.19885 395
59.21896 361
59.23908 407
59.25919 407
59.2793 453
59.29942 449
59.31953 405
59.33964 426
59.35976 403
59.37987 394
59.39998 387
59.4201 441
59.44021 443
59.46033 419
59.48044 442
59.50055 429
59.52067 419
59.54078 440
59.56089 436
59.58101 470
59.60112 471
59.62124 466
59.64135 474
59.66146 510
59.68158 497
59.70169 540
59.7218 583
59.74192 621
59.76203 652
59.78215 686
59.80226 882
59.82237 920
59.84249 973
59.8626 1061
59.88271 1094
59.90283 1071
59.92294 1016
59.94305 918
59.96317 839
59.98328 796
60.0034 805
60.02351 763
60.04362 762
60.06374 759
60.08385 684
60.10396 680
60.12408 599
60.14419 546
60.16431 517
60.18442 450
60.20453 416
60.22465 424
60.24476 431
60.26487 458
60.28499 382
60.3051 419
60.32522 388
60.34533 422
60.36544 421
60.38556 371
60.40567 401
60.42578 394
60.4459 385
60.46601 399
60.48612 376
60.50624 396
60.52635 379
60.54647 437
60.56658 414
60.58669 406
60.60681 408
60.62692 406
60.64703 402
60.66715 392
60.68726 398
60.70738 397
60.72749 431
60.7476 419
60.76772 378
60.78783 437
60.80794 360
60.82806 361
60.84817 360
60.86828 394
60.8884 380
60.90851 368
60.92863 446
60.94874 415
60.96885 411
60.98897 418
61.00908 372
61.02919 407
61.04931 400
61.06942 424
61.08954 409
61.10965 356
61.12976 399
61.14988 440
61.16999 425
61.1901 405
61.21022 377
61.23033 429
61.25045 447
61.27056 415
61.29067 398
61.31079 426
61.3309 415
61.35101 441
61.37113 429
61.39124 408
61.41135 397
61.43147 415
61.45158 447
61.4717 460
61.49181 448
61.51192 419
61.53204 455
61.55215 444
61.57226 433
61.59238 463
61.61249 455
61.63261 466
61.65272 464
61.67283 447
61.69295 407
61.71306 465
61.73317 450
61.75329 452
61.7734 435
61.79352 432
61.81363 451
61.83374 462
61.85386 413
61.87397 473
61.89408 452
61.9142 456
61.93431 457
61.95442 455
61.97454 470
61.99465 479
62.01477 458
62.03488 499
62.05499 503
62.07511 526
62.09522 520
62.11533 523
62.13545 538
62.15556 551
62.17568 536
62.19579 554
62.2159 566
62.23602 575
62.25613 569
62.27624 560
62.29636 586
62.31647 568
62.33659 534
62.3567 571
62.37681 514
62.39693 550
62.41704 523
62.43715 540
62.45727 511
62.47738 539
62.49749 476
62.51761 450
62.53772 486
62.55784 528
62.57795 453
62.59806 467
62.61818 451
62.63829 487
62.6584 468
62.67852 453
62.69863 460
62.71875 457
62.73886 450
62.75897 469
62.77909 445
62.7992 443
62.81931 411
62.83943 446
62.85954 467
62.87965 446
62.89977 425
62.91988 427
62.94 483
62.96011 449
62.98022 416
63.00034 404
63.02045 458
63.04056 426
63.06068 457
63.08079 457
63.10091 444
63.12102 469
63.14113 461
63.16125 467
63.18136 442
63.20147 476
63.22159 442
63.2417 435
63.26182 477
63.28193 451
63.30204 460
63.32216 454
63.34227 450
63.36238 455
63.3825 455
63.40261 417
63.42272 433
63.44284 455
63.46295 464
63.48307 476
63.50318 431
63.52329 416
63.54341 421
63.56352 411
63.58363 430
63.60375 449
63.62386 435
63.64398 406
63.66409 436
63.6842 440
63.70432 445
63.72443 444
63.74454 444
63.76466 478
63.78477 479
63.80489 480
63.825 520
63.84511 516
63.86523 503
63.88534 523
63.90545 525
63.92557 571
63.94568 632
63.96579 612
63.98591 587
64.00602 570
64.02614 565
64.04625 575
64.06636 554
64.08648 535
64.10659 579
64.1267 499
64.14682 487
64.16693 502
64.18705 492
64.20716 494
64.22727 485
64.24739 477
64.2675 468
64.28761 470
64.30773 413
64.32784 449
64.34796 415
64.36807 443
64.38818 405
64.4083 437
64.42841 391
64.44852 422
64.46864 425
64.48875 392
64.50886 410
64.52898 375
64.54909 406
64.56921 391
64.58932 396
64.60943 405
64.62955 394
64.64966 449
64.66977 403
64.68989 370
64.71 370
64.73012 383
64.75023 375
64.77034 424
64.79046 391
64.81057 341
64.83068 403
64.8508 397
64.87091 390
64.89102 356
64.91114 429
64.93125 393
64.95137 395
64.97148 394
64.99159 383
65.01171 395
65.03182 396
65.05193 375
65.07205 356
65.09216 380
65.11228 389
65.13239 353
65.1525 348
65.17262 392
65.19273 329
65.21284 381
65.23296 378
65.25307 387
65.27319 404
65.2933 409
65.31341 397
65.33353 374
65.35364 405
65.37375 395
65.39387 398
65.41398 369
65.43409 384
65.45421 381
65.47432 429
65.49444 408
65.51455 384
65.53466 372
65.55478 380
65.57489 392
65.595 394
65.61512 399
65.63523 363
65.65535 377
65.67546 409
65.69557 410
65.71569 423
65.7358 398
65.75591 366
65.77603 388
65.79614 354
65.81626 397
65.83637 404
65.85648 400
65.8766 385
65.89671 385
65.91682 359
65.93694 384
65.95705 373
65.97716 390
65.99728 355
66.01739 376
66.03751 358
66.05762 384
66.07773 386
66.09785 342
66.11796 347
66.13807 381
66.15819 405
66.1783 381
66.19842 375
66.21853 398
66.23864 383
66.25876 363
66.27887 411
66.29898 371
66.3191 388
66.33921 391
66.35933 370
66.37944 398
66.39955 340
66.41967 344
66.43978 369
66.45989 358
66.48001 359
66.50012 366
66.52023 382
66.54035 340
66.56046 400
66.58058 394
66.60069 384
66.6208 397
66.64092 373
66.66103 351
66.68114 381
66.70126 399
66.72137 335
66.74149 379
66.7616 377
66.78171 401
66.80183 388
66.82194 374
66.84205 369
66.86217 391
66.88228 363
66.90239 349
66.92251 344
66.94262 366
66.96274 350
66.98285 376
67.00296 376
67.02308 357
67.04319 401
67.0633 391
67.08342 355
67.10353 381
67.12365 398
67.14376 390
67.16387 383
67.18399 397
67.2041 393
67.22421 383
67.24433 399
67.26444 459
67.28456 409
67.30467 377
67.32478 411
67.3449 344
67.36501 415
67.38512 433
67.40524 428
67.42535 469
67.44546 426
67.46558 431
67.48569 479
67.50581 494
67.52592 484
67.54603 571
67.56615 593
67.58626 621
67.60637 698
67.62649 741
67.6466 800
67.66672 744
67.68683 771
67.70694 719
67.72706 746
67.74717 660
67.76728 629
67.7874 607
67.80751 623
67.82763 653
67.84774 674
67.86785 651
67.88797 729
67.90808 646
67.92819 683
67.94831 737
67.96842 733
67.98853 716
68.00865 817
68.02876 867
68.04888 921
68.06899 893
68.0891 958
68.10922 889
68.12933 887
68.14944 881
68.16956 843
68.18967 845
68.20979 926
68.2299 858
68.25001 856
68.27013 901
68.29024 834
68.31035 786
68.33047 692
68.35058 650
68.3707 543
68.39081 605
68.41092 554
68.43104 562
68.45115 564
68.47126 506
68.49138 480
68.51149 469
68.5316 432
68.55172 448
68.57183 458
68.59195 378
68.61206 421
68.63217 372
68.65229 375
68.6724 376
68.69251 391
68.71263 396
68.73274 383
68.75286 368
68.77297 364
68.79308 369
68.8132 373
68.83331 373
68.85342 383
68.87354 384
68.89365 355
68.91376 395
68.93388 362
68.95399 410
68.97411 365
68.99422 363
69.01433 378
69.03445 375
69.05456 347
69.07467 351
69.09479 365
69.1149 381
69.13502 365
69.15513 341
69.17524 418
69.19536 368
69.21547 359
69.23558 348
69.2557 376
69.27581 337
69.29593 377
69.31604 400
69.33615 349
69.35627 384
69.37638 387
69.39649 357
69.41661 368
69.43672 354
69.45683 348
69.47695 371
69.49706 382
69.51718 368
69.53729 361
69.5574 360
69.57752 387
69.59763 338
69.61774 393
69.63786 383
69.65797 357
69.67809 364
69.6982 363
69.71831 343
69.73843 372
69.75854 394
69.77865 356
69.79877 391
69.81888 351
69.839 349
69.85911 335
69.87922 390
69.89934 367
69.91945 386
69.93956 358
69.95968 351
69.97979 365
69.9999 394
70.02002 368
70.04013 338
70.06025 379
70.08036 392
70.10047 371
70.12059 376
70.1407 378
70.16081 374
70.18093 375
70.20104 383
70.22116 414
70.24127 328
70.26138 374
70.2815 371
70.30161 353
70.32172 369
70.34184 370
70.36195 369
70.38207 329
70.40218 360
70.42229 367
70.44241 345
70.46252 350
70.48263 357
70.50275 326
70.52286 381
70.54297 354
70.56309 375
70.5832 391
70.60332 337
70.62343 323
70.64354 354
70.66366 350
70.68377 350
70.70388 359
70.724 397
70.74411 339
70.76423 344
70.78434 340
70.80445 339
70.82457 356
70.84468 316
70.86479 353
70.88491 355
70.90502 335
70.92513 360
70.94525 341
70.96536 320
70.98548 325
71.00559 358
71.0257 358
71.04582 344
71.06593 396
71.08604 353
71.10616 353
71.12627 346
71.14639 351
71.1665 358
71.18661 353
71.20673 392
71.22684 367
71.24695 362
71.26707 366
71.28718 316
71.3073 377
71.32741 342
71.34752 373
71.36764 359
71.38775 319
71.40786 354
71.42798 340
71.44809 348
71.4682 343
71.48832 353
71.50843 357
71.52855 377
71.54866 384
71.56877 289
71.58889 347
71.609 361
71.62911 383
71.64923 357
71.66934 376
71.68946 377
71.70957 339
71.72968 360
71.7498 370
71.76991 365
71.79002 366
71.81014 367
71.83025 358
71.85037 391
71.87048 376
71.89059 355
71.91071 339
71.93082 365
71.95093 388
71.97105 369
71.99116 387
72.01127 354
72.03139 415
72.0515 371
72.07162 375
72.09173 346
72.11184 399
72.13196 399
72.15207 383
72.17218 365
72.1923 347
72.21241 355
72.23253 393
72.25264 389
72.27275 371
72.29287 384
72.31298 326
72.33309 380
72.35321 349
72.37332 329
72.39344 377
72.41355 350
72.43366 348
72.45378 352
72.47389 352
72.494 349
72.51412 375
72.53423 341
72.55434 340
72.57446 354
72.59457 376
72.61469 362
72.6348 331
72.65491 333
72.67503 332
72.69514 362
72.71525 360
72.73537 329
72.75548 353
72.7756 367
72.79571 377
72.81582 348
72.83594 367
72.85605 348
72.87616 332
72.89628 339
72.91639 363
72.9365 350
72.95662 366
72.97673 349
72.99685 374
73.01696 379
73.03707 346
73.05719 371
73.0773 340
73.09741 367
73.11753 390
73.13764 374
73.15776 389
73.17787 363
73.19798 407
73.2181 387
73.23821 385
73.25832 386
73.27844 401
73.29855 414
73.31867 425
73.33878 476
73.35889 439
73.37901 502
73.39912 502
73.41923 451
73.43935 476
73.45946 447
73.47957 429
73.49969 428
73.5198 417
73.53992 423
73.56003 458
73.58014 440
73.60026 455
73.62037 415
73.64048 452
73.6606 437
73.68071 426
73.70083 384
73.72094 385
73.74105 379
73.76117 356
73.78128 355
73.80139 364
73.82151 348
73.84162 367
73.86174 343
73.88185 351
73.90196 353
73.92208 380
73.94219 348
73.9623 361
73.98242 352
74.00253 358
74.02264 339
74.04276 369
74.06287 331
74.08299 331
74.1031 375
74.12321 379
74.14333 309
74.16344 337
74.18355 341
74.20367 322
74.22378 349
74.2439 348
74.26401 341
74.28412 354
74.30424 365
74.32435 384
74.34446 363
74.36458 370
74.38469 373
74.40481 309
74.42492 322
74.44503 363
74.46515 331
74.48526 366
74.50537 378
74.52549 368
74.5456 342
74.56571 342
74.58583 334
74.60594 332
74.62606 336
74.64617 388
74.66628 351
74.6864 349
74.70651 343
74.72662 352
74.74674 366
74.76685 379
74.78697 333
74.80708 371
74.82719 356
74.84731 341
74.86742 354
74.88753 337
74.90765 352
74.92776 355
74.94787 330
74.96799 321
74.9881 339
75.00822 344
