3.00117 20428
3.02128 19831
3.0414 19273
3.06151 18733
3.08162 18078
3.10174 17868
3.12185 17343
3.14197 16647
3.16208 16438
3.18219 15538
3.20231 15427
3.22242 15082
3.24253 14494
3.26265 14437
3.28276 13679
3.30288 13200
3.32299 13086
3.3431 12546
3.36322 12309
3.38333 11460
3.40344 11401
3.42356 10989
3.44367 10723
3.46379 10511
3.4839 9912
3.50401 9808
3.52413 9503
3.54424 8965
3.56435 8954
3.58447 8436
3.60458 8328
3.62469 7966
3.64481 7718
3.66492 7566
3.68504 7064
3.70515 6879
3.72526 6691
3.74538 6595
3.76549 6273
3.7856 5771
3.80572 5661
3.82583 5579
3.84595 5202
3.86606 5319
3.88617 4969
3.90629 4733
3.9264 4623
3.94651 4537
3.96663 4365
3.98674 3952
4.00686 4034
4.02697 3870
4.04708 3624
4.0672 3762
4.08731 3362
4.10742 3301
4.12754 3202
4.14765 3167
4.16776 3016
4.18788 2828
4.20799 2846
4.22811 2845
4.24822 2650
4.26833 2703
4.28845 2454
4.30856 2514
4.32867 2501
4.34879 2340
4.3689 2374
4.38902 2202
4.40913 2205
4.42924 2107
4.44936 2194
4.46947 2097
4.48958 1959
4.5097 2046
4.52981 1983
4.54992 1959
4.57004 1971
4.59015 1850
4.61027 1854
4.63038 1883
4.65049 1751
4.67061 1811
4.69072 1696
4.71083 1691
4.73095 1749
4.75106 1673
4.77118 1621
4.79129 1568
4.8114 1665
4.83152 1630
4.85163 1509
4.87174 1611
4.89186 1482
4.91197 1439
4.93209 1516
4.9522 1412
4.97231 1412
4.99243 1353
5.01254 1449
5.03265 1414
5.05277 1288
5.07288 1291
5.09299 1290
5.11311 1312
5.13322 1311
5.15334 1315
5.17345 1208
5.19356 1226
5.21368 1265
5.23379 1260
5.2539 1197
5.27402 1109
5.29413 1115
5.31425 1166
5.33436 1122
5.35447 1098
5.37459 1143
5.3947 1139
5.41481 1062
5.43493 1081
5.45504 1146
5.47516 1001
5.49527 986
5.51538 1030
5.5355 950
5.55561 1046
5.57572 983
5.59584 1056
5.61595 961
5.63606 962
5.65618 962
5.67629 952
5.69641 922
5.71652 960
5.73663 990
5.75675 936
5.77686 876
5.79697 929
5.81709 979
5.8372 897
5.85732 923
5.87743 891
5.89754 886
5.91766 852
5.93777 908
5.95788 832
5.978 878
5.99811 906
6.01823 834
6.03834 799
6.05845 843
6.07857 855
6.09868 853
6.11879 830
6.13891 829
6.15902 801
6.17913 850
6.19925 849
6.21936 851
6.23948 819
6.25959 753
6.2797 835
6.29982 756
6.31993 805
6.34004 756
6.36016 806
6.38027 847
6.40039 841
6.4205 713
6.44061 773
6.46073 710
6.48084 751
6.50095 704
6.52107 781
6.54118 745
6.56129 746
6.58141 739
6.60152 785
6.62164 727
6.64175 782
6.66186 774
6.68198 714
6.70209 752
6.7222 703
6.74232 672
6.76243 731
6.78255 730
6.80266 688
6.82277 670
6.84289 711
6.863 664
6.88311 735
6.90323 697
6.92334 673
6.94346 670
6.96357 713
6.98368 675
7.0038 673
7.02391 661
7.04402 641
7.06414 664
7.08425 692
7.10436 676
7.12448 633
7.14459 663
7.16471 674
7.18482 672
7.20493 612
7.22505 640
7.24516 627
7.26527 663
7.28539 657
7.3055 672
7.32562 631
7.34573 592
7.36584 630
7.38596 627
7.40607 679
7.42618 633
7.4463 639
7.46641 632
7.48653 668
7.50664 607
7.52675 582
7.54687 609
7.56698 571
7.58709 590
7.60721 625
7.62732 645
7.64743 604
7.66755 619
7.68766 558
7.70778 622
7.72789 601
7.748 603
7.76812 590
7.78823 616
7.80834 575
7.82846 560
7.84857 642
7.86869 591
7.8888 629
7.90891 625
7.92903 642
7.94914 656
7.96925 647
7.98937 575
8.00948 595
8.0296 569
8.04971 581
8.06982 624
8.08994 621
8.11005 593
8.13016 566
8.15028 621
8.17039 650
8.1905 601
8.21062 612
8.23073 553
8.25085 615
8.27096 598
8.29107 597
8.31119 574
8.3313 627
8.35141 621
8.37153 558
8.39164 579
8.41176 588
8.43187 569
8.45198 632
8.4721 601
8.49221 598
8.51232 619
8.53244 626
8.55255 592
8.57266 583
8.59278 593
8.61289 651
8.63301 549
8.65312 549
8.67323 607
8.69335 581
8.71346 608
8.73357 588
8.75369 573
8.7738 549
8.79392 571
8.81403 578
8.83414 582
8.85426 573
8.87437 609
8.89448 540
8.9146 516
8.93471 569
8.95483 555
8.97494 573
8.99505 513
9.01517 507
9.03528 530
9.05539 528
9.07551 516
9.09562 562
9.11573 523
9.13585 524
9.15596 481
9.17608 491
9.19619 506
9.2163 477
9.23642 490
9.25653 498
9.27664 432
9.29676 454
9.31687 481
9.33699 464
9.3571 498
9.37721 458
9.39733 468
9.41744 477
9.43755 446
9.45767 466
9.47778 474
9.4979 490
9.51801 451
9.53812 460
9.55824 424
9.57835 466
9.59846 424
9.61858 484
9.63869 423
9.6588 464
9.67892 460
9.69903 446
9.71915 438
9.73926 447
9.75937 466
9.77949 452
9.7996 434
9.81971 436
9.83983 459
9.85994 414
9.88006 440
9.90017 415
9.92028 417
9.9404 437
9.96051 489
9.98062 462
10.00074 441
10.02085 427
10.04097 430
10.06108 429
10.08119 484
10.10131 458
10.12142 439
10.14153 436
10.16165 443
10.18176 378
10.20187 410
10.22199 382
10.2421 455
10.26222 410
10.28233 419
10.30244 448
10.32256 441
10.34267 427
10.36278 433
10.3829 421
10.40301 431
10.42313 411
10.44324 406
10.46335 421
10.48347 394
10.50358 455
10.52369 402
10.54381 427
10.56392 392
10.58403 426
10.60415 391
10.62426 385
10.64438 417
10.66449 373
10.6846 357
10.70472 388
10.72483 406
10.74494 409
10.76506 425
10.78517 407
10.80529 441
10.8254 408
10.84551 374
10.86563 377
10.88574 429
10.90585 397
10.92597 400
10.94608 405
10.9662 427
10.98631 411
11.00642 435
11.02654 351
11.04665 382
11.06676 369
11.08688 415
11.10699 406
11.1271 395
11.14722 393
11.16733 423
11.18745 390
11.20756 360
11.22767 396
11.24779 400
11.2679 416
11.28801 383
11.30813 423
11.32824 383
11.34836 407
11.36847 391
11.38858 385
11.4087 402
11.42881 444
11.44892 401
11.46904 393
11.48915 412
11.50927 358
11.52938 388
11.54949 380
11.56961 399
11.58972 386
11.60983 392
11.62995 410
11.65006 382
11.67017 408
11.69029 381
11.7104 398
11.73052 390
11.75063 363
11.77074 400
11.79086 379
11.81097 401
11.83108 421
11.8512 419
11.87131 399
11.89143 411
11.91154 381
11.93165 420
11.95177 407
11.97188 450
11.99199 419
12.01211 381
12.03222 418
12.05234 383
12.07245 404
12.09256 408
12.11268 391
12.13279 392
12.1529 421
12.17302 437
12.19313 450
12.21324 400
12.23336 415
12.25347 393
12.27359 425
12.2937 430
12.31381 424
12.33393 408
12.35404 388
12.37415 413
12.39427 388
12.41438 405
12.4345 391
12.45461 400
12.47472 375
12.49484 382
12.51495 374
12.53506 361
12.55518 373
12.57529 375
12.5954 373
12.61552 391
12.63563 387
12.65575 400
12.67586 401
12.69597 385
12.71609 376
12.7362 377
12.75631 360
12.77643 421
12.79654 375
12.81666 355
12.83677 392
12.85688 430
12.877 436
12.89711 377
12.91722 384
12.93734 391
12.95745 408
12.97757 350
12.99768 419
13.01779 384
13.03791 425
13.05802 413
13.07813 382
13.09825 390
13.11836 407
13.13847 366
13.15859 355
13.1787 441
13.19882 401
13.21893 380
13.23904 370
13.25916 372
13.27927 446
13.29938 388
13.3195 413
13.33961 357
13.35973 415
13.37984 410
13.39995 417
13.42007 397
13.44018 374
13.46029 440
13.48041 366
13.50052 402
13.52064 426
13.54075 450
13.56086 410
13.58098 442
13.60109 453
13.6212 383
13.64132 436
13.66143 391
13.68154 401
13.70166 407
13.72177 376
13.74189 387
13.762 414
13.78211 406
13.80223 427
13.82234 402
13.84245 422
13.86257 452
13.88268 401
13.9028 414
13.92291 394
13.94302 401
13.96314 408
13.98325 376
14.00336 420
14.02348 382
14.04359 365
14.06371 395
14.08382 397
14.10393 384
14.12405 361
14.14416 380
14.16427 396
14.18439 366
14.2045 402
14.22461 401
14.24473 369
14.26484 327
14.28496 375
14.30507 312
14.32518 352
14.3453 381
14.36541 349
14.38552 394
14.40564 350
14.42575 392
14.44587 397
14.46598 380
14.48609 375
14.50621 364
14.52632 346
14.54643 400
14.56655 397
14.58666 391
14.60677 427
14.62689 375
14.647 354
14.66712 386
14.68723 380
14.70734 350
14.72746 358
14.74757 396
14.76768 391
14.7878 366
14.80791 349
14.82803 386
14.84814 362
14.86825 381
14.88837 370
14.90848 403
14.92859 414
14.94871 410
14.96882 415
14.98894 383
15.00905 373
15.02916 399
15.04928 420
15.06939 387
15.0895 408
15.10962 399
15.12973 391
15.14984 403
15.16996 331
15.19007 407
15.21019 344
15.2303 341
15.25041 393
15.27053 365
15.29064 352
15.31075 400
15.33087 362
15.35098 399
15.3711 351
15.39121 384
15.41132 384
15.43144 359
15.45155 404
15.47166 371
15.49178 391
15.51189 408
15.53201 382
15.55212 371
15.57223 396
15.59235 371
15.61246 356
15.63257 380
15.65269 396
15.6728 402
15.69291 383
15.71303 378
15.73314 386
15.75326 426
15.77337 381
15.79348 353
15.8136 345
15.83371 411
15.85382 371
15.87394 387
15.89405 393
15.91417 369
15.93428 374
15.95439 434
15.97451 394
15.99462 392
16.01473 349
16.03485 360
16.05496 363
16.07508 392
16.09519 400
16.1153 390
16.13542 360
16.15553 366
16.17564 387
16.19576 416
16.21587 365
16.23598 357
16.2561 357
16.27621 348
16.29633 351
16.31644 373
16.33655 387
16.35667 381
16.37678 369
16.39689 371
16.41701 383
16.43712 359
16.45724 355
16.47735 391
16.49746 407
16.51758 363
16.53769 393
16.5578 390
16.57792 357
16.59803 368
16.61814 368
16.63826 383
16.65837 409
16.67849 386
16.6986 426
16.71871 416
16.73883 382
16.75894 396
16.77905 359
16.79917 420
16.81928 396
16.8394 405
16.85951 329
16.87962 368
16.89974 348
16.91985 389
16.93996 389
16.96008 359
16.98019 400
17.00031 374
17.02042 387
17.04053 370
17.06065 388
17.08076 377
17.10087 377
17.12099 405
17.1411 408
17.16121 393
17.18133 441
17.20144 412
17.22156 430
17.24167 354
17.26178 409
17.2819 374
17.30201 389
17.32212 427
17.34224 423
17.36235 398
17.38247 372
17.40258 373
17.42269 372
17.44281 396
17.46292 390
17.48303 369
17.50315 399
17.52326 373
17.54338 386
17.56349 397
17.5836 378
17.60372 397
17.62383 405
17.64394 424
17.66406 421
17.68417 405
17.70428 429
17.7244 432
17.74451 407
17.76463 391
17.78474 407
17.80485 392
17.82497 395
17.84508 417
17.86519 416
17.88531 474
17.90542 428
17.92554 371
17.94565 405
17.96576 397
17.98588 415
18.00599 396
18.0261 379
18.04622 418
18.06633 374
18.08645 399
18.10656 368
18.12667 401
18.14679 384
18.1669 395
18.18701 437
18.20713 401
18.22724 412
18.24735 394
18.26747 390
18.28758 376
18.3077 412
18.32781 363
18.34792 417
18.36804 417
18.38815 397
18.40826 400
18.42838 401
18.44849 372
18.46861 398
18.48872 427
18.50883 373
18.52895 413
18.54906 414
18.56917 398
18.58929 376
18.6094 433
18.62951 413
18.64963 419
18.66974 383
18.68986 387
18.70997 369
18.73008 396
18.7502 402
18.77031 405
18.79042 457
18.81054 393
18.83065 391
18.85077 456
18.87088 462
18.89099 409
18.91111 447
18.93122 428
18.95133 460
18.97145 465
18.99156 423
19.01168 408
19.03179 428
19.0519 437
19.07202 454
19.09213 427
19.11224 418
19.13236 472
19.15247 411
19.17258 453
19.1927 453
19.21281 474
19.23293 491
19.25304 467
19.27315 539
19.29327 497
19.31338 473
19.33349 516
19.35361 545
19.37372 536
19.39384 565
19.41395 598
19.43406 628
19.45418 590
19.47429 632
19.4944 647
19.51452 683
19.53463 713
19.55475 704
19.57486 750
19.59497 727
19.61509 763
19.6352 814
19.65531 790
19.67543 834
19.69554 794
19.71565 821
19.73577 899
19.75588 871
19.776 885
19.79611 882
19.81622 884
19.83634 882
19.85645 954
19.87656 906
19.89668 848
19.91679 836
19.93691 836
19.95702 767
19.97713 820
19.99725 804
20.01736 800
20.03747 766
20.05759 739
20.0777 706
20.09782 705
20.11793 753
20.13804 739
20.15816 693
20.17827 707
20.19838 683
20.2185 689
20.23861 658
20.25872 664
20.27884 674
20.29895 671
20.31907 667
20.33918 631
20.35929 618
20.37941 603
20.39952 653
20.41963 677
20.43975 654
20.45986 535
20.47998 569
20.50009 658
20.5202 562
20.54032 573
20.56043 626
20.58054 587
20.60066 594
20.62077 641
20.64088 593
20.661 689
20.68111 692
20.70123 775
20.72134 874
20.74145 1015
20.76157 1240
20.78168 1365
20.80179 1491
20.82191 1492
20.84202 1520
20.86214 1291
20.88225 1130
20.90236 1005
20.92248 809
20.94259 793
20.9627 755
20.98282 765
21.00293 778
21.02305 699
21.04316 651
21.06327 687
21.08339 625
21.1035 566
21.12361 574
21.14373 542
21.16384 613
21.18395 497
21.20407 549
21.22418 571
21.2443 550
21.26441 549
21.28452 549
21.30464 538
21.32475 561
21.34486 538
21.36498 528
21.38509 583
21.40521 506
21.42532 541
21.44543 576
21.46555 564
21.48566 528
21.50577 516
21.52589 540
21.546 519
21.56612 493
21.58623 513
21.60634 499
21.62646 546
21.64657 501
21.66668 538
21.6868 521
21.70691 519
21.72702 534
21.74714 497
21.76725 543
21.78737 568
21.80748 532
21.82759 577
21.84771 568
21.86782 574
21.88793 603
21.90805 711
21.92816 688
21.94828 795
21.96839 779
21.9885 791
22.00862 777
22.02873 661
22.04884 631
22.06896 614
22.08907 554
22.10919 590
22.1293 512
22.14941 522
22.16953 513
22.18964 522
22.20975 499
22.22987 488
22.24998 499
22.27009 573
22.29021 504
22.31032 522
22.33044 546
22.35055 526
22.37066 537
22.39078 543
22.41089 511
22.431 512
22.45112 537
22.47123 562
22.49135 519
22.51146 534
22.53157 493
22.55169 493
22.5718 503
22.59191 543
22.61203 517
22.63214 473
22.65225 457
22.67237 523
22.69248 513
22.7126 466
22.73271 494
22.75282 514
22.77294 513
22.79305 524
22.81316 524
22.83328 519
22.85339 551
22.87351 515
22.89362 559
22.91373 557
22.93385 519
22.95396 580
22.97407 562
22.99419 560
23.0143 531
23.03442 620
23.05453 581
23.07464 570
23.09476 606
23.11487 596
23.13498 579
23.1551 534
23.17521 585
23.19532 550
23.21544 541
23.23555 538
23.25567 564
23.27578 537
23.29589 496
23.31601 514
23.33612 539
23.35623 559
23.37635 571
23.39646 597
23.41658 603
23.43669 596
23.4568 698
23.47692 633
23.49703 692
23.51714 696
23.53726 748
23.55737 677
23.57749 683
23.5976 645
23.61771 654
23.63783 632
23.65794 563
23.67805 579
23.69817 588
23.71828 578
23.73839 581
23.75851 577
23.77862 558
23.79874 636
23.81885 581
23.83896 588
23.85908 569
23.87919 588
23.8993 637
23.91942 620
23.93953 625
23.95965 637
23.97976 615
23.99987 673
24.01999 651
24.0401 705
24.06021 660
24.08033 640
24.10044 590
24.12056 623
24.14067 627
24.16078 655
24.1809 693
24.20101 674
24.22112 632
24.24124 709
24.26135 691
24.28146 634
24.30158 644
24.32169 597
24.34181 613
24.36192 600
24.38203 590
24.40215 558
24.42226 554
24.44237 556
24.46249 567
24.4826 547
24.50272 542
24.52283 542
24.54294 538
24.56306 539
24.58317 539
24.60328 539
24.6234 525
24.64351 513
24.66362 549
24.68374 508
24.70385 581
24.72397 480
24.74408 527
24.76419 500
24.78431 533
24.80442 505
24.82453 514
24.84465 520
24.86476 556
24.88488 531
24.90499 541
24.9251 526
24.94522 558
24.96533 528
24.98544 514
25.00556 499
25.02567 547
25.04579 541
25.0659 522
25.08601 570
25.10613 531
25.12624 580
25.14635 605
25.16647 602
25.18658 575
25.20669 614
25.22681 582
25.24692 582
25.26704 587
25.28715 588
25.30726 623
25.32738 568
25.34749 591
25.3676 630
25.38772 591
25.40783 600
25.42795 606
25.44806 574
25.46817 681
25.48829 611
25.5084 686
25.52851 682
25.54863 662
25.56874 633
25.58886 722
25.60897 643
25.62908 660
25.6492 643
25.66931 608
25.68942 658
25.70954 555
25.72965 555
25.74976 548
25.76988 605
25.78999 570
25.81011 561
25.83022 562
25.85033 544
25.87045 502
25.89056 581
25.91067 543
25.93079 545
25.9509 507
25.97102 555
25.99113 521
26.01124 539
26.03136 546
26.05147 556
26.07158 560
26.0917 550
26.11181 558
26.13193 559
26.15204 578
26.17215 622
26.19227 661
26.21238 633
26.23249 651
26.25261 623
26.27272 713
26.29283 699
26.31295 745
26.33306 806
26.35318 879
26.37329 957
26.3934 941
26.41352 1060
26.43363 1174
26.45374 1433
26.47386 1648
26.49397 2240
26.51409 2827
26.5342 3615
26.55431 4370
26.57443 4880
26.59454 4927
26.61465 4789
26.63477 4092
26.65488 3320
26.67499 2721
26.69511 2012
26.71522 1470
26.73534 1206
26.75545 955
26.77556 873
26.79568 816
26.81579 916
26.8359 782
26.85602 804
26.87613 805
26.89625 783
26.91636 771
26.93647 762
26.95659 787
26.9767 770
26.99681 768
27.01693 812
27.03704 761
27.05716 843
27.07727 722
27.09738 750
27.1175 702
27.13761 699
27.15772 695
27.17784 633
27.19795 644
27.21806 629
27.23818 652
27.25829 669
27.27841 730
27.29852 721
27.31863 747
27.33875 800
27.35886 803
27.37897 888
27.39909 898
27.4192 868
27.43932 927
27.45943 915
27.47954 943
27.49966 900
27.51977 816
27.53988 791
27.56 788
27.58011 860
27.60023 789
27.62034 799
27.64045 862
27.66057 844
27.68068 941
27.70079 936
27.72091 939
27.74102 946
27.76113 940
27.78125 990
27.80136 966
27.82148 978
27.84159 1074
27.8617 1082
27.88182 1058
27.90193 1109
27.92204 1067
27.94216 1070
27.96227 950
27.98239 834
28.0025 791
28.02261 753
28.04273 708
28.06284 686
28.08295 705
28.10307 643
28.12318 641
28.1433 661
28.16341 666
28.18352 685
28.20364 663
28.22375 618
28.24386 660
28.26398 623
28.28409 605
28.3042 598
28.32432 550
28.34443 575
28.36455 581
28.38466 523
28.40477 518
28.42489 559
28.445 524
28.46511 538
28.48523 534
28.50534 545
28.52546 556
28.54557 517
28.56568 473
28.5858 523
28.60591 505
28.62602 476
28.64614 501
28.66625 512
28.68636 486
28.70648 523
28.72659 491
28.74671 488
28.76682 525
28.78693 500
28.80705 492
28.82716 454
28.84727 490
28.86739 517
28.8875 481
28.90762 454
28.92773 453
28.94784 475
28.96796 472
28.98807 482
29.00818 500
29.0283 473
29.04841 497
29.06853 494
29.08864 473
29.10875 486
29.12887 509
29.14898 533
29.16909 543
29.18921 521
29.20932 553
29.22943 561
29.24955 564
29.26966 562
29.28978 621
29.30989 663
29.33 736
29.35012 809
29.37023 865
29.39034 897
29.41046 988
29.43057 936
29.45069 966
29.4708 966
29.49091 888
29.51103 804
29.53114 758
29.55125 727
29.57137 687
29.59148 637
29.6116 639
29.63171 646
29.65182 566
29.67194 609
29.69205 636
29.71216 633
29.73228 629
29.75239 650
29.7725 672
29.79262 659
29.81273 665
29.83285 646
29.85296 641
29.87307 631
29.89319 626
29.9133 604
29.93341 617
29.95353 618
29.97364 553
29.99376 613
30.01387 606
30.03398 575
30.0541 625
30.07421 641
30.09432 624
30.11444 604
30.13455 611
30.15467 604
30.17478 608
30.19489 616
30.21501 611
30.23512 582
30.25523 590
30.27535 616
30.29546 593
30.31557 625
30.33569 597
30.3558 609
30.37592 648
30.39603 575
30.41614 589
30.43626 612
30.45637 588
30.47648 569
30.4966 576
30.51671 582
30.53683 541
30.55694 522
30.57705 525
30.59717 507
30.61728 515
30.63739 558
30.65751 538
30.67762 579
30.69773 523
30.71785 546
30.73796 554
30.75808 561
30.77819 534
30.7983 621
30.81842 562
30.83853 523
30.85864 512
30.87876 538
30.89887 495
30.91899 524
30.9391 518
30.95921 470
30.97933 509
30.99944 461
31.01955 462
31.03967 484
31.05978 493
31.0799 482
31.10001 443
31.12012 513
31.14024 511
31.16035 532
31.18046 501
31.20058 456
31.22069 454
31.2408 500
31.26092 470
31.28103 490
31.30115 480
31.32126 497
31.34137 430
31.36149 490
31.3816 468
31.40171 529
31.42183 486
31.44194 533
31.46206 495
31.48217 468
31.50228 479
31.5224 503
31.54251 449
31.56262 457
31.58274 462
31.60285 418
31.62297 462
31.64308 440
31.66319 462
31.68331 448
31.70342 439
31.72353 441
31.74365 483
31.76376 446
31.78387 420
31.80399 441
31.8241 454
31.84422 475
31.86433 452
31.88444 472
31.90456 451
31.92467 436
31.94478 408
31.9649 466
31.98501 496
32.00513 482
32.02524 442
32.04535 441
32.06547 456
32.08558 457
32.10569 460
32.12581 489
32.14592 476
32.16604 523
32.18615 463
32.20626 513
32.22638 424
32.24649 478
32.2666 432
32.28672 510
32.30683 499
32.32694 486
32.34706 497
32.36717 471
32.38729 493
32.4074 506
32.42751 439
32.44763 453
32.46774 490
32.48785 499
32.50797 470
32.52808 442
32.5482 504
32.56831 461
32.58842 449
32.60854 430
32.62865 464
32.64876 455
32.66888 452
32.68899 483
32.7091 488
32.72922 446
32.74933 428
32.76945 419
32.78956 489
32.80967 441
32.82979 497
32.8499 468
32.87001 459
32.89013 485
32.91024 473
32.93036 493
32.95047 519
32.97058 539
32.9907 551
33.01081 562
33.03092 518
33.05104 588
33.07115 575
33.09127 563
33.11138 483
33.13149 579
33.15161 558
33.17172 463
33.19183 521
33.21195 463
33.23206 504
33.25217 453
33.27229 468
33.2924 457
33.31252 418
33.33263 441
33.35274 450
33.37286 453
33.39297 457
33.41308 491
33.4332 433
33.45331 440
33.47343 431
33.49354 460
33.51365 446
33.53377 448
33.55388 431
33.57399 453
33.59411 448
33.61422 451
33.63434 438
33.65445 465
33.67456 442
33.69468 431
33.71479 456
33.7349 401
33.75502 446
33.77513 408
33.79524 468
33.81536 474
33.83547 500
33.85559 459
33.8757 449
33.89581 487
33.91593 458
33.93604 479
33.95615 499
33.97627 511
33.99638 444
34.0165 488
34.03661 478
34.05672 456
34.07684 483
34.09695 466
34.11706 474
34.13718 504
34.15729 565
34.17741 571
34.19752 536
34.21763 522
34.23775 604
34.25786 546
34.27797 550
34.29809 596
34.3182 550
34.33831 601
34.35843 608
34.37854 595
34.39866 626
34.41877 619
34.43888 637
34.459 647
34.47911 615
34.49922 621
34.51934 701
34.53945 669
34.55957 649
34.57968 686
34.59979 713
34.61991 688
34.64002 702
34.66013 658
34.68025 661
34.70036 683
34.72047 697
34.74059 733
34.7607 721
34.78082 716
34.80093 761
34.82104 705
34.84116 738
34.86127 740
34.88138 792
34.9015 741
34.92161 734
34.94173 768
34.96184 718
34.98195 771
35.00207 732
35.02218 684
35.04229 717
35.06241 751
35.08252 717
35.10264 753
35.12275 738
35.14286 719
35.16298 725
35.18309 715
35.2032 769
35.22332 774
35.24343 739
35.26354 694
35.28366 686
35.30377 750
35.32389 761
35.344 713
35.36411 801
35.38423 726
35.40434 755
35.42445 747
35.44457 797
35.46468 800
35.4848 840
35.50491 843
35.52502 854
35.54514 847
35.56525 855
35.58536 858
35.60548 783
35.62559 744
35.64571 742
35.66582 688
35.68593 695
35.70605 663
35.72616 629
35.74627 633
35.76639 658
35.7865 667
35.80661 614
35.82673 631
35.84684 593
35.86696 630
35.88707 618
35.90718 582
35.9273 631
35.94741 599
35.96752 650
35.98764 643
36.00775 619
36.02787 615
36.04798 595
36.06809 627
36.08821 614
36.10832 556
36.12843 618
36.14855 623
36.16866 606
36.18878 561
36.20889 579
36.229 566
36.24912 600
36.26923 550
36.28934 562
36.30946 616
36.32957 611
36.34968 661
36.3698 722
36.38991 648
36.41003 671
36.43014 776
36.45025 791
36.47037 825
36.49048 866
36.51059 810
36.53071 758
36.55082 756
36.57094 700
36.59105 698
36.61116 676
36.63128 611
36.65139 563
36.6715 578
36.69162 549
36.71173 535
36.73184 548
36.75196 543
36.77207 560
36.79219 547
36.8123 565
36.83241 541
36.85253 544
36.87264 578
36.89275 556
36.91287 564
36.93298 553
36.9531 618
36.97321 544
36.99332 512
37.01344 571
37.03355 547
37.05366 543
37.07378 570
37.09389 564
37.11401 521
37.13412 570
37.15423 512
37.17435 557
37.19446 560
37.21457 521
37.23469 564
37.2548 528
37.27491 531
37.29503 551
37.31514 562
37.33526 495
37.35537 524
37.37548 527
37.3956 535
37.41571 522
37.43582 557
37.45594 514
37.47605 535
37.49617 539
37.51628 490
37.53639 529
37.55651 543
37.57662 535
37.59673 529
37.61685 541
37.63696 524
37.65708 569
37.67719 528
37.6973 515
37.71742 532
37.73753 517
37.75764 503
37.77776 508
37.79787 515
37.81798 481
37.8381 504
37.85821 529
37.87833 510
37.89844 458
37.91855 479
37.93867 443
37.95878 482
37.97889 450
37.99901 462
38.01912 450
38.03924 486
38.05935 456
38.07946 493
38.09958 490
38.11969 468
38.1398 481
38.15992 498
38.18003 455
38.20015 487
38.22026 452
38.24037 440
38.26049 469
38.2806 483
38.30071 479
38.32083 488
38.34094 493
38.36105 492
38.38117 462
38.40128 460
38.4214 488
38.44151 506
38.46162 449
38.48174 483
38.50185 459
38.52196 501
38.54208 461
38.56219 459
38.58231 497
38.60242 465
38.62253 457
38.64265 482
38.66276 513
38.68287 492
38.70299 463
38.7231 469
38.74321 439
38.76333 477
38.78344 457
38.80356 474
38.82367 480
38.84378 474
38.8639 456
38.88401 458
38.90412 497
38.92424 451
38.94435 447
38.96447 475
38.98458 470
39.00469 431
39.02481 448
39.04492 477
39.06503 481
39.08515 448
39.10526 473
39.12538 485
39.14549 404
39.1656 451
39.18572 459
39.20583 468
39.22594 472
39.24606 534
39.26617 499
39.28628 539
39.3064 548
39.32651 644
39.34663 667
39.36674 711
39.38685 745
39.40697 757
39.42708 797
39.44719 682
39.46731 760
39.48742 659
39.50754 685
39.52765 637
39.54776 581
39.56788 570
39.58799 506
39.6081 526
39.62822 533
39.64833 480
39.66845 476
39.68856 477
39.70867 491
39.72879 471
39.7489 489
39.76901 450
39.78913 486
39.80924 417
39.82935 440
39.84947 465
39.86958 480
39.8897 506
39.90981 478
39.92992 459
39.95004 459
39.97015 513
39.99026 504
40.01038 480
40.03049 496
40.05061 510
40.07072 483
40.09083 466
40.11095 461
40.13106 533
40.15117 551
40.17129 562
40.1914 550
40.21152 540
40.23163 558
40.25174 611
40.27186 532
40.29197 544
40.31208 541
40.3322 498
40.35231 511
40.37242 480
40.39254 504
40.41265 475
40.43277 496
40.45288 456
40.47299 466
40.49311 430
40.51322 469
40.53333 455
40.55345 494
40.57356 480
40.59368 500
40.61379 435
40.6339 484
40.65402 516
40.67413 475
40.69424 500
40.71436 450
40.73447 487
40.75458 496
40.7747 485
40.79481 477
40.81493 480
40.83504 463
40.85515 495
40.87527 485
40.89538 466
40.91549 463
40.93561 474
40.95572 483
40.97584 435
40.99595 427
41.01606 471
41.03618 435
41.05629 413
41.0764 462
41.09652 442
41.11663 501
41.13675 467
41.15686 438
41.17697 446
41.19709 439
41.2172 458
41.23731 439
41.25743 429
41.27754 435
41.29765 439
41.31777 461
41.33788 451
41.358 502
41.37811 426
41.39822 431
41.41834 419
41.43845 453
41.45856 445
41.47868 465
41.49879 447
41.51891 457
41.53902 459
41.55913 454
41.57925 438
41.59936 460
41.61947 457
41.63959 467
41.6597 473
41.67982 505
41.69993 473
41.72004 508
41.74016 500
41.76027 526
41.78038 503
41.8005 453
41.82061 491
41.84072 456
41.86084 465
41.88095 461
41.90107 453
41.92118 460
41.94129 443
41.96141 432
41.98152 449
42.00163 391
42.02175 454
42.04186 492
42.06198 486
42.08209 423
42.1022 464
42.12232 420
42.14243 436
42.16254 484
42.18266 441
42.20277 477
42.22289 522
42.243 454
42.26311 522
42.28323 515
42.30334 518
42.32345 575
42.34357 590
42.36368 617
42.38379 654
42.40391 655
42.42402 596
42.44414 611
42.46425 516
42.48436 594
42.50448 543
42.52459 531
42.5447 523
42.56482 494
42.58493 471
42.60505 467
42.62516 496
42.64527 478
42.66539 465
42.6855 463
42.70561 496
42.72573 452
42.74584 450
42.76595 439
42.78607 422
42.80618 464
42.8263 458
42.84641 464
42.86652 461
42.88664 437
42.90675 479
42.92686 457
42.94698 464
42.96709 468
42.98721 486
43.00732 475
43.02743 472
43.04755 492
43.06766 470
43.08777 493
43.10789 469
43.128 500
43.14812 503
43.16823 525
43.18834 524
43.20846 562
43.22857 481
43.24868 483
43.2688 506
43.28891 512
43.30902 466
43.32914 505
43.34925 435
43.36937 443
43.38948 440
43.40959 406
43.42971 469
43.44982 460
43.46993 439
43.49005 406
43.51016 437
43.53028 415
43.55039 428
43.5705 427
43.59062 446
43.61073 411
43.63084 429
43.65096 407
43.67107 448
43.69119 412
43.7113 400
43.73141 421
43.75153 399
43.77164 408
43.79175 398
43.81187 430
43.83198 430
43.85209 423
43.87221 432
43.89232 390
43.91244 430
43.93255 407
43.95266 390
43.97278 417
43.99289 401
44.013 426
44.03312 431
44.05323 404
44.07335 425
44.09346 416
44.11357 425
44.13369 423
44.1538 437
44.17391 421
44.19403 361
44.21414 395
44.23426 385
44.25437 385
44.27448 414
44.2946 405
44.31471 383
44.33482 413
44.35494 379
44.37505 412
44.39516 430
44.41528 440
44.43539 442
44.45551 391
44.47562 411
44.49573 420
44.51585 404
44.53596 443
44.55607 403
44.57619 445
44.5963 438
44.61642 421
44.63653 427
44.65664 418
44.67676 417
44.69687 435
44.71698 407
44.7371 422
44.75721 412
44.77732 421
44.79744 419
44.81755 401
44.83767 440
44.85778 450
44.87789 438
44.89801 425
44.91812 411
44.93823 425
44.95835 433
44.97846 418
44.99858 443
45.01869 413
45.0388 430
45.05892 440
45.07903 400
45.09914 407
45.11926 422
45.13937 429
45.15949 420
45.1796 432
45.19971 424
45.21983 463
45.23994 460
45.26005 443
45.28017 417
45.30028 452
45.32039 437
45.34051 433
45.36062 433
45.38074 469
45.40085 433
45.42096 404
45.44108 436
45.46119 425
45.4813 446
45.50142 424
45.52153 434
45.54165 441
45.56176 445
45.58187 436
45.60199 461
45.6221 483
45.64221 456
45.66233 510
45.68244 554
45.70256 522
45.72267 558
45.74278 526
45.7629 515
45.78301 476
45.80312 535
45.82324 550
45.84335 495
45.86346 482
45.88358 432
45.90369 439
45.92381 461
45.94392 398
45.96403 421
45.98415 426
46.00426 395
46.02437 405
46.04449 408
46.0646 410
46.08472 390
46.10483 439
46.12494 434
46.14506 408
46.16517 399
46.18528 441
46.2054 406
46.22551 422
46.24563 389
46.26574 389
46.28585 372
46.30597 403
46.32608 445
46.34619 358
46.36631 380
46.38642 381
46.40653 390
46.42665 391
46.44676 390
46.46688 405
46.48699 400
46.5071 400
46.52722 384
46.54733 395
46.56744 386
46.58756 407
46.60767 401
46.62779 387
46.6479 367
46.66801 391
46.68813 382
46.70824 392
46.72835 392
46.74847 414
46.76858 388
46.78869 400
46.80881 405
46.82892 397
46.84904 443
46.86915 396
46.88926 429
46.90938 389
46.92949 419
46.9496 416
46.96972 424
46.98983 416
47.00995 398
47.03006 411
47.05017 401
47.07029 424
47.0904 407
47.11051 471
47.13063 436
47.15074 447
47.17086 402
47.19097 413
47.21108 428
47.2312 403
47.25131 424
47.27142 366
47.29154 422
47.31165 399
47.33176 396
47.35188 431
47.37199 389
47.39211 408
47.41222 439
47.43233 407
47.45245 427
47.47256 445
47.49267 447
47.51279 476
47.5329 445
47.55302 470
47.57313 490
47.59324 461
47.61336 445
47.63347 429
47.65358 468
47.6737 467
47.69381 427
47.71393 424
47.73404 417
47.75415 460
47.77427 409
47.79438 413
47.81449 399
47.83461 414
47.85472 400
47.87483 386
47.89495 390
47.91506 402
47.93518 389
47.95529 432
47.9754 401
47.99552 415
48.01563 403
48.03574 426
48.05586 398
48.07597 390
48.09609 390
48.1162 380
48.13631 413
48.15643 376
48.17654 418
48.19665 424
48.21677 386
48.23688 368
48.257 409
48.27711 431
48.29722 392
48.31734 419
48.33745 402
48.35756 427
48.37768 373
48.39779 389
48.4179 446
48.43802 431
48.45813 446
48.47825 460
48.49836 421
48.51847 453
48.53859 471
48.5587 455
48.57881 451
48.59893 458
48.61904 449
48.63916 448
48.65927 427
48.67938 417
48.6995 411
48.71961 458
48.73972 455
48.75984 423
48.77995 384
48.80006 434
48.82018 408
48.84029 387
48.86041 402
48.88052 412
48.90063 396
48.92075 395
48.94086 409
48.96097 410
48.98109 397
49.0012 418
49.02132 388
49.04143 406
49.06154 435
49.08166 430
49.10177 441
49.12188 460
49.142 426
49.16211 422
49.18223 417
49.20234 439
49.22245 459
49.24257 424
49.26268 400
49.28279 462
49.30291 442
49.32302 425
49.34313 436
49.36325 462
49.38336 388
49.40348 404
49.42359 443
49.4437 433
49.46382 411
49.48393 423
49.50404 427
49.52416 421
49.54427 414
49.56439 419
49.5845 399
49.60461 405
49.62473 406
49.64484 421
49.66495 408
49.68507 428
49.70518 445
49.7253 448
49.74541 457
49.76552 459
49.78564 393
49.80575 473
49.82586 447
49.84598 495
49.86609 464
49.8862 456
49.90632 525
49.92643 531
49.94655 547
49.96666 568
49.98677 671
50.00689 614
50.027 722
50.04711 834
50.06723 790
50.08734 866
50.10746 742
50.12757 734
50.14768 653
50.1678 642
50.18791 580
50.20802 572
50.22814 563
50.24825 531
50.26837 477
50.28848 456
50.30859 429
50.32871 399
50.34882 404
50.36893 442
50.38905 423
50.40916 411
50.42927 431
50.44939 435
50.4695 418
50.48962 394
50.50973 458
50.52984 449
50.54996 451
50.57007 444
50.59018 451
50.6103 418
50.63041 442
50.65053 441
50.67064 451
50.69075 437
50.71087 427
50.73098 399
50.75109 430
50.77121 432
50.79132 410
50.81143 388
50.83155 447
50.85166 395
50.87178 382
50.89189 358
50.912 343
50.93212 355
50.95223 385
50.97234 352
50.99246 408
51.01257 400
51.03269 385
51.0528 402
51.07291 389
51.09303 383
51.11314 406
51.13325 403
51.15337 425
51.17348 428
51.1936 434
51.21371 400
51.23382 382
51.25394 396
51.27405 379
51.29416 374
51.31428 389
51.33439 393
51.3545 396
51.37462 347
51.39473 383
51.41485 372
51.43496 393
51.45507 385
51.47519 363
51.4953 360
51.51541 349
51.53553 370
51.55564 365
51.57576 357
51.59587 362
51.61598 361
51.6361 346
51.65621 385
51.67632 341
51.69644 368
51.71655 349
51.73667 356
51.75678 377
51.77689 369
51.79701 395
51.81712 375
51.83723 344
51.85735 355
51.87746 385
51.89757 354
51.91769 351
51.9378 344
51.95792 395
51.97803 389
51.99814 364
52.01826 400
52.03837 362
52.05848 381
52.0786 376
52.09871 392
52.11883 396
52.13894 414
52.15905 415
52.17917 396
52.19928 395
52.21939 381
52.23951 391
52.25962 411
52.27974 406
52.29985 392
52.31996 409
52.34008 395
52.36019 405
52.3803 401
52.40042 395
52.42053 368
52.44064 382
52.46076 374
52.48087 365
52.50099 366
52.5211 400
52.54121 362
52.56133 360
52.58144 364
52.60155 386
52.62167 393
52.64178 403
52.6619 398
52.68201 397
52.70212 395
52.72224 373
52.74235 428
52.76246 400
52.78258 390
52.80269 407
52.8228 370
52.84292 412
52.86303 392
52.88315 423
52.90326 425
52.92337 432
52.94349 351
52.9636 381
52.98371 435
53.00383 433
53.02394 388
53.04406 429
53.06417 391
53.08428 438
53.1044 409
53.12451 431
53.14462 448
53.16474 419
53.18485 406
53.20497 403
53.22508 452
53.24519 430
53.26531 452
53.28542 401
53.30553 443
53.32565 444
53.34576 470
53.36587 416
53.38599 430
53.4061 435
53.42622 470
53.44633 444
53.46644 437
53.48656 462
53.50667 427
53.52678 432
53.5469 474
53.56701 467
53.58713 453
53.60724 432
53.62735 438
53.64747 448
53.66758 436
53.68769 485
53.70781 466
53.72792 454
53.74804 471
53.76815 471
53.78826 474
53.80838 478
53.82849 460
53.8486 480
53.86872 498
53.88883 453
53.90894 510
53.92906 494
53.94917 469
53.96929 510
53.9894 482
54.00951 506
54.02963 446
54.04974 476
54.06985 450
54.08997 488
54.11008 497
54.1302 466
54.15031 457
54.17042 460
54.19054 496
54.21065 471
54.23076 445
54.25088 495
54.27099 442
54.29111 465
54.31122 465
54.33133 457
54.35145 480
54.37156 461
54.39167 489
54.41179 431
54.4319 461
54.45201 472
54.47213 470
54.49224 423
54.51236 451
54.53247 442
54.55258 430
54.5727 469
54.59281 438
54.61292 497
54.63304 429
54.65315 457
54.67327 464
54.69338 478
54.71349 500
54.73361 506
54.75372 568
54.77383 536
54.79395 550
54.81406 552
54.83417 513
54.85429 547
54.8744 539
54.89452 514
54.91463 514
54.93474 509
54.95486 474
54.97497 506
54.99508 458
55.0152 461
55.03531 478
55.05543 471
55.07554 444
55.09565 474
55.11577 449
55.13588 464
55.15599 476
55.17611 444
55.19622 455
55.21634 463
55.23645 490
55.25656 436
55.27668 471
55.29679 475
55.3169 443
55.33702 463
55.35713 470
55.37724 469
55.39736 471
55.41747 476
55.43759 484
55.4577 432
55.47781 435
55.49793 441
55.51804 461
55.53815 425
55.55827 471
55.57838 418
55.5985 418
55.61861 420
55.63872 417
55.65884 390
55.67895 426
55.69906 414
55.71918 388
55.73929 396
55.75941 470
55.77952 420
55.79963 433
55.81975 412
55.83986 404
55.85997 413
55.88009 438
55.9002 406
55.92031 424
55.94043 395
55.96054 399
55.98066 440
56.00077 382
56.02088 425
56.041 402
56.06111 441
56.08122 434
56.10134 413
56.12145 420
56.14157 428
56.16168 421
56.18179 388
56.20191 402
56.22202 423
56.24213 421
56.26225 409
56.28236 400
56.30248 440
56.32259 418
56.3427 437
56.36282 389
56.38293 452
56.40304 415
56.42316 430
56.44327 417
56.46338 434
56.4835 432
56.50361 432
56.52373 396
56.54384 431
56.56395 455
56.58407 450
56.60418 424
56.62429 429
56.64441 434
56.66452 421
56.68464 414
56.70475 413
56.72486 475
56.74498 434
56.76509 441
56.7852 403
56.80532 411
56.82543 429
56.84554 389
56.86566 449
56.88577 426
56.90589 425
56.926 446
56.94611 400
56.96623 382
56.98634 413
57.00645 431
57.02657 456
57.04668 412
57.0668 402
57.08691 456
57.10702 440
57.12714 420
57.14725 434
57.16736 434
57.18748 439
57.20759 447
57.22771 432
57.24782 402
57.26793 459
57.28805 459
57.30816 423
57.32827 412
57.34839 429
57.3685 483
57.38861 441
57.40873 470
57.42884 407
57.44896 428
57.46907 472
57.48918 440
57.5093 442
57.52941 448
57.54952 421
57.56964 393
57.58975 398
57.60987 400
57.62998 420
57.65009 407
57.67021 411
57.69032 397
57.71043 419
57.73055 401
57.75066 417
57.77078 425
57.79089 414
57.811 430
57.83112 408
57.85123 402
57.87134 401
57.89146 400
57.91157 396
57.93168 382
57.9518 412
57.97191 395
57.99203 394
58.01214 437
58.03225 394
58.05237 411
58.07248 417
58.09259 401
58.11271 399
58.13282 389
58.15294 375
58.17305 403
58.19316 375
58.21328 377
58.23339 380
58.2535 372
58.27362 406
58.29373 390
58.31385 391
58.33396 371
58.35407 372
58.37419 383
58.3943 408
58.41441 362
58.43453 382
58.45464 408
58.47475 385
58.49487 429
58.51498 419
58.5351 387
58.55521 404
58.57532 456
58.59544 398
58.61555 396
58.63566 401
58.65578 386
58.67589 399
58.69601 395
58.71612 393
58.73623 416
58.75635 403
58.77646 397
58.79657 413
58.81669 385
58.8368 437
58.85691 392
58.87703 394
58.89714 380
58.91726 351
58.93737 407
58.95748 401
58.9776 414
58.99771 416
59.01782 403
59.03794 354
59.05805 378
59.07817 368
59.09828 388
59.11839 432
59.13851 372
59.15862 416
59.17873 399
59.19885 401
59.21896 428
59.23908 393
59.25919 433
59.2793 408
59.29942 385
59.31953 383
59.33964 386
59.35976 384
59.37987 378
59.39998 363
59.4201 389
59.44021 396
59.46033 376
59.48044 379
59.50055 383
59.52067 426
59.54078 403
59.56089 393
59.58101 362
59.60112 407
59.62124 400
59.64135 432
59.66146 388
59.68158 438
59.70169 431
59.7218 427
59.74192 461
59.76203 502
59.78215 532
59.80226 536
59.82237 533
59.84249 667
59.8626 625
59.88271 651
59.90283 660
59.92294 627
59.94305 559
59.96317 517
59.98328 526
60.0034 525
60.02351 552
60.04362 494
60.06374 516
60.08385 530
60.10396 482
60.12408 482
60.14419 414
60.16431 422
60.18442 396
60.20453 440
60.22465 446
60.24476 391
60.26487 395
60.28499 413
60.3051 433
60.32522 419
60.34533 370
60.36544 402
60.38556 382
60.40567 396
60.42578 363
60.4459 408
60.46601 393
60.48612 419
60.50624 406
60.52635 415
60.54647 411
60.56658 424
60.58669 435
60.60681 441
60.62692 400
60.64703 375
60.66715 407
60.68726 409
60.70738 412
60.72749 431
60.7476 430
60.76772 469
60.78783 434
60.80794 428
60.82806 441
60.84817 457
60.86828 413
60.8884 431
60.90851 392
60.92863 434
60.94874 412
60.96885 457
60.98897 420
61.00908 446
61.02919 433
61.04931 424
61.06942 446
61.08954 424
61.10965 420
61.12976 450
61.14988 430
61.16999 503
61.1901 507
61.21022 473
61.23033 491
61.25045 492
61.27056 495
61.29067 497
61.31079 497
61.3309 468
61.35101 558
61.37113 476
61.39124 524
61.41135 533
61.43147 483
61.45158 511
61.4717 509
61.49181 527
61.51192 512
61.53204 568
61.55215 524
61.57226 512
61.59238 535
61.61249 513
61.63261 561
61.65272 515
61.67283 533
61.69295 481
61.71306 541
61.73317 538
61.75329 499
61.7734 548
61.79352 497
61.81363 514
61.83374 511
61.85386 501
61.87397 524
61.89408 485
61.9142 524
61.93431 529
61.95442 490
61.97454 499
61.99465 436
62.01477 494
62.03488 484
62.05499 475
62.07511 492
62.09522 477
62.11533 470
62.13545 494
62.15556 468
62.17568 450
62.19579 519
62.2159 469
62.23602 452
62.25613 510
62.27624 482
62.29636 485
62.31647 480
62.33659 524
62.3567 445
62.37681 493
62.39693 428
62.41704 492
62.43715 475
62.45727 458
62.47738 463
62.49749 475
62.51761 458
62.53772 487
62.55784 499
62.57795 439
62.59806 489
62.61818 442
62.63829 472
62.6584 462
62.67852 441
62.69863 433
62.71875 455
62.73886 452
62.75897 468
62.77909 424
62.7992 422
62.81931 418
62.83943 454
62.85954 432
62.87965 416
62.89977 428
62.91988 416
62.94 420
62.96011 413
62.98022 435
63.00034 403
63.02045 424
63.04056 408
63.06068 392
63.08079 425
63.10091 428
63.12102 417
63.14113 403
63.16125 411
63.18136 405
63.20147 383
63.22159 398
63.2417 406
63.26182 407
63.28193 424
63.30204 404
63.32216 385
63.34227 395
63.36238 378
63.3825 387
63.40261 379
63.42272 438
63.44284 419
63.46295 423
63.48307 360
63.50318 392
63.52329 426
63.54341 402
63.56352 426
63.58363 427
63.60375 383
63.62386 401
63.64398 410
63.66409 392
63.6842 393
63.70432 435
63.72443 433
63.74454 399
63.76466 444
63.78477 429
63.80489 429
63.825 477
63.84511 434
63.86523 459
63.88534 454
63.90545 467
63.92557 465
63.94568 439
63.96579 455
63.98591 465
64.00602 410
64.02614 434
64.04625 438
64.06636 422
64.08648 415
64.10659 423
64.1267 437
64.14682 400
64.16693 431
64.18705 418
64.20716 423
64.22727 365
64.24739 379
64.2675 397
64.28761 406
64.30773 384
64.32784 396
64.34796 386
64.36807 399
64.38818 359
64.4083 368
64.42841 387
64.44852 370
64.46864 387
64.48875 356
64.50886 414
64.52898 391
64.54909 392
64.56921 373
64.58932 379
64.60943 356
64.62955 415
64.64966 378
64.66977 353
64.68989 400
64.71 399
64.73012 388
64.75023 381
64.77034 391
64.79046 379
64.81057 384
64.83068 404
64.8508 372
64.87091 365
64.89102 394
64.91114 417
64.93125 383
64.95137 379
64.97148 387
64.99159 383
65.01171 352
65.03182 367
65.05193 380
65.07205 419
65.09216 385
65.11228 346
65.13239 366
65.1525 370
65.17262 380
65.19273 397
65.21284 398
65.23296 374
65.25307 381
65.27319 361
65.2933 393
65.31341 366
65.33353 365
65.35364 376
65.37375 365
65.39387 366
65.41398 396
65.43409 369
65.45421 346
65.47432 387
65.49444 381
65.51455 373
65.53466 409
65.55478 372
65.57489 346
65.595 403
65.61512 398
65.63523 386
65.65535 389
65.67546 365
65.69557 403
65.71569 389
65.7358 352
65.75591 357
65.77603 365
65.79614 357
65.81626 368
65.83637 379
65.85648 374
65.8766 380
65.89671 358
65.91682 371
65.93694 426
65.95705 368
65.97716 360
65.99728 395
66.01739 338
66.03751 358
66.05762 382
66.07773 356
66.09785 362
66.11796 334
66.13807 388
66.15819 349
66.1783 395
66.19842 359
66.21853 347
66.23864 366
66.25876 347
66.27887 375
66.29898 397
66.3191 360
66.33921 393
66.35933 362
66.37944 369
66.39955 382
66.41967 337
66.43978 353
66.45989 369
66.48001 380
66.50012 363
66.52023 365
66.54035 382
66.56046 345
66.58058 360
66.60069 364
66.6208 365
66.64092 377
66.66103 355
66.68114 355
66.70126 384
66.72137 320
66.74149 361
66.7616 336
66.78171 385
66.80183 386
66.82194 404
66.84205 382
66.86217 348
66.88228 354
66.90239 383
66.92251 386
66.94262 353
66.96274 326
66.98285 366
67.00296 351
67.02308 351
67.04319 362
67.0633 358
67.08342 392
67.10353 392
67.12365 383
67.14376 366
67.16387 353
67.18399 380
67.2041 401
67.22421 366
67.24433 335
67.26444 354
67.28456 374
67.30467 365
67.32478 343
67.3449 405
67.36501 393
67.38512 408
67.40524 414
67.42535 380
67.44546 410
67.46558 384
67.48569 400
67.50581 397
67.52592 395
67.54603 406
67.56615 449
67.58626 438
67.60637 516
67.62649 523
67.6466 529
67.66672 517
67.68683 569
67.70694 514
67.72706 470
67.74717 449
67.76728 462
67.7874 440
67.80751 453
67.82763 449
67.84774 466
67.86785 461
67.88797 474
67.90808 490
67.92819 436
67.94831 444
67.96842 517
67.98853 484
68.00865 533
68.02876 537
68.04888 594
68.06899 563
68.0891 587
68.10922 540
68.12933 548
68.14944 525
68.16956 554
68.18967 565
68.20979 592
68.2299 568
68.25001 581
68.27013 599
68.29024 543
68.31035 474
68.33047 516
68.35058 423
68.3707 453
68.39081 426
68.41092 450
68.43104 486
68.45115 434
68.47126 417
68.49138 384
68.51149 424
68.5316 391
68.55172 364
68.57183 389
68.59195 371
68.61206 403
68.63217 371
68.65229 347
68.6724 360
68.69251 350
68.71263 339
68.73274 359
68.75286 350
68.77297 367
68.79308 340
68.8132 397
68.83331 373
68.85342 350
68.87354 345
68.89365 378
68.91376 353
68.93388 347
68.95399 383
68.97411 345
68.99422 386
69.01433 364
69.03445 374
69.05456 373
69.07467 411
69.09479 347
69.1149 354
69.13502 377
69.15513 368
69.17524 378
69.19536 381
69.21547 361
69.23558 353
69.2557 375
69.27581 390
69.29593 356
69.31604 392
69.33615 349
69.35627 372
69.37638 387
69.39649 356
69.41661 368
69.43672 372
69.45683 383
69.47695 340
69.49706 364
69.51718 377
69.53729 384
69.5574 400
69.57752 348
69.59763 378
69.61774 380
69.63786 353
69.65797 359
69.67809 370
69.6982 349
69.71831 368
69.73843 371
69.75854 380
69.77865 386
69.79877 389
69.81888 358
69.839 370
69.85911 378
69.87922 368
69.89934 379
69.91945 330
69.93956 371
69.95968 365
69.97979 403
69.9999 358
70.02002 356
70.04013 337
70.06025 372
70.08036 377
70.10047 362
70.12059 376
70.1407 341
70.16081 356
70.18093 347
70.20104 385
70.22116 378
70.24127 363
70.26138 360
70.2815 357
70.30161 369
70.32172 372
70.34184 373
70.36195 348
70.38207 354
70.40218 363
70.42229 368
70.44241 341
70.46252 402
70.48263 370
70.50275 347
70.52286 386
70.54297 381
70.56309 390
70.5832 369
70.60332 355
70.62343 343
70.64354 349
70.66366 355
70.68377 336
70.70388 367
70.724 397
70.74411 400
70.76423 362
70.78434 338
70.80445 359
70.82457 347
70.84468 379
70.86479 334
70.88491 334
70.90502 371
70.92513 349
70.94525 368
70.96536 369
70.98548 344
71.00559 385
71.0257 376
71.04582 333
71.06593 349
71.08604 355
71.10616 382
71.12627 346
71.14639 373
71.1665 410
71.18661 369
71.20673 375
71.22684 369
71.24695 392
71.26707 373
71.28718 360
71.3073 394
71.32741 367
71.34752 353
71.36764 353
71.38775 338
71.40786 384
71.42798 376
71.44809 366
71.4682 331
71.48832 340
71.50843 348
71.52855 369
71.54866 361
71.56877 374
71.58889 348
71.609 387
71.62911 371
71.64923 366
71.66934 383
71.68946 365
71.70957 376
71.72968 389
71.7498 339
71.76991 366
71.79002 356
71.81014 384
71.83025 368
71.85037 386
71.87048 408
71.89059 377
71.91071 391
71.93082 369
71.95093 370
71.97105 404
71.99116 394
72.01127 387
72.03139 383
72.0515 402
72.07162 358
72.09173 360
72.11184 361
72.13196 376
72.15207 389
72.17218 362
72.1923 374
72.21241 388
72.23253 385
72.25264 393
72.27275 358
72.29287 368
72.31298 385
72.33309 397
72.35321 385
72.37332 374
72.39344 390
72.41355 411
72.43366 388
72.45378 378
72.47389 390
72.494 362
72.51412 364
72.53423 404
72.55434 352
72.57446 416
72.59457 366
72.61469 397
72.6348 407
72.65491 359
72.67503 370
72.69514 395
72.71525 381
72.73537 414
72.75548 396
72.7756 378
72.79571 389
72.81582 405
72.83594 373
72.85605 415
72.87616 387
72.89628 445
72.91639 397
72.9365 414
72.95662 404
72.97673 388
72.99685 390
73.01696 373
73.03707 404
73.05719 393
73.0773 421
73.09741 398
73.11753 380
73.13764 372
73.15776 362
73.17787 420
73.19798 414
73.2181 383
73.23821 422
73.25832 420
73.27844 377
73.29855 381
73.31867 406
73.33878 416
73.35889 395
73.37901 427
73.39912 417
73.41923 479
73.43935 425
73.45946 437
73.47957 425
73.49969 385
73.5198 393
73.53992 420
73.56003 408
73.58014 390
73.60026 403
73.62037 402
73.64048 413
73.6606 386
73.68071 371
73.70083 418
73.72094 406
73.74105 385
73.76117 380
73.78128 363
73.80139 358
73.82151 382
73.84162 366
73.86174 373
73.88185 359
73.90196 350
73.92208 394
73.94219 356
73.9623 358
73.98242 385
74.00253 352
74.02264 348
74.04276 338
74.06287 370
74.08299 403
74.1031 387
74.12321 365
74.14333 394
74.16344 375
74.18355 382
74.20367 380
74.22378 335
74.2439 395
74.26401 383
74.28412 354
74.30424 381
74.32435 379
74.34446 346
74.36458 353
74.38469 395
74.40481 368
74.42492 349
74.44503 378
74.46515 356
74.48526 343
74.50537 349
74.52549 379
74.5456 367
74.56571 364
74.58583 369
74.60594 399
74.62606 392
74.64617 328
74.66628 385
74.6864 352
74.70651 380
74.72662 337
74.74674 333
74.76685 370
74.78697 333
74.80708 363
74.82719 379
74.84731 382
74.86742 351
74.88753 364
74.90765 383
74.92776 369
74.94787 363
74.96799 355
74.9881 334
75.00822 351
