3.00117 21250
3.02128 20696
3.0414 19952
3.06151 20063
3.08162 18994
3.10174 18823
3.12185 18074
3.14197 17333
3.16208 17289
3.18219 16795
3.20231 16356
3.22242 15859
3.24253 15397
3.26265 15004
3.28276 14214
3.30288 13854
3.32299 13623
3.3431 12549
3.36322 12731
3.38333 12208
3.40344 11828
3.42356 11628
3.44367 11010
3.46379 10774
3.4839 10430
3.50401 9906
3.52413 9888
3.54424 9266
3.56435 9114
3.58447 8660
3.60458 8327
3.62469 8263
3.64481 7734
3.66492 7517
3.68504 7137
3.70515 6903
3.72526 6884
3.74538 6259
3.76549 6234
3.7856 5921
3.80572 5673
3.82583 5533
3.84595 5057
3.86606 5074
3.88617 4804
3.90629 4636
3.9264 4548
3.94651 4062
3.96663 4147
3.98674 3862
4.00686 3797
4.02697 3755
4.04708 3302
4.0672 3233
4.08731 3087
4.10742 2981
4.12754 3028
4.14765 2633
4.16776 2657
4.18788 2456
4.20799 2496
4.22811 2439
4.24822 2210
4.26833 2206
4.28845 2132
4.30856 2015
4.32867 2038
4.34879 1871
4.3689 1873
4.38902 1781
4.40913 1737
4.42924 1762
4.44936 1559
4.46947 1654
4.48958 1636
4.5097 1557
4.52981 1577
4.54992 1512
4.57004 1431
4.59015 1444
4.61027 1322
4.63038 1332
4.65049 1263
4.67061 1313
4.69072 1292
4.71083 1153
4.73095 1200
4.75106 1165
4.77118 1187
4.79129 1147
4.8114 1076
4.83152 1104
4.85163 1015
4.87174 971
4.89186 977
4.91197 1057
4.93209 970
4.9522 972
4.97231 948
4.99243 973
5.01254 902
5.03265 851
5.05277 836
5.07288 840
5.09299 852
5.11311 825
5.13322 799
5.15334 766
5.17345 775
5.19356 754
5.21368 768
5.23379 752
5.2539 745
5.27402 723
5.29413 700
5.31425 689
5.33436 651
5.35447 673
5.37459 677
5.3947 646
5.41481 608
5.43493 603
5.45504 646
5.47516 551
5.49527 633
5.51538 620
5.5355 525
5.55561 565
5.57572 581
5.59584 602
5.61595 510
5.63606 553
5.65618 497
5.67629 483
5.69641 522
5.71652 502
5.73663 502
5.75675 491
5.77686 484
5.79697 501
5.81709 503
5.8372 437
5.85732 441
5.87743 464
5.89754 449
5.91766 474
5.93777 434
5.95788 472
5.978 442
5.99811 492
6.01823 481
6.03834 459
6.05845 436
6.07857 462
6.09868 454
6.11879 440
6.13891 444
6.15902 443
6.17913 463
6.19925 465
6.21936 462
6.23948 453
6.25959 406
6.2797 468
6.29982 426
6.31993 468
6.34004 385
6.36016 446
6.38027 440
6.40039 424
6.4205 420
6.44061 411
6.46073 420
6.48084 411
6.50095 380
6.52107 442
6.54118 436
6.56129 380
6.58141 379
6.60152 394
6.62164 357
6.64175 431
6.66186 402
6.68198 382
6.70209 373
6.7222 421
6.74232 358
6.76243 430
6.78255 354
6.80266 390
6.82277 361
6.84289 388
6.863 402
6.88311 431
6.90323 377
6.92334 378
6.94346 394
6.96357 392
6.98368 357
7.0038 379
7.02391 379
7.04402 353
7.06414 382
7.08425 414
7.10436 378
7.12448 380
7.14459 391
7.16471 375
7.18482 367
7.20493 406
7.22505 342
7.24516 369
7.26527 346
7.28539 370
7.3055 376
7.32562 385
7.34573 344
7.36584 372
7.38596 383
7.40607 386
7.42618 402
7.4463 350
7.46641 394
7.48653 344
7.50664 373
7.52675 358
7.54687 384
7.56698 369
7.58709 335
7.60721 352
7.62732 327
7.64743 363
7.66755 341
7.68766 360
7.70778 397
7.72789 370
7.748 383
7.76812 367
7.78823 342
7.80834 387
7.82846 385
7.84857 344
7.86869 350
7.8888 335
7.90891 347
7.92903 400
7.94914 339
7.96925 378
7.98937 409
8.00948 340
8.0296 381
8.04971 366
8.06982 378
8.08994 378
8.11005 379
8.13016 370
8.15028 361
8.17039 349
8.1905 363
8.21062 333
8.23073 340
8.25085 385
8.27096 388
8.29107 342
8.31119 354
8.3313 373
8.35141 365
8.37153 415
8.39164 389
8.41176 354
8.43187 373
8.45198 358
8.4721 359
8.49221 364
8.51232 371
8.53244 370
8.55255 374
8.57266 351
8.59278 377
8.61289 345
8.63301 378
8.65312 356
8.67323 345
8.69335 381
8.71346 346
8.73357 374
8.75369 408
8.7738 339
8.79392 371
8.81403 342
8.83414 383
8.85426 376
8.87437 348
8.89448 381
8.9146 374
8.93471 354
8.95483 360
8.97494 372
8.99505 362
9.01517 375
9.03528 339
9.05539 363
9.07551 360
9.09562 381
9.11573 329
9.13585 361
9.15596 381
9.17608 356
9.19619 347
9.2163 368
9.23642 370
9.25653 344
9.27664 349
9.29676 342
9.31687 357
9.33699 334
9.3571 362
9.37721 332
9.39733 344
9.41744 333
9.43755 342
9.45767 373
9.47778 314
9.4979 340
9.51801 346
9.53812 349
9.55824 355
9.57835 406
9.59846 330
9.61858 361
9.63869 332
9.6588 368
9.67892 370
9.69903 359
9.71915 352
9.73926 369
9.75937 335
9.77949 381
9.7996 392
9.81971 363
9.83983 382
9.85994 361
9.88006 339
9.90017 345
9.92028 336
9.9404 345
9.96051 312
9.98062 375
10.00074 358
10.02085 360
10.04097 342
10.06108 357
10.08119 328
10.10131 366
10.12142 364
10.14153 351
10.16165 357
10.18176 325
10.20187 356
10.22199 349
10.2421 374
10.26222 381
10.28233 330
10.30244 372
10.32256 356
10.34267 337
10.36278 368
10.3829 309
10.40301 334
10.42313 338
10.44324 382
10.46335 332
10.48347 372
10.50358 334
10.52369 341
10.54381 336
10.56392 358
10.58403 363
10.60415 364
10.62426 341
10.64438 367
10.66449 339
10.6846 344
10.70472 349
10.72483 342
10.74494 322
10.76506 313
10.78517 331
10.80529 364
10.8254 340
10.84551 339
10.86563 387
10.88574 330
10.90585 361
10.92597 328
10.94608 363
10.9662 339
10.98631 387
11.00642 380
11.02654 384
11.04665 336
11.06676 364
11.08688 398
11.10699 372
11.1271 374
11.14722 362
11.16733 405
11.18745 312
11.20756 356
11.22767 395
11.24779 389
11.2679 381
11.28801 373
11.30813 358
11.32824 422
11.34836 379
11.36847 359
11.38858 360
11.4087 322
11.42881 352
11.44892 395
11.46904 372
11.48915 341
11.50927 423
11.52938 385
11.54949 417
11.56961 413
11.58972 365
11.60983 373
11.62995 358
11.65006 398
11.67017 397
11.69029 402
11.7104 390
11.73052 414
11.75063 402
11.77074 411
11.79086 393
11.81097 398
11.83108 414
11.8512 386
11.87131 362
11.89143 433
11.91154 420
11.93165 485
11.95177 419
11.97188 443
11.99199 425
12.01211 445
12.03222 442
12.05234 493
12.07245 432
12.09256 481
12.11268 434
12.13279 484
12.1529 516
12.17302 529
12.19313 568
12.21324 574
12.23336 597
12.25347 596
12.27359 628
12.2937 626
12.31381 706
12.33393 723
12.35404 662
12.37415 730
12.39427 724
12.41438 692
12.4345 631
12.45461 610
12.47472 568
12.49484 521
12.51495 507
12.53506 450
12.55518 426
12.57529 439
12.5954 447
12.61552 400
12.63563 401
12.65575 384
12.67586 420
12.69597 422
12.71609 364
12.7362 378
12.75631 378
12.77643 369
12.79654 367
12.81666 346
12.83677 355
12.85688 383
12.877 340
12.89711 354
12.91722 349
12.93734 382
12.95745 356
12.97757 358
12.99768 345
13.01779 358
13.03791 321
13.05802 310
13.07813 333
13.09825 357
13.11836 332
13.13847 347
13.15859 344
13.1787 298
13.19882 346
13.21893 316
13.23904 346
13.25916 345
13.27927 319
13.29938 357
13.3195 290
13.33961 307
13.35973 360
13.37984 324
13.39995 319
13.42007 337
13.44018 334
13.46029 311
13.48041 342
13.50052 331
13.52064 319
13.54075 327
13.56086 326
13.58098 315
13.60109 323
13.6212 328
13.64132 327
13.66143 322
13.68154 328
13.70166 349
13.72177 333
13.74189 298
13.762 298
13.78211 332
13.80223 336
13.82234 296
13.84245 308
13.86257 331
13.88268 325
13.9028 291
13.92291 317
13.94302 339
13.96314 340
13.98325 332
14.00336 336
14.02348 341
14.04359 300
14.06371 309
14.08382 306
14.10393 316
14.12405 334
14.14416 296
14.16427 343
14.18439 357
14.2045 319
14.22461 332
14.24473 345
14.26484 316
14.28496 340
14.30507 337
14.32518 332
14.3453 340
14.36541 288
14.38552 372
14.40564 312
14.42575 320
14.44587 353
14.46598 311
14.48609 319
14.50621 373
14.52632 315
14.54643 365
14.56655 302
14.58666 351
14.60677 312
14.62689 331
14.647 309
14.66712 324
14.68723 324
14.70734 299
14.72746 309
14.74757 343
14.76768 332
14.7878 314
14.80791 299
14.82803 302
14.84814 339
14.86825 331
14.88837 322
14.90848 317
14.92859 336
14.94871 310
14.96882 281
14.98894 305
15.00905 314
15.02916 335
15.04928 315
15.06939 303
15.0895 292
15.10962 276
15.12973 300
15.14984 307
15.16996 340
15.19007 343
15.21019 357
15.2303 347
15.25041 283
15.27053 309
15.29064 321
15.31075 295
15.33087 328
15.35098 306
15.3711 320
15.39121 323
15.41132 314
15.43144 325
15.45155 318
15.47166 304
15.49178 300
15.51189 321
15.53201 291
15.55212 320
15.57223 244
15.59235 327
15.61246 302
15.63257 302
15.65269 308
15.6728 285
15.69291 307
15.71303 342
15.73314 273
15.75326 316
15.77337 277
15.79348 311
15.8136 283
15.83371 279
15.85382 300
15.87394 303
15.89405 326
15.91417 317
15.93428 327
15.95439 303
15.97451 323
15.99462 275
16.01473 305
16.03485 312
16.05496 319
16.07508 335
16.09519 315
16.1153 296
16.13542 302
16.15553 264
16.17564 258
16.19576 309
16.21587 290
16.23598 317
16.2561 299
16.27621 289
16.29633 323
16.31644 292
16.33655 289
16.35667 305
16.37678 332
16.39689 282
16.41701 302
16.43712 335
16.45724 279
16.47735 309
16.49746 312
16.51758 287
16.53769 331
16.5578 319
16.57792 323
16.59803 320
16.61814 298
16.63826 323
16.65837 308
16.67849 336
16.6986 304
16.71871 316
16.73883 288
16.75894 304
16.77905 324
16.79917 308
16.81928 328
16.8394 318
16.85951 292
16.87962 311
16.89974 274
16.91985 305
16.93996 319
16.96008 304
16.98019 318
17.00031 341
17.02042 328
17.04053 307
17.06065 294
17.08076 293
17.10087 293
17.12099 310
17.1411 295
17.16121 290
17.18133 306
17.20144 317
17.22156 292
17.24167 309
17.26178 298
17.2819 289
17.30201 332
17.32212 255
17.34224 319
17.36235 306
17.38247 321
17.40258 323
17.42269 298
17.44281 314
17.46292 314
17.48303 282
17.50315 297
17.52326 306
17.54338 314
17.56349 340
17.5836 324
17.60372 307
17.62383 306
17.64394 344
17.66406 325
17.68417 302
17.70428 312
17.7244 297
17.74451 307
17.76463 321
17.78474 300
17.80485 366
17.82497 330
17.84508 323
17.86519 285
17.88531 322
17.90542 334
17.92554 315
17.94565 338
17.96576 316
17.98588 319
18.00599 330
18.0261 307
18.04622 296
18.06633 336
18.08645 328
18.10656 384
18.12667 338
18.14679 315
18.1669 338
18.18701 327
18.20713 327
18.22724 338
18.24735 357
18.26747 303
18.28758 384
18.3077 350
18.32781 347
18.34792 353
18.36804 371
18.38815 327
18.40826 354
18.42838 300
18.44849 327
18.46861 314
18.48872 305
18.50883 332
18.52895 329
18.54906 332
18.56917 323
18.58929 323
18.6094 323
18.62951 310
18.64963 311
18.66974 301
18.68986 331
18.70997 281
18.73008 326
18.7502 309
18.77031 338
18.79042 330
18.81054 363
18.83065 334
18.85077 352
18.87088 340
18.89099 338
18.91111 342
18.93122 349
18.95133 345
18.97145 330
18.99156 300
19.01168 362
19.03179 286
19.0519 338
19.07202 333
19.09213 306
19.11224 327
19.13236 290
19.15247 333
19.17258 307
19.1927 333
19.21281 312
19.23293 342
19.25304 327
19.27315 337
19.29327 354
19.31338 333
19.33349 366
19.35361 349
19.37372 352
19.39384 365
19.41395 343
19.43406 369
19.45418 351
19.47429 364
19.4944 345
19.51452 401
19.53463 341
19.55475 402
19.57486 403
19.59497 402
19.61509 412
19.6352 426
19.65531 429
19.67543 433
19.69554 453
19.71565 523
19.73577 492
19.75588 526
19.776 553
19.79611 612
19.81622 602
19.83634 676
19.85645 663
19.87656 666
19.89668 708
19.91679 672
19.93691 710
19.95702 714
19.97713 707
19.99725 651
20.01736 667
20.03747 594
20.05759 625
20.0777 618
20.09782 599
20.11793 589
20.13804 573
20.15816 620
20.17827 626
20.19838 591
20.2185 600
20.23861 575
20.25872 604
20.27884 588
20.29895 617
20.31907 625
20.33918 616
20.35929 648
20.37941 615
20.39952 662
20.41963 594
20.43975 653
20.45986 640
20.47998 683
20.50009 668
20.5202 668
20.54032 672
20.56043 686
20.58054 698
20.60066 715
20.62077 744
20.64088 755
20.661 796
20.68111 875
20.70123 1066
20.72134 1252
20.74145 1544
20.76157 2063
20.78168 2823
20.80179 3633
20.82191 4663
20.84202 5392
20.86214 5479
20.88225 4984
20.90236 4112
20.92248 3086
20.94259 2188
20.9627 1396
20.98282 1080
21.00293 896
21.02305 826
21.04316 737
21.06327 685
21.08339 700
21.1035 687
21.12361 686
21.14373 671
21.16384 606
21.18395 649
21.20407 652
21.22418 590
21.2443 634
21.26441 659
21.28452 645
21.30464 595
21.32475 671
21.34486 634
21.36498 613
21.38509 648
21.40521 579
21.42532 617
21.44543 637
21.46555 642
21.48566 585
21.50577 606
21.52589 595
21.546 582
21.56612 567
21.58623 567
21.60634 655
21.62646 591
21.64657 590
21.66668 572
21.6868 582
21.70691 578
21.72702 576
21.74714 546
21.76725 465
21.78737 561
21.80748 479
21.82759 551
21.84771 515
21.86782 503
21.88793 494
21.90805 515
21.92816 520
21.94828 522
21.96839 485
21.9885 470
22.00862 510
22.02873 515
22.04884 440
22.06896 522
22.08907 511
22.10919 476
22.1293 439
22.14941 463
22.16953 439
22.18964 463
22.20975 465
22.22987 449
22.24998 450
22.27009 451
22.29021 429
22.31032 440
22.33044 436
22.35055 437
22.37066 448
22.39078 437
22.41089 418
22.431 471
22.45112 447
22.47123 473
22.49135 455
22.51146 379
22.53157 401
22.55169 443
22.5718 437
22.59191 433
22.61203 426
22.63214 441
22.65225 419
22.67237 403
22.69248 393
22.7126 402
22.73271 402
22.75282 386
22.77294 426
22.79305 442
22.81316 425
22.83328 399
22.85339 403
22.87351 398
22.89362 395
22.91373 409
22.93385 404
22.95396 412
22.97407 410
22.99419 400
23.0143 387
23.03442 393
23.05453 372
23.07464 421
23.09476 409
23.11487 393
23.13498 350
23.1551 416
23.17521 410
23.19532 410
23.21544 414
23.23555 428
23.25567 373
23.27578 411
23.29589 383
23.31601 404
23.33612 402
23.35623 433
23.37635 378
23.39646 390
23.41658 415
23.43669 402
23.4568 363
23.47692 386
23.49703 362
23.51714 366
23.53726 426
23.55737 416
23.57749 411
23.5976 392
23.61771 356
23.63783 399
23.65794 408
23.67805 400
23.69817 373
23.71828 433
23.73839 367
23.75851 412
23.77862 390
23.79874 403
23.81885 435
23.83896 402
23.85908 416
23.87919 411
23.8993 405
23.91942 412
23.93953 420
23.95965 424
23.97976 481
23.99987 460
24.01999 449
24.0401 430
24.06021 433
24.08033 394
24.10044 419
24.12056 444
24.14067 413
24.16078 415
24.1809 447
24.20101 407
24.22112 398
24.24124 387
24.26135 448
24.28146 465
24.30158 426
24.32169 431
24.34181 421
24.36192 414
24.38203 423
24.40215 429
24.42226 434
24.44237 404
24.46249 450
24.4826 454
24.50272 438
24.52283 453
24.54294 443
24.56306 471
24.58317 466
24.60328 504
24.6234 475
24.64351 461
24.66362 522
24.68374 507
24.70385 522
24.72397 531
24.74408 557
24.76419 585
24.78431 571
24.80442 662
24.82453 630
24.84465 704
24.86476 656
24.88488 651
24.90499 653
24.9251 635
24.94522 614
24.96533 600
24.98544 579
25.00556 561
25.02567 554
25.04579 525
25.0659 485
25.08601 489
25.10613 524
25.12624 479
25.14635 505
25.16647 495
25.18658 537
25.20669 571
25.22681 551
25.24692 547
25.26704 568
25.28715 611
25.30726 573
25.32738 539
25.34749 550
25.3676 480
25.38772 483
25.40783 447
25.42795 475
25.44806 445
25.46817 454
25.48829 425
25.5084 472
25.52851 436
25.54863 465
25.56874 498
25.58886 441
25.60897 458
25.62908 458
25.6492 462
25.66931 475
25.68942 470
25.70954 481
25.72965 520
25.74976 514
25.76988 553
25.78999 527
25.81011 519
25.83022 562
25.85033 572
25.87045 520
25.89056 545
25.91067 555
25.93079 539
25.9509 531
25.97102 593
25.99113 550
26.01124 559
26.03136 596
26.05147 617
26.07158 575
26.0917 593
26.11181 605
26.13193 692
26.15204 675
26.17215 720
26.19227 723
26.21238 795
26.23249 778
26.25261 826
26.27272 921
26.29283 929
26.31295 1033
26.33306 1117
26.35318 1119
26.37329 1239
26.3934 1469
26.41352 1635
26.43363 1915
26.45374 2574
26.47386 3331
26.49397 4295
26.51409 6246
26.5342 8282
26.55431 11143
26.57443 15099
26.59454 19308
26.61465 22080
26.63477 22912
26.65488 21382
26.67499 17492
26.69511 13762
26.71522 9972
26.73534 6933
26.75545 4249
26.77556 2584
26.79568 1785
26.81579 1519
26.8359 1309
26.85602 1273
26.87613 1080
26.89625 1024
26.91636 952
26.93647 928
26.95659 847
26.9767 815
26.99681 770
27.01693 703
27.03704 689
27.05716 635
27.07727 614
27.09738 577
27.1175 531
27.13761 517
27.15772 574
27.17784 529
27.19795 496
27.21806 494
27.23818 540
27.25829 513
27.27841 534
27.29852 446
27.31863 524
27.33875 519
27.35886 523
27.37897 533
27.39909 529
27.4192 539
27.43932 574
27.45943 575
27.47954 520
27.49966 529
27.51977 526
27.53988 466
27.56 450
27.58011 497
27.60023 456
27.62034 430
27.64045 433
27.66057 486
27.68068 427
27.70079 426
27.72091 430
27.74102 429
27.76113 449
27.78125 450
27.80136 424
27.82148 406
27.84159 424
27.8617 450
27.88182 464
27.90193 458
27.92204 404
27.94216 411
27.96227 464
27.98239 389
28.0025 400
28.02261 414
28.04273 402
28.06284 407
28.08295 410
28.10307 384
28.12318 378
28.1433 405
28.16341 432
28.18352 414
28.20364 392
28.22375 426
28.24386 404
28.26398 406
28.28409 408
28.3042 374
28.32432 414
28.34443 366
28.36455 364
28.38466 374
28.40477 347
28.42489 396
28.445 382
28.46511 377
28.48523 405
28.50534 367
28.52546 340
28.54557 370
28.56568 365
28.5858 359
28.60591 353
28.62602 418
28.64614 406
28.66625 356
28.68636 377
28.70648 383
28.72659 373
28.74671 371
28.76682 407
28.78693 344
28.80705 328
28.82716 335
28.84727 395
28.86739 369
28.8875 358
28.90762 361
28.92773 347
28.94784 377
28.96796 382
28.98807 334
29.00818 345
29.0283 371
29.04841 361
29.06853 343
29.08864 357
29.10875 371
29.12887 361
29.14898 365
29.16909 382
29.18921 373
29.20932 339
29.22943 335
29.24955 366
29.26966 360
29.28978 332
29.30989 342
29.33 345
29.35012 356
29.37023 362
29.39034 355
29.41046 354
29.43057 328
29.45069 355
29.4708 358
29.49091 343
29.51103 348
29.53114 331
29.55125 377
29.57137 356
29.59148 322
29.6116 342
29.63171 339
29.65182 340
29.67194 379
29.69205 333
29.71216 347
29.73228 349
29.75239 343
29.7725 362
29.79262 334
29.81273 364
29.83285 346
29.85296 359
29.87307 399
29.89319 362
29.9133 348
29.93341 322
29.95353 327
29.97364 338
29.99376 324
30.01387 338
30.03398 314
30.0541 343
30.07421 389
30.09432 323
30.11444 344
30.13455 349
30.15467 326
30.17478 347
30.19489 334
30.21501 333
30.23512 328
30.25523 353
30.27535 357
30.29546 318
30.31557 349
30.33569 334
30.3558 344
30.37592 349
30.39603 317
30.41614 311
30.43626 329
30.45637 314
30.47648 328
30.4966 313
30.51671 340
30.53683 329
30.55694 307
30.57705 352
30.59717 395
30.61728 325
30.63739 357
30.65751 335
30.67762 363
30.69773 319
30.71785 333
30.73796 352
30.75808 302
30.77819 316
30.7983 352
30.81842 317
30.83853 311
30.85864 365
30.87876 321
30.89887 338
30.91899 353
30.9391 384
30.95921 346
30.97933 306
30.99944 344
31.01955 304
31.03967 334
31.05978 327
31.0799 317
31.10001 358
31.12012 350
31.14024 306
31.16035 309
31.18046 324
31.20058 313
31.22069 319
31.2408 368
31.26092 307
31.28103 349
31.30115 327
31.32126 343
31.34137 327
31.36149 346
31.3816 306
31.40171 325
31.42183 333
31.44194 336
31.46206 356
31.48217 303
31.50228 311
31.5224 330
31.54251 362
31.56262 365
31.58274 333
31.60285 339
31.62297 317
31.64308 283
31.66319 352
31.68331 323
31.70342 313
31.72353 336
31.74365 323
31.76376 321
31.78387 339
31.80399 345
31.8241 293
31.84422 340
31.86433 326
31.88444 339
31.90456 306
31.92467 305
31.94478 339
31.9649 324
31.98501 309
32.00513 310
32.02524 321
32.04535 348
32.06547 302
32.08558 340
32.10569 295
32.12581 324
32.14592 317
32.16604 324
32.18615 312
32.20626 315
32.22638 320
32.24649 302
32.2666 328
32.28672 301
32.30683 314
32.32694 307
32.34706 330
32.36717 337
32.38729 369
32.4074 367
32.42751 357
32.44763 325
32.46774 332
32.48785 330
32.50797 377
32.52808 337
32.5482 357
32.56831 355
32.58842 346
32.60854 298
32.62865 340
32.64876 325
32.66888 343
32.68899 332
32.7091 337
32.72922 358
32.74933 350
32.76945 350
32.78956 346
32.80967 362
32.82979 342
32.8499 355
32.87001 334
32.89013 325
32.91024 353
32.93036 365
32.95047 366
32.97058 329
32.9907 357
33.01081 345
33.03092 372
33.05104 368
33.07115 352
33.09127 376
33.11138 374
33.13149 368
33.15161 362
33.17172 394
33.19183 377
33.21195 370
33.23206 368
33.25217 366
33.27229 357
33.2924 343
33.31252 357
33.33263 380
33.35274 377
33.37286 381
33.39297 323
33.41308 340
33.4332 347
33.45331 330
33.47343 346
33.49354 369
33.51365 356
33.53377 363
33.55388 389
33.57399 398
33.59411 373
33.61422 332
33.63434 380
33.65445 371
33.67456 312
33.69468 347
33.71479 356
33.7349 374
33.75502 316
33.77513 368
33.79524 352
33.81536 335
33.83547 369
33.85559 319
33.8757 313
33.89581 378
33.91593 362
33.93604 346
33.95615 335
33.97627 338
33.99638 334
34.0165 353
34.03661 356
34.05672 338
34.07684 361
34.09695 344
34.11706 368
34.13718 363
34.15729 337
34.17741 391
34.19752 326
34.21763 379
34.23775 339
34.25786 362
34.27797 339
34.29809 319
34.3182 329
34.33831 349
34.35843 362
34.37854 329
34.39866 347
34.41877 362
34.43888 369
34.459 357
34.47911 397
34.49922 379
34.51934 378
34.53945 364
34.55957 349
34.57968 339
34.59979 367
34.61991 383
34.64002 395
34.66013 426
34.68025 421
34.70036 420
34.72047 415
34.74059 424
34.7607 455
34.78082 452
34.80093 474
34.82104 469
34.84116 463
34.86127 465
34.88138 472
34.9015 477
34.92161 456
34.94173 519
34.96184 465
34.98195 478
35.00207 481
35.02218 467
35.04229 476
35.06241 471
35.08252 488
35.10264 484
35.12275 474
35.14286 476
35.16298 455
35.18309 470
35.2032 465
35.22332 441
35.24343 431
35.26354 466
35.28366 405
35.30377 480
35.32389 504
35.344 483
35.36411 453
35.38423 484
35.40434 433
35.42445 522
35.44457 452
35.46468 476
35.4848 491
35.50491 469
35.52502 496
35.54514 465
35.56525 474
35.58536 478
35.60548 494
35.62559 477
35.64571 466
35.66582 462
35.68593 464
35.70605 520
35.72616 493
35.74627 485
35.76639 477
35.7865 487
35.80661 459
35.82673 473
35.84684 512
35.86696 493
35.88707 503
35.90718 514
35.9273 516
35.94741 470
35.96752 513
35.98764 525
36.00775 527
36.02787 507
36.04798 501
36.06809 473
36.08821 502
36.10832 469
36.12843 544
36.14855 524
36.16866 489
36.18878 456
36.20889 460
36.229 465
36.24912 447
36.26923 493
36.28934 442
36.30946 507
36.32957 548
36.34968 603
36.3698 668
36.38991 795
36.41003 848
36.43014 934
36.45025 1145
36.47037 1448
36.49048 1666
36.51059 1865
36.53071 1803
36.55082 1767
36.57094 1591
36.59105 1226
36.61116 1195
36.63128 1078
36.65139 946
36.6715 729
36.69162 643
36.71173 498
36.73184 467
36.75196 469
36.77207 470
36.79219 461
36.8123 492
36.83241 467
36.85253 473
36.87264 475
36.89275 475
36.91287 485
36.93298 443
36.9531 490
36.97321 464
36.99332 441
37.01344 403
37.03355 446
37.05366 472
37.07378 404
37.09389 427
37.11401 461
37.13412 428
37.15423 425
37.17435 443
37.19446 428
37.21457 389
37.23469 423
37.2548 487
37.27491 450
37.29503 414
37.31514 471
37.33526 452
37.35537 458
37.37548 433
37.3956 443
37.41571 429
37.43582 459
37.45594 441
37.47605 421
37.49617 435
37.51628 442
37.53639 445
37.55651 447
37.57662 418
37.59673 428
37.61685 489
37.63696 420
37.65708 463
37.67719 463
37.6973 485
37.71742 435
37.73753 476
37.75764 451
37.77776 421
37.79787 458
37.81798 432
37.8381 439
37.85821 439
37.87833 450
37.89844 421
37.91855 468
37.93867 393
37.95878 429
37.97889 430
37.99901 442
38.01912 403
38.03924 413
38.05935 451
38.07946 487
38.09958 442
38.11969 439
38.1398 443
38.15992 418
38.18003 454
38.20015 455
38.22026 472
38.24037 434
38.26049 478
38.2806 472
38.30071 439
38.32083 476
38.34094 481
38.36105 509
38.38117 453
38.40128 529
38.4214 486
38.44151 515
38.46162 508
38.48174 491
38.50185 467
38.52196 476
38.54208 484
38.56219 446
38.58231 451
38.60242 490
38.62253 460
38.64265 456
38.66276 446
38.68287 407
38.70299 417
38.7231 430
38.74321 431
38.76333 393
38.78344 387
38.80356 430
38.82367 389
38.84378 393
38.8639 416
38.88401 383
38.90412 393
38.92424 412
38.94435 401
38.96447 355
38.98458 418
39.00469 380
39.02481 396
39.04492 420
39.06503 440
39.08515 420
39.10526 443
39.12538 442
39.14549 437
39.1656 431
39.18572 439
39.20583 464
39.22594 505
39.24606 523
39.26617 532
39.28628 676
39.3064 664
39.32651 801
39.34663 960
39.36674 1107
39.38685 1279
39.40697 1440
39.42708 1596
39.44719 1644
39.46731 1611
39.48742 1379
39.50754 1202
39.52765 1049
39.54776 1044
39.56788 949
39.58799 707
39.6081 648
39.62822 486
39.64833 424
39.66845 430
39.68856 378
39.70867 387
39.72879 385
39.7489 380
39.76901 371
39.78913 373
39.80924 368
39.82935 370
39.84947 357
39.86958 360
39.8897 353
39.90981 409
39.92992 381
39.95004 391
39.97015 386
39.99026 384
40.01038 434
40.03049 416
40.05061 418
40.07072 423
40.09083 433
40.11095 447
40.13106 481
40.15117 569
40.17129 645
40.1914 736
40.21152 742
40.23163 870
40.25174 979
40.27186 1014
40.29197 883
40.31208 861
40.3322 755
40.35231 693
40.37242 687
40.39254 649
40.41265 561
40.43277 451
40.45288 451
40.47299 436
40.49311 392
40.51322 386
40.53333 410
40.55345 361
40.57356 349
40.59368 353
40.61379 384
40.6339 401
40.65402 358
40.67413 385
40.69424 384
40.71436 373
40.73447 363
40.75458 357
40.7747 361
40.79481 401
40.81493 348
40.83504 369
40.85515 370
40.87527 373
40.89538 381
40.91549 354
40.93561 355
40.95572 386
40.97584 370
40.99595 370
41.01606 382
41.03618 353
41.05629 318
41.0764 380
41.09652 350
41.11663 372
41.13675 342
41.15686 415
41.17697 376
41.19709 340
41.2172 384
41.23731 345
41.25743 327
41.27754 352
41.29765 370
41.31777 368
41.33788 334
41.358 368
41.37811 319
41.39822 333
41.41834 357
41.43845 336
41.45856 338
41.47868 379
41.49879 336
41.51891 379
41.53902 342
41.55913 341
41.57925 365
41.59936 363
41.61947 350
41.63959 330
41.6597 374
41.67982 374
41.69993 393
41.72004 373
41.74016 355
41.76027 334
41.78038 317
41.8005 366
41.82061 367
41.84072 369
41.86084 348
41.88095 331
41.90107 334
41.92118 351
41.94129 360
41.96141 386
41.98152 338
42.00163 338
42.02175 315
42.04186 338
42.06198 380
42.08209 364
42.1022 364
42.12232 362
42.14243 363
42.16254 375
42.18266 387
42.20277 417
42.22289 439
42.243 457
42.26311 526
42.28323 557
42.30334 584
42.32345 682
42.34357 812
42.36368 925
42.38379 1061
42.40391 1193
42.42402 1196
42.44414 1230
42.46425 1117
42.48436 955
42.50448 878
42.52459 807
42.5447 741
42.56482 660
42.58493 560
42.60505 458
42.62516 413
42.64527 373
42.66539 372
42.6855 369
42.70561 364
42.72573 300
42.74584 321
42.76595 334
42.78607 318
42.80618 312
42.8263 308
42.84641 318
42.86652 333
42.88664 302
42.90675 320
42.92686 302
42.94698 323
42.96709 320
42.98721 301
43.00732 292
43.02743 273
43.04755 308
43.06766 318
43.08777 314
43.10789 296
43.128 273
43.14812 299
43.16823 286
43.18834 294
43.20846 310
43.22857 293
43.24868 292
43.2688 299
43.28891 308
43.30902 290
43.32914 307
43.34925 326
43.36937 320
43.38948 286
43.40959 305
43.42971 316
43.44982 290
43.46993 325
43.49005 308
43.51016 301
43.53028 317
43.55039 285
43.5705 276
43.59062 329
43.61073 287
43.63084 306
43.65096 290
43.67107 303
43.69119 305
43.7113 291
43.73141 301
43.75153 298
43.77164 317
43.79175 302
43.81187 319
43.83198 309
43.85209 292
43.87221 279
43.89232 303
43.91244 302
43.93255 289
43.95266 287
43.97278 280
43.99289 300
44.013 312
44.03312 281
44.05323 263
44.07335 337
44.09346 288
44.11357 280
44.13369 305
44.1538 302
44.17391 293
44.19403 328
44.21414 298
44.23426 286
44.25437 301
44.27448 309
44.2946 286
44.31471 309
44.33482 291
44.35494 264
44.37505 286
44.39516 305
44.41528 295
44.43539 317
44.45551 285
44.47562 301
44.49573 292
44.51585 319
44.53596 286
44.55607 285
44.57619 301
44.5963 281
44.61642 299
44.63653 330
44.65664 262
44.67676 310
44.69687 294
44.71698 317
44.7371 270
44.75721 315
44.77732 325
44.79744 305
44.81755 256
44.83767 296
44.85778 280
44.87789 306
44.89801 278
44.91812 343
44.93823 346
44.95835 348
44.97846 335
44.99858 295
45.01869 309
45.0388 331
45.05892 317
45.07903 318
45.09914 342
45.11926 304
45.13937 319
45.15949 330
45.1796 340
45.19971 329
45.21983 303
45.23994 310
45.26005 306
45.28017 314
45.30028 327
45.32039 345
45.34051 353
45.36062 355
45.38074 342
45.40085 355
45.42096 382
45.44108 335
45.46119 377
45.4813 360
45.50142 356
45.52153 385
45.54165 389
45.56176 408
45.58187 437
45.60199 450
45.6221 488
45.64221 579
45.66233 542
45.68244 653
45.70256 755
45.72267 830
45.74278 916
45.7629 941
45.78301 854
45.80312 818
45.82324 758
45.84335 713
45.86346 664
45.88358 633
45.90369 558
45.92381 535
45.94392 436
45.96403 399
45.98415 400
46.00426 364
46.02437 382
46.04449 323
46.0646 298
46.08472 319
46.10483 299
46.12494 316
46.14506 332
46.16517 335
46.18528 325
46.2054 311
46.22551 346
46.24563 342
46.26574 318
46.28585 331
46.30597 288
46.32608 317
46.34619 307
46.36631 321
46.38642 301
46.40653 319
46.42665 300
46.44676 292
46.46688 303
46.48699 267
46.5071 326
46.52722 332
46.54733 305
46.56744 310
46.58756 303
46.60767 314
46.62779 328
46.6479 288
46.66801 299
46.68813 327
46.70824 296
46.72835 279
46.74847 288
46.76858 325
46.78869 305
46.80881 303
46.82892 304
46.84904 291
46.86915 288
46.88926 317
46.90938 335
46.92949 299
46.9496 270
46.96972 274
46.98983 298
47.00995 349
47.03006 320
47.05017 289
47.07029 286
47.0904 271
47.11051 290
47.13063 292
47.15074 291
47.17086 303
47.19097 302
47.21108 306
47.2312 273
47.25131 264
47.27142 349
47.29154 324
47.31165 304
47.33176 328
47.35188 334
47.37199 277
47.39211 311
47.41222 323
47.43233 295
47.45245 300
47.47256 299
47.49267 306
47.51279 301
47.5329 300
47.55302 321
47.57313 326
47.59324 313
47.61336 316
47.63347 284
47.65358 331
47.6737 297
47.69381 285
47.71393 318
47.73404 279
47.75415 295
47.77427 292
47.79438 291
47.81449 307
47.83461 335
47.85472 298
47.87483 279
47.89495 312
47.91506 347
47.93518 307
47.95529 346
47.9754 281
47.99552 319
48.01563 299
48.03574 364
48.05586 319
48.07597 301
48.09609 306
48.1162 300
48.13631 333
48.15643 301
48.17654 312
48.19665 307
48.21677 301
48.23688 334
48.257 299
48.27711 287
48.29722 325
48.31734 338
48.33745 273
48.35756 309
48.37768 306
48.39779 311
48.4179 294
48.43802 266
48.45813 301
48.47825 323
48.49836 306
48.51847 322
48.53859 334
48.5587 308
48.57881 292
48.59893 335
48.61904 322
48.63916 329
48.65927 305
48.67938 335
48.6995 295
48.71961 337
48.73972 317
48.75984 331
48.77995 304
48.80006 298
48.82018 308
48.84029 330
48.86041 281
48.88052 307
48.90063 328
48.92075 310
48.94086 314
48.96097 308
48.98109 315
49.0012 328
49.02132 322
49.04143 314
49.06154 319
49.08166 294
49.10177 315
49.12188 301
49.142 341
49.16211 311
49.18223 301
49.20234 277
49.22245 327
49.24257 339
49.26268 325
49.28279 349
49.30291 330
49.32302 315
49.34313 333
49.36325 305
49.38336 308
49.40348 333
49.42359 307
49.4437 305
49.46382 348
49.48393 323
49.50404 319
49.52416 320
49.54427 319
49.56439 349
49.5845 347
49.60461 341
49.62473 365
49.64484 336
49.66495 377
49.68507 341
49.70518 354
49.7253 393
49.74541 351
49.76552 377
49.78564 389
49.80575 428
49.82586 432
49.84598 457
49.86609 486
49.8862 539
49.90632 581
49.92643 703
49.94655 772
49.96666 911
49.98677 1030
50.00689 1214
50.027 1526
50.04711 1891
50.06723 2089
50.08734 2447
50.10746 2573
50.12757 2476
50.14768 2240
50.1678 1938
50.18791 1533
50.20802 1471
50.22814 1382
50.24825 1355
50.26837 1278
50.28848 1013
50.30859 793
50.32871 559
50.34882 446
50.36893 427
50.38905 401
50.40916 392
50.42927 416
50.44939 388
50.4695 362
50.48962 365
50.50973 393
50.52984 371
50.54996 362
50.57007 387
50.59018 339
50.6103 351
50.63041 355
50.65053 372
50.67064 350
50.69075 346
50.71087 320
50.73098 338
50.75109 330
50.77121 299
50.79132 302
50.81143 300
50.83155 316
50.85166 315
50.87178 319
50.89189 306
50.912 298
50.93212 364
50.95223 289
50.97234 301
50.99246 339
51.01257 307
51.03269 310
51.0528 312
51.07291 359
51.09303 341
51.11314 317
51.13325 295
51.15337 309
51.17348 307
51.1936 330
51.21371 254
51.23382 285
51.25394 302
51.27405 284
51.29416 318
51.31428 301
51.33439 301
51.3545 320
51.37462 315
51.39473 287
51.41485 283
51.43496 310
51.45507 332
51.47519 322
51.4953 306
51.51541 309
51.53553 294
51.55564 316
51.57576 281
51.59587 288
51.61598 312
51.6361 287
51.65621 285
51.67632 317
51.69644 330
51.71655 293
51.73667 302
51.75678 289
51.77689 298
51.79701 298
51.81712 327
51.83723 273
51.85735 293
51.87746 289
51.89757 311
51.91769 293
51.9378 321
51.95792 304
51.97803 278
51.99814 281
52.01826 283
52.03837 288
52.05848 308
52.0786 300
52.09871 288
52.11883 287
52.13894 281
52.15905 286
52.17917 296
52.19928 288
52.21939 282
52.23951 290
52.25962 301
52.27974 292
52.29985 264
52.31996 262
52.34008 258
52.36019 282
52.3803 307
52.40042 299
52.42053 271
52.44064 266
52.46076 289
52.48087 306
52.50099 305
52.5211 284
52.54121 304
52.56133 277
52.58144 268
52.60155 287
52.62167 277
52.64178 283
52.6619 289
52.68201 288
52.70212 267
52.72224 300
52.74235 273
52.76246 297
52.78258 298
52.80269 309
52.8228 310
52.84292 266
52.86303 290
52.88315 284
52.90326 293
52.92337 237
52.94349 298
52.9636 299
52.98371 293
53.00383 284
53.02394 278
53.04406 307
53.06417 305
53.08428 264
53.1044 306
53.12451 307
53.14462 311
53.16474 305
53.18485 277
53.20497 322
53.22508 328
53.24519 306
53.26531 285
53.28542 324
53.30553 299
53.32565 317
53.34576 307
53.36587 333
53.38599 315
53.4061 340
53.42622 348
53.44633 347
53.46644 326
53.48656 337
53.50667 299
53.52678 313
53.5469 366
53.56701 296
53.58713 315
53.60724 361
53.62735 331
53.64747 353
53.66758 317
53.68769 363
53.70781 338
53.72792 343
53.74804 358
53.76815 366
53.78826 350
53.80838 377
53.82849 380
53.8486 367
53.86872 386
53.88883 337
53.90894 364
53.92906 352
53.94917 387
53.96929 354
53.9894 360
54.00951 371
54.02963 333
54.04974 406
54.06985 379
54.08997 404
54.11008 385
54.1302 392
54.15031 404
54.17042 394
54.19054 381
54.21065 390
54.23076 419
54.25088 439
54.27099 354
54.29111 414
54.31122 411
54.33133 371
54.35145 416
54.37156 423
54.39167 359
54.41179 403
54.4319 453
54.45201 401
54.47213 399
54.49224 391
54.51236 406
54.53247 400
54.55258 411
54.5727 450
54.59281 437
54.61292 429
54.63304 468
54.65315 501
54.67327 530
54.69338 498
54.71349 589
54.73361 654
54.75372 637
54.77383 738
54.79395 847
54.81406 897
54.83417 1033
54.85429 919
54.8744 861
54.89452 766
54.91463 744
54.93474 735
54.95486 665
54.97497 707
54.99508 676
55.0152 682
55.03531 628
55.05543 508
55.07554 514
55.09565 470
55.11577 495
55.13588 455
55.15599 475
55.17611 525
55.19622 441
55.21634 555
55.23645 584
55.25656 644
55.27668 661
55.29679 628
55.3169 623
55.33702 572
55.35713 494
55.37724 513
55.39736 488
55.41747 533
55.43759 487
55.4577 462
55.47781 420
55.49793 426
55.51804 389
55.53815 372
55.55827 375
55.57838 341
55.5985 338
55.61861 350
55.63872 336
55.65884 352
55.67895 331
55.69906 360
55.71918 341
55.73929 378
55.75941 360
55.77952 316
55.79963 304
55.81975 307
55.83986 348
55.85997 342
55.88009 305
55.9002 320
55.92031 342
55.94043 344
55.96054 329
55.98066 310
56.00077 350
56.02088 320
56.041 312
56.06111 299
56.08122 327
56.10134 309
56.12145 301
56.14157 314
56.16168 324
56.18179 300
56.20191 308
56.22202 334
56.24213 304
56.26225 310
56.28236 307
56.30248 288
56.32259 265
56.3427 290
56.36282 301
56.38293 306
56.40304 312
56.42316 347
56.44327 290
56.46338 325
56.4835 332
56.50361 328
56.52373 304
56.54384 315
56.56395 346
56.58407 283
56.60418 327
56.62429 321
56.64441 316
56.66452 327
56.68464 316
56.70475 302
56.72486 268
56.74498 316
56.76509 321
56.7852 324
56.80532 316
56.82543 287
56.84554 279
56.86566 274
56.88577 320
56.90589 330
56.926 346
56.94611 351
56.96623 299
56.98634 312
57.00645 302
57.02657 301
57.04668 280
57.0668 302
57.08691 321
57.10702 303
57.12714 328
57.14725 325
57.16736 335
57.18748 330
57.20759 307
57.22771 342
57.24782 319
57.26793 336
57.28805 331
57.30816 310
57.32827 320
57.34839 288
57.3685 343
57.38861 321
57.40873 293
57.42884 304
57.44896 295
57.46907 294
57.48918 258
57.5093 291
57.52941 268
57.54952 288
57.56964 277
57.58975 300
57.60987 310
57.62998 325
57.65009 293
57.67021 258
57.69032 283
57.71043 327
57.73055 303
57.75066 311
57.77078 306
57.79089 309
57.811 290
57.83112 280
57.85123 277
57.87134 327
57.89146 293
57.91157 320
57.93168 298
57.9518 303
57.97191 284
57.99203 363
58.01214 308
58.03225 294
58.05237 297
58.07248 306
58.09259 322
58.11271 276
58.13282 288
58.15294 292
58.17305 263
58.19316 324
58.21328 320
58.23339 298
58.2535 298
58.27362 309
58.29373 289
58.31385 297
58.33396 279
58.35407 286
58.37419 304
58.3943 293
58.41441 299
58.43453 297
58.45464 324
58.47475 282
58.49487 258
58.51498 280
58.5351 302
58.55521 314
58.57532 279
58.59544 308
58.61555 301
58.63566 313
58.65578 295
58.67589 313
58.69601 272
58.71612 276
58.73623 316
58.75635 313
58.77646 292
58.79657 305
58.81669 260
58.8368 255
58.85691 297
58.87703 279
58.89714 294
58.91726 305
58.93737 305
58.95748 307
58.9776 289
58.99771 288
59.01782 276
59.03794 257
59.05805 323
59.07817 312
59.09828 322
59.11839 298
59.13851 284
59.15862 303
59.17873 309
59.19885 277
59.21896 284
59.23908 348
59.25919 284
59.2793 303
59.29942 311
59.31953 330
59.33964 331
59.35976 291
59.37987 305
59.39998 354
59.4201 311
59.44021 314
59.46033 313
59.48044 350
59.50055 312
59.52067 333
59.54078 347
59.56089 373
59.58101 406
59.60112 390
59.62124 388
59.64135 410
59.66146 453
59.68158 468
59.70169 500
59.7218 542
59.74192 594
59.76203 651
59.78215 754
59.80226 885
59.82237 1007
59.84249 1105
59.8626 1364
59.88271 1430
59.90283 1650
59.92294 1651
59.94305 1572
59.96317 1477
59.98328 1209
60.0034 1044
60.02351 948
60.04362 981
60.06374 1009
60.08385 993
60.10396 935
60.12408 823
60.14419 685
60.16431 570
60.18442 452
60.20453 440
60.22465 424
60.24476 376
60.26487 360
60.28499 382
60.3051 351
60.32522 327
60.34533 338
60.36544 340
60.38556 337
60.40567 322
60.42578 319
60.4459 327
60.46601 310
60.48612 303
60.50624 318
60.52635 305
60.54647 296
60.56658 311
60.58669 336
60.60681 335
60.62692 301
60.64703 266
60.66715 276
60.68726 288
60.70738 338
60.72749 328
60.7476 307
60.76772 283
60.78783 304
60.80794 301
60.82806 321
60.84817 306
60.86828 310
60.8884 306
60.90851 297
60.92863 274
60.94874 335
60.96885 309
60.98897 328
61.00908 294
61.02919 304
61.04931 282
61.06942 302
61.08954 304
61.10965 301
61.12976 298
61.14988 288
61.16999 315
61.1901 302
61.21022 290
61.23033 304
61.25045 298
61.27056 293
61.29067 293
61.31079 293
61.3309 308
61.35101 313
61.37113 314
61.39124 325
61.41135 272
61.43147 340
61.45158 299
61.4717 318
61.49181 308
61.51192 323
61.53204 328
61.55215 319
61.57226 334
61.59238 326
61.61249 337
61.63261 331
61.65272 321
61.67283 318
61.69295 332
61.71306 341
61.73317 337
61.75329 354
61.7734 355
61.79352 366
61.81363 331
61.83374 336
61.85386 328
61.87397 352
61.89408 339
61.9142 357
61.93431 343
61.95442 403
61.97454 349
61.99465 345
62.01477 392
62.03488 377
62.05499 364
62.07511 401
62.09522 383
62.11533 362
62.13545 411
62.15556 403
62.17568 399
62.19579 431
62.2159 443
62.23602 399
62.25613 432
62.27624 384
62.29636 374
62.31647 390
62.33659 410
62.3567 388
62.37681 382
62.39693 411
62.41704 385
62.43715 377
62.45727 385
62.47738 362
62.49749 370
62.51761 360
62.53772 303
62.55784 352
62.57795 344
62.59806 338
62.61818 323
62.63829 355
62.6584 341
62.67852 316
62.69863 337
62.71875 335
62.73886 319
62.75897 301
62.77909 311
62.7992 332
62.81931 330
62.83943 312
62.85954 304
62.87965 292
62.89977 323
62.91988 302
62.94 277
62.96011 317
62.98022 314
63.00034 311
63.02045 303
63.04056 304
63.06068 305
63.08079 279
63.10091 292
63.12102 309
63.14113 312
63.16125 319
63.18136 301
63.20147 308
63.22159 328
63.2417 285
63.26182 302
63.28193 299
63.30204 302
63.32216 329
63.34227 321
63.36238 307
63.3825 276
63.40261 288
63.42272 308
63.44284 364
63.46295 311
63.48307 305
63.50318 341
63.52329 293
63.54341 303
63.56352 308
63.58363 278
63.60375 295
63.62386 287
63.64398 340
63.66409 331
63.6842 343
63.70432 310
63.72443 325
63.74454 351
63.76466 372
63.78477 312
63.80489 398
63.825 391
63.84511 393
63.86523 384
63.88534 416
63.90545 439
63.92557 447
63.94568 470
63.96579 512
63.98591 590
64.00602 570
64.02614 555
64.04625 529
64.06636 462
64.08648 421
64.10659 418
64.1267 416
64.14682 454
64.16693 399
64.18705 401
64.20716 397
64.22727 373
64.24739 388
64.2675 301
64.28761 320
64.30773 322
64.32784 334
64.34796 319
64.36807 319
64.38818 303
64.4083 301
64.42841 305
64.44852 311
64.46864 271
64.48875 325
64.50886 251
64.52898 282
64.54909 289
64.56921 260
64.58932 289
64.60943 314
64.62955 307
64.64966 311
64.66977 287
64.68989 303
64.71 290
64.73012 300
64.75023 287
64.77034 259
64.79046 279
64.81057 278
64.83068 255
64.8508 280
64.87091 279
64.89102 297
64.91114 259
64.93125 279
64.95137 283
64.97148 300
64.99159 293
65.01171 305
65.03182 311
65.05193 307
65.07205 274
65.09216 261
65.11228 299
65.13239 298
65.1525 279
65.17262 326
65.19273 282
65.21284 311
65.23296 298
65.25307 305
65.27319 311
65.2933 280
65.31341 316
65.33353 268
65.35364 295
65.37375 266
65.39387 269
65.41398 302
65.43409 273
65.45421 261
65.47432 306
65.49444 323
65.51455 290
65.53466 285
65.55478 300
65.57489 294
65.595 284
65.61512 299
65.63523 306
65.65535 351
65.67546 316
65.69557 339
65.71569 339
65.7358 347
65.75591 355
65.77603 350
65.79614 311
65.81626 319
65.83637 324
65.85648 271
65.8766 324
65.89671 310
65.91682 326
65.93694 326
65.95705 339
65.97716 328
65.99728 266
66.01739 265
66.03751 319
66.05762 285
66.07773 277
66.09785 235
66.11796 285
66.13807 300
66.15819 297
66.1783 291
66.19842 297
66.21853 291
66.23864 269
66.25876 262
66.27887 288
66.29898 307
66.3191 284
66.33921 277
66.35933 281
66.37944 284
66.39955 278
66.41967 270
66.43978 277
66.45989 316
66.48001 293
66.50012 326
66.52023 265
66.54035 296
66.56046 262
66.58058 289
66.60069 279
66.6208 272
66.64092 313
66.66103 285
66.68114 284
66.70126 276
66.72137 295
66.74149 262
66.7616 295
66.78171 301
66.80183 279
66.82194 296
66.84205 266
66.86217 279
66.88228 286
66.90239 306
66.92251 290
66.94262 302
66.96274 294
66.98285 290
67.00296 308
67.02308 280
67.04319 292
67.0633 292
67.08342 335
67.10353 313
67.12365 326
67.14376 288
67.16387 294
67.18399 312
67.2041 323
67.22421 292
67.24433 307
67.26444 314
67.28456 330
67.30467 301
67.32478 349
67.3449 315
67.36501 370
67.38512 339
67.40524 370
67.42535 372
67.44546 436
67.46558 410
67.48569 383
67.50581 447
67.52592 476
67.54603 546
67.56615 634
67.58626 707
67.60637 719
67.62649 851
67.6466 922
67.66672 998
67.68683 1097
67.70694 1132
67.72706 1021
67.74717 975
67.76728 845
67.7874 768
67.80751 670
67.82763 759
67.84774 719
67.86785 819
67.88797 843
67.90808 878
67.92819 855
67.94831 855
67.96842 870
67.98853 884
68.00865 878
68.02876 1043
68.04888 1118
68.06899 1278
68.0891 1369
68.10922 1405
68.12933 1372
68.14944 1270
68.16956 1186
68.18967 1085
68.20979 1135
68.2299 1238
68.25001 1261
68.27013 1323
68.29024 1326
68.31035 1251
68.33047 1005
68.35058 893
68.3707 755
68.39081 642
68.41092 640
68.43104 681
68.45115 623
68.47126 623
68.49138 620
68.51149 538
68.5316 488
68.55172 413
68.57183 363
68.59195 316
68.61206 341
68.63217 313
68.65229 358
68.6724 302
68.69251 317
68.71263 316
68.73274 309
68.75286 319
68.77297 312
68.79308 313
68.8132 317
68.83331 300
68.85342 304
68.87354 298
68.89365 292
68.91376 307
68.93388 304
68.95399 287
68.97411 290
68.99422 296
69.01433 284
69.03445 272
69.05456 285
69.07467 282
69.09479 312
69.1149 289
69.13502 311
69.15513 284
69.17524 298
69.19536 294
69.21547 302
69.23558 263
69.2557 273
69.27581 288
69.29593 296
69.31604 304
69.33615 281
69.35627 294
69.37638 283
69.39649 275
69.41661 293
69.43672 282
69.45683 288
69.47695 305
69.49706 304
69.51718 277
69.53729 276
69.5574 238
69.57752 288
69.59763 293
69.61774 288
69.63786 245
69.65797 290
69.67809 269
69.6982 309
69.71831 283
69.73843 281
69.75854 272
69.77865 226
69.79877 275
69.81888 278
69.839 294
69.85911 278
69.87922 283
69.89934 302
69.91945 253
69.93956 280
69.95968 272
69.97979 289
69.9999 289
70.02002 276
70.04013 275
70.06025 284
70.08036 289
70.10047 302
70.12059 257
70.1407 306
70.16081 259
70.18093 291
70.20104 270
70.22116 297
70.24127 265
70.26138 280
70.2815 271
70.30161 271
70.32172 284
70.34184 265
70.36195 271
70.38207 267
70.40218 250
70.42229 276
70.44241 281
70.46252 279
70.48263 277
70.50275 298
70.52286 285
70.54297 288
70.56309 287
70.5832 268
70.60332 233
70.62343 285
70.64354 258
70.66366 266
70.68377 290
70.70388 276
70.724 278
70.74411 236
70.76423 270
70.78434 255
70.80445 258
70.82457 269
70.84468 258
70.86479 254
70.88491 284
70.90502 270
70.92513 259
70.94525 246
70.96536 273
70.98548 285
71.00559 262
71.0257 261
71.04582 269
71.06593 250
71.08604 256
71.10616 272
71.12627 289
71.14639 276
71.1665 267
71.18661 250
71.20673 257
71.22684 261
71.24695 254
71.26707 262
71.28718 307
71.3073 275
71.32741 255
71.34752 271
71.36764 273
71.38775 256
71.40786 245
71.42798 276
71.44809 273
71.4682 275
71.48832 282
71.50843 275
71.52855 296
71.54866 269
71.56877 274
71.58889 286
71.609 256
71.62911 264
71.64923 270
71.66934 270
71.68946 265
71.70957 238
71.72968 250
71.7498 258
71.76991 282
71.79002 272
71.81014 255
71.83025 295
71.85037 259
71.87048 269
71.89059 263
71.91071 295
71.93082 273
71.95093 276
71.97105 293
71.99116 290
72.01127 296
72.03139 295
72.0515 265
72.07162 260
72.09173 270
72.11184 244
72.13196 261
72.15207 298
72.17218 274
72.1923 279
72.21241 277
72.23253 268
72.25264 295
72.27275 272
72.29287 284
72.31298 277
72.33309 278
72.35321 266
72.37332 280
72.39344 268
72.41355 278
72.43366 288
72.45378 262
72.47389 289
72.494 282
72.51412 284
72.53423 292
72.55434 262
72.57446 280
72.59457 283
72.61469 289
72.6348 284
72.65491 270
72.67503 272
72.69514 287
72.71525 262
72.73537 273
72.75548 267
72.7756 268
72.79571 281
72.81582 292
72.83594 283
72.85605 294
72.87616 268
72.89628 290
72.91639 293
72.9365 242
72.95662 284
72.97673 285
72.99685 275
73.01696 294
73.03707 277
73.05719 298
73.0773 300
73.09741 301
73.11753 324
73.13764 296
73.15776 316
73.17787 307
73.19798 338
73.2181 352
73.23821 322
73.25832 348
73.27844 387
73.29855 401
73.31867 373
73.33878 417
73.35889 475
73.37901 541
73.39912 577
73.41923 565
73.43935 569
73.45946 527
73.47957 505
73.49969 441
73.5198 442
73.53992 403
73.56003 375
73.58014 415
73.60026 421
73.62037 420
73.64048 415
73.6606 391
73.68071 431
73.70083 349
73.72094 349
73.74105 313
73.76117 300
73.78128 303
73.80139 302
73.82151 283
73.84162 286
73.86174 281
73.88185 263
73.90196 289
73.92208 253
73.94219 286
73.9623 282
73.98242 287
74.00253 272
74.02264 294
74.04276 303
74.06287 255
74.08299 274
74.1031 265
74.12321 294
74.14333 262
74.16344 284
74.18355 285
74.20367 251
74.22378 281
74.2439 292
74.26401 287
74.28412 257
74.30424 256
74.32435 303
74.34446 242
74.36458 262
74.38469 259
74.40481 249
74.42492 228
74.44503 308
74.46515 270
74.48526 279
74.50537 275
74.52549 281
74.5456 273
74.56571 275
74.58583 280
74.60594 246
74.62606 269
74.64617 269
74.66628 267
74.6864 283
74.70651 262
74.72662 267
74.74674 267
74.76685 273
74.78697 286
74.80708 245
74.82719 269
74.84731 256
74.86742 269
74.88753 299
74.90765 303
74.92776 232
74.94787 274
74.96799 268
74.9881 266
75.00822 292
