3.00117 20299
3.02128 20283
3.0414 19449
3.06151 19068
3.08162 18595
3.10174 17891
3.12185 17615
3.14197 16809
3.16208 16452
3.18219 16255
3.20231 15239
3.22242 15262
3.24253 14844
3.26265 14324
3.28276 13960
3.30288 13331
3.32299 13285
3.3431 12414
3.36322 12136
3.38333 11669
3.40344 11377
3.42356 11066
3.44367 10489
3.46379 10304
3.4839 9826
3.50401 9535
3.52413 9572
3.54424 8861
3.56435 8463
3.58447 8255
3.60458 8120
3.62469 7684
3.64481 7352
3.66492 7152
3.68504 6852
3.70515 6505
3.72526 6461
3.74538 6006
3.76549 5927
3.7856 5685
3.80572 5333
3.82583 5105
3.84595 4815
3.86606 4723
3.88617 4601
3.90629 4334
3.9264 4344
3.94651 3966
3.96663 3890
3.98674 3712
4.00686 3382
4.02697 3408
4.04708 3156
4.0672 2937
4.08731 2960
4.10742 2667
4.12754 2665
4.14765 2478
4.16776 2392
4.18788 2314
4.20799 2228
4.22811 2233
4.24822 2079
4.26833 1892
4.28845 1835
4.30856 1928
4.32867 1854
4.34879 1578
4.3689 1619
4.38902 1697
4.40913 1622
4.42924 1511
4.44936 1519
4.46947 1419
4.48958 1373
4.5097 1386
4.52981 1325
4.54992 1220
4.57004 1177
4.59015 1276
4.61027 1293
4.63038 1149
4.65049 1084
4.67061 1101
4.69072 1115
4.71083 1080
4.73095 1047
4.75106 968
4.77118 954
4.79129 982
4.8114 927
4.83152 920
4.85163 899
4.87174 858
4.89186 859
4.91197 821
4.93209 815
4.9522 856
4.97231 814
4.99243 730
5.01254 774
5.03265 734
5.05277 735
5.07288 668
5.09299 723
5.11311 676
5.13322 622
5.15334 629
5.17345 617
5.19356 599
5.21368 646
5.23379 595
5.2539 554
5.27402 576
5.29413 581
5.31425 586
5.33436 512
5.35447 490
5.37459 520
5.3947 511
5.41481 478
5.43493 465
5.45504 528
5.47516 479
5.49527 489
5.51538 424
5.5355 423
5.55561 429
5.57572 449
5.59584 411
5.61595 475
5.63606 437
5.65618 403
5.67629 401
5.69641 404
5.71652 420
5.73663 363
5.75675 340
5.77686 377
5.79697 377
5.81709 329
5.8372 344
5.85732 306
5.87743 338
5.89754 351
5.91766 319
5.93777 322
5.95788 356
5.978 319
5.99811 312
6.01823 340
6.03834 333
6.05845 324
6.07857 299
6.09868 337
6.11879 319
6.13891 324
6.15902 301
6.17913 306
6.19925 310
6.21936 287
6.23948 286
6.25959 321
6.2797 304
6.29982 294
6.31993 285
6.34004 332
6.36016 280
6.38027 274
6.40039 334
6.4205 299
6.44061 282
6.46073 271
6.48084 297
6.50095 277
6.52107 301
6.54118 287
6.56129 298
6.58141 291
6.60152 301
6.62164 286
6.64175 275
6.66186 291
6.68198 306
6.70209 269
6.7222 280
6.74232 282
6.76243 300
6.78255 273
6.80266 303
6.82277 291
6.84289 287
6.863 261
6.88311 277
6.90323 284
6.92334 292
6.94346 259
6.96357 279
6.98368 293
7.0038 263
7.02391 270
7.04402 303
7.06414 287
7.08425 270
7.10436 269
7.12448 259
7.14459 238
7.16471 269
7.18482 289
7.20493 252
7.22505 282
7.24516 290
7.26527 269
7.28539 266
7.3055 278
7.32562 300
7.34573 283
7.36584 297
7.38596 302
7.40607 262
7.42618 282
7.4463 264
7.46641 313
7.48653 283
7.50664 256
7.52675 293
7.54687 317
7.56698 306
7.58709 289
7.60721 265
7.62732 283
7.64743 268
7.66755 303
7.68766 271
7.70778 282
7.72789 313
7.748 301
7.76812 311
7.78823 258
7.80834 296
7.82846 288
7.84857 283
7.86869 286
7.8888 285
7.90891 268
7.92903 333
7.94914 304
7.96925 265
7.98937 295
8.00948 313
8.0296 313
8.04971 283
8.06982 334
8.08994 289
8.11005 320
8.13016 320
8.15028 300
8.17039 300
8.1905 313
8.21062 289
8.23073 290
8.25085 313
8.27096 321
8.29107 294
8.31119 290
8.3313 259
8.35141 292
8.37153 325
8.39164 286
8.41176 277
8.43187 309
8.45198 258
8.4721 293
8.49221 262
8.51232 302
8.53244 276
8.55255 297
8.57266 300
8.59278 304
8.61289 265
8.63301 303
8.65312 303
8.67323 294
8.69335 308
8.71346 287
8.73357 283
8.75369 316
8.7738 286
8.79392 254
8.81403 290
8.83414 285
8.85426 306
8.87437 259
8.89448 306
8.9146 278
8.93471 324
8.95483 301
8.97494 323
8.99505 309
9.01517 298
9.03528 278
9.05539 310
9.07551 298
9.09562 278
9.11573 270
9.13585 267
9.15596 273
9.17608 263
9.19619 276
9.2163 285
9.23642 291
9.25653 324
9.27664 295
9.29676 298
9.31687 293
9.33699 270
9.3571 293
9.37721 288
9.39733 292
9.41744 269
9.43755 315
9.45767 313
9.47778 267
9.4979 317
9.51801 301
9.53812 315
9.55824 312
9.57835 297
9.59846 298
9.61858 309
9.63869 310
9.6588 263
9.67892 267
9.69903 274
9.71915 260
9.73926 298
9.75937 298
9.77949 289
9.7996 278
9.81971 275
9.83983 305
9.85994 290
9.88006 294
9.90017 303
9.92028 295
9.9404 283
9.96051 299
9.98062 284
10.00074 305
10.02085 314
10.04097 299
10.06108 336
10.08119 278
10.10131 284
10.12142 299
10.14153 307
10.16165 324
10.18176 300
10.20187 327
10.22199 303
10.2421 324
10.26222 325
10.28233 270
10.30244 274
10.32256 324
10.34267 319
10.36278 302
10.3829 283
10.40301 282
10.42313 286
10.44324 310
10.46335 307
10.48347 321
10.50358 280
10.52369 308
10.54381 315
10.56392 273
10.58403 272
10.60415 293
10.62426 288
10.64438 277
10.66449 321
10.6846 312
10.70472 301
10.72483 291
10.74494 288
10.76506 289
10.78517 290
10.80529 311
10.8254 266
10.84551 294
10.86563 288
10.88574 263
10.90585 279
10.92597 259
10.94608 278
10.9662 325
10.98631 315
11.00642 299
11.02654 285
11.04665 324
11.06676 325
11.08688 307
11.10699 335
11.1271 301
11.14722 305
11.16733 304
11.18745 294
11.20756 312
11.22767 310
11.24779 299
11.2679 317
11.28801 321
11.30813 307
11.32824 298
11.34836 299
11.36847 318
11.38858 313
11.4087 312
11.42881 290
11.44892 294
11.46904 304
11.48915 338
11.50927 312
11.52938 333
11.54949 314
11.56961 330
11.58972 321
11.60983 339
11.62995 318
11.65006 334
11.67017 314
11.69029 294
11.7104 308
11.73052 314
11.75063 318
11.77074 348
11.79086 320
11.81097 370
11.83108 304
11.8512 331
11.87131 358
11.89143 390
11.91154 381
11.93165 350
11.95177 379
11.97188 383
11.99199 366
12.01211 401
12.03222 396
12.05234 432
12.07245 439
12.09256 389
12.11268 458
12.13279 434
12.1529 479
12.17302 499
12.19313 502
12.21324 467
12.23336 529
12.25347 606
12.27359 539
12.2937 565
12.31381 609
12.33393 611
12.35404 622
12.37415 612
12.39427 577
12.41438 596
12.4345 589
12.45461 551
12.47472 561
12.49484 592
12.51495 496
12.53506 430
12.55518 463
12.57529 405
12.5954 381
12.61552 390
12.63563 426
12.65575 364
12.67586 339
12.69597 354
12.71609 342
12.7362 370
12.75631 340
12.77643 374
12.79654 325
12.81666 305
12.83677 290
12.85688 319
12.877 319
12.89711 328
12.91722 274
12.93734 329
12.95745 292
12.97757 325
12.99768 300
13.01779 285
13.03791 299
13.05802 306
13.07813 296
13.09825 294
13.11836 307
13.13847 272
13.15859 309
13.1787 292
13.19882 275
13.21893 284
13.23904 285
13.25916 273
13.27927 279
13.29938 300
13.3195 291
13.33961 293
13.35973 268
13.37984 270
13.39995 282
13.42007 256
13.44018 261
13.46029 263
13.48041 312
13.50052 292
13.52064 269
13.54075 274
13.56086 273
13.58098 288
13.60109 288
13.6212 284
13.64132 234
13.66143 269
13.68154 234
13.70166 276
13.72177 253
13.74189 277
13.762 262
13.78211 245
13.80223 251
13.82234 238
13.84245 265
13.86257 243
13.88268 221
13.9028 259
13.92291 259
13.94302 249
13.96314 250
13.98325 269
14.00336 254
14.02348 288
14.04359 238
14.06371 238
14.08382 280
14.10393 286
14.12405 262
14.14416 251
14.16427 272
14.18439 322
14.2045 253
14.22461 247
14.24473 277
14.26484 265
14.28496 247
14.30507 277
14.32518 268
14.3453 275
14.36541 260
14.38552 264
14.40564 286
14.42575 255
14.44587 268
14.46598 279
14.48609 273
14.50621 275
14.52632 266
14.54643 276
14.56655 271
14.58666 258
14.60677 248
14.62689 260
14.647 286
14.66712 297
14.68723 218
14.70734 239
14.72746 237
14.74757 260
14.76768 265
14.7878 251
14.80791 260
14.82803 235
14.84814 295
14.86825 292
14.88837 234
14.90848 243
14.92859 236
14.94871 259
14.96882 255
14.98894 254
15.00905 257
15.02916 227
15.04928 277
15.06939 215
15.0895 260
15.10962 265
15.12973 262
15.14984 239
15.16996 237
15.19007 293
15.21019 250
15.2303 247
15.25041 244
15.27053 255
15.29064 239
15.31075 266
15.33087 279
15.35098 252
15.3711 273
15.39121 290
15.41132 265
15.43144 278
15.45155 246
15.47166 207
15.49178 286
15.51189 255
15.53201 264
15.55212 272
15.57223 244
15.59235 275
15.61246 278
15.63257 264
15.65269 257
15.6728 260
15.69291 261
15.71303 251
15.73314 229
15.75326 240
15.77337 272
15.79348 246
15.8136 241
15.83371 249
15.85382 255
15.87394 246
15.89405 270
15.91417 245
15.93428 246
15.95439 266
15.97451 248
15.99462 207
16.01473 247
16.03485 277
16.05496 287
16.07508 220
16.09519 244
16.1153 240
16.13542 256
16.15553 238
16.17564 250
16.19576 218
16.21587 272
16.23598 265
16.2561 273
16.27621 246
16.29633 229
16.31644 265
16.33655 223
16.35667 243
16.37678 228
16.39689 257
16.41701 227
16.43712 247
16.45724 231
16.47735 256
16.49746 278
16.51758 230
16.53769 243
16.5578 226
16.57792 259
16.59803 248
16.61814 256
16.63826 252
16.65837 218
16.67849 216
16.6986 246
16.71871 242
16.73883 229
16.75894 243
16.77905 262
16.79917 231
16.81928 270
16.8394 253
16.85951 264
16.87962 243
16.89974 267
16.91985 276
16.93996 270
16.96008 256
16.98019 250
17.00031 215
17.02042 237
17.04053 232
17.06065 243
17.08076 247
17.10087 243
17.12099 234
17.1411 228
17.16121 270
17.18133 255
17.20144 248
17.22156 257
17.24167 221
17.26178 252
17.2819 241
17.30201 256
17.32212 252
17.34224 237
17.36235 263
17.38247 228
17.40258 248
17.42269 235
17.44281 254
17.46292 275
17.48303 245
17.50315 264
17.52326 234
17.54338 245
17.56349 250
17.5836 238
17.60372 236
17.62383 264
17.64394 248
17.66406 259
17.68417 217
17.70428 250
17.7244 283
17.74451 258
17.76463 254
17.78474 236
17.80485 247
17.82497 237
17.84508 262
17.86519 289
17.88531 236
17.90542 263
17.92554 286
17.94565 276
17.96576 259
17.98588 286
18.00599 260
18.0261 290
18.04622 289
18.06633 268
18.08645 253
18.10656 271
18.12667 252
18.14679 282
18.1669 252
18.18701 235
18.20713 241
18.22724 236
18.24735 244
18.26747 255
18.28758 251
18.3077 251
18.32781 256
18.34792 272
18.36804 246
18.38815 235
18.40826 246
18.42838 227
18.44849 245
18.46861 274
18.48872 243
18.50883 234
18.52895 256
18.54906 249
18.56917 235
18.58929 249
18.6094 242
18.62951 254
18.64963 241
18.66974 234
18.68986 243
18.70997 235
18.73008 256
18.7502 258
18.77031 268
18.79042 285
18.81054 263
18.83065 304
18.85077 253
18.87088 281
18.89099 249
18.91111 268
18.93122 264
18.95133 236
18.97145 236
18.99156 262
19.01168 257
19.03179 260
19.0519 237
19.07202 265
19.09213 228
19.11224 240
19.13236 289
19.15247 263
19.17258 273
19.1927 253
19.21281 258
19.23293 224
19.25304 240
19.27315 250
19.29327 240
19.31338 272
19.33349 247
19.35361 255
19.37372 265
19.39384 257
19.41395 262
19.43406 231
19.45418 295
19.47429 261
19.4944 285
19.51452 260
19.53463 278
19.55475 297
19.57486 283
19.59497 288
19.61509 271
19.6352 296
19.65531 313
19.67543 319
19.69554 347
19.71565 328
19.73577 343
19.75588 369
19.776 429
19.79611 406
19.81622 438
19.83634 483
19.85645 492
19.87656 492
19.89668 501
19.91679 525
19.93691 500
19.95702 527
19.97713 528
19.99725 464
20.01736 468
20.03747 440
20.05759 467
20.0777 482
20.09782 507
20.11793 497
20.13804 477
20.15816 475
20.17827 475
20.19838 476
20.2185 485
20.23861 472
20.25872 504
20.27884 514
20.29895 488
20.31907 494
20.33918 514
20.35929 452
20.37941 508
20.39952 520
20.41963 489
20.43975 535
20.45986 540
20.47998 516
20.50009 492
20.5202 577
20.54032 544
20.56043 526
20.58054 594
20.60066 606
20.62077 616
20.64088 624
20.661 750
20.68111 720
20.70123 870
20.72134 1128
20.74145 1360
20.76157 1761
20.78168 2373
20.80179 3333
20.82191 4061
20.84202 5266
20.86214 6031
20.88225 6235
20.90236 5602
20.92248 4489
20.94259 3217
20.9627 2187
20.98282 1522
21.00293 1071
21.02305 807
21.04316 701
21.06327 662
21.08339 630
21.1035 629
21.12361 624
21.14373 584
21.16384 624
21.18395 594
21.20407 562
21.22418 580
21.2443 543
21.26441 565
21.28452 566
21.30464 571
21.32475 555
21.34486 599
21.36498 590
21.38509 588
21.40521 542
21.42532 563
21.44543 530
21.46555 472
21.48566 519
21.50577 513
21.52589 492
21.546 511
21.56612 424
21.58623 419
21.60634 458
21.62646 423
21.64657 433
21.66668 437
21.6868 433
21.70691 421
21.72702 379
21.74714 420
21.76725 406
21.78737 363
21.80748 413
21.82759 390
21.84771 400
21.86782 374
21.88793 380
21.90805 356
21.92816 401
21.94828 389
21.96839 418
21.9885 387
22.00862 382
22.02873 354
22.04884 357
22.06896 340
22.08907 374
22.10919 395
22.1293 335
22.14941 333
22.16953 385
22.18964 327
22.20975 334
22.22987 367
22.24998 347
22.27009 369
22.29021 360
22.31032 340
22.33044 325
22.35055 356
22.37066 343
22.39078 357
22.41089 359
22.431 389
22.45112 355
22.47123 338
22.49135 313
22.51146 344
22.53157 328
22.55169 329
22.5718 323
22.59191 354
22.61203 368
22.63214 353
22.65225 343
22.67237 357
22.69248 326
22.7126 353
22.73271 350
22.75282 352
22.77294 337
22.79305 330
22.81316 329
22.83328 345
22.85339 369
22.87351 343
22.89362 309
22.91373 325
22.93385 316
22.95396 308
22.97407 330
22.99419 301
23.0143 324
23.03442 320
23.05453 318
23.07464 340
23.09476 344
23.11487 326
23.13498 312
23.1551 297
23.17521 331
23.19532 296
23.21544 315
23.23555 289
23.25567 312
23.27578 325
23.29589 288
23.31601 322
23.33612 329
23.35623 303
23.37635 300
23.39646 296
23.41658 320
23.43669 317
23.4568 311
23.47692 295
23.49703 316
23.51714 305
23.53726 304
23.55737 271
23.57749 305
23.5976 341
23.61771 322
23.63783 320
23.65794 327
23.67805 329
23.69817 339
23.71828 311
23.73839 310
23.75851 351
23.77862 346
23.79874 323
23.81885 335
23.83896 347
23.85908 313
23.87919 318
23.8993 318
23.91942 321
23.93953 345
23.95965 335
23.97976 393
23.99987 379
24.01999 437
24.0401 380
24.06021 418
24.08033 416
24.10044 378
24.12056 377
24.14067 322
24.16078 321
24.1809 311
24.20101 346
24.22112 328
24.24124 344
24.26135 380
24.28146 376
24.30158 346
24.32169 345
24.34181 366
24.36192 353
24.38203 343
24.40215 352
24.42226 352
24.44237 377
24.46249 368
24.4826 368
24.50272 386
24.52283 360
24.54294 399
24.56306 391
24.58317 398
24.60328 451
24.6234 393
24.64351 422
24.66362 414
24.68374 442
24.70385 418
24.72397 444
24.74408 485
24.76419 497
24.78431 526
24.80442 541
24.82453 484
24.84465 549
24.86476 549
24.88488 560
24.90499 570
24.9251 523
24.94522 533
24.96533 531
24.98544 486
25.00556 534
25.02567 483
25.04579 494
25.0659 431
25.08601 446
25.10613 442
25.12624 454
25.14635 438
25.16647 435
25.18658 437
25.20669 437
25.22681 413
25.24692 419
25.26704 416
25.28715 399
25.30726 404
25.32738 403
25.34749 410
25.3676 411
25.38772 391
25.40783 364
25.42795 390
25.44806 365
25.46817 368
25.48829 392
25.5084 370
25.52851 370
25.54863 348
25.56874 365
25.58886 375
25.60897 371
25.62908 372
25.6492 390
25.66931 393
25.68942 393
25.70954 425
25.72965 473
25.74976 467
25.76988 448
25.78999 509
25.81011 470
25.83022 479
25.85033 474
25.87045 495
25.89056 502
25.91067 474
25.93079 465
25.9509 500
25.97102 507
25.99113 507
26.01124 478
26.03136 530
26.05147 548
26.07158 528
26.0917 512
26.11181 540
26.13193 586
26.15204 650
26.17215 607
26.19227 688
26.21238 691
26.23249 756
26.25261 808
26.27272 810
26.29283 937
26.31295 972
26.33306 943
26.35318 1128
26.37329 1140
26.3934 1298
26.41352 1508
26.43363 1761
26.45374 2278
26.47386 2961
26.49397 3973
26.51409 5614
26.5342 7600
26.55431 10578
26.57443 14578
26.59454 19061
26.61465 23759
26.63477 27029
26.65488 27889
26.67499 25601
26.69511 20784
26.71522 15908
26.73534 11871
26.75545 7954
26.77556 4785
26.79568 2975
26.81579 2020
26.8359 1531
26.85602 1372
26.87613 1226
26.89625 1084
26.91636 1019
26.93647 902
26.95659 867
26.9767 750
26.99681 739
27.01693 686
27.03704 648
27.05716 582
27.07727 600
27.09738 529
27.1175 538
27.13761 471
27.15772 498
27.17784 461
27.19795 463
27.21806 466
27.23818 469
27.25829 454
27.27841 430
27.29852 413
27.31863 441
27.33875 404
27.35886 424
27.37897 441
27.39909 466
27.4192 452
27.43932 425
27.45943 472
27.47954 431
27.49966 397
27.51977 389
27.53988 421
27.56 416
27.58011 364
27.60023 377
27.62034 394
27.64045 411
27.66057 353
27.68068 382
27.70079 391
27.72091 379
27.74102 346
27.76113 373
27.78125 351
27.80136 394
27.82148 362
27.84159 360
27.8617 382
27.88182 377
27.90193 336
27.92204 391
27.94216 307
27.96227 351
27.98239 331
28.0025 325
28.02261 381
28.04273 330
28.06284 337
28.08295 342
28.10307 342
28.12318 355
28.1433 318
28.16341 313
28.18352 370
28.20364 361
28.22375 354
28.24386 345
28.26398 349
28.28409 332
28.3042 348
28.32432 322
28.34443 310
28.36455 322
28.38466 315
28.40477 353
28.42489 340
28.445 318
28.46511 329
28.48523 324
28.50534 336
28.52546 320
28.54557 320
28.56568 288
28.5858 309
28.60591 292
28.62602 315
28.64614 317
28.66625 323
28.68636 313
28.70648 297
28.72659 315
28.74671 313
28.76682 301
28.78693 297
28.80705 330
28.82716 344
28.84727 315
28.86739 307
28.8875 285
28.90762 293
28.92773 314
28.94784 296
28.96796 283
28.98807 329
29.00818 289
29.0283 297
29.04841 297
29.06853 274
29.08864 318
29.10875 306
29.12887 316
29.14898 347
29.16909 297
29.18921 275
29.20932 274
29.22943 289
29.24955 309
29.26966 289
29.28978 294
29.30989 287
29.33 285
29.35012 291
29.37023 290
29.39034 291
29.41046 290
29.43057 313
29.45069 295
29.4708 294
29.49091 256
29.51103 277
29.53114 301
29.55125 278
29.57137 292
29.59148 257
29.6116 302
29.63171 284
29.65182 286
29.67194 300
29.69205 264
29.71216 326
29.73228 306
29.75239 291
29.7725 288
29.79262 316
29.81273 268
29.83285 295
29.85296 304
29.87307 276
29.89319 270
29.9133 270
29.93341 271
29.95353 277
29.97364 283
29.99376 284
30.01387 307
30.03398 292
30.0541 282
30.07421 284
30.09432 309
30.11444 273
30.13455 286
30.15467 306
30.17478 280
30.19489 252
30.21501 319
30.23512 295
30.25523 282
30.27535 292
30.29546 315
30.31557 272
30.33569 284
30.3558 274
30.37592 302
30.39603 283
30.41614 301
30.43626 301
30.45637 290
30.47648 298
30.4966 287
30.51671 277
30.53683 289
30.55694 301
30.57705 312
30.59717 295
30.61728 281
30.63739 323
30.65751 289
30.67762 314
30.69773 242
30.71785 245
30.73796 290
30.75808 283
30.77819 303
30.7983 252
30.81842 268
30.83853 282
30.85864 311
30.87876 275
30.89887 262
30.91899 254
30.9391 284
30.95921 273
30.97933 266
30.99944 297
31.01955 244
31.03967 310
31.05978 284
31.0799 304
31.10001 282
31.12012 301
31.14024 242
31.16035 265
31.18046 273
31.20058 260
31.22069 292
31.2408 274
31.26092 272
31.28103 294
31.30115 250
31.32126 279
31.34137 273
31.36149 273
31.3816 281
31.40171 251
31.42183 247
31.44194 236
31.46206 251
31.48217 256
31.50228 256
31.5224 280
31.54251 277
31.56262 273
31.58274 272
31.60285 286
31.62297 263
31.64308 266
31.66319 255
31.68331 259
31.70342 288
31.72353 269
31.74365 249
31.76376 268
31.78387 289
31.80399 267
31.8241 265
31.84422 273
31.86433 247
31.88444 248
31.90456 263
31.92467 265
31.94478 246
31.9649 244
31.98501 241
32.00513 255
32.02524 268
32.04535 232
32.06547 269
32.08558 256
32.10569 276
32.12581 304
32.14592 276
32.16604 268
32.18615 295
32.20626 295
32.22638 285
32.24649 295
32.2666 251
32.28672 287
32.30683 262
32.32694 272
32.34706 251
32.36717 254
32.38729 271
32.4074 282
32.42751 259
32.44763 260
32.46774 265
32.48785 296
32.50797 271
32.52808 283
32.5482 297
32.56831 282
32.58842 281
32.60854 288
32.62865 290
32.64876 303
32.66888 263
32.68899 271
32.7091 274
32.72922 294
32.74933 297
32.76945 297
32.78956 273
32.80967 304
32.82979 292
32.8499 296
32.87001 288
32.89013 295
32.91024 311
32.93036 322
32.95047 315
32.97058 332
32.9907 324
33.01081 296
33.03092 325
33.05104 310
33.07115 307
33.09127 330
33.11138 355
33.13149 347
33.15161 342
33.17172 355
33.19183 353
33.21195 360
33.23206 309
33.25217 302
33.27229 325
33.2924 359
33.31252 295
33.33263 327
33.35274 349
33.37286 321
33.39297 325
33.41308 337
33.4332 320
33.45331 325
33.47343 336
33.49354 357
33.51365 299
33.53377 347
33.55388 306
33.57399 332
33.59411 291
33.61422 310
33.63434 250
33.65445 290
33.67456 304
33.69468 279
33.71479 298
33.7349 289
33.75502 310
33.77513 319
33.79524 285
33.81536 266
33.83547 255
33.85559 276
33.8757 250
33.89581 301
33.91593 245
33.93604 275
33.95615 263
33.97627 255
33.99638 277
34.0165 237
34.03661 285
34.05672 298
34.07684 236
34.09695 266
34.11706 248
34.13718 259
34.15729 265
34.17741 263
34.19752 269
34.21763 253
34.23775 268
34.25786 262
34.27797 235
34.29809 213
34.3182 266
34.33831 262
34.35843 250
34.37854 264
34.39866 276
34.41877 254
34.43888 245
34.459 309
34.47911 265
34.49922 279
34.51934 288
34.53945 318
34.55957 279
34.57968 261
34.59979 298
34.61991 257
34.64002 273
34.66013 275
34.68025 311
34.70036 292
34.72047 312
34.74059 331
34.7607 352
34.78082 352
34.80093 361
34.82104 380
34.84116 360
34.86127 369
34.88138 369
34.9015 381
34.92161 397
34.94173 407
34.96184 400
34.98195 429
35.00207 405
35.02218 466
35.04229 395
35.06241 358
35.08252 403
35.10264 418
35.12275 391
35.14286 348
35.16298 384
35.18309 364
35.2032 387
35.22332 367
35.24343 355
35.26354 347
35.28366 353
35.30377 328
35.32389 352
35.344 380
35.36411 368
35.38423 368
35.40434 378
35.42445 393
35.44457 370
35.46468 393
35.4848 388
35.50491 379
35.52502 371
35.54514 397
35.56525 405
35.58536 406
35.60548 408
35.62559 438
35.64571 434
35.66582 415
35.68593 446
35.70605 398
35.72616 451
35.74627 433
35.76639 412
35.7865 456
35.80661 432
35.82673 421
35.84684 440
35.86696 414
35.88707 415
35.90718 437
35.9273 378
35.94741 394
35.96752 427
35.98764 430
36.00775 409
36.02787 387
36.04798 413
36.06809 366
36.08821 383
36.10832 371
36.12843 406
36.14855 375
36.16866 369
36.18878 389
36.20889 401
36.229 375
36.24912 393
36.26923 372
36.28934 452
36.30946 404
36.32957 439
36.34968 480
36.3698 594
36.38991 681
36.41003 719
36.43014 897
36.45025 1141
36.47037 1343
36.49048 1581
36.51059 1832
36.53071 1989
36.55082 2126
36.57094 1889
36.59105 1619
36.61116 1395
36.63128 1224
36.65139 1105
36.6715 915
36.69162 685
36.71173 549
36.73184 488
36.75196 459
36.77207 416
36.79219 412
36.8123 422
36.83241 429
36.85253 422
36.87264 402
36.89275 418
36.91287 425
36.93298 405
36.9531 391
36.97321 409
36.99332 422
37.01344 375
37.03355 400
37.05366 372
37.07378 373
37.09389 339
37.11401 334
37.13412 325
37.15423 337
37.17435 339
37.19446 309
37.21457 341
37.23469 320
37.2548 319
37.27491 320
37.29503 311
37.31514 318
37.33526 314
37.35537 320
37.37548 312
37.3956 310
37.41571 328
37.43582 294
37.45594 310
37.47605 292
37.49617 308
37.51628 322
37.53639 299
37.55651 322
37.57662 325
37.59673 302
37.61685 342
37.63696 310
37.65708 357
37.67719 315
37.6973 278
37.71742 332
37.73753 390
37.75764 337
37.77776 308
37.79787 308
37.81798 324
37.8381 349
37.85821 323
37.87833 348
37.89844 339
37.91855 283
37.93867 313
37.95878 307
37.97889 312
37.99901 323
38.01912 291
38.03924 317
38.05935 317
38.07946 332
38.09958 327
38.11969 329
38.1398 341
38.15992 362
38.18003 332
38.20015 400
38.22026 376
38.24037 384
38.26049 380
38.2806 406
38.30071 332
38.32083 380
38.34094 394
38.36105 402
38.38117 384
38.40128 421
38.4214 417
38.44151 399
38.46162 469
38.48174 437
38.50185 396
38.52196 391
38.54208 374
38.56219 352
38.58231 360
38.60242 382
38.62253 392
38.64265 348
38.66276 355
38.68287 332
38.70299 380
38.7231 327
38.74321 330
38.76333 335
38.78344 319
38.80356 355
38.82367 341
38.84378 339
38.8639 319
38.88401 351
38.90412 350
38.92424 353
38.94435 323
38.96447 311
38.98458 343
39.00469 361
39.02481 340
39.04492 370
39.06503 398
39.08515 376
39.10526 393
39.12538 346
39.14549 340
39.1656 384
39.18572 412
39.20583 427
39.22594 433
39.24606 487
39.26617 519
39.28628 552
39.3064 618
39.32651 709
39.34663 874
39.36674 1043
39.38685 1232
39.40697 1472
39.42708 1698
39.44719 1794
39.46731 1945
39.48742 1840
39.50754 1572
39.52765 1247
39.54776 1145
39.56788 1068
39.58799 882
39.6081 709
39.62822 559
39.64833 463
39.66845 385
39.68856 389
39.70867 338
39.72879 335
39.7489 323
39.76901 297
39.78913 319
39.80924 314
39.82935 340
39.84947 314
39.86958 292
39.8897 353
39.90981 328
39.92992 293
39.95004 322
39.97015 304
39.99026 320
40.01038 342
40.03049 327
40.05061 337
40.07072 358
40.09083 362
40.11095 408
40.13106 411
40.15117 528
40.17129 578
40.1914 637
40.21152 748
40.23163 860
40.25174 960
40.27186 1073
40.29197 1063
40.31208 980
40.3322 844
40.35231 763
40.37242 686
40.39254 713
40.41265 568
40.43277 500
40.45288 450
40.47299 373
40.49311 358
40.51322 341
40.53333 330
40.55345 350
40.57356 325
40.59368 305
40.61379 278
40.6339 315
40.65402 302
40.67413 279
40.69424 305
40.71436 282
40.73447 321
40.75458 298
40.7747 273
40.79481 328
40.81493 291
40.83504 301
40.85515 295
40.87527 309
40.89538 297
40.91549 287
40.93561 284
40.95572 307
40.97584 286
40.99595 304
41.01606 302
41.03618 279
41.05629 327
41.0764 264
41.09652 277
41.11663 306
41.13675 264
41.15686 312
41.17697 267
41.19709 299
41.2172 299
41.23731 312
41.25743 295
41.27754 303
41.29765 292
41.31777 326
41.33788 289
41.358 289
41.37811 310
41.39822 295
41.41834 293
41.43845 324
41.45856 307
41.47868 295
41.49879 292
41.51891 299
41.53902 282
41.55913 297
41.57925 293
41.59936 312
41.61947 301
41.63959 270
41.6597 278
41.67982 264
41.69993 257
41.72004 316
41.74016 283
41.76027 296
41.78038 268
41.8005 265
41.82061 299
41.84072 272
41.86084 273
41.88095 304
41.90107 276
41.92118 273
41.94129 254
41.96141 310
41.98152 244
42.00163 280
42.02175 284
42.04186 284
42.06198 292
42.08209 275
42.1022 297
42.12232 265
42.14243 300
42.16254 302
42.18266 337
42.20277 327
42.22289 395
42.243 377
42.26311 389
42.28323 462
42.30334 549
42.32345 656
42.34357 798
42.36368 903
42.38379 1069
42.40391 1198
42.42402 1274
42.44414 1356
42.46425 1251
42.48436 1156
42.50448 1014
42.52459 904
42.5447 822
42.56482 779
42.58493 599
42.60505 506
42.62516 452
42.64527 359
42.66539 364
42.6855 322
42.70561 318
42.72573 256
42.74584 276
42.76595 274
42.78607 268
42.80618 275
42.8263 268
42.84641 234
42.86652 264
42.88664 250
42.90675 280
42.92686 251
42.94698 263
42.96709 260
42.98721 251
43.00732 269
43.02743 227
43.04755 244
43.06766 257
43.08777 261
43.10789 255
43.128 262
43.14812 244
43.16823 242
43.18834 228
43.20846 265
43.22857 279
43.24868 273
43.2688 239
43.28891 232
43.30902 242
43.32914 253
43.34925 235
43.36937 246
43.38948 243
43.40959 254
43.42971 262
43.44982 246
43.46993 230
43.49005 255
43.51016 268
43.53028 258
43.55039 236
43.5705 257
43.59062 248
43.61073 249
43.63084 231
43.65096 212
43.67107 243
43.69119 251
43.7113 233
43.73141 225
43.75153 233
43.77164 225
43.79175 258
43.81187 242
43.83198 244
43.85209 260
43.87221 251
43.89232 255
43.91244 233
43.93255 235
43.95266 256
43.97278 202
43.99289 257
44.013 239
44.03312 250
44.05323 232
44.07335 232
44.09346 230
44.11357 256
44.13369 227
44.1538 247
44.17391 229
44.19403 229
44.21414 235
44.23426 253
44.25437 229
44.27448 218
44.2946 231
44.31471 238
44.33482 280
44.35494 242
44.37505 242
44.39516 257
44.41528 274
44.43539 243
44.45551 249
44.47562 228
44.49573 231
44.51585 221
44.53596 266
44.55607 211
44.57619 214
44.5963 230
44.61642 228
44.63653 232
44.65664 251
44.67676 217
44.69687 246
44.71698 263
44.7371 246
44.75721 262
44.77732 246
44.79744 263
44.81755 272
44.83767 252
44.85778 248
44.87789 270
44.89801 252
44.91812 228
44.93823 246
44.95835 290
44.97846 248
44.99858 236
45.01869 243
45.0388 247
45.05892 215
45.07903 248
45.09914 237
45.11926 251
45.13937 259
45.15949 251
45.1796 271
45.19971 270
45.21983 253
45.23994 268
45.26005 234
45.28017 261
45.30028 272
45.32039 268
45.34051 318
45.36062 266
45.38074 312
45.40085 303
45.42096 276
45.44108 318
45.46119 283
45.4813 302
45.50142 306
45.52153 328
45.54165 325
45.56176 322
45.58187 410
45.60199 420
45.6221 401
45.64221 474
45.66233 535
45.68244 601
45.70256 723
45.72267 786
45.74278 867
45.7629 933
45.78301 977
45.80312 944
45.82324 858
45.84335 788
45.86346 716
45.88358 636
45.90369 609
45.92381 584
45.94392 447
45.96403 409
45.98415 354
46.00426 315
46.02437 295
46.04449 299
46.0646 266
46.08472 274
46.10483 285
46.12494 282
46.14506 251
46.16517 276
46.18528 238
46.2054 259
46.22551 276
46.24563 280
46.26574 251
46.28585 232
46.30597 245
46.32608 242
46.34619 261
46.36631 251
46.38642 259
46.40653 237
46.42665 255
46.44676 238
46.46688 249
46.48699 244
46.5071 245
46.52722 248
46.54733 246
46.56744 240
46.58756 256
46.60767 241
46.62779 256
46.6479 273
46.66801 246
46.68813 231
46.70824 261
46.72835 235
46.74847 271
46.76858 227
46.78869 218
46.80881 245
46.82892 267
46.84904 231
46.86915 248
46.88926 270
46.90938 267
46.92949 268
46.9496 266
46.96972 253
46.98983 281
47.00995 239
47.03006 228
47.05017 257
47.07029 224
47.0904 228
47.11051 243
47.13063 267
47.15074 227
47.17086 261
47.19097 236
47.21108 240
47.2312 235
47.25131 250
47.27142 267
47.29154 218
47.31165 265
47.33176 245
47.35188 252
47.37199 223
47.39211 254
47.41222 252
47.43233 252
47.45245 254
47.47256 235
47.49267 242
47.51279 252
47.5329 236
47.55302 239
47.57313 236
47.59324 244
47.61336 241
47.63347 252
47.65358 245
47.6737 268
47.69381 225
47.71393 228
47.73404 295
47.75415 259
47.77427 248
47.79438 257
47.81449 265
47.83461 264
47.85472 261
47.87483 262
47.89495 244
47.91506 256
47.93518 263
47.95529 252
47.9754 244
47.99552 255
48.01563 246
48.03574 259
48.05586 242
48.07597 233
48.09609 241
48.1162 266
48.13631 249
48.15643 221
48.17654 271
48.19665 213
48.21677 249
48.23688 267
48.257 246
48.27711 219
48.29722 236
48.31734 248
48.33745 242
48.35756 224
48.37768 238
48.39779 257
48.4179 236
48.43802 239
48.45813 226
48.47825 247
48.49836 221
48.51847 255
48.53859 233
48.5587 255
48.57881 225
48.59893 285
48.61904 252
48.63916 276
48.65927 253
48.67938 245
48.6995 252
48.71961 274
48.73972 269
48.75984 262
48.77995 229
48.80006 261
48.82018 275
48.84029 253
48.86041 256
48.88052 251
48.90063 251
48.92075 237
48.94086 220
48.96097 226
48.98109 268
49.0012 248
49.02132 258
49.04143 276
49.06154 251
49.08166 267
49.10177 265
49.12188 278
49.142 236
49.16211 240
49.18223 226
49.20234 253
49.22245 278
49.24257 263
49.26268 257
49.28279 287
49.30291 297
49.32302 260
49.34313 277
49.36325 275
49.38336 276
49.40348 285
49.42359 301
49.4437 282
49.46382 257
49.48393 285
49.50404 281
49.52416 303
49.54427 298
49.56439 284
49.5845 301
49.60461 265
49.62473 293
49.64484 304
49.66495 308
49.68507 292
49.70518 343
49.7253 324
49.74541 310
49.76552 336
49.78564 366
49.80575 365
49.82586 414
49.84598 419
49.86609 472
49.8862 503
49.90632 557
49.92643 654
49.94655 707
49.96666 800
49.98677 930
50.00689 1227
50.027 1419
50.04711 1848
50.06723 2183
50.08734 2521
50.10746 2837
50.12757 2834
50.14768 2727
50.1678 2323
50.18791 1986
50.20802 1654
50.22814 1555
50.24825 1576
50.26837 1465
50.28848 1279
50.30859 974
50.32871 739
50.34882 565
50.36893 433
50.38905 422
50.40916 386
50.42927 314
50.44939 324
50.4695 319
50.48962 309
50.50973 353
50.52984 305
50.54996 315
50.57007 366
50.59018 366
50.6103 319
50.63041 327
50.65053 319
50.67064 335
50.69075 302
50.71087 289
50.73098 288
50.75109 285
50.77121 263
50.79132 270
50.81143 274
50.83155 271
50.85166 293
50.87178 274
50.89189 281
50.912 263
50.93212 269
50.95223 254
50.97234 286
50.99246 278
51.01257 276
51.03269 265
51.0528 263
51.07291 257
51.09303 266
51.11314 273
51.13325 266
51.15337 258
51.17348 259
51.1936 212
51.21371 243
51.23382 237
51.25394 271
51.27405 221
51.29416 223
51.31428 254
51.33439 259
51.3545 251
51.37462 245
51.39473 221
51.41485 241
51.43496 242
51.45507 247
51.47519 221
51.4953 196
51.51541 241
51.53553 247
51.55564 230
51.57576 232
51.59587 235
51.61598 238
51.6361 232
51.65621 260
51.67632 226
51.69644 229
51.71655 214
51.73667 201
51.75678 239
51.77689 222
51.79701 206
51.81712 222
51.83723 221
51.85735 241
51.87746 225
51.89757 216
51.91769 214
51.9378 226
51.95792 236
51.97803 231
51.99814 239
52.01826 240
52.03837 227
52.05848 248
52.0786 256
52.09871 252
52.11883 234
52.13894 238
52.15905 221
52.17917 219
52.19928 243
52.21939 229
52.23951 215
52.25962 205
52.27974 229
52.29985 248
52.31996 235
52.34008 236
52.36019 223
52.3803 263
52.40042 239
52.42053 225
52.44064 244
52.46076 244
52.48087 208
52.50099 242
52.5211 218
52.54121 234
52.56133 208
52.58144 225
52.60155 217
52.62167 217
52.64178 248
52.6619 229
52.68201 234
52.70212 239
52.72224 229
52.74235 220
52.76246 226
52.78258 231
52.80269 201
52.8228 226
52.84292 202
52.86303 217
52.88315 213
52.90326 232
52.92337 243
52.94349 224
52.9636 204
52.98371 246
53.00383 245
53.02394 244
53.04406 251
53.06417 248
53.08428 284
53.1044 248
53.12451 258
53.14462 256
53.16474 217
53.18485 252
53.20497 241
53.22508 255
53.24519 260
53.26531 259
53.28542 255
53.30553 273
53.32565 249
53.34576 275
53.36587 261
53.38599 269
53.4061 283
53.42622 287
53.44633 270
53.46644 259
53.48656 268
53.50667 267
53.52678 285
53.5469 263
53.56701 284
53.58713 270
53.60724 284
53.62735 290
53.64747 332
53.66758 269
53.68769 289
53.70781 265
53.72792 286
53.74804 310
53.76815 277
53.78826 298
53.80838 290
53.82849 272
53.8486 285
53.86872 285
53.88883 269
53.90894 305
53.92906 298
53.94917 308
53.96929 296
53.9894 310
54.00951 290
54.02963 303
54.04974 310
54.06985 288
54.08997 291
54.11008 295
54.1302 289
54.15031 279
54.17042 304
54.19054 282
54.21065 309
54.23076 282
54.25088 310
54.27099 277
54.29111 295
54.31122 315
54.33133 304
54.35145 306
54.37156 286
54.39167 297
54.41179 310
54.4319 325
54.45201 294
54.47213 334
54.49224 325
54.51236 307
54.53247 354
54.55258 311
54.5727 333
54.59281 391
54.61292 402
54.63304 351
54.65315 429
54.67327 418
54.69338 478
54.71349 466
54.73361 543
54.75372 668
54.77383 769
54.79395 848
54.81406 902
54.83417 1023
54.85429 996
54.8744 1026
54.89452 945
54.91463 833
54.93474 692
54.95486 684
54.97497 731
54.99508 640
55.0152 636
55.03531 609
55.05543 523
55.07554 490
55.09565 423
55.11577 399
55.13588 388
55.15599 404
55.17611 412
55.19622 404
55.21634 479
55.23645 513
55.25656 542
55.27668 554
55.29679 584
55.3169 588
55.33702 568
55.35713 476
55.37724 477
55.39736 433
55.41747 447
55.43759 426
55.4577 435
55.47781 418
55.49793 374
55.51804 324
55.53815 328
55.55827 305
55.57838 291
55.5985 276
55.61861 287
55.63872 260
55.65884 286
55.67895 281
55.69906 288
55.71918 262
55.73929 279
55.75941 256
55.77952 279
55.79963 245
55.81975 254
55.83986 264
55.85997 253
55.88009 252
55.9002 269
55.92031 257
55.94043 258
55.96054 279
55.98066 255
56.00077 236
56.02088 252
56.041 259
56.06111 258
56.08122 226
56.10134 279
56.12145 252
56.14157 255
56.16168 277
56.18179 248
56.20191 231
56.22202 245
56.24213 237
56.26225 259
56.28236 252
56.30248 242
56.32259 258
56.3427 220
56.36282 265
56.38293 256
56.40304 259
56.42316 230
56.44327 262
56.46338 246
56.4835 242
56.50361 235
56.52373 222
56.54384 275
56.56395 228
56.58407 262
56.60418 237
56.62429 240
56.64441 245
56.66452 259
56.68464 293
56.70475 247
56.72486 232
56.74498 235
56.76509 267
56.7852 246
56.80532 259
56.82543 227
56.84554 235
56.86566 264
56.88577 233
56.90589 258
56.926 255
56.94611 233
56.96623 267
56.98634 233
57.00645 222
57.02657 268
57.04668 238
57.0668 237
57.08691 267
57.10702 263
57.12714 250
57.14725 288
57.16736 266
57.18748 277
57.20759 247
57.22771 310
57.24782 275
57.26793 286
57.28805 291
57.30816 245
57.32827 252
57.34839 265
57.3685 245
57.38861 269
57.40873 269
57.42884 275
57.44896 226
57.46907 225
57.48918 239
57.5093 251
57.52941 259
57.54952 233
57.56964 243
57.58975 230
57.60987 234
57.62998 261
57.65009 256
57.67021 242
57.69032 239
57.71043 225
57.73055 234
57.75066 247
57.77078 227
57.79089 246
57.811 254
57.83112 230
57.85123 249
57.87134 249
57.89146 265
57.91157 245
57.93168 240
57.9518 225
57.97191 225
57.99203 260
58.01214 243
58.03225 245
58.05237 238
58.07248 220
58.09259 258
58.11271 221
58.13282 222
58.15294 227
58.17305 213
58.19316 246
58.21328 219
58.23339 241
58.2535 214
58.27362 228
58.29373 258
58.31385 235
58.33396 247
58.35407 191
58.37419 231
58.3943 250
58.41441 216
58.43453 227
58.45464 232
58.47475 246
58.49487 220
58.51498 214
58.5351 220
58.55521 201
58.57532 239
58.59544 223
58.61555 273
58.63566 237
58.65578 213
58.67589 228
58.69601 237
58.71612 210
58.73623 217
58.75635 203
58.77646 241
58.79657 204
58.81669 238
58.8368 229
58.85691 242
58.87703 227
58.89714 225
58.91726 242
58.93737 265
58.95748 203
58.9776 225
58.99771 209
59.01782 249
59.03794 252
59.05805 223
59.07817 226
59.09828 229
59.11839 258
59.13851 238
59.15862 248
59.17873 237
59.19885 240
59.21896 256
59.23908 242
59.25919 249
59.2793 258
59.29942 261
59.31953 265
59.33964 281
59.35976 287
59.37987 270
59.39998 247
59.4201 264
59.44021 267
59.46033 290
59.48044 279
59.50055 315
59.52067 321
59.54078 310
59.56089 301
59.58101 292
59.60112 348
59.62124 334
59.64135 351
59.66146 370
59.68158 403
59.70169 487
59.7218 510
59.74192 562
59.76203 620
59.78215 665
59.80226 820
59.82237 897
59.84249 1152
59.8626 1281
59.88271 1488
59.90283 1769
59.92294 1787
59.94305 1760
59.96317 1645
59.98328 1463
60.0034 1214
60.02351 1108
60.04362 967
60.06374 1054
60.08385 1058
60.10396 953
60.12408 931
60.14419 800
60.16431 659
60.18442 488
60.20453 413
60.22465 389
60.24476 336
60.26487 321
60.28499 282
60.3051 301
60.32522 261
60.34533 253
60.36544 290
60.38556 285
60.40567 257
60.42578 253
60.4459 249
60.46601 272
60.48612 262
60.50624 261
60.52635 258
60.54647 222
60.56658 224
60.58669 234
60.60681 221
60.62692 256
60.64703 213
60.66715 233
60.68726 224
60.70738 232
60.72749 244
60.7476 229
60.76772 237
60.78783 240
60.80794 226
60.82806 254
60.84817 243
60.86828 236
60.8884 265
60.90851 226
60.92863 202
60.94874 230
60.96885 237
60.98897 230
61.00908 214
61.02919 221
61.04931 231
61.06942 245
61.08954 219
61.10965 234
61.12976 245
61.14988 223
61.16999 252
61.1901 232
61.21022 220
61.23033 234
61.25045 221
61.27056 222
61.29067 207
61.31079 202
61.3309 226
61.35101 230
61.37113 239
61.39124 213
61.41135 215
61.43147 216
61.45158 237
61.4717 208
61.49181 219
61.51192 221
61.53204 226
61.55215 229
61.57226 242
61.59238 229
61.61249 252
61.63261 222
61.65272 212
61.67283 260
61.69295 254
61.71306 251
61.73317 255
61.75329 252
61.7734 258
61.79352 221
61.81363 287
61.83374 256
61.85386 271
61.87397 267
61.89408 265
61.9142 278
61.93431 261
61.95442 289
61.97454 302
61.99465 293
62.01477 288
62.03488 286
62.05499 306
62.07511 317
62.09522 309
62.11533 296
62.13545 312
62.15556 309
62.17568 349
62.19579 320
62.2159 304
62.23602 311
62.25613 356
62.27624 312
62.29636 338
62.31647 275
62.33659 297
62.3567 346
62.37681 317
62.39693 326
62.41704 298
62.43715 284
62.45727 311
62.47738 314
62.49749 290
62.51761 263
62.53772 272
62.55784 251
62.57795 273
62.59806 275
62.61818 263
62.63829 267
62.6584 264
62.67852 250
62.69863 241
62.71875 250
62.73886 263
62.75897 243
62.77909 260
62.7992 238
62.81931 219
62.83943 247
62.85954 234
62.87965 233
62.89977 227
62.91988 249
62.94 229
62.96011 268
62.98022 241
63.00034 221
63.02045 254
63.04056 203
63.06068 244
63.08079 241
63.10091 249
63.12102 228
63.14113 243
63.16125 260
63.18136 244
63.20147 247
63.22159 218
63.2417 235
63.26182 268
63.28193 230
63.30204 254
63.32216 250
63.34227 248
63.36238 249
63.3825 262
63.40261 254
63.42272 235
63.44284 215
63.46295 226
63.48307 254
63.50318 254
63.52329 251
63.54341 238
63.56352 240
63.58363 231
63.60375 266
63.62386 237
63.64398 231
63.66409 238
63.6842 271
63.70432 261
63.72443 255
63.74454 257
63.76466 261
63.78477 270
63.80489 281
63.825 308
63.84511 299
63.86523 335
63.88534 374
63.90545 398
63.92557 429
63.94568 457
63.96579 489
63.98591 510
64.00602 520
64.02614 532
64.04625 505
64.06636 426
64.08648 418
64.10659 389
64.1267 385
64.14682 414
64.16693 371
64.18705 332
64.20716 377
64.22727 371
64.24739 348
64.2675 310
64.28761 273
64.30773 291
64.32784 256
64.34796 234
64.36807 230
64.38818 261
64.4083 251
64.42841 245
64.44852 233
64.46864 251
64.48875 240
64.50886 231
64.52898 241
64.54909 248
64.56921 236
64.58932 228
64.60943 233
64.62955 231
64.64966 223
64.66977 238
64.68989 247
64.71 230
64.73012 219
64.75023 211
64.77034 245
64.79046 240
64.81057 193
64.83068 247
64.8508 208
64.87091 202
64.89102 225
64.91114 245
64.93125 218
64.95137 235
64.97148 208
64.99159 214
65.01171 214
65.03182 225
65.05193 235
65.07205 235
65.09216 200
65.11228 205
65.13239 204
65.1525 243
65.17262 237
65.19273 216
65.21284 231
65.23296 239
65.25307 201
65.27319 249
65.2933 246
65.31341 225
65.33353 215
65.35364 246
65.37375 232
65.39387 213
65.41398 219
65.43409 224
65.45421 228
65.47432 201
65.49444 216
65.51455 214
65.53466 216
65.55478 243
65.57489 241
65.595 239
65.61512 230
65.63523 265
65.65535 235
65.67546 232
65.69557 256
65.71569 272
65.7358 282
65.75591 255
65.77603 287
65.79614 267
65.81626 259
65.83637 266
65.85648 244
65.8766 288
65.89671 259
65.91682 243
65.93694 230
65.95705 274
65.97716 248
65.99728 245
66.01739 268
66.03751 221
66.05762 234
66.07773 216
66.09785 230
66.11796 218
66.13807 244
66.15819 242
66.1783 216
66.19842 213
66.21853 222
66.23864 224
66.25876 203
66.27887 231
66.29898 217
66.3191 197
66.33921 229
66.35933 220
66.37944 230
66.39955 212
66.41967 206
66.43978 208
66.45989 181
66.48001 227
66.50012 224
66.52023 210
66.54035 232
66.56046 230
66.58058 214
66.60069 191
66.6208 216
66.64092 233
66.66103 203
66.68114 234
66.70126 227
66.72137 231
66.74149 245
66.7616 215
66.78171 212
66.80183 223
66.82194 229
66.84205 237
66.86217 231
66.88228 238
66.90239 213
66.92251 232
66.94262 248
66.96274 259
66.98285 236
67.00296 221
67.02308 245
67.04319 242
67.0633 242
67.08342 244
67.10353 242
67.12365 229
67.14376 246
67.16387 211
67.18399 224
67.2041 243
67.22421 265
67.24433 249
67.26444 245
67.28456 265
67.30467 264
67.32478 281
67.3449 277
67.36501 284
67.38512 297
67.40524 273
67.42535 295
67.44546 340
67.46558 371
67.48569 349
67.50581 357
67.52592 405
67.54603 458
67.56615 500
67.58626 593
67.60637 685
67.62649 785
67.6466 923
67.66672 973
67.68683 1086
67.70694 1123
67.72706 1136
67.74717 1016
67.76728 947
67.7874 779
67.80751 751
67.82763 739
67.84774 735
67.86785 772
67.88797 821
67.90808 830
67.92819 897
67.94831 809
67.96842 816
67.98853 844
68.00865 946
68.02876 990
68.04888 1087
68.06899 1306
68.0891 1363
68.10922 1449
68.12933 1465
68.14944 1454
68.16956 1331
68.18967 1213
68.20979 1214
68.2299 1227
68.25001 1326
68.27013 1334
68.29024 1359
68.31035 1274
68.33047 1218
68.35058 960
68.3707 895
68.39081 712
68.41092 653
68.43104 607
68.45115 595
68.47126 573
68.49138 517
68.51149 528
68.5316 456
68.55172 396
68.57183 347
68.59195 293
68.61206 268
68.63217 283
68.65229 272
68.6724 273
68.69251 249
68.71263 245
68.73274 249
68.75286 265
68.77297 219
68.79308 232
68.8132 249
68.83331 236
68.85342 232
68.87354 248
68.89365 216
68.91376 250
68.93388 219
68.95399 229
68.97411 253
68.99422 231
69.01433 220
69.03445 212
69.05456 217
69.07467 241
69.09479 223
69.1149 227
69.13502 213
69.15513 209
69.17524 208
69.19536 223
69.21547 199
69.23558 226
69.2557 224
69.27581 225
69.29593 223
69.31604 204
69.33615 208
69.35627 219
69.37638 227
69.39649 197
69.41661 203
69.43672 201
69.45683 203
69.47695 220
69.49706 217
69.51718 216
69.53729 224
69.5574 236
69.57752 241
69.59763 195
69.61774 222
69.63786 235
69.65797 188
69.67809 230
69.6982 202
69.71831 223
69.73843 207
69.75854 210
69.77865 225
69.79877 176
69.81888 209
69.839 223
69.85911 233
69.87922 210
69.89934 230
69.91945 217
69.93956 232
69.95968 208
69.97979 214
69.9999 187
70.02002 233
70.04013 226
70.06025 208
70.08036 214
70.10047 207
70.12059 244
70.1407 222
70.16081 227
70.18093 213
70.20104 225
70.22116 210
70.24127 244
70.26138 217
70.2815 218
70.30161 201
70.32172 203
70.34184 211
70.36195 217
70.38207 221
70.40218 212
70.42229 216
70.44241 198
70.46252 202
70.48263 223
70.50275 207
70.52286 209
70.54297 219
70.56309 194
70.5832 231
70.60332 196
70.62343 192
70.64354 202
70.66366 206
70.68377 185
70.70388 241
70.724 194
70.74411 210
70.76423 186
70.78434 193
70.80445 234
70.82457 218
70.84468 196
70.86479 203
70.88491 192
70.90502 213
70.92513 200
70.94525 202
70.96536 211
70.98548 207
71.00559 207
71.0257 187
71.04582 203
71.06593 202
71.08604 185
71.10616 212
71.12627 187
71.14639 213
71.1665 197
71.18661 185
71.20673 220
71.22684 190
71.24695 190
71.26707 194
71.28718 181
71.3073 207
71.32741 200
71.34752 212
71.36764 190
71.38775 196
71.40786 216
71.42798 197
71.44809 225
71.4682 207
71.48832 193
71.50843 202
71.52855 207
71.54866 202
71.56877 207
71.58889 189
71.609 204
71.62911 226
71.64923 220
71.66934 238
71.68946 234
71.70957 215
71.72968 212
71.7498 207
71.76991 204
71.79002 219
71.81014 210
71.83025 217
71.85037 188
71.87048 221
71.89059 191
71.91071 202
71.93082 243
71.95093 208
71.97105 207
71.99116 203
72.01127 214
72.03139 208
72.0515 223
72.07162 221
72.09173 229
72.11184 209
72.13196 230
72.15207 227
72.17218 231
72.1923 207
72.21241 215
72.23253 202
72.25264 228
72.27275 220
72.29287 214
72.31298 239
72.33309 214
72.35321 210
72.37332 214
72.39344 241
72.41355 218
72.43366 222
72.45378 223
72.47389 209
72.494 205
72.51412 191
72.53423 207
72.55434 188
72.57446 208
72.59457 216
72.61469 217
72.6348 226
72.65491 193
72.67503 229
72.69514 198
72.71525 199
72.73537 198
72.75548 241
72.7756 219
72.79571 189
72.81582 188
72.83594 210
72.85605 205
72.87616 221
72.89628 220
72.91639 190
72.9365 212
72.95662 229
72.97673 213
72.99685 221
73.01696 218
73.03707 218
73.05719 226
73.0773 222
73.09741 215
73.11753 239
73.13764 220
73.15776 221
73.17787 213
73.19798 284
73.2181 273
73.23821 272
73.25832 280
73.27844 297
73.29855 300
73.31867 339
73.33878 380
73.35889 435
73.37901 470
73.39912 500
73.41923 473
73.43935 492
73.45946 525
73.47957 490
73.49969 406
73.5198 346
73.53992 322
73.56003 318
73.58014 356
73.60026 352
73.62037 400
73.64048 374
73.6606 355
73.68071 340
73.70083 321
73.72094 285
73.74105 255
73.76117 264
73.78128 242
73.80139 209
73.82151 204
73.84162 192
73.86174 247
73.88185 219
73.90196 213
73.92208 213
73.94219 209
73.9623 207
73.98242 230
74.00253 225
74.02264 213
74.04276 227
74.06287 220
74.08299 196
74.1031 216
74.12321 238
74.14333 177
74.16344 203
74.18355 194
74.20367 227
74.22378 196
74.2439 197
74.26401 200
74.28412 234
74.30424 207
74.32435 195
74.34446 204
74.36458 172
74.38469 205
74.40481 190
74.42492 189
74.44503 215
74.46515 197
74.48526 214
74.50537 183
74.52549 201
74.5456 217
74.56571 188
74.58583 197
74.60594 196
74.62606 194
74.64617 190
74.66628 172
74.6864 197
74.70651 202
74.72662 210
74.74674 200
74.76685 206
74.78697 206
74.80708 215
74.82719 215
74.84731 230
74.86742 200
74.88753 218
74.90765 206
74.92776 199
74.94787 210
74.96799 189
74.9881 217
75.00822 202
