3.00117 18893
3.02128 18323
3.0414 17788
3.06151 17168
3.08162 17055
3.10174 16392
3.12185 16112
3.14197 15263
3.16208 14898
3.18219 14852
3.20231 14286
3.22242 14051
3.24253 13576
3.26265 12836
3.28276 12671
3.30288 12277
3.32299 11873
3.3431 11449
3.36322 10936
3.38333 10958
3.40344 10258
3.42356 10108
3.44367 9773
3.46379 9183
3.4839 8991
3.50401 8687
3.52413 8405
3.54424 8025
3.56435 7738
3.58447 7562
3.60458 7176
3.62469 6998
3.64481 6703
3.66492 6288
3.68504 6225
3.70515 5898
3.72526 5782
3.74538 5267
3.76549 5135
3.7856 4997
3.80572 4753
3.82583 4560
3.84595 4379
3.86606 4166
3.88617 4142
3.90629 3826
3.9264 3773
3.94651 3597
3.96663 3379
3.98674 3237
4.00686 3126
4.02697 2857
4.04708 2785
4.0672 2557
4.08731 2588
4.10742 2534
4.12754 2357
4.14765 2216
4.16776 2072
4.18788 2086
4.20799 1980
4.22811 1859
4.24822 1753
4.26833 1699
4.28845 1716
4.30856 1643
4.32867 1492
4.34879 1542
4.3689 1468
4.38902 1511
4.40913 1443
4.42924 1395
4.44936 1253
4.46947 1278
4.48958 1312
4.5097 1300
4.52981 1203
4.54992 1182
4.57004 1121
4.59015 1107
4.61027 1042
4.63038 1052
4.65049 1022
4.67061 1002
4.69072 954
4.71083 975
4.73095 920
4.75106 902
4.77118 854
4.79129 941
4.8114 886
4.83152 812
4.85163 834
4.87174 758
4.89186 809
4.91197 807
4.93209 674
4.9522 764
4.97231 650
4.99243 691
5.01254 665
5.03265 599
5.05277 582
5.07288 616
5.09299 626
5.11311 603
5.13322 557
5.15334 586
5.17345 578
5.19356 598
5.21368 537
5.23379 571
5.2539 497
5.27402 494
5.29413 499
5.31425 487
5.33436 424
5.35447 455
5.37459 468
5.3947 452
5.41481 418
5.43493 409
5.45504 390
5.47516 394
5.49527 413
5.51538 415
5.5355 364
5.55561 357
5.57572 345
5.59584 364
5.61595 316
5.63606 335
5.65618 312
5.67629 361
5.69641 301
5.71652 304
5.73663 300
5.75675 279
5.77686 278
5.79697 285
5.81709 248
5.8372 258
5.85732 277
5.87743 249
5.89754 287
5.91766 272
5.93777 241
5.95788 273
5.978 230
5.99811 282
6.01823 239
6.03834 224
6.05845 236
6.07857 203
6.09868 262
6.11879 231
6.13891 230
6.15902 241
6.17913 234
6.19925 202
6.21936 236
6.23948 208
6.25959 232
6.2797 245
6.29982 257
6.31993 242
6.34004 239
6.36016 235
6.38027 226
6.40039 198
6.4205 219
6.44061 223
6.46073 219
6.48084 203
6.50095 226
6.52107 212
6.54118 222
6.56129 201
6.58141 216
6.60152 220
6.62164 249
6.64175 204
6.66186 217
6.68198 240
6.70209 199
6.7222 203
6.74232 181
6.76243 228
6.78255 203
6.80266 212
6.82277 221
6.84289 204
6.863 237
6.88311 212
6.90323 194
6.92334 212
6.94346 219
6.96357 199
6.98368 217
7.0038 208
7.02391 227
7.04402 201
7.06414 194
7.08425 216
7.10436 176
7.12448 220
7.14459 182
7.16471 228
7.18482 200
7.20493 186
7.22505 194
7.24516 192
7.26527 218
7.28539 235
7.3055 228
7.32562 202
7.34573 205
7.36584 216
7.38596 203
7.40607 221
7.42618 209
7.4463 210
7.46641 220
7.48653 193
7.50664 183
7.52675 206
7.54687 243
7.56698 205
7.58709 203
7.60721 216
7.62732 213
7.64743 206
7.66755 219
7.68766 217
7.70778 235
7.72789 229
7.748 208
7.76812 236
7.78823 219
7.80834 215
7.82846 220
7.84857 224
7.86869 231
7.8888 218
7.90891 194
7.92903 241
7.94914 228
7.96925 208
7.98937 227
8.00948 212
8.0296 230
8.04971 212
8.06982 200
8.08994 235
8.11005 230
8.13016 244
8.15028 217
8.17039 240
8.1905 251
8.21062 211
8.23073 247
8.25085 225
8.27096 218
8.29107 183
8.31119 201
8.3313 236
8.35141 226
8.37153 227
8.39164 205
8.41176 243
8.43187 206
8.45198 265
8.4721 215
8.49221 214
8.51232 240
8.53244 223
8.55255 210
8.57266 244
8.59278 225
8.61289 239
8.63301 236
8.65312 233
8.67323 252
8.69335 241
8.71346 238
8.73357 255
8.75369 271
8.7738 206
8.79392 244
8.81403 264
8.83414 222
8.85426 262
8.87437 236
8.89448 240
8.9146 221
8.93471 224
8.95483 228
8.97494 233
8.99505 241
9.01517 235
9.03528 239
9.05539 254
9.07551 203
9.09562 255
9.11573 228
9.13585 242
9.15596 225
9.17608 210
9.19619 205
9.2163 230
9.23642 231
9.25653 226
9.27664 214
9.29676 256
9.31687 195
9.33699 212
9.3571 249
9.37721 227
9.39733 242
9.41744 228
9.43755 249
9.45767 227
9.47778 233
9.4979 224
9.51801 244
9.53812 210
9.55824 210
9.57835 229
9.59846 233
9.61858 253
9.63869 219
9.6588 219
9.67892 249
9.69903 247
9.71915 265
9.73926 213
9.75937 242
9.77949 247
9.7996 250
9.81971 258
9.83983 230
9.85994 232
9.88006 240
9.90017 245
9.92028 236
9.9404 219
9.96051 256
9.98062 228
10.00074 245
10.02085 235
10.04097 256
10.06108 226
10.08119 245
10.10131 255
10.12142 219
10.14153 220
10.16165 233
10.18176 236
10.20187 233
10.22199 232
10.2421 234
10.26222 231
10.28233 250
10.30244 249
10.32256 248
10.34267 233
10.36278 211
10.3829 262
10.40301 261
10.42313 226
10.44324 219
10.46335 246
10.48347 248
10.50358 276
10.52369 251
10.54381 242
10.56392 232
10.58403 251
10.60415 244
10.62426 256
10.64438 203
10.66449 241
10.6846 227
10.70472 219
10.72483 217
10.74494 257
10.76506 243
10.78517 230
10.80529 222
10.8254 219
10.84551 234
10.86563 239
10.88574 232
10.90585 251
10.92597 257
10.94608 211
10.9662 240
10.98631 226
11.00642 251
11.02654 212
11.04665 227
11.06676 257
11.08688 264
11.10699 233
11.1271 268
11.14722 230
11.16733 268
11.18745 225
11.20756 220
11.22767 248
11.24779 262
11.2679 282
11.28801 232
11.30813 226
11.32824 253
11.34836 247
11.36847 245
11.38858 209
11.4087 204
11.42881 240
11.44892 277
11.46904 282
11.48915 259
11.50927 270
11.52938 278
11.54949 249
11.56961 262
11.58972 271
11.60983 265
11.62995 259
11.65006 262
11.67017 302
11.69029 248
11.7104 242
11.73052 252
11.75063 283
11.77074 238
11.79086 307
11.81097 272
11.83108 274
11.8512 258
11.87131 289
11.89143 281
11.91154 293
11.93165 282
11.95177 249
11.97188 259
11.99199 288
12.01211 281
12.03222 275
12.05234 283
12.07245 313
12.09256 289
12.11268 302
12.13279 308
12.1529 334
12.17302 328
12.19313 304
12.21324 309
12.23336 320
12.25347 281
12.27359 290
12.2937 299
12.31381 306
12.33393 293
12.35404 285
12.37415 263
12.39427 324
12.41438 266
12.4345 288
12.45461 271
12.47472 282
12.49484 291
12.51495 239
12.53506 252
12.55518 244
12.57529 263
12.5954 249
12.61552 232
12.63563 229
12.65575 249
12.67586 241
12.69597 240
12.71609 226
12.7362 250
12.75631 220
12.77643 238
12.79654 237
12.81666 201
12.83677 220
12.85688 231
12.877 245
12.89711 222
12.91722 218
12.93734 200
12.95745 220
12.97757 239
12.99768 236
13.01779 229
13.03791 248
13.05802 266
13.07813 288
13.09825 260
13.11836 296
13.13847 278
13.15859 253
13.1787 257
13.19882 247
13.21893 226
13.23904 252
13.25916 216
13.27927 218
13.29938 225
13.3195 205
13.33961 219
13.35973 227
13.37984 219
13.39995 230
13.42007 211
13.44018 219
13.46029 197
13.48041 226
13.50052 220
13.52064 229
13.54075 228
13.56086 273
13.58098 288
13.60109 303
13.6212 260
13.64132 313
13.66143 302
13.68154 298
13.70166 248
13.72177 251
13.74189 257
13.762 240
13.78211 248
13.80223 248
13.82234 209
13.84245 224
13.86257 238
13.88268 218
13.9028 239
13.92291 202
13.94302 226
13.96314 236
13.98325 212
14.00336 208
14.02348 207
14.04359 208
14.06371 203
14.08382 243
14.10393 179
14.12405 235
14.14416 206
14.16427 186
14.18439 175
14.2045 223
14.22461 186
14.24473 194
14.26484 222
14.28496 218
14.30507 180
14.32518 208
14.3453 209
14.36541 194
14.38552 197
14.40564 181
14.42575 175
14.44587 215
14.46598 190
14.48609 219
14.50621 213
14.52632 196
14.54643 217
14.56655 214
14.58666 207
14.60677 221
14.62689 177
14.647 186
14.66712 219
14.68723 181
14.70734 202
14.72746 190
14.74757 198
14.76768 210
14.7878 181
14.80791 205
14.82803 223
14.84814 219
14.86825 260
14.88837 258
14.90848 288
14.92859 242
14.94871 227
14.96882 259
14.98894 225
15.00905 222
15.02916 201
15.04928 217
15.06939 243
15.0895 198
15.10962 230
15.12973 195
15.14984 215
15.16996 211
15.19007 224
15.21019 207
15.2303 185
15.25041 216
15.27053 226
15.29064 204
15.31075 189
15.33087 208
15.35098 175
15.3711 188
15.39121 165
15.41132 155
15.43144 187
15.45155 212
15.47166 194
15.49178 197
15.51189 187
15.53201 187
15.55212 184
15.57223 205
15.59235 178
15.61246 168
15.63257 211
15.65269 191
15.6728 217
15.69291 185
15.71303 186
15.73314 201
15.75326 154
15.77337 185
15.79348 195
15.8136 153
15.83371 179
15.85382 207
15.87394 183
15.89405 234
15.91417 176
15.93428 167
15.95439 194
15.97451 170
15.99462 210
16.01473 188
16.03485 188
16.05496 189
16.07508 186
16.09519 196
16.1153 184
16.13542 165
16.15553 162
16.17564 187
16.19576 167
16.21587 195
16.23598 191
16.2561 181
16.27621 190
16.29633 177
16.31644 152
16.33655 157
16.35667 182
16.37678 167
16.39689 204
16.41701 191
16.43712 163
16.45724 186
16.47735 190
16.49746 175
16.51758 177
16.53769 167
16.5578 181
16.57792 165
16.59803 202
16.61814 158
16.63826 159
16.65837 155
16.67849 207
16.6986 186
16.71871 158
16.73883 164
16.75894 183
16.77905 179
16.79917 181
16.81928 178
16.8394 173
16.85951 159
16.87962 184
16.89974 202
16.91985 202
16.93996 161
16.96008 185
16.98019 173
17.00031 210
17.02042 193
17.04053 178
17.06065 176
17.08076 177
17.10087 166
17.12099 168
17.1411 171
17.16121 163
17.18133 148
17.20144 170
17.22156 178
17.24167 149
17.26178 176
17.2819 168
17.30201 177
17.32212 204
17.34224 183
17.36235 178
17.38247 186
17.40258 196
17.42269 167
17.44281 190
17.46292 169
17.48303 184
17.50315 157
17.52326 181
17.54338 173
17.56349 180
17.5836 166
17.60372 185
17.62383 186
17.64394 187
17.66406 172
17.68417 194
17.70428 168
17.7244 191
17.74451 198
17.76463 180
17.78474 174
17.80485 193
17.82497 198
17.84508 179
17.86519 176
17.88531 175
17.90542 163
17.92554 139
17.94565 191
17.96576 189
17.98588 188
18.00599 137
18.0261 180
18.04622 183
18.06633 181
18.08645 175
18.10656 186
18.12667 210
18.14679 180
18.1669 189
18.18701 156
18.20713 193
18.22724 180
18.24735 199
18.26747 173
18.28758 168
18.3077 190
18.32781 182
18.34792 199
18.36804 149
18.38815 172
18.40826 156
18.42838 191
18.44849 185
18.46861 196
18.48872 179
18.50883 186
18.52895 177
18.54906 201
18.56917 186
18.58929 192
18.6094 178
18.62951 185
18.64963 195
18.66974 189
18.68986 185
18.70997 214
18.73008 189
18.7502 177
18.77031 202
18.79042 190
18.81054 179
18.83065 223
18.85077 196
18.87088 138
18.89099 195
18.91111 169
18.93122 204
18.95133 201
18.97145 180
18.99156 190
19.01168 180
19.03179 199
19.0519 163
19.07202 198
19.09213 167
19.11224 164
19.13236 181
19.15247 176
19.17258 199
19.1927 179
19.21281 225
19.23293 187
19.25304 226
19.27315 197
19.29327 230
19.31338 221
19.33349 228
19.35361 237
19.37372 190
19.39384 228
19.41395 208
19.43406 207
19.45418 202
19.47429 214
19.4944 186
19.51452 198
19.53463 202
19.55475 231
19.57486 230
19.59497 240
19.61509 222
19.6352 225
19.65531 236
19.67543 239
19.69554 252
19.71565 254
19.73577 268
19.75588 276
19.776 282
19.79611 305
19.81622 301
19.83634 299
19.85645 329
19.87656 295
19.89668 311
19.91679 310
19.93691 318
19.95702 293
19.97713 307
19.99725 323
20.01736 307
20.03747 302
20.05759 320
20.0777 300
20.09782 312
20.11793 318
20.13804 337
20.15816 316
20.17827 321
20.19838 355
20.2185 302
20.23861 295
20.25872 303
20.27884 344
20.29895 338
20.31907 335
20.33918 342
20.35929 349
20.37941 319
20.39952 353
20.41963 386
20.43975 349
20.45986 355
20.47998 390
20.50009 446
20.5202 416
20.54032 410
20.56043 387
20.58054 505
20.60066 520
20.62077 620
20.64088 653
20.661 752
20.68111 978
20.70123 1194
20.72134 1581
20.74145 2033
20.76157 2548
20.78168 3288
20.80179 4048
20.82191 4499
20.84202 5049
20.86214 4989
20.88225 4673
20.90236 3821
20.92248 2877
20.94259 2224
20.9627 1604
20.98282 1343
21.00293 1133
21.02305 1114
21.04316 990
21.06327 903
21.08339 739
21.1035 625
21.12361 572
21.14373 488
21.16384 429
21.18395 381
21.20407 367
21.22418 374
21.2443 362
21.26441 343
21.28452 323
21.30464 320
21.32475 325
21.34486 293
21.36498 325
21.38509 323
21.40521 337
21.42532 290
21.44543 326
21.46555 302
21.48566 283
21.50577 264
21.52589 256
21.546 264
21.56612 274
21.58623 275
21.60634 261
21.62646 268
21.64657 281
21.66668 261
21.6868 274
21.70691 265
21.72702 266
21.74714 264
21.76725 282
21.78737 234
21.80748 270
21.82759 292
21.84771 284
21.86782 298
21.88793 291
21.90805 266
21.92816 314
21.94828 353
21.96839 378
21.9885 368
22.00862 344
22.02873 395
22.04884 360
22.06896 340
22.08907 345
22.10919 297
22.1293 270
22.14941 307
22.16953 327
22.18964 304
22.20975 324
22.22987 320
22.24998 385
22.27009 387
22.29021 343
22.31032 410
22.33044 382
22.35055 315
22.37066 330
22.39078 264
22.41089 270
22.431 287
22.45112 248
22.47123 291
22.49135 276
22.51146 303
22.53157 288
22.55169 273
22.5718 252
22.59191 286
22.61203 263
22.63214 280
22.65225 285
22.67237 290
22.69248 278
22.7126 272
22.73271 265
22.75282 231
22.77294 245
22.79305 218
22.81316 282
22.83328 250
22.85339 251
22.87351 271
22.89362 272
22.91373 314
22.93385 289
22.95396 318
22.97407 358
22.99419 343
23.0143 357
23.03442 346
23.05453 401
23.07464 417
23.09476 440
23.11487 463
23.13498 498
23.1551 462
23.17521 546
23.19532 519
23.21544 547
23.23555 451
23.25567 489
23.27578 370
23.29589 361
23.31601 289
23.33612 302
23.35623 283
23.37635 304
23.39646 268
23.41658 271
23.43669 261
23.4568 278
23.47692 283
23.49703 291
23.51714 308
23.53726 312
23.55737 304
23.57749 322
23.5976 302
23.61771 315
23.63783 293
23.65794 308
23.67805 304
23.69817 287
23.71828 286
23.73839 287
23.75851 305
23.77862 265
23.79874 316
23.81885 330
23.83896 397
23.85908 381
23.87919 406
23.8993 441
23.91942 500
23.93953 578
23.95965 603
23.97976 600
23.99987 631
24.01999 586
24.0401 504
24.06021 519
24.08033 449
24.10044 354
24.12056 342
24.14067 336
24.16078 356
24.1809 343
24.20101 350
24.22112 360
24.24124 384
24.26135 421
24.28146 426
24.30158 388
24.32169 395
24.34181 381
24.36192 378
24.38203 354
24.40215 344
24.42226 300
24.44237 322
24.46249 310
24.4826 270
24.50272 316
24.52283 283
24.54294 300
24.56306 278
24.58317 295
24.60328 275
24.6234 328
24.64351 398
24.66362 356
24.68374 345
24.70385 340
24.72397 413
24.74408 381
24.76419 342
24.78431 354
24.80442 356
24.82453 360
24.84465 311
24.86476 324
24.88488 355
24.90499 294
24.9251 349
24.94522 337
24.96533 366
24.98544 341
25.00556 303
25.02567 346
25.04579 249
25.0659 301
25.08601 309
25.10613 272
25.12624 321
25.14635 271
25.16647 290
25.18658 269
25.20669 289
25.22681 279
25.24692 341
25.26704 325
25.28715 340
25.30726 324
25.32738 362
25.34749 369
25.3676 411
25.38772 399
25.40783 427
25.42795 469
25.44806 576
25.46817 591
25.48829 630
25.5084 606
25.52851 662
25.54863 646
25.56874 646
25.58886 606
25.60897 635
25.62908 594
25.6492 614
25.66931 632
25.68942 591
25.70954 497
25.72965 481
25.74976 479
25.76988 448
25.78999 407
25.81011 461
25.83022 402
25.85033 434
25.87045 408
25.89056 390
25.91067 451
25.93079 393
25.9509 420
25.97102 444
25.99113 451
26.01124 479
26.03136 444
26.05147 527
26.07158 500
26.0917 536
26.11181 585
26.13193 566
26.15204 618
26.17215 664
26.19227 737
26.21238 785
26.23249 874
26.25261 920
26.27272 1032
26.29283 1189
26.31295 1386
26.33306 1634
26.35318 1744
26.37329 2198
26.3934 2602
26.41352 3153
26.43363 3794
26.45374 4850
26.47386 5970
26.49397 7622
26.51409 9420
26.5342 11720
26.55431 14612
26.57443 17332
26.59454 19971
26.61465 21587
26.63477 21976
26.65488 20077
26.67499 16834
26.69511 13058
26.71522 9710
26.73534 6749
26.75545 4222
26.77556 2602
26.79568 1803
26.81579 1508
26.8359 1236
26.85602 1118
26.87613 1136
26.89625 952
26.91636 1020
26.93647 1019
26.95659 959
26.9767 1009
26.99681 976
27.01693 1047
27.03704 1019
27.05716 1008
27.07727 1006
27.09738 944
27.1175 825
27.13761 826
27.15772 682
27.17784 716
27.19795 694
27.21806 706
27.23818 759
27.25829 743
27.27841 891
27.29852 977
27.31863 1032
27.33875 1225
27.35886 1300
27.37897 1331
27.39909 1495
27.4192 1536
27.43932 1549
27.45943 1452
27.47954 1408
27.49966 1215
27.51977 1202
27.53988 927
27.56 837
27.58011 680
27.60023 594
27.62034 547
27.64045 531
27.66057 455
27.68068 488
27.70079 507
27.72091 484
27.74102 470
27.76113 509
27.78125 485
27.80136 500
27.82148 531
27.84159 497
27.8617 542
27.88182 515
27.90193 547
27.92204 491
27.94216 479
27.96227 451
27.98239 477
28.0025 441
28.02261 409
28.04273 413
28.06284 402
28.08295 329
28.10307 355
28.12318 347
28.1433 320
28.16341 336
28.18352 334
28.20364 285
28.22375 291
28.24386 289
28.26398 269
28.28409 343
28.3042 312
28.32432 297
28.34443 271
28.36455 294
28.38466 284
28.40477 245
28.42489 265
28.445 247
28.46511 256
28.48523 284
28.50534 267
28.52546 222
28.54557 241
28.56568 248
28.5858 245
28.60591 259
28.62602 242
28.64614 237
28.66625 230
28.68636 238
28.70648 271
28.72659 256
28.74671 249
28.76682 235
28.78693 228
28.80705 225
28.82716 229
28.84727 237
28.86739 236
28.8875 242
28.90762 237
28.92773 209
28.94784 226
28.96796 244
28.98807 234
29.00818 247
29.0283 234
29.04841 238
29.06853 270
29.08864 242
29.10875 265
29.12887 267
29.14898 255
29.16909 238
29.18921 242
29.20932 248
29.22943 274
29.24955 294
29.26966 272
29.28978 295
29.30989 302
29.33 350
29.35012 332
29.37023 394
29.39034 427
29.41046 442
29.43057 430
29.45069 460
29.4708 419
29.49091 386
29.51103 352
29.53114 342
29.55125 277
29.57137 306
29.59148 265
29.6116 253
29.63171 263
29.65182 258
29.67194 248
29.69205 265
29.71216 264
29.73228 285
29.75239 277
29.7725 252
29.79262 262
29.81273 260
29.83285 277
29.85296 281
29.87307 256
29.89319 277
29.9133 276
29.93341 288
29.95353 286
29.97364 297
29.99376 291
30.01387 330
30.03398 345
30.0541 366
30.07421 363
30.09432 406
30.11444 425
30.13455 457
30.15467 472
30.17478 447
30.19489 479
30.21501 468
30.23512 449
30.25523 446
30.27535 430
30.29546 363
30.31557 322
30.33569 330
30.3558 283
30.37592 321
30.39603 294
30.41614 308
30.43626 280
30.45637 277
30.47648 269
30.4966 271
30.51671 314
30.53683 293
30.55694 305
30.57705 326
30.59717 338
30.61728 344
30.63739 364
30.65751 364
30.67762 395
30.69773 429
30.71785 463
30.73796 458
30.75808 494
30.77819 434
30.7983 447
30.81842 401
30.83853 425
30.85864 427
30.87876 405
30.89887 359
30.91899 305
30.9391 299
30.95921 285
30.97933 267
30.99944 240
31.01955 267
31.03967 264
31.05978 237
31.0799 201
31.10001 239
31.12012 226
31.14024 222
31.16035 194
31.18046 248
31.20058 221
31.22069 214
31.2408 208
31.26092 185
31.28103 244
31.30115 217
31.32126 209
31.34137 228
31.36149 184
31.3816 204
31.40171 201
31.42183 225
31.44194 203
31.46206 194
31.48217 198
31.50228 210
31.5224 204
31.54251 206
31.56262 169
31.58274 193
31.60285 238
31.62297 215
31.64308 193
31.66319 220
31.68331 184
31.70342 216
31.72353 217
31.74365 206
31.76376 219
31.78387 209
31.80399 190
31.8241 183
31.84422 202
31.86433 198
31.88444 203
31.90456 224
31.92467 214
31.94478 215
31.9649 220
31.98501 237
32.00513 209
32.02524 213
32.04535 249
32.06547 261
32.08558 283
32.10569 276
32.12581 287
32.14592 255
32.16604 247
32.18615 233
32.20626 253
32.22638 225
32.24649 238
32.2666 225
32.28672 232
32.30683 247
32.32694 249
32.34706 301
32.36717 286
32.38729 271
32.4074 309
32.42751 288
32.44763 319
32.46774 288
32.48785 271
32.50797 261
32.52808 235
32.5482 247
32.56831 275
32.58842 222
32.60854 201
32.62865 217
32.64876 187
32.66888 192
32.68899 192
32.7091 178
32.72922 198
32.74933 174
32.76945 179
32.78956 184
32.80967 187
32.82979 158
32.8499 196
32.87001 198
32.89013 163
32.91024 174
32.93036 186
32.95047 197
32.97058 192
32.9907 222
33.01081 184
33.03092 207
33.05104 195
33.07115 190
33.09127 177
33.11138 170
33.13149 203
33.15161 184
33.17172 199
33.19183 182
33.21195 190
33.23206 186
33.25217 172
33.27229 183
33.2924 169
33.31252 175
33.33263 175
33.35274 172
33.37286 200
33.39297 176
33.41308 195
33.4332 149
33.45331 172
33.47343 175
33.49354 173
33.51365 211
33.53377 175
33.55388 185
33.57399 214
33.59411 191
33.61422 195
33.63434 180
33.65445 205
33.67456 184
33.69468 200
33.71479 188
33.7349 201
33.75502 196
33.77513 205
33.79524 211
33.81536 215
33.83547 220
33.85559 243
33.8757 181
33.89581 238
33.91593 204
33.93604 204
33.95615 233
33.97627 237
33.99638 224
34.0165 261
34.03661 234
34.05672 246
34.07684 278
34.09695 309
34.11706 306
34.13718 383
34.15729 340
34.17741 366
34.19752 349
34.21763 363
34.23775 349
34.25786 302
34.27797 318
34.29809 288
34.3182 322
34.33831 288
34.35843 257
34.37854 252
34.39866 245
34.41877 222
34.43888 219
34.459 233
34.47911 225
34.49922 262
34.51934 249
34.53945 264
34.55957 279
34.57968 286
34.59979 291
34.61991 240
34.64002 289
34.66013 296
34.68025 330
34.70036 299
34.72047 296
34.74059 283
34.7607 302
34.78082 283
34.80093 295
34.82104 307
34.84116 294
34.86127 299
34.88138 301
34.9015 322
34.92161 326
34.94173 328
34.96184 287
34.98195 294
35.00207 298
35.02218 257
35.04229 295
35.06241 339
35.08252 310
35.10264 287
35.12275 313
35.14286 285
35.16298 280
35.18309 292
35.2032 287
35.22332 299
35.24343 322
35.26354 264
35.28366 333
35.30377 291
35.32389 300
35.344 312
35.36411 340
35.38423 359
35.40434 342
35.42445 342
35.44457 367
35.46468 381
35.4848 378
35.50491 370
35.52502 385
35.54514 395
35.56525 351
35.58536 337
35.60548 345
35.62559 339
35.64571 311
35.66582 305
35.68593 289
35.70605 277
35.72616 272
35.74627 274
35.76639 289
35.7865 279
35.80661 284
35.82673 280
35.84684 268
35.86696 253
35.88707 290
35.90718 297
35.9273 237
35.94741 259
35.96752 259
35.98764 239
36.00775 250
36.02787 262
36.04798 234
36.06809 231
36.08821 213
36.10832 249
36.12843 258
36.14855 257
36.16866 288
36.18878 310
36.20889 296
36.229 323
36.24912 357
36.26923 377
36.28934 460
36.30946 461
36.32957 550
36.34968 591
36.3698 674
36.38991 799
36.41003 874
36.43014 1047
36.45025 1105
36.47037 1330
36.49048 1470
36.51059 1586
36.53071 1618
36.55082 1404
36.57094 1295
36.59105 1017
36.61116 957
36.63128 863
36.65139 695
36.6715 527
36.69162 449
36.71173 381
36.73184 345
36.75196 296
36.77207 279
36.79219 335
36.8123 315
36.83241 306
36.85253 306
36.87264 313
36.89275 311
36.91287 346
36.93298 312
36.9531 341
36.97321 297
36.99332 314
37.01344 313
37.03355 314
37.05366 278
37.07378 273
37.09389 287
37.11401 247
37.13412 252
37.15423 252
37.17435 232
37.19446 216
37.21457 218
37.23469 243
37.2548 229
37.27491 221
37.29503 194
37.31514 220
37.33526 232
37.35537 210
37.37548 227
37.3956 207
37.41571 210
37.43582 213
37.45594 218
37.47605 220
37.49617 269
37.51628 218
37.53639 225
37.55651 225
37.57662 221
37.59673 231
37.61685 229
37.63696 240
37.65708 222
37.67719 230
37.6973 232
37.71742 230
37.73753 202
37.75764 229
37.77776 228
37.79787 222
37.81798 209
37.8381 206
37.85821 230
37.87833 215
37.89844 205
37.91855 245
37.93867 204
37.95878 206
37.97889 188
37.99901 242
38.01912 227
38.03924 221
38.05935 196
38.07946 210
38.09958 194
38.11969 226
38.1398 208
38.15992 209
38.18003 199
38.20015 233
38.22026 224
38.24037 218
38.26049 240
38.2806 266
38.30071 216
38.32083 264
38.34094 273
38.36105 231
38.38117 265
38.40128 277
38.4214 266
38.44151 271
38.46162 268
38.48174 310
38.50185 280
38.52196 288
38.54208 259
38.56219 297
38.58231 298
38.60242 267
38.62253 276
38.64265 231
38.66276 223
38.68287 237
38.70299 222
38.7231 203
38.74321 237
38.76333 224
38.78344 208
38.80356 237
38.82367 221
38.84378 240
38.8639 239
38.88401 225
38.90412 202
38.92424 226
38.94435 224
38.96447 223
38.98458 230
39.00469 221
39.02481 265
39.04492 255
39.06503 296
39.08515 270
39.10526 292
39.12538 282
39.14549 330
39.1656 344
39.18572 386
39.20583 382
39.22594 416
39.24606 472
39.26617 579
39.28628 625
39.3064 735
39.32651 850
39.34663 927
39.36674 1085
39.38685 1219
39.40697 1307
39.42708 1494
39.44719 1456
39.46731 1476
39.48742 1205
39.50754 1059
39.52765 945
39.54776 795
39.56788 707
39.58799 592
39.6081 439
39.62822 332
39.64833 285
39.66845 278
39.68856 256
39.70867 250
39.72879 207
39.7489 232
39.76901 207
39.78913 204
39.80924 207
39.82935 211
39.84947 237
39.86958 231
39.8897 263
39.90981 244
39.92992 244
39.95004 229
39.97015 248
39.99026 295
40.01038 289
40.03049 322
40.05061 326
40.07072 386
40.09083 384
40.11095 391
40.13106 449
40.15117 549
40.17129 526
40.1914 645
40.21152 713
40.23163 721
40.25174 791
40.27186 833
40.29197 786
40.31208 665
40.3322 593
40.35231 542
40.37242 506
40.39254 449
40.41265 376
40.43277 337
40.45288 279
40.47299 240
40.49311 249
40.51322 231
40.53333 221
40.55345 208
40.57356 210
40.59368 189
40.61379 210
40.6339 195
40.65402 213
40.67413 220
40.69424 206
40.71436 184
40.73447 191
40.75458 186
40.7747 196
40.79481 232
40.81493 198
40.83504 163
40.85515 192
40.87527 182
40.89538 217
40.91549 220
40.93561 178
40.95572 176
40.97584 175
40.99595 207
41.01606 187
41.03618 223
41.05629 231
41.0764 210
41.09652 186
41.11663 175
41.13675 208
41.15686 215
41.17697 183
41.19709 202
41.2172 193
41.23731 188
41.25743 202
41.27754 210
41.29765 194
41.31777 199
41.33788 181
41.358 185
41.37811 205
41.39822 231
41.41834 180
41.43845 216
41.45856 202
41.47868 273
41.49879 257
41.51891 278
41.53902 245
41.55913 230
41.57925 238
41.59936 298
41.61947 299
41.63959 298
41.6597 329
41.67982 367
41.69993 349
41.72004 428
41.74016 443
41.76027 465
41.78038 425
41.8005 466
41.82061 395
41.84072 391
41.86084 349
41.88095 317
41.90107 306
41.92118 283
41.94129 278
41.96141 272
41.98152 262
42.00163 243
42.02175 262
42.04186 235
42.06198 231
42.08209 248
42.1022 239
42.12232 272
42.14243 282
42.16254 316
42.18266 332
42.20277 361
42.22289 401
42.243 435
42.26311 497
42.28323 578
42.30334 628
42.32345 718
42.34357 780
42.36368 911
42.38379 1006
42.40391 1087
42.42402 1048
42.44414 1077
42.46425 985
42.48436 793
42.50448 693
42.52459 693
42.5447 589
42.56482 546
42.58493 456
42.60505 350
42.62516 332
42.64527 300
42.66539 261
42.6855 262
42.70561 265
42.72573 251
42.74584 267
42.76595 257
42.78607 252
42.80618 226
42.8263 228
42.84641 206
42.86652 207
42.88664 211
42.90675 234
42.92686 211
42.94698 215
42.96709 197
42.98721 188
43.00732 173
43.02743 231
43.04755 213
43.06766 200
43.08777 186
43.10789 202
43.128 189
43.14812 189
43.16823 209
43.18834 203
43.20846 190
43.22857 193
43.24868 185
43.2688 213
43.28891 203
43.30902 193
43.32914 210
43.34925 205
43.36937 196
43.38948 208
43.40959 199
43.42971 206
43.44982 212
43.46993 203
43.49005 215
43.51016 209
43.53028 203
43.55039 214
43.5705 207
43.59062 198
43.61073 178
43.63084 177
43.65096 188
43.67107 192
43.69119 163
43.7113 184
43.73141 156
43.75153 174
43.77164 181
43.79175 158
43.81187 182
43.83198 220
43.85209 189
43.87221 188
43.89232 199
43.91244 199
43.93255 183
43.95266 202
43.97278 191
43.99289 202
44.013 206
44.03312 189
44.05323 197
44.07335 192
44.09346 186
44.11357 180
44.13369 222
44.1538 200
44.17391 194
44.19403 212
44.21414 205
44.23426 192
44.25437 207
44.27448 199
44.2946 178
44.31471 174
44.33482 197
44.35494 168
44.37505 187
44.39516 192
44.41528 178
44.43539 212
44.45551 195
44.47562 170
44.49573 174
44.51585 188
44.53596 170
44.55607 185
44.57619 200
44.5963 192
44.61642 186
44.63653 185
44.65664 184
44.67676 198
44.69687 186
44.71698 165
44.7371 178
44.75721 166
44.77732 160
44.79744 165
44.81755 175
44.83767 186
44.85778 172
44.87789 183
44.89801 181
44.91812 173
44.93823 186
44.95835 182
44.97846 158
44.99858 192
45.01869 194
45.0388 164
45.05892 193
45.07903 165
45.09914 177
45.11926 176
45.13937 194
45.15949 193
45.1796 182
45.19971 178
45.21983 206
45.23994 233
45.26005 200
45.28017 208
45.30028 198
45.32039 229
45.34051 238
45.36062 246
45.38074 244
45.40085 246
45.42096 299
45.44108 322
45.46119 305
45.4813 301
45.50142 338
45.52153 338
45.54165 363
45.56176 390
45.58187 450
45.60199 470
45.6221 524
45.64221 531
45.66233 595
45.68244 665
45.70256 719
45.72267 738
45.74278 765
45.7629 828
45.78301 794
45.80312 726
45.82324 644
45.84335 525
45.86346 535
45.88358 496
45.90369 426
45.92381 394
45.94392 323
45.96403 268
45.98415 229
46.00426 229
46.02437 242
46.04449 194
46.0646 192
46.08472 207
46.10483 239
46.12494 215
46.14506 209
46.16517 217
46.18528 208
46.2054 202
46.22551 214
46.24563 203
46.26574 222
46.28585 200
46.30597 215
46.32608 200
46.34619 206
46.36631 184
46.38642 168
46.40653 178
46.42665 172
46.44676 180
46.46688 201
46.48699 184
46.5071 180
46.52722 178
46.54733 191
46.56744 181
46.58756 142
46.60767 179
46.62779 148
46.6479 161
46.66801 180
46.68813 174
46.70824 190
46.72835 176
46.74847 202
46.76858 206
46.78869 196
46.80881 168
46.82892 172
46.84904 181
46.86915 213
46.88926 179
46.90938 192
46.92949 205
46.9496 218
46.96972 190
46.98983 205
47.00995 213
47.03006 213
47.05017 244
47.07029 233
47.0904 223
47.11051 225
47.13063 213
47.15074 236
47.17086 232
47.19097 212
47.21108 195
47.2312 193
47.25131 234
47.27142 205
47.29154 219
47.31165 225
47.33176 211
47.35188 205
47.37199 214
47.39211 228
47.41222 212
47.43233 193
47.45245 200
47.47256 209
47.49267 177
47.51279 205
47.5329 204
47.55302 194
47.57313 192
47.59324 187
47.61336 161
47.63347 186
47.65358 190
47.6737 205
47.69381 184
47.71393 143
47.73404 163
47.75415 170
47.77427 167
47.79438 166
47.81449 167
47.83461 162
47.85472 170
47.87483 186
47.89495 184
47.91506 178
47.93518 182
47.95529 187
47.9754 180
47.99552 194
48.01563 175
48.03574 165
48.05586 173
48.07597 194
48.09609 188
48.1162 174
48.13631 185
48.15643 173
48.17654 192
48.19665 173
48.21677 185
48.23688 175
48.257 182
48.27711 203
48.29722 182
48.31734 201
48.33745 160
48.35756 195
48.37768 188
48.39779 179
48.4179 167
48.43802 175
48.45813 171
48.47825 178
48.49836 173
48.51847 180
48.53859 192
48.5587 185
48.57881 171
48.59893 206
48.61904 178
48.63916 189
48.65927 199
48.67938 191
48.6995 208
48.71961 233
48.73972 224
48.75984 201
48.77995 250
48.80006 209
48.82018 254
48.84029 238
48.86041 215
48.88052 209
48.90063 253
48.92075 215
48.94086 215
48.96097 238
48.98109 240
49.0012 209
49.02132 222
49.04143 224
49.06154 228
49.08166 198
49.10177 220
49.12188 204
49.142 232
49.16211 219
49.18223 198
49.20234 207
49.22245 220
49.24257 196
49.26268 237
49.28279 203
49.30291 208
49.32302 194
49.34313 209
49.36325 180
49.38336 187
49.40348 178
49.42359 177
49.4437 177
49.46382 199
49.48393 220
49.50404 201
49.52416 233
49.54427 197
49.56439 248
49.5845 220
49.60461 213
49.62473 239
49.64484 249
49.66495 271
49.68507 288
49.70518 317
49.7253 338
49.74541 363
49.76552 388
49.78564 382
49.80575 467
49.82586 485
49.84598 538
49.86609 591
49.8862 672
49.90632 752
49.92643 894
49.94655 1051
49.96666 1165
49.98677 1324
50.00689 1469
50.027 1722
50.04711 1801
50.06723 2091
50.08734 2252
50.10746 2253
50.12757 2278
50.14768 2027
50.1678 1715
50.18791 1376
50.20802 1298
50.22814 1224
50.24825 1117
50.26837 1005
50.28848 902
50.30859 691
50.32871 555
50.34882 430
50.36893 438
50.38905 428
50.40916 389
50.42927 408
50.44939 421
50.4695 435
50.48962 483
50.50973 470
50.52984 394
50.54996 436
50.57007 450
50.59018 428
50.6103 392
50.63041 388
50.65053 381
50.67064 333
50.69075 321
50.71087 300
50.73098 316
50.75109 299
50.77121 290
50.79132 283
50.81143 286
50.83155 269
50.85166 275
50.87178 263
50.89189 264
50.912 277
50.93212 257
50.95223 245
50.97234 240
50.99246 233
51.01257 212
51.03269 210
51.0528 233
51.07291 209
51.09303 213
51.11314 207
51.13325 194
51.15337 204
51.17348 207
51.1936 202
51.21371 219
51.23382 193
51.25394 198
51.27405 196
51.29416 202
51.31428 190
51.33439 190
51.3545 173
51.37462 205
51.39473 183
51.41485 167
51.43496 160
51.45507 148
51.47519 161
51.4953 170
51.51541 158
51.53553 172
51.55564 170
51.57576 171
51.59587 155
51.61598 148
51.6361 158
51.65621 173
51.67632 146
51.69644 175
51.71655 172
51.73667 174
51.75678 173
51.77689 161
51.79701 161
51.81712 152
51.83723 171
51.85735 166
51.87746 151
51.89757 143
51.91769 173
51.9378 157
51.95792 153
51.97803 159
51.99814 157
52.01826 165
52.03837 186
52.05848 156
52.0786 148
52.09871 144
52.11883 161
52.13894 159
52.15905 166
52.17917 151
52.19928 156
52.21939 194
52.23951 164
52.25962 171
52.27974 149
52.29985 180
52.31996 155
52.34008 168
52.36019 153
52.3803 174
52.40042 194
52.42053 176
52.44064 147
52.46076 170
52.48087 178
52.50099 181
52.5211 193
52.54121 177
52.56133 193
52.58144 170
52.60155 177
52.62167 158
52.64178 170
52.6619 176
52.68201 176
52.70212 191
52.72224 175
52.74235 202
52.76246 192
52.78258 193
52.80269 166
52.8228 171
52.84292 185
52.86303 193
52.88315 178
52.90326 182
52.92337 172
52.94349 159
52.9636 175
52.98371 174
53.00383 167
53.02394 171
53.04406 183
53.06417 177
53.08428 167
53.1044 161
53.12451 176
53.14462 197
53.16474 181
53.18485 179
53.20497 176
53.22508 161
53.24519 188
53.26531 160
53.28542 187
53.30553 188
53.32565 180
53.34576 193
53.36587 184
53.38599 179
53.4061 195
53.42622 209
53.44633 172
53.46644 164
53.48656 171
53.50667 158
53.52678 166
53.5469 172
53.56701 162
53.58713 180
53.60724 172
53.62735 194
53.64747 194
53.66758 192
53.68769 175
53.70781 185
53.72792 195
53.74804 175
53.76815 157
53.78826 179
53.80838 181
53.82849 181
53.8486 187
53.86872 192
53.88883 158
53.90894 199
53.92906 173
53.94917 170
53.96929 188
53.9894 176
54.00951 206
54.02963 198
54.04974 202
54.06985 208
54.08997 187
54.11008 202
54.1302 227
54.15031 209
54.17042 197
54.19054 194
54.21065 221
54.23076 203
54.25088 207
54.27099 191
54.29111 215
54.31122 196
54.33133 193
54.35145 185
54.37156 207
54.39167 177
54.41179 220
54.4319 221
54.45201 209
54.47213 232
54.49224 224
54.51236 247
54.53247 269
54.55258 271
54.5727 287
54.59281 320
54.61292 328
54.63304 338
54.65315 382
54.67327 385
54.69338 452
54.71349 508
54.73361 550
54.75372 601
54.77383 670
54.79395 702
54.81406 804
54.83417 768
54.85429 803
54.8744 708
54.89452 646
54.91463 569
54.93474 528
54.95486 527
54.97497 535
54.99508 471
55.0152 472
55.03531 426
55.05543 351
55.07554 356
55.09565 302
55.11577 316
55.13588 333
55.15599 335
55.17611 363
55.19622 387
55.21634 411
55.23645 414
55.25656 438
55.27668 451
55.29679 491
55.3169 441
55.33702 434
55.35713 398
55.37724 363
55.39736 313
55.41747 375
55.43759 346
55.4577 298
55.47781 282
55.49793 286
55.51804 299
55.53815 237
55.55827 208
55.57838 236
55.5985 229
55.61861 205
55.63872 192
55.65884 182
55.67895 188
55.69906 198
55.71918 181
55.73929 177
55.75941 186
55.77952 201
55.79963 163
55.81975 184
55.83986 148
55.85997 157
55.88009 173
55.9002 177
55.92031 167
55.94043 185
55.96054 175
55.98066 170
56.00077 195
56.02088 200
56.041 173
56.06111 183
56.08122 192
56.10134 197
56.12145 198
56.14157 162
56.16168 159
56.18179 166
56.20191 149
56.22202 167
56.24213 176
56.26225 153
56.28236 195
56.30248 173
56.32259 179
56.3427 181
56.36282 184
56.38293 164
56.40304 191
56.42316 171
56.44327 190
56.46338 156
56.4835 173
56.50361 178
56.52373 164
56.54384 146
56.56395 178
56.58407 148
56.60418 180
56.62429 189
56.64441 195
56.66452 168
56.68464 196
56.70475 197
56.72486 202
56.74498 201
56.76509 173
56.7852 168
56.80532 199
56.82543 173
56.84554 175
56.86566 192
56.88577 183
56.90589 184
56.926 169
56.94611 180
56.96623 175
56.98634 176
57.00645 170
57.02657 197
57.04668 201
57.0668 195
57.08691 202
57.10702 207
57.12714 179
57.14725 195
57.16736 208
57.18748 197
57.20759 233
57.22771 204
57.24782 180
57.26793 214
57.28805 193
57.30816 208
57.32827 223
57.34839 211
57.3685 197
57.38861 185
57.40873 200
57.42884 187
57.44896 171
57.46907 170
57.48918 178
57.5093 194
57.52941 197
57.54952 174
57.56964 169
57.58975 184
57.60987 177
57.62998 154
57.65009 163
57.67021 146
57.69032 167
57.71043 151
57.73055 165
57.75066 149
57.77078 176
57.79089 195
57.811 180
57.83112 190
57.85123 161
57.87134 155
57.89146 153
57.91157 159
57.93168 165
57.9518 174
57.97191 168
57.99203 183
58.01214 184
58.03225 178
58.05237 172
58.07248 183
58.09259 155
58.11271 182
58.13282 196
58.15294 189
58.17305 187
58.19316 194
58.21328 186
58.23339 168
58.2535 179
58.27362 176
58.29373 192
58.31385 153
58.33396 167
58.35407 169
58.37419 181
58.3943 178
58.41441 171
58.43453 182
58.45464 181
58.47475 170
58.49487 209
58.51498 172
58.5351 202
58.55521 179
58.57532 203
58.59544 205
58.61555 204
58.63566 203
58.65578 170
58.67589 199
58.69601 169
58.71612 171
58.73623 207
58.75635 180
58.77646 213
58.79657 203
58.81669 179
58.8368 171
58.85691 179
58.87703 141
58.89714 157
58.91726 195
58.93737 157
58.95748 172
58.9776 169
58.99771 174
59.01782 176
59.03794 180
59.05805 170
59.07817 182
59.09828 161
59.11839 164
59.13851 187
59.15862 175
59.17873 159
59.19885 164
59.21896 163
59.23908 165
59.25919 177
59.2793 187
59.29942 198
59.31953 198
59.33964 210
59.35976 218
59.37987 223
59.39998 214
59.4201 208
59.44021 232
59.46033 254
59.48044 223
59.50055 252
59.52067 260
59.54078 318
59.56089 300
59.58101 345
59.60112 382
59.62124 373
59.64135 390
59.66146 439
59.68158 463
59.70169 514
59.7218 568
59.74192 698
59.76203 720
59.78215 893
59.80226 980
59.82237 1047
59.84249 1193
59.8626 1343
59.88271 1402
59.90283 1538
59.92294 1558
59.94305 1379
59.96317 1294
59.98328 1145
60.0034 958
60.02351 849
60.04362 854
60.06374 813
60.08385 815
60.10396 729
60.12408 615
60.14419 543
60.16431 438
60.18442 329
60.20453 289
60.22465 246
60.24476 202
60.26487 219
60.28499 212
60.3051 204
60.32522 234
60.34533 199
60.36544 178
60.38556 176
60.40567 189
60.42578 214
60.4459 156
60.46601 182
60.48612 171
60.50624 169
60.52635 175
60.54647 167
60.56658 175
60.58669 177
60.60681 175
60.62692 155
60.64703 185
60.66715 172
60.68726 175
60.70738 171
60.72749 170
60.7476 194
60.76772 172
60.78783 169
60.80794 186
60.82806 189
60.84817 177
60.86828 195
60.8884 176
60.90851 204
60.92863 186
60.94874 189
60.96885 196
60.98897 202
61.00908 190
61.02919 227
61.04931 219
61.06942 211
61.08954 224
61.10965 231
61.12976 234
61.14988 227
61.16999 226
61.1901 240
61.21022 210
61.23033 194
61.25045 211
61.27056 211
61.29067 223
61.31079 178
61.3309 163
61.35101 187
61.37113 167
61.39124 152
61.41135 170
61.43147 152
61.45158 166
61.4717 184
61.49181 181
61.51192 158
61.53204 165
61.55215 149
61.57226 185
61.59238 171
61.61249 187
61.63261 173
61.65272 171
61.67283 158
61.69295 210
61.71306 189
61.73317 185
61.75329 167
61.7734 202
61.79352 207
61.81363 193
61.83374 162
61.85386 176
61.87397 192
61.89408 195
61.9142 201
61.93431 185
61.95442 164
61.97454 187
61.99465 213
62.01477 181
62.03488 197
62.05499 158
62.07511 189
62.09522 226
62.11533 191
62.13545 234
62.15556 200
62.17568 214
62.19579 203
62.2159 207
62.23602 185
62.25613 183
62.27624 190
62.29636 182
62.31647 191
62.33659 209
62.3567 190
62.37681 197
62.39693 209
62.41704 179
62.43715 193
62.45727 216
62.47738 199
62.49749 195
62.51761 206
62.53772 199
62.55784 183
62.57795 184
62.59806 180
62.61818 203
62.63829 176
62.6584 217
62.67852 207
62.69863 196
62.71875 190
62.73886 197
62.75897 209
62.77909 165
62.7992 203
62.81931 196
62.83943 183
62.85954 208
62.87965 220
62.89977 202
62.91988 198
62.94 210
62.96011 201
62.98022 214
63.00034 218
63.02045 232
63.04056 210
63.06068 216
63.08079 200
63.10091 218
63.12102 207
63.14113 226
63.16125 207
63.18136 207
63.20147 207
63.22159 214
63.2417 204
63.26182 193
63.28193 198
63.30204 190
63.32216 182
63.34227 200
63.36238 184
63.3825 198
63.40261 182
63.42272 194
63.44284 198
63.46295 184
63.48307 168
63.50318 184
63.52329 171
63.54341 205
63.56352 179
63.58363 229
63.60375 208
63.62386 206
63.64398 249
63.66409 217
63.6842 239
63.70432 243
63.72443 246
63.74454 246
63.76466 302
63.78477 269
63.80489 305
63.825 325
63.84511 330
63.86523 353
63.88534 383
63.90545 399
63.92557 415
63.94568 441
63.96579 425
63.98591 435
64.00602 443
64.02614 431
64.04625 422
64.06636 347
64.08648 331
64.10659 304
64.1267 368
64.14682 325
64.16693 295
64.18705 256
64.20716 279
64.22727 251
64.24739 256
64.2675 214
64.28761 177
64.30773 166
64.32784 174
64.34796 159
64.36807 181
64.38818 145
64.4083 169
64.42841 157
64.44852 150
64.46864 159
64.48875 151
64.50886 188
64.52898 160
64.54909 135
64.56921 154
64.58932 159
64.60943 161
64.62955 158
64.64966 143
64.66977 161
64.68989 171
64.71 154
64.73012 169
64.75023 170
64.77034 170
64.79046 143
64.81057 179
64.83068 158
64.8508 166
64.87091 172
64.89102 179
64.91114 174
64.93125 168
64.95137 196
64.97148 163
64.99159 177
65.01171 179
65.03182 170
65.05193 188
65.07205 197
65.09216 182
65.11228 197
65.13239 193
65.1525 204
65.17262 197
65.19273 207
65.21284 195
65.23296 218
65.25307 190
65.27319 209
65.2933 212
65.31341 195
65.33353 205
65.35364 200
65.37375 203
65.39387 193
65.41398 187
65.43409 188
65.45421 207
65.47432 173
65.49444 196
65.51455 192
65.53466 188
65.55478 202
65.57489 186
65.595 192
65.61512 198
65.63523 203
65.65535 194
65.67546 198
65.69557 217
65.71569 191
65.7358 216
65.75591 217
65.77603 225
65.79614 219
65.81626 207
65.83637 209
65.85648 175
65.8766 193
65.89671 207
65.91682 194
65.93694 187
65.95705 204
65.97716 178
65.99728 175
66.01739 181
66.03751 174
66.05762 165
66.07773 221
66.09785 175
66.11796 187
66.13807 186
66.15819 191
66.1783 206
66.19842 189
66.21853 211
66.23864 202
66.25876 222
66.27887 205
66.29898 204
66.3191 207
66.33921 197
66.35933 176
66.37944 207
66.39955 186
66.41967 224
66.43978 190
66.45989 188
66.48001 208
66.50012 170
66.52023 183
66.54035 164
66.56046 154
66.58058 176
66.60069 158
66.6208 181
66.64092 175
66.66103 178
66.68114 179
66.70126 174
66.72137 194
66.74149 172
66.7616 155
66.78171 181
66.80183 171
66.82194 192
66.84205 168
66.86217 186
66.88228 201
66.90239 188
66.92251 170
66.94262 175
66.96274 186
66.98285 160
67.00296 205
67.02308 177
67.04319 166
67.0633 197
67.08342 188
67.10353 216
67.12365 170
67.14376 217
67.16387 175
67.18399 190
67.2041 218
67.22421 212
67.24433 199
67.26444 237
67.28456 223
67.30467 212
67.32478 245
67.3449 237
67.36501 275
67.38512 291
67.40524 299
67.42535 330
67.44546 364
67.46558 346
67.48569 403
67.50581 493
67.52592 495
67.54603 562
67.56615 605
67.58626 683
67.60637 740
67.62649 776
67.6466 857
67.66672 872
67.68683 999
67.70694 999
67.72706 977
67.74717 920
67.76728 792
67.7874 785
67.80751 715
67.82763 707
67.84774 791
67.86785 794
67.88797 826
67.90808 793
67.92819 859
67.94831 859
67.96842 909
67.98853 963
68.00865 988
68.02876 1087
68.04888 1189
68.06899 1276
68.0891 1250
68.10922 1350
68.12933 1335
68.14944 1249
68.16956 1231
68.18967 1094
68.20979 1118
68.2299 1167
68.25001 1113
68.27013 1155
68.29024 1159
68.31035 1020
68.33047 936
68.35058 819
68.3707 668
68.39081 567
68.41092 536
68.43104 498
68.45115 473
68.47126 475
68.49138 454
68.51149 401
68.5316 318
68.55172 302
68.57183 258
68.59195 216
68.61206 220
68.63217 203
68.65229 222
68.6724 216
68.69251 225
68.71263 187
68.73274 196
68.75286 204
68.77297 192
68.79308 185
68.8132 198
68.83331 185
68.85342 176
68.87354 156
68.89365 180
68.91376 193
68.93388 161
68.95399 195
68.97411 173
68.99422 179
69.01433 177
69.03445 165
69.05456 157
69.07467 160
69.09479 162
69.1149 158
69.13502 188
69.15513 180
69.17524 155
69.19536 149
69.21547 156
69.23558 168
69.2557 177
69.27581 139
69.29593 177
69.31604 179
69.33615 164
69.35627 148
69.37638 169
69.39649 175
69.41661 153
69.43672 156
69.45683 180
69.47695 171
69.49706 167
69.51718 163
69.53729 136
69.5574 161
69.57752 158
69.59763 173
69.61774 150
69.63786 148
69.65797 159
69.67809 147
69.6982 156
69.71831 160
69.73843 160
69.75854 175
69.77865 153
69.79877 156
69.81888 164
69.839 157
69.85911 167
69.87922 185
69.89934 168
69.91945 157
69.93956 161
69.95968 155
69.97979 150
69.9999 174
70.02002 160
70.04013 165
70.06025 151
70.08036 175
70.10047 164
70.12059 169
70.1407 162
70.16081 138
70.18093 163
70.20104 169
70.22116 152
70.24127 133
70.26138 147
70.2815 152
70.30161 159
70.32172 135
70.34184 176
70.36195 155
70.38207 170
70.40218 163
70.42229 164
70.44241 155
70.46252 152
70.48263 156
70.50275 165
70.52286 190
70.54297 144
70.56309 156
70.5832 146
70.60332 150
70.62343 156
70.64354 160
70.66366 139
70.68377 164
70.70388 183
70.724 198
70.74411 180
70.76423 172
70.78434 182
70.80445 179
70.82457 163
70.84468 170
70.86479 162
70.88491 164
70.90502 146
70.92513 134
70.94525 152
70.96536 181
70.98548 161
71.00559 168
71.0257 144
71.04582 135
71.06593 157
71.08604 161
71.10616 135
71.12627 142
71.14639 163
71.1665 154
71.18661 151
71.20673 158
71.22684 159
71.24695 171
71.26707 155
71.28718 162
71.3073 156
71.32741 165
71.34752 139
71.36764 162
71.38775 155
71.40786 170
71.42798 160
71.44809 178
71.4682 193
71.48832 169
71.50843 201
71.52855 176
71.54866 195
71.56877 145
71.58889 192
71.609 168
71.62911 162
71.64923 170
71.66934 187
71.68946 182
71.70957 160
71.72968 173
71.7498 170
71.76991 158
71.79002 176
71.81014 183
71.83025 187
71.85037 152
71.87048 174
71.89059 167
71.91071 147
71.93082 170
71.95093 180
71.97105 163
71.99116 188
72.01127 189
72.03139 199
72.0515 197
72.07162 185
72.09173 190
72.11184 183
72.13196 205
72.15207 220
72.17218 187
72.1923 210
72.21241 184
72.23253 226
72.25264 165
72.27275 183
72.29287 193
72.31298 190
72.33309 179
72.35321 190
72.37332 173
72.39344 179
72.41355 180
72.43366 160
72.45378 168
72.47389 190
72.494 157
72.51412 145
72.53423 192
72.55434 140
72.57446 171
72.59457 174
72.61469 164
72.6348 169
72.65491 177
72.67503 178
72.69514 146
72.71525 174
72.73537 161
72.75548 176
72.7756 160
72.79571 188
72.81582 145
72.83594 200
72.85605 172
72.87616 174
72.89628 188
72.91639 193
72.9365 194
72.95662 181
72.97673 184
72.99685 205
73.01696 207
73.03707 200
73.05719 218
73.0773 205
73.09741 215
73.11753 207
73.13764 236
73.15776 250
73.17787 229
73.19798 264
73.2181 250
73.23821 313
73.25832 315
73.27844 295
73.29855 335
73.31867 352
73.33878 389
73.35889 407
73.37901 413
73.39912 457
73.41923 441
73.43935 421
73.45946 396
73.47957 371
73.49969 346
73.5198 316
73.53992 326
73.56003 298
73.58014 329
73.60026 310
73.62037 313
73.64048 279
73.6606 259
73.68071 253
73.70083 264
73.72094 206
73.74105 191
73.76117 186
73.78128 162
73.80139 175
73.82151 168
73.84162 175
73.86174 163
73.88185 178
73.90196 183
73.92208 179
73.94219 173
73.9623 182
73.98242 179
74.00253 172
74.02264 181
74.04276 169
74.06287 174
74.08299 161
74.1031 153
74.12321 162
74.14333 169
74.16344 155
74.18355 150
74.20367 177
74.22378 153
74.2439 151
74.26401 175
74.28412 158
74.30424 147
74.32435 164
74.34446 159
74.36458 176
74.38469 172
74.40481 154
74.42492 156
74.44503 172
74.46515 179
74.48526 157
74.50537 163
74.52549 162
74.5456 173
74.56571 176
74.58583 186
74.60594 170
74.62606 161
74.64617 164
74.66628 179
74.6864 203
74.70651 190
74.72662 183
74.74674 154
74.76685 172
74.78697 176
74.80708 162
74.82719 162
74.84731 184
74.86742 186
74.88753 178
74.90765 181
74.92776 179
74.94787 174
74.96799 190
74.9881 171
75.00822 168
