3.00117 25866
3.02128 25682
3.0414 24656
3.06151 24338
3.08162 23359
3.10174 22692
3.12185 22478
3.14197 21875
3.16208 20436
3.18219 20397
3.20231 19740
3.22242 19091
3.24253 18888
3.26265 17867
3.28276 17694
3.30288 17135
3.32299 16697
3.3431 16160
3.36322 15606
3.38333 15092
3.40344 14625
3.42356 14181
3.44367 14059
3.46379 13026
3.4839 12964
3.50401 12515
3.52413 11904
3.54424 11577
3.56435 11153
3.58447 10683
3.60458 10353
3.62469 10225
3.64481 9936
3.66492 9234
3.68504 9044
3.70515 8591
3.72526 8366
3.74538 8145
3.76549 7669
3.7856 7334
3.80572 7184
3.82583 6875
3.84595 6542
3.86606 6196
3.88617 6083
3.90629 5766
3.9264 5704
3.94651 5446
3.96663 4911
3.98674 4815
4.00686 4773
4.02697 4497
4.04708 4370
4.0672 3855
4.08731 3938
4.10742 3699
4.12754 3630
4.14765 3550
4.16776 3118
4.18788 3064
4.20799 2992
4.22811 2806
4.24822 2960
4.26833 2547
4.28845 2486
4.30856 2453
4.32867 2333
4.34879 2408
4.3689 2057
4.38902 2064
4.40913 2126
4.42924 2156
4.44936 1932
4.46947 1752
4.48958 1742
4.5097 1847
4.52981 1703
4.54992 1733
4.57004 1567
4.59015 1503
4.61027 1534
4.63038 1460
4.65049 1505
4.67061 1313
4.69072 1293
4.71083 1348
4.73095 1328
4.75106 1284
4.77118 1180
4.79129 1237
4.8114 1234
4.83152 1201
4.85163 1105
4.87174 1098
4.89186 988
4.91197 1085
4.93209 1002
4.9522 972
4.97231 949
4.99243 945
5.01254 950
5.03265 958
5.05277 929
5.07288 937
5.09299 845
5.11311 864
5.13322 851
5.15334 805
5.17345 755
5.19356 757
5.21368 763
5.23379 740
5.2539 684
5.27402 742
5.29413 706
5.31425 705
5.33436 682
5.35447 623
5.37459 621
5.3947 659
5.41481 648
5.43493 609
5.45504 552
5.47516 592
5.49527 578
5.51538 550
5.5355 577
5.55561 539
5.57572 549
5.59584 489
5.61595 523
5.63606 545
5.65618 472
5.67629 511
5.69641 489
5.71652 478
5.73663 511
5.75675 461
5.77686 436
5.79697 410
5.81709 457
5.8372 458
5.85732 378
5.87743 470
5.89754 464
5.91766 412
5.93777 482
5.95788 427
5.978 451
5.99811 409
6.01823 414
6.03834 377
6.05845 420
6.07857 437
6.09868 395
6.11879 402
6.13891 377
6.15902 415
6.17913 454
6.19925 399
6.21936 456
6.23948 401
6.25959 388
6.2797 432
6.29982 409
6.31993 419
6.34004 383
6.36016 401
6.38027 403
6.40039 397
6.4205 357
6.44061 395
6.46073 372
6.48084 361
6.50095 370
6.52107 385
6.54118 322
6.56129 329
6.58141 368
6.60152 316
6.62164 311
6.64175 344
6.66186 354
6.68198 344
6.70209 388
6.7222 341
6.74232 351
6.76243 314
6.78255 363
6.80266 331
6.82277 349
6.84289 357
6.863 329
6.88311 309
6.90323 374
6.92334 363
6.94346 348
6.96357 321
6.98368 323
7.0038 341
7.02391 321
7.04402 325
7.06414 300
7.08425 318
7.10436 320
7.12448 297
7.14459 342
7.16471 322
7.18482 353
7.20493 327
7.22505 285
7.24516 299
7.26527 308
7.28539 336
7.3055 353
7.32562 327
7.34573 321
7.36584 342
7.38596 316
7.40607 336
7.42618 323
7.4463 350
7.46641 332
7.48653 312
7.50664 289
7.52675 317
7.54687 324
7.56698 352
7.58709 302
7.60721 326
7.62732 328
7.64743 324
7.66755 326
7.68766 303
7.70778 301
7.72789 311
7.748 338
7.76812 323
7.78823 293
7.80834 311
7.82846 325
7.84857 297
7.86869 289
7.8888 308
7.90891 334
7.92903 342
7.94914 310
7.96925 323
7.98937 293
8.00948 305
8.0296 335
8.04971 302
8.06982 290
8.08994 333
8.11005 311
8.13016 308
8.15028 314
8.17039 309
8.1905 310
8.21062 337
8.23073 315
8.25085 306
8.27096 329
8.29107 326
8.31119 315
8.3313 323
8.35141 288
8.37153 301
8.39164 328
8.41176 308
8.43187 309
8.45198 312
8.4721 302
8.49221 310
8.51232 320
8.53244 311
8.55255 349
8.57266 319
8.59278 322
8.61289 326
8.63301 306
8.65312 325
8.67323 296
8.69335 324
8.71346 363
8.73357 305
8.75369 313
8.7738 294
8.79392 329
8.81403 296
8.83414 319
8.85426 303
8.87437 306
8.89448 306
8.9146 318
8.93471 306
8.95483 288
8.97494 294
8.99505 297
9.01517 318
9.03528 323
9.05539 322
9.07551 310
9.09562 319
9.11573 331
9.13585 290
9.15596 311
9.17608 287
9.19619 318
9.2163 281
9.23642 331
9.25653 282
9.27664 309
9.29676 337
9.31687 320
9.33699 303
9.3571 311
9.37721 304
9.39733 320
9.41744 347
9.43755 326
9.45767 353
9.47778 275
9.4979 289
9.51801 303
9.53812 353
9.55824 324
9.57835 348
9.59846 317
9.61858 337
9.63869 318
9.6588 323
9.67892 296
9.69903 314
9.71915 284
9.73926 289
9.75937 271
9.77949 330
9.7996 290
9.81971 331
9.83983 304
9.85994 292
9.88006 321
9.90017 327
9.92028 288
9.9404 319
9.96051 300
9.98062 303
10.00074 315
10.02085 334
10.04097 302
10.06108 327
10.08119 306
10.10131 311
10.12142 282
10.14153 280
10.16165 305
10.18176 312
10.20187 308
10.22199 304
10.2421 274
10.26222 321
10.28233 284
10.30244 313
10.32256 327
10.34267 306
10.36278 313
10.3829 279
10.40301 320
10.42313 319
10.44324 286
10.46335 313
10.48347 313
10.50358 282
10.52369 309
10.54381 307
10.56392 298
10.58403 292
10.60415 340
10.62426 288
10.64438 280
10.66449 288
10.6846 295
10.70472 330
10.72483 276
10.74494 300
10.76506 296
10.78517 300
10.80529 289
10.8254 311
10.84551 287
10.86563 304
10.88574 307
10.90585 308
10.92597 285
10.94608 272
10.9662 307
10.98631 300
11.00642 317
11.02654 307
11.04665 331
11.06676 278
11.08688 314
11.10699 329
11.1271 299
11.14722 314
11.16733 327
11.18745 281
11.20756 325
11.22767 287
11.24779 319
11.2679 324
11.28801 310
11.30813 296
11.32824 333
11.34836 312
11.36847 307
11.38858 300
11.4087 331
11.42881 326
11.44892 308
11.46904 311
11.48915 346
11.50927 310
11.52938 321
11.54949 344
11.56961 352
11.58972 317
11.60983 301
11.62995 362
11.65006 336
11.67017 346
11.69029 363
11.7104 357
11.73052 356
11.75063 371
11.77074 349
11.79086 336
11.81097 356
11.83108 372
11.8512 360
11.87131 362
11.89143 355
11.91154 379
11.93165 372
11.95177 369
11.97188 396
11.99199 407
12.01211 409
12.03222 414
12.05234 405
12.07245 459
12.09256 451
12.11268 507
12.13279 454
12.1529 485
12.17302 518
12.19313 494
12.21324 526
12.23336 548
12.25347 516
12.27359 511
12.2937 533
12.31381 575
12.33393 538
12.35404 551
12.37415 575
12.39427 514
12.41438 538
12.4345 474
12.45461 468
12.47472 453
12.49484 442
12.51495 450
12.53506 427
12.55518 427
12.57529 408
12.5954 386
12.61552 385
12.63563 350
12.65575 333
12.67586 345
12.69597 326
12.71609 369
12.7362 340
12.75631 322
12.77643 350
12.79654 367
12.81666 318
12.83677 323
12.85688 323
12.877 328
12.89711 357
12.91722 302
12.93734 293
12.95745 304
12.97757 303
12.99768 325
13.01779 350
13.03791 298
13.05802 279
13.07813 323
13.09825 308
13.11836 265
13.13847 265
13.15859 291
13.1787 293
13.19882 286
13.21893 313
13.23904 257
13.25916 289
13.27927 270
13.29938 284
13.3195 286
13.33961 288
13.35973 289
13.37984 264
13.39995 298
13.42007 273
13.44018 282
13.46029 287
13.48041 302
13.50052 269
13.52064 264
13.54075 287
13.56086 285
13.58098 276
13.60109 288
13.6212 271
13.64132 280
13.66143 243
13.68154 265
13.70166 293
13.72177 283
13.74189 298
13.762 290
13.78211 260
13.80223 301
13.82234 280
13.84245 253
13.86257 274
13.88268 251
13.9028 287
13.92291 281
13.94302 283
13.96314 254
13.98325 285
14.00336 270
14.02348 289
14.04359 301
14.06371 292
14.08382 258
14.10393 271
14.12405 291
14.14416 284
14.16427 285
14.18439 289
14.2045 255
14.22461 282
14.24473 249
14.26484 243
14.28496 268
14.30507 236
14.32518 267
14.3453 279
14.36541 304
14.38552 295
14.40564 283
14.42575 265
14.44587 277
14.46598 290
14.48609 290
14.50621 248
14.52632 272
14.54643 246
14.56655 281
14.58666 280
14.60677 256
14.62689 316
14.647 206
14.66712 259
14.68723 241
14.70734 226
14.72746 306
14.74757 297
14.76768 280
14.7878 256
14.80791 253
14.82803 261
14.84814 269
14.86825 244
14.88837 261
14.90848 255
14.92859 295
14.94871 250
14.96882 252
14.98894 259
15.00905 261
15.02916 285
15.04928 247
15.06939 254
15.0895 238
15.10962 295
15.12973 246
15.14984 293
15.16996 258
15.19007 270
15.21019 255
15.2303 267
15.25041 281
15.27053 288
15.29064 256
15.31075 276
15.33087 291
15.35098 256
15.3711 263
15.39121 253
15.41132 286
15.43144 253
15.45155 242
15.47166 269
15.49178 265
15.51189 254
15.53201 289
15.55212 275
15.57223 294
15.59235 270
15.61246 248
15.63257 233
15.65269 280
15.6728 267
15.69291 241
15.71303 270
15.73314 262
15.75326 242
15.77337 247
15.79348 262
15.8136 260
15.83371 243
15.85382 255
15.87394 281
15.89405 287
15.91417 281
15.93428 274
15.95439 249
15.97451 274
15.99462 255
16.01473 279
16.03485 260
16.05496 261
16.07508 250
16.09519 243
16.1153 300
16.13542 260
16.15553 271
16.17564 233
16.19576 286
16.21587 248
16.23598 290
16.2561 261
16.27621 272
16.29633 278
16.31644 222
16.33655 252
16.35667 259
16.37678 256
16.39689 256
16.41701 267
16.43712 290
16.45724 258
16.47735 270
16.49746 255
16.51758 250
16.53769 272
16.5578 270
16.57792 257
16.59803 256
16.61814 248
16.63826 283
16.65837 256
16.67849 265
16.6986 252
16.71871 247
16.73883 253
16.75894 260
16.77905 283
16.79917 268
16.81928 254
16.8394 261
16.85951 231
16.87962 257
16.89974 246
16.91985 242
16.93996 254
16.96008 266
16.98019 245
17.00031 271
17.02042 245
17.04053 250
17.06065 235
17.08076 267
17.10087 245
17.12099 222
17.1411 235
17.16121 272
17.18133 261
17.20144 274
17.22156 274
17.24167 257
17.26178 234
17.2819 265
17.30201 260
17.32212 255
17.34224 220
17.36235 255
17.38247 254
17.40258 263
17.42269 276
17.44281 246
17.46292 280
17.48303 289
17.50315 263
17.52326 278
17.54338 257
17.56349 293
17.5836 237
17.60372 293
17.62383 257
17.64394 283
17.66406 252
17.68417 254
17.70428 284
17.7244 235
17.74451 273
17.76463 275
17.78474 301
17.80485 299
17.82497 270
17.84508 298
17.86519 295
17.88531 276
17.90542 285
17.92554 296
17.94565 288
17.96576 270
17.98588 290
18.00599 243
18.0261 285
18.04622 271
18.06633 312
18.08645 291
18.10656 305
18.12667 287
18.14679 289
18.1669 334
18.18701 366
18.20713 356
18.22724 325
18.24735 419
18.26747 389
18.28758 401
18.3077 449
18.32781 431
18.34792 380
18.36804 406
18.38815 431
18.40826 324
18.42838 333
18.44849 320
18.46861 312
18.48872 290
18.50883 316
18.52895 292
18.54906 254
18.56917 292
18.58929 287
18.6094 259
18.62951 279
18.64963 271
18.66974 272
18.68986 314
18.70997 276
18.73008 275
18.7502 283
18.77031 306
18.79042 270
18.81054 277
18.83065 315
18.85077 297
18.87088 262
18.89099 300
18.91111 281
18.93122 264
18.95133 279
18.97145 310
18.99156 289
19.01168 260
19.03179 262
19.0519 277
19.07202 278
19.09213 281
19.11224 293
19.13236 297
19.15247 261
19.17258 250
19.1927 292
19.21281 264
19.23293 295
19.25304 297
19.27315 263
19.29327 279
19.31338 306
19.33349 314
19.35361 254
19.37372 321
19.39384 313
19.41395 340
19.43406 325
19.45418 288
19.47429 319
19.4944 302
19.51452 300
19.53463 348
19.55475 334
19.57486 346
19.59497 355
19.61509 350
19.6352 384
19.65531 368
19.67543 409
19.69554 438
19.71565 464
19.73577 488
19.75588 529
19.776 550
19.79611 564
19.81622 572
19.83634 557
19.85645 621
19.87656 594
19.89668 649
19.91679 610
19.93691 606
19.95702 605
19.97713 616
19.99725 610
20.01736 570
20.03747 564
20.05759 586
20.0777 583
20.09782 624
20.11793 562
20.13804 590
20.15816 570
20.17827 632
20.19838 582
20.2185 599
20.23861 592
20.25872 616
20.27884 608
20.29895 632
20.31907 612
20.33918 656
20.35929 634
20.37941 613
20.39952 572
20.41963 624
20.43975 634
20.45986 619
20.47998 633
20.50009 679
20.5202 648
20.54032 644
20.56043 664
20.58054 659
20.60066 685
20.62077 741
20.64088 818
20.661 962
20.68111 1145
20.70123 1402
20.72134 1837
20.74145 2432
20.76157 3161
20.78168 4086
20.80179 5240
20.82191 6163
20.84202 6496
20.86214 6549
20.88225 5840
20.90236 4614
20.92248 3389
20.94259 2278
20.9627 1545
20.98282 1065
21.00293 899
21.02305 791
21.04316 648
21.06327 607
21.08339 595
21.1035 615
21.12361 573
21.14373 574
21.16384 533
21.18395 527
21.20407 536
21.22418 523
21.2443 490
21.26441 479
21.28452 539
21.30464 485
21.32475 503
21.34486 524
21.36498 541
21.38509 524
21.40521 496
21.42532 522
21.44543 470
21.46555 512
21.48566 508
21.50577 533
21.52589 510
21.546 466
21.56612 482
21.58623 504
21.60634 445
21.62646 502
21.64657 463
21.66668 459
21.6868 482
21.70691 477
21.72702 472
21.74714 446
21.76725 438
21.78737 457
21.80748 399
21.82759 421
21.84771 418
21.86782 444
21.88793 434
21.90805 407
21.92816 430
21.94828 402
21.96839 410
21.9885 428
22.00862 444
22.02873 425
22.04884 388
22.06896 413
22.08907 385
22.10919 405
22.1293 371
22.14941 408
22.16953 363
22.18964 378
22.20975 400
22.22987 394
22.24998 420
22.27009 370
22.29021 414
22.31032 397
22.33044 355
22.35055 384
22.37066 408
22.39078 377
22.41089 391
22.431 417
22.45112 404
22.47123 338
22.49135 381
22.51146 360
22.53157 358
22.55169 383
22.5718 378
22.59191 397
22.61203 349
22.63214 387
22.65225 404
22.67237 355
22.69248 361
22.7126 344
22.73271 375
22.75282 351
22.77294 325
22.79305 361
22.81316 412
22.83328 350
22.85339 347
22.87351 337
22.89362 375
22.91373 368
22.93385 376
22.95396 369
22.97407 419
22.99419 342
23.0143 337
23.03442 360
23.05453 365
23.07464 383
23.09476 381
23.11487 337
23.13498 310
23.1551 377
23.17521 363
23.19532 364
23.21544 367
23.23555 334
23.25567 350
23.27578 365
23.29589 347
23.31601 365
23.33612 347
23.35623 363
23.37635 350
23.39646 347
23.41658 315
23.43669 342
23.4568 359
23.47692 366
23.49703 343
23.51714 372
23.53726 378
23.55737 364
23.57749 333
23.5976 361
23.61771 364
23.63783 352
23.65794 401
23.67805 349
23.69817 416
23.71828 349
23.73839 376
23.75851 412
23.77862 362
23.79874 422
23.81885 409
23.83896 425
23.85908 384
23.87919 392
23.8993 423
23.91942 374
23.93953 425
23.95965 440
23.97976 428
23.99987 422
24.01999 380
24.0401 412
24.06021 385
24.08033 417
24.10044 369
24.12056 349
24.14067 393
24.16078 389
24.1809 401
24.20101 390
24.22112 387
24.24124 422
24.26135 375
24.28146 393
24.30158 389
24.32169 377
24.34181 405
24.36192 371
24.38203 340
24.40215 405
24.42226 357
24.44237 397
24.46249 404
24.4826 375
24.50272 400
24.52283 427
24.54294 381
24.56306 387
24.58317 400
24.60328 427
24.6234 427
24.64351 433
24.66362 426
24.68374 463
24.70385 434
24.72397 482
24.74408 514
24.76419 486
24.78431 510
24.80442 527
24.82453 525
24.84465 527
24.86476 538
24.88488 529
24.90499 528
24.9251 517
24.94522 536
24.96533 549
24.98544 504
25.00556 491
25.02567 518
25.04579 450
25.0659 485
25.08601 478
25.10613 504
25.12624 439
25.14635 485
25.16647 519
25.18658 512
25.20669 514
25.22681 554
25.24692 525
25.26704 493
25.28715 476
25.30726 524
25.32738 560
25.34749 484
25.3676 463
25.38772 437
25.40783 460
25.42795 428
25.44806 427
25.46817 442
25.48829 390
25.5084 399
25.52851 381
25.54863 424
25.56874 443
25.58886 388
25.60897 427
25.62908 410
25.6492 433
25.66931 476
25.68942 503
25.70954 506
25.72965 478
25.74976 515
25.76988 505
25.78999 514
25.81011 501
25.83022 549
25.85033 529
25.87045 544
25.89056 534
25.91067 531
25.93079 514
25.9509 507
25.97102 596
25.99113 550
26.01124 602
26.03136 562
26.05147 619
26.07158 642
26.0917 626
26.11181 713
26.13193 699
26.15204 750
26.17215 788
26.19227 785
26.21238 890
26.23249 965
26.25261 1014
26.27272 1046
26.29283 1151
26.31295 1237
26.33306 1401
26.35318 1537
26.37329 1771
26.3934 2166
26.41352 2593
26.43363 3411
26.45374 4418
26.47386 5999
26.49397 8091
26.51409 10927
26.5342 14811
26.55431 18985
26.57443 23791
26.59454 26963
26.61465 28904
26.63477 28462
26.65488 25013
26.67499 20081
26.69511 15136
26.71522 10866
26.73534 7225
26.75545 4565
26.77556 2948
26.79568 1968
26.81579 1642
26.8359 1448
26.85602 1301
26.87613 1171
26.89625 1127
26.91636 1004
26.93647 969
26.95659 835
26.9767 820
26.99681 799
27.01693 719
27.03704 700
27.05716 637
27.07727 605
27.09738 577
27.1175 572
27.13761 543
27.15772 557
27.17784 555
27.19795 499
27.21806 488
27.23818 468
27.25829 495
27.27841 550
27.29852 489
27.31863 486
27.33875 520
27.35886 497
27.37897 482
27.39909 505
27.4192 481
27.43932 516
27.45943 515
27.47954 515
27.49966 482
27.51977 450
27.53988 423
27.56 425
27.58011 437
27.60023 445
27.62034 428
27.64045 457
27.66057 409
27.68068 390
27.70079 418
27.72091 416
27.74102 399
27.76113 405
27.78125 411
27.80136 421
27.82148 404
27.84159 385
27.8617 439
27.88182 390
27.90193 368
27.92204 416
27.94216 400
27.96227 370
27.98239 401
28.0025 396
28.02261 392
28.04273 382
28.06284 387
28.08295 406
28.10307 390
28.12318 404
28.1433 385
28.16341 339
28.18352 375
28.20364 397
28.22375 345
28.24386 345
28.26398 364
28.28409 344
28.3042 366
28.32432 358
28.34443 390
28.36455 342
28.38466 367
28.40477 339
28.42489 349
28.445 341
28.46511 369
28.48523 349
28.50534 346
28.52546 356
28.54557 326
28.56568 354
28.5858 364
28.60591 363
28.62602 378
28.64614 326
28.66625 338
28.68636 365
28.70648 336
28.72659 306
28.74671 365
28.76682 356
28.78693 381
28.80705 347
28.82716 337
28.84727 337
28.86739 304
28.8875 330
28.90762 356
28.92773 387
28.94784 338
28.96796 309
28.98807 278
29.00818 298
29.0283 324
29.04841 347
29.06853 314
29.08864 322
29.10875 336
29.12887 345
29.14898 338
29.16909 300
29.18921 315
29.20932 327
29.22943 328
29.24955 348
29.26966 326
29.28978 332
29.30989 340
29.33 313
29.35012 352
29.37023 292
29.39034 336
29.41046 320
29.43057 307
29.45069 320
29.4708 345
29.49091 335
29.51103 315
29.53114 323
29.55125 297
29.57137 315
29.59148 326
29.6116 315
29.63171 331
29.65182 318
29.67194 312
29.69205 296
29.71216 297
29.73228 337
29.75239 301
29.7725 307
29.79262 321
29.81273 291
29.83285 321
29.85296 310
29.87307 295
29.89319 316
29.9133 301
29.93341 283
29.95353 301
29.97364 290
29.99376 312
30.01387 347
30.03398 315
30.0541 298
30.07421 301
30.09432 341
30.11444 286
30.13455 310
30.15467 288
30.17478 315
30.19489 364
30.21501 334
30.23512 321
30.25523 338
30.27535 299
30.29546 277
30.31557 322
30.33569 289
30.3558 307
30.37592 291
30.39603 311
30.41614 304
30.43626 313
30.45637 314
30.47648 311
30.4966 301
30.51671 321
30.53683 294
30.55694 276
30.57705 321
30.59717 311
30.61728 310
30.63739 324
30.65751 304
30.67762 308
30.69773 289
30.71785 304
30.73796 325
30.75808 298
30.77819 306
30.7983 300
30.81842 304
30.83853 317
30.85864 292
30.87876 320
30.89887 297
30.91899 318
30.9391 313
30.95921 309
30.97933 273
30.99944 286
31.01955 322
31.03967 289
31.05978 289
31.0799 297
31.10001 325
31.12012 316
31.14024 271
31.16035 310
31.18046 308
31.20058 302
31.22069 295
31.2408 282
31.26092 260
31.28103 273
31.30115 287
31.32126 289
31.34137 302
31.36149 297
31.3816 312
31.40171 312
31.42183 272
31.44194 328
31.46206 329
31.48217 279
31.50228 316
31.5224 294
31.54251 259
31.56262 281
31.58274 284
31.60285 299
31.62297 280
31.64308 305
31.66319 301
31.68331 318
31.70342 288
31.72353 290
31.74365 278
31.76376 254
31.78387 279
31.80399 251
31.8241 316
31.84422 267
31.86433 295
31.88444 282
31.90456 287
31.92467 260
31.94478 286
31.9649 293
31.98501 261
32.00513 286
32.02524 294
32.04535 296
32.06547 281
32.08558 298
32.10569 302
32.12581 279
32.14592 276
32.16604 319
32.18615 283
32.20626 278
32.22638 294
32.24649 292
32.2666 303
32.28672 290
32.30683 276
32.32694 294
32.34706 282
32.36717 345
32.38729 301
32.4074 356
32.42751 324
32.44763 324
32.46774 364
32.48785 336
32.50797 355
32.52808 377
32.5482 337
32.56831 343
32.58842 353
32.60854 396
32.62865 348
32.64876 342
32.66888 358
32.68899 295
32.7091 303
32.72922 319
32.74933 312
32.76945 316
32.78956 320
32.80967 314
32.82979 279
32.8499 291
32.87001 311
32.89013 321
32.91024 299
32.93036 302
32.95047 343
32.97058 326
32.9907 278
33.01081 322
33.03092 343
33.05104 340
33.07115 278
33.09127 317
33.11138 322
33.13149 351
33.15161 368
33.17172 331
33.19183 315
33.21195 313
33.23206 316
33.25217 338
33.27229 315
33.2924 339
33.31252 332
33.33263 313
33.35274 347
33.37286 350
33.39297 286
33.41308 319
33.4332 329
33.45331 271
33.47343 330
33.49354 340
33.51365 343
33.53377 298
33.55388 289
33.57399 302
33.59411 326
33.61422 290
33.63434 308
33.65445 305
33.67456 351
33.69468 326
33.71479 335
33.7349 330
33.75502 317
33.77513 290
33.79524 286
33.81536 287
33.83547 284
33.85559 286
33.8757 306
33.89581 278
33.91593 307
33.93604 297
33.95615 281
33.97627 314
33.99638 316
34.0165 265
34.03661 303
34.05672 266
34.07684 297
34.09695 336
34.11706 287
34.13718 292
34.15729 290
34.17741 317
34.19752 277
34.21763 278
34.23775 307
34.25786 269
34.27797 309
34.29809 299
34.3182 288
34.33831 276
34.35843 309
34.37854 325
34.39866 298
34.41877 310
34.43888 321
34.459 310
34.47911 335
34.49922 291
34.51934 292
34.53945 278
34.55957 324
34.57968 310
34.59979 322
34.61991 354
34.64002 314
34.66013 381
34.68025 372
34.70036 362
34.72047 399
34.74059 369
34.7607 429
34.78082 412
34.80093 391
34.82104 397
34.84116 435
34.86127 423
34.88138 414
34.9015 417
34.92161 424
34.94173 414
34.96184 426
34.98195 435
35.00207 392
35.02218 422
35.04229 442
35.06241 405
35.08252 414
35.10264 417
35.12275 453
35.14286 425
35.16298 429
35.18309 417
35.2032 437
35.22332 465
35.24343 479
35.26354 458
35.28366 419
35.30377 440
35.32389 391
35.344 436
35.36411 433
35.38423 427
35.40434 444
35.42445 416
35.44457 427
35.46468 435
35.4848 416
35.50491 433
35.52502 481
35.54514 443
35.56525 460
35.58536 477
35.60548 476
35.62559 470
35.64571 436
35.66582 419
35.68593 438
35.70605 459
35.72616 453
35.74627 460
35.76639 487
35.7865 451
35.80661 482
35.82673 445
35.84684 415
35.86696 418
35.88707 417
35.90718 426
35.9273 407
35.94741 458
35.96752 473
35.98764 441
36.00775 491
36.02787 464
36.04798 451
36.06809 412
36.08821 438
36.10832 443
36.12843 412
36.14855 399
36.16866 442
36.18878 453
36.20889 415
36.229 487
36.24912 523
36.26923 559
36.28934 564
36.30946 638
36.32957 664
36.34968 737
36.3698 869
36.38991 1011
36.41003 1128
36.43014 1472
36.45025 1748
36.47037 1924
36.49048 2121
36.51059 2326
36.53071 2121
36.55082 1880
36.57094 1649
36.59105 1433
36.61116 1261
36.63128 1056
36.65139 839
36.6715 692
36.69162 588
36.71173 471
36.73184 438
36.75196 411
36.77207 443
36.79219 412
36.8123 403
36.83241 419
36.85253 351
36.87264 381
36.89275 386
36.91287 360
36.93298 402
36.9531 353
36.97321 412
36.99332 389
37.01344 403
37.03355 358
37.05366 371
37.07378 375
37.09389 378
37.11401 364
37.13412 368
37.15423 347
37.17435 383
37.19446 363
37.21457 378
37.23469 330
37.2548 354
37.27491 335
37.29503 381
37.31514 370
37.33526 386
37.35537 378
37.37548 400
37.3956 351
37.41571 360
37.43582 363
37.45594 394
37.47605 343
37.49617 353
37.51628 394
37.53639 386
37.55651 396
37.57662 390
37.59673 384
37.61685 406
37.63696 372
37.65708 403
37.67719 384
37.6973 385
37.71742 415
37.73753 409
37.75764 346
37.77776 389
37.79787 395
37.81798 368
37.8381 375
37.85821 374
37.87833 398
37.89844 363
37.91855 370
37.93867 389
37.95878 363
37.97889 385
37.99901 345
38.01912 366
38.03924 378
38.05935 385
38.07946 372
38.09958 402
38.11969 389
38.1398 388
38.15992 403
38.18003 388
38.20015 371
38.22026 407
38.24037 409
38.26049 421
38.2806 390
38.30071 388
38.32083 414
38.34094 446
38.36105 428
38.38117 415
38.40128 422
38.4214 432
38.44151 403
38.46162 433
38.48174 398
38.50185 413
38.52196 406
38.54208 395
38.56219 366
38.58231 401
38.60242 367
38.62253 392
38.64265 377
38.66276 356
38.68287 376
38.70299 381
38.7231 366
38.74321 361
38.76333 380
38.78344 340
38.80356 358
38.82367 385
38.84378 340
38.8639 368
38.88401 358
38.90412 363
38.92424 356
38.94435 361
38.96447 380
38.98458 387
39.00469 351
39.02481 385
39.04492 386
39.06503 391
39.08515 402
39.10526 386
39.12538 404
39.14549 461
39.1656 484
39.18572 461
39.20583 544
39.22594 552
39.24606 614
39.26617 702
39.28628 754
39.3064 897
39.32651 1177
39.34663 1304
39.36674 1463
39.38685 1704
39.40697 1936
39.42708 2025
39.44719 1995
39.46731 1709
39.48742 1597
39.50754 1350
39.52765 1156
39.54776 998
39.56788 904
39.58799 736
39.6081 588
39.62822 474
39.64833 417
39.66845 384
39.68856 357
39.70867 414
39.72879 361
39.7489 361
39.76901 314
39.78913 358
39.80924 334
39.82935 353
39.84947 345
39.86958 325
39.8897 352
39.90981 322
39.92992 374
39.95004 337
39.97015 338
39.99026 355
40.01038 382
40.03049 408
40.05061 379
40.07072 432
40.09083 486
40.11095 521
40.13106 600
40.15117 705
40.17129 821
40.1914 935
40.21152 1023
40.23163 1135
40.25174 1110
40.27186 1137
40.29197 1027
40.31208 894
40.3322 815
40.35231 734
40.37242 660
40.39254 617
40.41265 528
40.43277 425
40.45288 415
40.47299 374
40.49311 364
40.51322 344
40.53333 359
40.55345 325
40.57356 342
40.59368 324
40.61379 326
40.6339 331
40.65402 313
40.67413 339
40.69424 318
40.71436 283
40.73447 329
40.75458 332
40.7747 335
40.79481 326
40.81493 339
40.83504 301
40.85515 316
40.87527 315
40.89538 310
40.91549 333
40.93561 320
40.95572 318
40.97584 335
40.99595 317
41.01606 307
41.03618 294
41.05629 345
41.0764 335
41.09652 330
41.11663 356
41.13675 339
41.15686 321
41.17697 281
41.19709 342
41.2172 325
41.23731 322
41.25743 313
41.27754 319
41.29765 310
41.31777 349
41.33788 331
41.358 306
41.37811 307
41.39822 299
41.41834 289
41.43845 300
41.45856 332
41.47868 281
41.49879 306
41.51891 278
41.53902 288
41.55913 295
41.57925 326
41.59936 308
41.61947 295
41.63959 305
41.6597 300
41.67982 307
41.69993 309
41.72004 308
41.74016 325
41.76027 309
41.78038 323
41.8005 306
41.82061 308
41.84072 324
41.86084 310
41.88095 276
41.90107 317
41.92118 314
41.94129 280
41.96141 325
41.98152 306
42.00163 294
42.02175 311
42.04186 331
42.06198 353
42.08209 347
42.1022 352
42.12232 351
42.14243 372
42.16254 359
42.18266 379
42.20277 435
42.22289 492
42.243 521
42.26311 578
42.28323 700
42.30334 789
42.32345 1006
42.34357 1107
42.36368 1253
42.38379 1336
42.40391 1471
42.42402 1454
42.44414 1332
42.46425 1167
42.48436 1025
42.50448 899
42.52459 879
42.5447 770
42.56482 638
42.58493 542
42.60505 444
42.62516 358
42.64527 337
42.66539 322
42.6855 286
42.70561 306
42.72573 273
42.74584 299
42.76595 327
42.78607 274
42.80618 280
42.8263 284
42.84641 297
42.86652 306
42.88664 265
42.90675 291
42.92686 267
42.94698 260
42.96709 270
42.98721 284
43.00732 278
43.02743 249
43.04755 289
43.06766 275
43.08777 265
43.10789 251
43.128 263
43.14812 259
43.16823 271
43.18834 258
43.20846 271
43.22857 259
43.24868 268
43.2688 257
43.28891 249
43.30902 251
43.32914 251
43.34925 303
43.36937 275
43.38948 261
43.40959 273
43.42971 275
43.44982 247
43.46993 276
43.49005 282
43.51016 276
43.53028 278
43.55039 259
43.5705 287
43.59062 271
43.61073 269
43.63084 286
43.65096 274
43.67107 273
43.69119 274
43.7113 268
43.73141 272
43.75153 295
43.77164 281
43.79175 262
43.81187 297
43.83198 275
43.85209 267
43.87221 261
43.89232 238
43.91244 285
43.93255 284
43.95266 258
43.97278 281
43.99289 272
44.013 261
44.03312 262
44.05323 282
44.07335 265
44.09346 271
44.11357 278
44.13369 269
44.1538 252
44.17391 258
44.19403 307
44.21414 285
44.23426 277
44.25437 251
44.27448 317
44.2946 262
44.31471 271
44.33482 258
44.35494 270
44.37505 295
44.39516 308
44.41528 243
44.43539 278
44.45551 246
44.47562 265
44.49573 295
44.51585 282
44.53596 279
44.55607 294
44.57619 282
44.5963 266
44.61642 259
44.63653 283
44.65664 251
44.67676 292
44.69687 283
44.71698 262
44.7371 267
44.75721 273
44.77732 254
44.79744 227
44.81755 278
44.83767 280
44.85778 276
44.87789 279
44.89801 280
44.91812 267
44.93823 268
44.95835 281
44.97846 290
44.99858 273
45.01869 273
45.0388 264
45.05892 257
45.07903 289
45.09914 306
45.11926 283
45.13937 270
45.15949 281
45.1796 299
45.19971 287
45.21983 305
45.23994 304
45.26005 310
45.28017 281
45.30028 305
45.32039 305
45.34051 296
45.36062 289
45.38074 323
45.40085 315
45.42096 317
45.44108 349
45.46119 326
45.4813 328
45.50142 366
45.52153 386
45.54165 370
45.56176 418
45.58187 485
45.60199 517
45.6221 548
45.64221 619
45.66233 703
45.68244 804
45.70256 872
45.72267 1012
45.74278 1052
45.7629 1064
45.78301 923
45.80312 829
45.82324 768
45.84335 686
45.86346 686
45.88358 599
45.90369 607
45.92381 522
45.94392 397
45.96403 385
45.98415 355
46.00426 342
46.02437 308
46.04449 333
46.0646 300
46.08472 339
46.10483 315
46.12494 292
46.14506 293
46.16517 300
46.18528 317
46.2054 283
46.22551 275
46.24563 291
46.26574 288
46.28585 253
46.30597 288
46.32608 291
46.34619 254
46.36631 278
46.38642 272
46.40653 273
46.42665 261
46.44676 274
46.46688 238
46.48699 279
46.5071 276
46.52722 238
46.54733 269
46.56744 247
46.58756 273
46.60767 237
46.62779 265
46.6479 268
46.66801 272
46.68813 269
46.70824 260
46.72835 251
46.74847 271
46.76858 284
46.78869 286
46.80881 269
46.82892 281
46.84904 280
46.86915 266
46.88926 269
46.90938 212
46.92949 269
46.9496 259
46.96972 248
46.98983 281
47.00995 272
47.03006 305
47.05017 296
47.07029 251
47.0904 281
47.11051 272
47.13063 297
47.15074 288
47.17086 266
47.19097 260
47.21108 270
47.2312 291
47.25131 265
47.27142 297
47.29154 252
47.31165 249
47.33176 270
47.35188 282
47.37199 276
47.39211 261
47.41222 235
47.43233 285
47.45245 268
47.47256 240
47.49267 284
47.51279 267
47.5329 261
47.55302 286
47.57313 272
47.59324 255
47.61336 267
47.63347 245
47.65358 268
47.6737 295
47.69381 251
47.71393 289
47.73404 253
47.75415 249
47.77427 261
47.79438 271
47.81449 266
47.83461 272
47.85472 303
47.87483 270
47.89495 296
47.91506 280
47.93518 287
47.95529 268
47.9754 282
47.99552 265
48.01563 291
48.03574 263
48.05586 277
48.07597 289
48.09609 258
48.1162 289
48.13631 248
48.15643 274
48.17654 292
48.19665 298
48.21677 265
48.23688 265
48.257 266
48.27711 248
48.29722 270
48.31734 275
48.33745 278
48.35756 259
48.37768 295
48.39779 262
48.4179 268
48.43802 278
48.45813 274
48.47825 290
48.49836 283
48.51847 262
48.53859 275
48.5587 287
48.57881 281
48.59893 246
48.61904 243
48.63916 307
48.65927 281
48.67938 293
48.6995 297
48.71961 260
48.73972 302
48.75984 268
48.77995 287
48.80006 324
48.82018 294
48.84029 270
48.86041 324
48.88052 286
48.90063 288
48.92075 276
48.94086 280
48.96097 280
48.98109 269
49.0012 272
49.02132 285
49.04143 288
49.06154 301
49.08166 261
49.10177 294
49.12188 282
49.142 296
49.16211 247
49.18223 272
49.20234 286
49.22245 294
49.24257 275
49.26268 263
49.28279 269
49.30291 269
49.32302 322
49.34313 286
49.36325 288
49.38336 313
49.40348 306
49.42359 295
49.4437 292
49.46382 300
49.48393 311
49.50404 272
49.52416 304
49.54427 301
49.56439 290
49.5845 282
49.60461 311
49.62473 313
49.64484 347
49.66495 328
49.68507 374
49.70518 375
49.7253 402
49.74541 415
49.76552 404
49.78564 451
49.80575 470
49.82586 517
49.84598 566
49.86609 612
49.8862 721
49.90632 844
49.92643 939
49.94655 1166
49.96666 1359
49.98677 1661
50.00689 1993
50.027 2308
50.04711 2566
50.06723 2950
50.08734 3041
50.10746 3004
50.12757 2737
50.14768 2403
50.1678 1990
50.18791 1848
50.20802 1818
50.22814 1635
50.24825 1426
50.26837 1159
50.28848 937
50.30859 679
50.32871 543
50.34882 435
50.36893 436
50.38905 412
50.40916 384
50.42927 383
50.44939 372
50.4695 357
50.48962 353
50.50973 378
50.52984 379
50.54996 333
50.57007 319
50.59018 340
50.6103 337
50.63041 370
50.65053 296
50.67064 310
50.69075 314
50.71087 321
50.73098 328
50.75109 291
50.77121 254
50.79132 264
50.81143 261
50.83155 303
50.85166 281
50.87178 282
50.89189 261
50.912 267
50.93212 276
50.95223 270
50.97234 301
50.99246 259
51.01257 270
51.03269 292
51.0528 265
51.07291 277
51.09303 287
51.11314 257
51.13325 256
51.15337 268
51.17348 265
51.1936 251
51.21371 266
51.23382 235
51.25394 277
51.27405 279
51.29416 255
51.31428 235
51.33439 233
51.3545 206
51.37462 258
51.39473 255
51.41485 259
51.43496 240
51.45507 248
51.47519 247
51.4953 235
51.51541 243
51.53553 243
51.55564 254
51.57576 246
51.59587 261
51.61598 236
51.6361 251
51.65621 260
51.67632 250
51.69644 254
51.71655 242
51.73667 247
51.75678 229
51.77689 221
51.79701 235
51.81712 261
51.83723 257
51.85735 246
51.87746 249
51.89757 243
51.91769 243
51.9378 263
51.95792 231
51.97803 245
51.99814 257
52.01826 253
52.03837 252
52.05848 277
52.0786 242
52.09871 233
52.11883 219
52.13894 248
52.15905 255
52.17917 227
52.19928 255
52.21939 244
52.23951 261
52.25962 252
52.27974 233
52.29985 260
52.31996 279
52.34008 238
52.36019 241
52.3803 264
52.40042 273
52.42053 240
52.44064 253
52.46076 239
52.48087 252
52.50099 257
52.5211 250
52.54121 248
52.56133 262
52.58144 226
52.60155 260
52.62167 253
52.64178 256
52.6619 251
52.68201 251
52.70212 221
52.72224 254
52.74235 259
52.76246 263
52.78258 277
52.80269 234
52.8228 273
52.84292 270
52.86303 273
52.88315 253
52.90326 244
52.92337 269
52.94349 242
52.9636 238
52.98371 243
53.00383 242
53.02394 283
53.04406 263
53.06417 256
53.08428 266
53.1044 297
53.12451 292
53.14462 290
53.16474 291
53.18485 300
53.20497 295
53.22508 299
53.24519 319
53.26531 280
53.28542 269
53.30553 272
53.32565 274
53.34576 279
53.36587 299
53.38599 274
53.4061 275
53.42622 264
53.44633 287
53.46644 272
53.48656 298
53.50667 309
53.52678 285
53.5469 291
53.56701 282
53.58713 256
53.60724 294
53.62735 285
53.64747 306
53.66758 272
53.68769 310
53.70781 293
53.72792 303
53.74804 294
53.76815 335
53.78826 279
53.80838 308
53.82849 344
53.8486 313
53.86872 325
53.88883 338
53.90894 311
53.92906 344
53.94917 341
53.96929 337
53.9894 329
54.00951 354
54.02963 322
54.04974 338
54.06985 347
54.08997 311
54.11008 336
54.1302 363
54.15031 339
54.17042 340
54.19054 356
54.21065 361
54.23076 336
54.25088 366
54.27099 350
54.29111 371
54.31122 348
54.33133 341
54.35145 370
54.37156 368
54.39167 363
54.41179 370
54.4319 369
54.45201 357
54.47213 374
54.49224 417
54.51236 384
54.53247 397
54.55258 411
54.5727 410
54.59281 445
54.61292 494
54.63304 447
54.65315 526
54.67327 559
54.69338 623
54.71349 723
54.73361 775
54.75372 900
54.77383 937
54.79395 1047
54.81406 1053
54.83417 1074
54.85429 1052
54.8744 942
54.89452 792
54.91463 774
54.93474 791
54.95486 765
54.97497 756
54.99508 705
55.0152 596
55.03531 534
55.05543 513
55.07554 457
55.09565 453
55.11577 495
55.13588 467
55.15599 491
55.17611 465
55.19622 533
55.21634 573
55.23645 623
55.25656 676
55.27668 701
55.29679 621
55.3169 607
55.33702 538
55.35713 554
55.37724 492
55.39736 474
55.41747 486
55.43759 481
55.4577 460
55.47781 426
55.49793 377
55.51804 356
55.53815 363
55.55827 344
55.57838 323
55.5985 327
55.61861 303
55.63872 323
55.65884 286
55.67895 267
55.69906 312
55.71918 322
55.73929 293
55.75941 282
55.77952 256
55.79963 308
55.81975 279
55.83986 297
55.85997 282
55.88009 300
55.9002 266
55.92031 276
55.94043 309
55.96054 285
55.98066 274
56.00077 280
56.02088 277
56.041 288
56.06111 275
56.08122 315
56.10134 266
56.12145 245
56.14157 300
56.16168 291
56.18179 271
56.20191 259
56.22202 292
56.24213 256
56.26225 256
56.28236 282
56.30248 326
56.32259 268
56.3427 253
56.36282 262
56.38293 256
56.40304 254
56.42316 284
56.44327 276
56.46338 293
56.4835 279
56.50361 278
56.52373 294
56.54384 279
56.56395 267
56.58407 303
56.60418 265
56.62429 264
56.64441 277
56.66452 266
56.68464 302
56.70475 257
56.72486 266
56.74498 264
56.76509 252
56.7852 255
56.80532 247
56.82543 280
56.84554 261
56.86566 268
56.88577 296
56.90589 250
56.926 247
56.94611 276
56.96623 278
56.98634 246
57.00645 279
57.02657 291
57.04668 257
57.0668 279
57.08691 282
57.10702 285
57.12714 320
57.14725 303
57.16736 311
57.18748 263
57.20759 300
57.22771 285
57.24782 320
57.26793 284
57.28805 279
57.30816 282
57.32827 265
57.34839 278
57.3685 233
57.38861 279
57.40873 244
57.42884 268
57.44896 270
57.46907 265
57.48918 256
57.5093 283
57.52941 255
57.54952 262
57.56964 269
57.58975 266
57.60987 264
57.62998 251
57.65009 271
57.67021 253
57.69032 282
57.71043 271
57.73055 267
57.75066 260
57.77078 279
57.79089 247
57.811 261
57.83112 254
57.85123 269
57.87134 253
57.89146 251
57.91157 217
57.93168 270
57.9518 257
57.97191 274
57.99203 235
58.01214 269
58.03225 248
58.05237 246
58.07248 254
58.09259 240
58.11271 240
58.13282 260
58.15294 260
58.17305 268
58.19316 241
58.21328 255
58.23339 254
58.2535 271
58.27362 246
58.29373 254
58.31385 238
58.33396 268
58.35407 223
58.37419 225
58.3943 259
58.41441 296
58.43453 230
58.45464 278
58.47475 214
58.49487 272
58.51498 258
58.5351 249
58.55521 275
58.57532 249
58.59544 247
58.61555 271
58.63566 258
58.65578 263
58.67589 261
58.69601 253
58.71612 288
58.73623 277
58.75635 244
58.77646 263
58.79657 242
58.81669 251
58.8368 247
58.85691 266
58.87703 266
58.89714 262
58.91726 247
58.93737 248
58.95748 245
58.9776 262
58.99771 260
59.01782 237
59.03794 227
59.05805 247
59.07817 258
59.09828 238
59.11839 265
59.13851 268
59.15862 247
59.17873 249
59.19885 262
59.21896 290
59.23908 280
59.25919 279
59.2793 266
59.29942 272
59.31953 269
59.33964 276
59.35976 295
59.37987 267
59.39998 311
59.4201 293
59.44021 360
59.46033 304
59.48044 318
59.50055 320
59.52067 349
59.54078 367
59.56089 338
59.58101 414
59.60112 431
59.62124 410
59.64135 491
59.66146 518
59.68158 604
59.70169 655
59.7218 760
59.74192 766
59.76203 926
59.78215 1030
59.80226 1258
59.82237 1384
59.84249 1524
59.8626 1860
59.88271 1976
59.90283 1953
59.92294 1907
59.94305 1676
59.96317 1538
59.98328 1327
60.0034 1165
60.02351 1236
60.04362 1144
60.06374 1144
60.08385 1009
60.10396 942
60.12408 763
60.14419 636
60.16431 505
60.18442 419
60.20453 368
60.22465 362
60.24476 336
60.26487 325
60.28499 278
60.3051 289
60.32522 296
60.34533 293
60.36544 302
60.38556 283
60.40567 259
60.42578 281
60.4459 271
60.46601 258
60.48612 267
60.50624 283
60.52635 241
60.54647 265
60.56658 274
60.58669 237
60.60681 268
60.62692 269
60.64703 283
60.66715 285
60.68726 285
60.70738 286
60.72749 259
60.7476 277
60.76772 258
60.78783 276
60.80794 257
60.82806 249
60.84817 250
60.86828 284
60.8884 265
60.90851 241
60.92863 275
60.94874 247
60.96885 254
60.98897 249
61.00908 247
61.02919 247
61.04931 253
61.06942 258
61.08954 273
61.10965 277
61.12976 245
61.14988 236
61.16999 243
61.1901 261
61.21022 255
61.23033 262
61.25045 252
61.27056 234
61.29067 243
61.31079 255
61.3309 274
61.35101 242
61.37113 287
61.39124 272
61.41135 272
61.43147 260
61.45158 290
61.4717 280
61.49181 278
61.51192 311
61.53204 256
61.55215 276
61.57226 278
61.59238 309
61.61249 284
61.63261 267
61.65272 286
61.67283 277
61.69295 260
61.71306 291
61.73317 302
61.75329 279
61.7734 327
61.79352 294
61.81363 309
61.83374 291
61.85386 330
61.87397 292
61.89408 307
61.9142 290
61.93431 327
61.95442 319
61.97454 333
61.99465 306
62.01477 324
62.03488 340
62.05499 336
62.07511 360
62.09522 340
62.11533 340
62.13545 355
62.15556 364
62.17568 412
62.19579 354
62.2159 383
62.23602 357
62.25613 356
62.27624 354
62.29636 383
62.31647 334
62.33659 354
62.3567 345
62.37681 349
62.39693 372
62.41704 346
62.43715 319
62.45727 317
62.47738 289
62.49749 302
62.51761 298
62.53772 321
62.55784 278
62.57795 286
62.59806 297
62.61818 281
62.63829 275
62.6584 288
62.67852 295
62.69863 294
62.71875 258
62.73886 323
62.75897 273
62.77909 284
62.7992 280
62.81931 246
62.83943 296
62.85954 273
62.87965 294
62.89977 261
62.91988 285
62.94 269
62.96011 275
62.98022 241
63.00034 286
63.02045 296
63.04056 253
63.06068 263
63.08079 251
63.10091 250
63.12102 255
63.14113 262
63.16125 247
63.18136 286
63.20147 273
63.22159 269
63.2417 246
63.26182 292
63.28193 276
63.30204 257
63.32216 266
63.34227 280
63.36238 303
63.3825 273
63.40261 269
63.42272 296
63.44284 315
63.46295 274
63.48307 299
63.50318 309
63.52329 273
63.54341 292
63.56352 270
63.58363 255
63.60375 301
63.62386 286
63.64398 291
63.66409 286
63.6842 292
63.70432 307
63.72443 294
63.74454 303
63.76466 349
63.78477 313
63.80489 384
63.825 367
63.84511 418
63.86523 422
63.88534 444
63.90545 491
63.92557 537
63.94568 551
63.96579 567
63.98591 573
64.00602 560
64.02614 525
64.04625 479
64.06636 414
64.08648 397
64.10659 414
64.1267 441
64.14682 412
64.16693 392
64.18705 393
64.20716 385
64.22727 309
64.24739 301
64.2675 278
64.28761 287
64.30773 267
64.32784 277
64.34796 268
64.36807 299
64.38818 248
64.4083 253
64.42841 293
64.44852 260
64.46864 226
64.48875 249
64.50886 240
64.52898 242
64.54909 277
64.56921 250
64.58932 243
64.60943 253
64.62955 220
64.64966 241
64.66977 248
64.68989 256
64.71 258
64.73012 247
64.75023 242
64.77034 217
64.79046 260
64.81057 249
64.83068 248
64.8508 251
64.87091 255
64.89102 255
64.91114 242
64.93125 242
64.95137 280
64.97148 240
64.99159 238
65.01171 230
65.03182 251
65.05193 235
65.07205 216
65.09216 214
65.11228 230
65.13239 278
65.1525 264
65.17262 262
65.19273 233
65.21284 245
65.23296 244
65.25307 237
65.27319 247
65.2933 243
65.31341 237
65.33353 229
65.35364 230
65.37375 226
65.39387 230
65.41398 227
65.43409 228
65.45421 228
65.47432 247
65.49444 241
65.51455 256
65.53466 288
65.55478 275
65.57489 257
65.595 271
65.61512 305
65.63523 285
65.65535 257
65.67546 282
65.69557 275
65.71569 313
65.7358 320
65.75591 291
65.77603 285
65.79614 288
65.81626 297
65.83637 278
65.85648 283
65.8766 285
65.89671 262
65.91682 265
65.93694 268
65.95705 298
65.97716 254
65.99728 253
66.01739 264
66.03751 280
66.05762 240
66.07773 235
66.09785 271
66.11796 255
66.13807 240
66.15819 233
66.1783 260
66.19842 250
66.21853 244
66.23864 242
66.25876 250
66.27887 242
66.29898 232
66.3191 265
66.33921 256
66.35933 239
66.37944 221
66.39955 257
66.41967 238
66.43978 240
66.45989 233
66.48001 269
66.50012 259
66.52023 239
66.54035 269
66.56046 243
66.58058 251
66.60069 267
66.6208 249
66.64092 244
66.66103 256
66.68114 268
66.70126 236
66.72137 240
66.74149 245
66.7616 246
66.78171 257
66.80183 250
66.82194 270
66.84205 246
66.86217 249
66.88228 257
66.90239 267
66.92251 270
66.94262 235
66.96274 266
66.98285 239
67.00296 267
67.02308 242
67.04319 264
67.0633 249
67.08342 263
67.10353 284
67.12365 275
67.14376 243
67.16387 276
67.18399 309
67.2041 271
67.22421 286
67.24433 271
67.26444 306
67.28456 297
67.30467 293
67.32478 335
67.3449 296
67.36501 377
67.38512 338
67.40524 378
67.42535 384
67.44546 420
67.46558 445
67.48569 496
67.50581 555
67.52592 574
67.54603 650
67.56615 763
67.58626 827
67.60637 966
67.62649 1020
67.6466 1230
67.66672 1248
67.68683 1279
67.70694 1264
67.72706 1126
67.74717 1026
67.76728 931
67.7874 918
67.80751 832
67.82763 952
67.84774 883
67.86785 982
67.88797 980
67.90808 1074
67.92819 1038
67.94831 1048
67.96842 1035
67.98853 1161
68.00865 1288
68.02876 1413
68.04888 1545
68.06899 1657
68.0891 1756
68.10922 1699
68.12933 1603
68.14944 1443
68.16956 1425
68.18967 1439
68.20979 1418
68.2299 1469
68.25001 1528
68.27013 1555
68.29024 1506
68.31035 1278
68.33047 1025
68.35058 901
68.3707 787
68.39081 761
68.41092 707
68.43104 649
68.45115 628
68.47126 644
68.49138 518
68.51149 498
68.5316 390
68.55172 370
68.57183 360
68.59195 330
68.61206 318
68.63217 306
68.65229 297
68.6724 314
68.69251 295
68.71263 300
68.73274 249
68.75286 283
68.77297 255
68.79308 257
68.8132 296
68.83331 295
68.85342 274
68.87354 280
68.89365 263
68.91376 256
68.93388 256
68.95399 243
68.97411 265
68.99422 267
69.01433 277
69.03445 244
69.05456 263
69.07467 260
69.09479 241
69.1149 240
69.13502 251
69.15513 249
69.17524 232
69.19536 237
69.21547 275
69.23558 259
69.2557 265
69.27581 231
69.29593 256
69.31604 229
69.33615 242
69.35627 253
69.37638 250
69.39649 217
69.41661 209
69.43672 263
69.45683 233
69.47695 221
69.49706 228
69.51718 209
69.53729 239
69.5574 233
69.57752 218
69.59763 233
69.61774 245
69.63786 245
69.65797 253
69.67809 243
69.6982 221
69.71831 237
69.73843 238
69.75854 238
69.77865 197
69.79877 234
69.81888 253
69.839 223
69.85911 230
69.87922 218
69.89934 241
69.91945 245
69.93956 261
69.95968 251
69.97979 232
69.9999 226
70.02002 230
70.04013 246
70.06025 218
70.08036 243
70.10047 230
70.12059 235
70.1407 239
70.16081 225
70.18093 244
70.20104 248
70.22116 223
70.24127 244
70.26138 228
70.2815 242
70.30161 232
70.32172 230
70.34184 218
70.36195 232
70.38207 227
70.40218 232
70.42229 227
70.44241 225
70.46252 245
70.48263 229
70.50275 234
70.52286 211
70.54297 232
70.56309 219
70.5832 234
70.60332 224
70.62343 236
70.64354 221
70.66366 222
70.68377 210
70.70388 213
70.724 236
70.74411 246
70.76423 210
70.78434 251
70.80445 228
70.82457 239
70.84468 250
70.86479 208
70.88491 226
70.90502 207
70.92513 232
70.94525 251
70.96536 222
70.98548 249
71.00559 216
71.0257 215
71.04582 249
71.06593 232
71.08604 221
71.10616 230
71.12627 250
71.14639 236
71.1665 215
71.18661 225
71.20673 220
71.22684 218
71.24695 247
71.26707 219
71.28718 211
71.3073 227
71.32741 232
71.34752 233
71.36764 218
71.38775 222
71.40786 220
71.42798 208
71.44809 192
71.4682 253
71.48832 219
71.50843 233
71.52855 230
71.54866 245
71.56877 233
71.58889 263
71.609 238
71.62911 208
71.64923 241
71.66934 233
71.68946 222
71.70957 236
71.72968 220
71.7498 256
71.76991 213
71.79002 232
71.81014 212
71.83025 205
71.85037 204
71.87048 216
71.89059 245
71.91071 248
71.93082 224
71.95093 223
71.97105 218
71.99116 212
72.01127 262
72.03139 245
72.0515 220
72.07162 222
72.09173 230
72.11184 214
72.13196 197
72.15207 223
72.17218 252
72.1923 237
72.21241 220
72.23253 239
72.25264 214
72.27275 212
72.29287 242
72.31298 214
72.33309 214
72.35321 209
72.37332 226
72.39344 216
72.41355 236
72.43366 250
72.45378 216
72.47389 241
72.494 243
72.51412 242
72.53423 232
72.55434 254
72.57446 236
72.59457 219
72.61469 239
72.6348 249
72.65491 214
72.67503 225
72.69514 223
72.71525 225
72.73537 246
72.75548 238
72.7756 238
72.79571 218
72.81582 220
72.83594 230
72.85605 228
72.87616 246
72.89628 250
72.91639 238
72.9365 235
72.95662 241
72.97673 261
72.99685 224
73.01696 268
73.03707 264
73.05719 282
73.0773 287
73.09741 258
73.11753 273
73.13764 283
73.15776 306
73.17787 296
73.19798 296
73.2181 298
73.23821 359
73.25832 344
73.27844 377
73.29855 422
73.31867 431
73.33878 533
73.35889 552
73.37901 557
73.39912 587
73.41923 595
73.43935 557
73.45946 504
73.47957 470
73.49969 443
73.5198 379
73.53992 409
73.56003 402
73.58014 413
73.60026 429
73.62037 412
73.64048 414
73.6606 380
73.68071 342
73.70083 310
73.72094 301
73.74105 258
73.76117 245
73.78128 236
73.80139 254
73.82151 230
73.84162 237
73.86174 254
73.88185 249
73.90196 240
73.92208 225
73.94219 274
73.9623 218
73.98242 228
74.00253 233
74.02264 216
74.04276 213
74.06287 229
74.08299 243
74.1031 249
74.12321 226
74.14333 219
74.16344 257
74.18355 250
74.20367 223
74.22378 217
74.2439 202
74.26401 243
74.28412 210
74.30424 226
74.32435 199
74.34446 234
74.36458 241
74.38469 234
74.40481 249
74.42492 239
74.44503 254
74.46515 220
74.48526 258
74.50537 221
74.52549 254
74.5456 238
74.56571 215
74.58583 222
74.60594 211
74.62606 238
74.64617 229
74.66628 234
74.6864 229
74.70651 235
74.72662 232
74.74674 240
74.76685 242
74.78697 232
74.80708 224
74.82719 247
74.84731 262
74.86742 225
74.88753 237
74.90765 226
74.92776 251
74.94787 213
74.96799 288
74.9881 213
75.00822 219
