3.00117 20851
3.02128 20143
3.0414 19599
3.06151 19241
3.08162 18682
3.10174 17906
3.12185 17532
3.14197 16979
3.16208 16726
3.18219 16195
3.20231 15612
3.22242 14897
3.24253 14328
3.26265 14409
3.28276 13652
3.30288 13395
3.32299 13068
3.3431 12345
3.36322 12110
3.38333 11518
3.40344 11443
3.42356 10896
3.44367 10457
3.46379 10428
3.4839 9892
3.50401 9509
3.52413 9293
3.54424 8594
3.56435 8832
3.58447 8248
3.60458 8146
3.62469 7572
3.64481 7312
3.66492 7177
3.68504 6817
3.70515 6583
3.72526 6302
3.74538 5951
3.76549 5943
3.7856 5700
3.80572 5268
3.82583 5242
3.84595 4848
3.86606 4646
3.88617 4584
3.90629 4403
3.9264 4029
3.94651 3920
3.96663 3867
3.98674 3568
4.00686 3470
4.02697 3329
4.04708 2991
4.0672 3124
4.08731 2981
4.10742 2834
4.12754 2653
4.14765 2594
4.16776 2519
4.18788 2372
4.20799 2273
4.22811 2140
4.24822 1961
4.26833 2098
4.28845 2080
4.30856 1828
4.32867 1819
4.34879 1671
4.3689 1721
4.38902 1711
4.40913 1612
4.42924 1592
4.44936 1490
4.46947 1530
4.48958 1500
4.5097 1459
4.52981 1357
4.54992 1339
4.57004 1335
4.59015 1322
4.61027 1304
4.63038 1222
4.65049 1175
4.67061 1225
4.69072 1282
4.71083 1103
4.73095 1065
4.75106 1103
4.77118 1057
4.79129 1064
4.8114 984
4.83152 1028
4.85163 968
4.87174 959
4.89186 971
4.91197 861
4.93209 890
4.9522 871
4.97231 880
4.99243 850
5.01254 813
5.03265 777
5.05277 837
5.07288 704
5.09299 758
5.11311 780
5.13322 691
5.15334 704
5.17345 667
5.19356 653
5.21368 651
5.23379 695
5.2539 659
5.27402 620
5.29413 625
5.31425 562
5.33436 562
5.35447 608
5.37459 591
5.3947 556
5.41481 480
5.43493 538
5.45504 567
5.47516 509
5.49527 590
5.51538 504
5.5355 455
5.55561 457
5.57572 492
5.59584 455
5.61595 450
5.63606 457
5.65618 388
5.67629 403
5.69641 404
5.71652 404
5.73663 427
5.75675 407
5.77686 392
5.79697 405
5.81709 368
5.8372 364
5.85732 373
5.87743 428
5.89754 404
5.91766 361
5.93777 342
5.95788 395
5.978 361
5.99811 348
6.01823 360
6.03834 350
6.05845 370
6.07857 327
6.09868 380
6.11879 325
6.13891 342
6.15902 311
6.17913 322
6.19925 325
6.21936 332
6.23948 324
6.25959 333
6.2797 347
6.29982 344
6.31993 299
6.34004 339
6.36016 344
6.38027 309
6.40039 318
6.4205 312
6.44061 313
6.46073 323
6.48084 322
6.50095 301
6.52107 337
6.54118 322
6.56129 306
6.58141 292
6.60152 304
6.62164 269
6.64175 330
6.66186 308
6.68198 301
6.70209 255
6.7222 324
6.74232 310
6.76243 304
6.78255 320
6.80266 291
6.82277 297
6.84289 306
6.863 276
6.88311 310
6.90323 284
6.92334 321
6.94346 283
6.96357 290
6.98368 302
7.0038 301
7.02391 302
7.04402 320
7.06414 312
7.08425 306
7.10436 297
7.12448 313
7.14459 302
7.16471 283
7.18482 326
7.20493 265
7.22505 298
7.24516 335
7.26527 322
7.28539 337
7.3055 344
7.32562 293
7.34573 283
7.36584 307
7.38596 321
7.40607 315
7.42618 292
7.4463 333
7.46641 288
7.48653 327
7.50664 354
7.52675 329
7.54687 322
7.56698 269
7.58709 329
7.60721 300
7.62732 303
7.64743 296
7.66755 324
7.68766 322
7.70778 280
7.72789 331
7.748 296
7.76812 332
7.78823 318
7.80834 354
7.82846 330
7.84857 291
7.86869 308
7.8888 314
7.90891 320
7.92903 289
7.94914 332
7.96925 290
7.98937 282
8.00948 302
8.0296 310
8.04971 309
8.06982 345
8.08994 331
8.11005 307
8.13016 315
8.15028 339
8.17039 333
8.1905 329
8.21062 309
8.23073 331
8.25085 313
8.27096 298
8.29107 274
8.31119 319
8.3313 317
8.35141 317
8.37153 345
8.39164 343
8.41176 272
8.43187 353
8.45198 323
8.4721 292
8.49221 356
8.51232 358
8.53244 330
8.55255 391
8.57266 346
8.59278 363
8.61289 376
8.63301 390
8.65312 441
8.67323 376
8.69335 458
8.71346 467
8.73357 475
8.75369 548
8.7738 539
8.79392 669
8.81403 707
8.83414 818
8.85426 884
8.87437 892
8.89448 761
8.9146 717
8.93471 597
8.95483 495
8.97494 436
8.99505 425
9.01517 316
9.03528 328
9.05539 371
9.07551 343
9.09562 345
9.11573 340
9.13585 367
9.15596 330
9.17608 318
9.19619 323
9.2163 314
9.23642 333
9.25653 333
9.27664 346
9.29676 307
9.31687 311
9.33699 308
9.3571 297
9.37721 318
9.39733 314
9.41744 300
9.43755 324
9.45767 301
9.47778 328
9.4979 294
9.51801 276
9.53812 313
9.55824 288
9.57835 307
9.59846 290
9.61858 303
9.63869 286
9.6588 292
9.67892 308
9.69903 313
9.71915 300
9.73926 334
9.75937 273
9.77949 316
9.7996 300
9.81971 300
9.83983 286
9.85994 310
9.88006 250
9.90017 291
9.92028 326
9.9404 289
9.96051 314
9.98062 296
10.00074 308
10.02085 290
10.04097 270
10.06108 294
10.08119 294
10.10131 320
10.12142 319
10.14153 309
10.16165 291
10.18176 286
10.20187 315
10.22199 298
10.2421 318
10.26222 263
10.28233 272
10.30244 280
10.32256 319
10.34267 310
10.36278 288
10.3829 322
10.40301 259
10.42313 270
10.44324 323
10.46335 318
10.48347 282
10.50358 301
10.52369 297
10.54381 327
10.56392 302
10.58403 334
10.60415 293
10.62426 314
10.64438 283
10.66449 321
10.6846 313
10.70472 319
10.72483 326
10.74494 290
10.76506 298
10.78517 268
10.80529 323
10.8254 333
10.84551 295
10.86563 319
10.88574 306
10.90585 326
10.92597 323
10.94608 301
10.9662 308
10.98631 272
11.00642 330
11.02654 344
11.04665 281
11.06676 306
11.08688 301
11.10699 309
11.1271 282
11.14722 276
11.16733 324
11.18745 332
11.20756 296
11.22767 277
11.24779 331
11.2679 302
11.28801 303
11.30813 317
11.32824 297
11.34836 337
11.36847 288
11.38858 311
11.4087 279
11.42881 308
11.44892 309
11.46904 306
11.48915 314
11.50927 322
11.52938 310
11.54949 336
11.56961 312
11.58972 347
11.60983 344
11.62995 339
11.65006 352
11.67017 367
11.69029 344
11.7104 348
11.73052 374
11.75063 328
11.77074 306
11.79086 387
11.81097 345
11.83108 376
11.8512 380
11.87131 397
11.89143 385
11.91154 376
11.93165 412
11.95177 417
11.97188 447
11.99199 427
12.01211 458
12.03222 446
12.05234 446
12.07245 431
12.09256 501
12.11268 528
12.13279 502
12.1529 589
12.17302 551
12.19313 639
12.21324 618
12.23336 666
12.25347 690
12.27359 699
12.2937 727
12.31381 769
12.33393 775
12.35404 760
12.37415 734
12.39427 732
12.41438 681
12.4345 645
12.45461 594
12.47472 583
12.49484 538
12.51495 540
12.53506 484
12.55518 460
12.57529 455
12.5954 421
12.61552 397
12.63563 390
12.65575 373
12.67586 372
12.69597 341
12.71609 353
12.7362 359
12.75631 334
12.77643 314
12.79654 340
12.81666 330
12.83677 340
12.85688 288
12.877 287
12.89711 287
12.91722 280
12.93734 314
12.95745 306
12.97757 285
12.99768 278
13.01779 318
13.03791 257
13.05802 333
13.07813 341
13.09825 333
13.11836 291
13.13847 257
13.15859 279
13.1787 266
13.19882 265
13.21893 266
13.23904 276
13.25916 295
13.27927 269
13.29938 263
13.3195 307
13.33961 286
13.35973 298
13.37984 284
13.39995 325
13.42007 253
13.44018 275
13.46029 267
13.48041 285
13.50052 288
13.52064 305
13.54075 301
13.56086 277
13.58098 293
13.60109 269
13.6212 322
13.64132 317
13.66143 307
13.68154 258
13.70166 262
13.72177 258
13.74189 267
13.762 254
13.78211 264
13.80223 270
13.82234 273
13.84245 268
13.86257 282
13.88268 247
13.9028 259
13.92291 283
13.94302 267
13.96314 275
13.98325 287
14.00336 278
14.02348 241
14.04359 287
14.06371 268
14.08382 266
14.10393 273
14.12405 265
14.14416 248
14.16427 285
14.18439 248
14.2045 298
14.22461 280
14.24473 257
14.26484 232
14.28496 264
14.30507 276
14.32518 277
14.3453 265
14.36541 269
14.38552 255
14.40564 284
14.42575 279
14.44587 237
14.46598 271
14.48609 233
14.50621 235
14.52632 254
14.54643 255
14.56655 264
14.58666 245
14.60677 253
14.62689 219
14.647 265
14.66712 244
14.68723 245
14.70734 263
14.72746 241
14.74757 249
14.76768 265
14.7878 255
14.80791 272
14.82803 248
14.84814 275
14.86825 270
14.88837 226
14.90848 299
14.92859 290
14.94871 284
14.96882 303
14.98894 286
15.00905 268
15.02916 250
15.04928 243
15.06939 257
15.0895 267
15.10962 278
15.12973 263
15.14984 276
15.16996 277
15.19007 246
15.21019 285
15.2303 266
15.25041 261
15.27053 265
15.29064 222
15.31075 276
15.33087 259
15.35098 212
15.3711 240
15.39121 240
15.41132 257
15.43144 256
15.45155 255
15.47166 289
15.49178 242
15.51189 269
15.53201 250
15.55212 274
15.57223 245
15.59235 272
15.61246 247
15.63257 204
15.65269 245
15.6728 244
15.69291 245
15.71303 229
15.73314 265
15.75326 263
15.77337 241
15.79348 256
15.8136 235
15.83371 251
15.85382 248
15.87394 256
15.89405 238
15.91417 237
15.93428 258
15.95439 253
15.97451 230
15.99462 242
16.01473 225
16.03485 218
16.05496 224
16.07508 237
16.09519 262
16.1153 229
16.13542 256
16.15553 212
16.17564 245
16.19576 224
16.21587 235
16.23598 254
16.2561 264
16.27621 258
16.29633 243
16.31644 270
16.33655 250
16.35667 238
16.37678 236
16.39689 254
16.41701 217
16.43712 242
16.45724 241
16.47735 267
16.49746 258
16.51758 259
16.53769 233
16.5578 245
16.57792 288
16.59803 248
16.61814 236
16.63826 215
16.65837 251
16.67849 242
16.6986 237
16.71871 264
16.73883 255
16.75894 205
16.77905 270
16.79917 252
16.81928 256
16.8394 257
16.85951 249
16.87962 256
16.89974 240
16.91985 263
16.93996 255
16.96008 243
16.98019 245
17.00031 228
17.02042 231
17.04053 277
17.06065 264
17.08076 260
17.10087 237
17.12099 231
17.1411 225
17.16121 261
17.18133 241
17.20144 224
17.22156 243
17.24167 246
17.26178 236
17.2819 272
17.30201 242
17.32212 226
17.34224 287
17.36235 248
17.38247 243
17.40258 235
17.42269 246
17.44281 231
17.46292 254
17.48303 220
17.50315 233
17.52326 251
17.54338 275
17.56349 273
17.5836 273
17.60372 277
17.62383 247
17.64394 250
17.66406 273
17.68417 287
17.70428 312
17.7244 334
17.74451 373
17.76463 406
17.78474 370
17.80485 356
17.82497 313
17.84508 328
17.86519 282
17.88531 268
17.90542 237
17.92554 277
17.94565 268
17.96576 247
17.98588 256
18.00599 290
18.0261 260
18.04622 243
18.06633 249
18.08645 248
18.10656 239
18.12667 247
18.14679 263
18.1669 277
18.18701 305
18.20713 316
18.22724 298
18.24735 294
18.26747 348
18.28758 321
18.3077 316
18.32781 311
18.34792 343
18.36804 290
18.38815 312
18.40826 269
18.42838 285
18.44849 275
18.46861 234
18.48872 247
18.50883 272
18.52895 237
18.54906 275
18.56917 265
18.58929 254
18.6094 267
18.62951 268
18.64963 238
18.66974 263
18.68986 248
18.70997 290
18.73008 269
18.7502 241
18.77031 231
18.79042 264
18.81054 240
18.83065 244
18.85077 255
18.87088 270
18.89099 207
18.91111 230
18.93122 257
18.95133 273
18.97145 277
18.99156 271
19.01168 240
19.03179 274
19.0519 266
19.07202 281
19.09213 256
19.11224 246
19.13236 250
19.15247 259
19.17258 276
19.1927 290
19.21281 308
19.23293 282
19.25304 303
19.27315 291
19.29327 312
19.31338 296
19.33349 282
19.35361 289
19.37372 284
19.39384 300
19.41395 283
19.43406 293
19.45418 270
19.47429 320
19.4944 336
19.51452 353
19.53463 338
19.55475 362
19.57486 336
19.59497 344
19.61509 405
19.6352 438
19.65531 485
19.67543 524
19.69554 549
19.71565 590
19.73577 665
19.75588 682
19.776 747
19.79611 789
19.81622 783
19.83634 827
19.85645 794
19.87656 726
19.89668 649
19.91679 659
19.93691 570
19.95702 562
19.97713 566
19.99725 543
20.01736 539
20.03747 550
20.05759 592
20.0777 513
20.09782 557
20.11793 520
20.13804 514
20.15816 537
20.17827 506
20.19838 534
20.2185 533
20.23861 525
20.25872 492
20.27884 553
20.29895 543
20.31907 571
20.33918 560
20.35929 559
20.37941 556
20.39952 557
20.41963 573
20.43975 575
20.45986 578
20.47998 576
20.50009 662
20.5202 602
20.54032 646
20.56043 653
20.58054 661
20.60066 666
20.62077 728
20.64088 765
20.661 818
20.68111 864
20.70123 1073
20.72134 1406
20.74145 1687
20.76157 2330
20.78168 2849
20.80179 3751
20.82191 4267
20.84202 4648
20.86214 4635
20.88225 3836
20.90236 3006
20.92248 2303
20.94259 1610
20.9627 1151
20.98282 984
21.00293 873
21.02305 880
21.04316 776
21.06327 732
21.08339 668
21.1035 603
21.12361 541
21.14373 565
21.16384 537
21.18395 517
21.20407 546
21.22418 501
21.2443 462
21.26441 503
21.28452 506
21.30464 517
21.32475 464
21.34486 448
21.36498 481
21.38509 476
21.40521 491
21.42532 498
21.44543 471
21.46555 502
21.48566 507
21.50577 535
21.52589 582
21.546 500
21.56612 497
21.58623 460
21.60634 468
21.62646 449
21.64657 451
21.66668 409
21.6868 426
21.70691 424
21.72702 408
21.74714 400
21.76725 453
21.78737 388
21.80748 388
21.82759 395
21.84771 395
21.86782 429
21.88793 363
21.90805 388
21.92816 379
21.94828 375
21.96839 383
21.9885 392
22.00862 396
22.02873 390
22.04884 392
22.06896 345
22.08907 410
22.10919 396
22.1293 409
22.14941 379
22.16953 388
22.18964 401
22.20975 426
22.22987 447
22.24998 427
22.27009 455
22.29021 452
22.31032 418
22.33044 435
22.35055 423
22.37066 430
22.39078 410
22.41089 384
22.431 391
22.45112 402
22.47123 388
22.49135 412
22.51146 399
22.53157 364
22.55169 343
22.5718 340
22.59191 394
22.61203 384
22.63214 405
22.65225 361
22.67237 396
22.69248 458
22.7126 409
22.73271 420
22.75282 435
22.77294 455
22.79305 497
22.81316 536
22.83328 538
22.85339 530
22.87351 479
22.89362 480
22.91373 447
22.93385 445
22.95396 410
22.97407 423
22.99419 428
23.0143 419
23.03442 412
23.05453 429
23.07464 461
23.09476 442
23.11487 460
23.13498 479
23.1551 471
23.17521 464
23.19532 460
23.21544 445
23.23555 452
23.25567 428
23.27578 420
23.29589 378
23.31601 364
23.33612 375
23.35623 318
23.37635 349
23.39646 364
23.41658 345
23.43669 385
23.4568 358
23.47692 352
23.49703 350
23.51714 373
23.53726 362
23.55737 377
23.57749 398
23.5976 369
23.61771 357
23.63783 392
23.65794 436
23.67805 458
23.69817 503
23.71828 507
23.73839 513
23.75851 526
23.77862 508
23.79874 496
23.81885 476
23.83896 482
23.85908 517
23.87919 503
23.8993 451
23.91942 453
23.93953 521
23.95965 538
23.97976 544
23.99987 511
24.01999 528
24.0401 472
24.06021 471
24.08033 473
24.10044 430
24.12056 420
24.14067 396
24.16078 439
24.1809 395
24.20101 429
24.22112 405
24.24124 404
24.26135 451
24.28146 455
24.30158 456
24.32169 447
24.34181 435
24.36192 426
24.38203 450
24.40215 425
24.42226 413
24.44237 425
24.46249 419
24.4826 418
24.50272 400
24.52283 463
24.54294 484
24.56306 448
24.58317 534
24.60328 512
24.6234 521
24.64351 538
24.66362 559
24.68374 606
24.70385 603
24.72397 597
24.74408 658
24.76419 625
24.78431 640
24.80442 603
24.82453 660
24.84465 672
24.86476 645
24.88488 590
24.90499 580
24.9251 638
24.94522 550
24.96533 579
24.98544 554
25.00556 565
25.02567 530
25.04579 518
25.0659 500
25.08601 504
25.10613 482
25.12624 498
25.14635 513
25.16647 465
25.18658 491
25.20669 467
25.22681 472
25.24692 461
25.26704 500
25.28715 508
25.30726 465
25.32738 477
25.34749 540
25.3676 577
25.38772 594
25.40783 662
25.42795 705
25.44806 718
25.46817 691
25.48829 700
25.5084 625
25.52851 645
25.54863 631
25.56874 588
25.58886 519
25.60897 588
25.62908 538
25.6492 548
25.66931 571
25.68942 537
25.70954 511
25.72965 513
25.74976 509
25.76988 492
25.78999 518
25.81011 503
25.83022 469
25.85033 496
25.87045 536
25.89056 504
25.91067 478
25.93079 553
25.9509 534
25.97102 513
25.99113 538
26.01124 507
26.03136 539
26.05147 574
26.07158 598
26.0917 569
26.11181 587
26.13193 644
26.15204 712
26.17215 708
26.19227 752
26.21238 747
26.23249 800
26.25261 821
26.27272 897
26.29283 979
26.31295 1114
26.33306 1228
26.35318 1359
26.37329 1532
26.3934 1750
26.41352 2091
26.43363 2489
26.45374 2997
26.47386 4056
26.49397 5064
26.51409 6898
26.5342 9311
26.55431 12524
26.57443 16170
26.59454 19246
26.61465 21218
26.63477 20876
26.65488 18054
26.67499 14129
26.69511 10876
26.71522 7970
26.73534 5148
26.75545 3187
26.77556 2118
26.79568 1754
26.81579 1593
26.8359 1468
26.85602 1230
26.87613 1152
26.89625 1044
26.91636 989
26.93647 917
26.95659 821
26.9767 819
26.99681 796
27.01693 856
27.03704 783
27.05716 755
27.07727 711
27.09738 638
27.1175 647
27.13761 578
27.15772 559
27.17784 558
27.19795 516
27.21806 571
27.23818 560
27.25829 580
27.27841 613
27.29852 605
27.31863 712
27.33875 667
27.35886 852
27.37897 783
27.39909 816
27.4192 912
27.43932 842
27.45943 835
27.47954 806
27.49966 736
27.51977 623
27.53988 608
27.56 520
27.58011 482
27.60023 476
27.62034 501
27.64045 463
27.66057 461
27.68068 493
27.70079 533
27.72091 549
27.74102 556
27.76113 608
27.78125 602
27.80136 669
27.82148 576
27.84159 647
27.8617 579
27.88182 542
27.90193 475
27.92204 487
27.94216 410
27.96227 414
27.98239 408
28.0025 378
28.02261 375
28.04273 347
28.06284 359
28.08295 393
28.10307 364
28.12318 377
28.1433 364
28.16341 385
28.18352 356
28.20364 331
28.22375 360
28.24386 332
28.26398 354
28.28409 348
28.3042 415
28.32432 338
28.34443 317
28.36455 357
28.38466 323
28.40477 350
28.42489 352
28.445 311
28.46511 339
28.48523 358
28.50534 355
28.52546 365
28.54557 372
28.56568 340
28.5858 323
28.60591 335
28.62602 324
28.64614 303
28.66625 311
28.68636 343
28.70648 337
28.72659 322
28.74671 341
28.76682 282
28.78693 317
28.80705 331
28.82716 335
28.84727 311
28.86739 309
28.8875 316
28.90762 296
28.92773 358
28.94784 315
28.96796 311
28.98807 266
29.00818 317
29.0283 303
29.04841 302
29.06853 304
29.08864 318
29.10875 285
29.12887 287
29.14898 335
29.16909 310
29.18921 334
29.20932 311
29.22943 336
29.24955 310
29.26966 325
29.28978 358
29.30989 318
29.33 297
29.35012 336
29.37023 374
29.39034 350
29.41046 399
29.43057 376
29.45069 392
29.4708 357
29.49091 381
29.51103 373
29.53114 347
29.55125 349
29.57137 360
29.59148 338
29.6116 331
29.63171 379
29.65182 381
29.67194 416
29.69205 380
29.71216 391
29.73228 455
29.75239 466
29.7725 473
29.79262 558
29.81273 547
29.83285 545
29.85296 519
29.87307 486
29.89319 467
29.9133 463
29.93341 461
29.95353 396
29.97364 390
29.99376 422
30.01387 357
30.03398 351
30.0541 349
30.07421 394
30.09432 379
30.11444 403
30.13455 430
30.15467 421
30.17478 462
30.19489 453
30.21501 425
30.23512 406
30.25523 420
30.27535 371
30.29546 331
30.31557 346
30.33569 325
30.3558 310
30.37592 299
30.39603 305
30.41614 322
30.43626 289
30.45637 284
30.47648 315
30.4966 285
30.51671 310
30.53683 299
30.55694 293
30.57705 308
30.59717 311
30.61728 342
30.63739 354
30.65751 373
30.67762 359
30.69773 387
30.71785 387
30.73796 406
30.75808 385
30.77819 352
30.7983 376
30.81842 368
30.83853 355
30.85864 371
30.87876 295
30.89887 376
30.91899 349
30.9391 332
30.95921 335
30.97933 322
30.99944 331
31.01955 339
31.03967 297
31.05978 330
31.0799 361
31.10001 384
31.12012 387
31.14024 427
31.16035 421
31.18046 444
31.20058 410
31.22069 417
31.2408 394
31.26092 366
31.28103 360
31.30115 341
31.32126 318
31.34137 291
31.36149 327
31.3816 310
31.40171 334
31.42183 292
31.44194 293
31.46206 271
31.48217 283
31.50228 279
31.5224 285
31.54251 313
31.56262 262
31.58274 295
31.60285 268
31.62297 275
31.64308 276
31.66319 267
31.68331 292
31.70342 279
31.72353 281
31.74365 272
31.76376 294
31.78387 279
31.80399 298
31.8241 277
31.84422 299
31.86433 335
31.88444 337
31.90456 330
31.92467 350
31.94478 438
31.9649 350
31.98501 391
32.00513 366
32.02524 413
32.04535 380
32.06547 356
32.08558 340
32.10569 335
32.12581 353
32.14592 328
32.16604 324
32.18615 305
32.20626 297
32.22638 281
32.24649 264
32.2666 275
32.28672 293
32.30683 270
32.32694 287
32.34706 311
32.36717 301
32.38729 296
32.4074 347
32.42751 309
32.44763 306
32.46774 298
32.48785 317
32.50797 309
32.52808 283
32.5482 308
32.56831 272
32.58842 278
32.60854 269
32.62865 252
32.64876 268
32.66888 258
32.68899 279
32.7091 301
32.72922 300
32.74933 262
32.76945 253
32.78956 298
32.80967 294
32.82979 279
32.8499 269
32.87001 304
32.89013 286
32.91024 280
32.93036 274
32.95047 302
32.97058 284
32.9907 277
33.01081 352
33.03092 350
33.05104 329
33.07115 334
33.09127 352
33.11138 360
33.13149 382
33.15161 360
33.17172 354
33.19183 369
33.21195 338
33.23206 306
33.25217 354
33.27229 284
33.2924 322
33.31252 299
33.33263 287
33.35274 303
33.37286 296
33.39297 274
33.41308 251
33.4332 271
33.45331 255
33.47343 262
33.49354 268
33.51365 290
33.53377 253
33.55388 289
33.57399 252
33.59411 256
33.61422 232
33.63434 248
33.65445 296
33.67456 267
33.69468 291
33.71479 299
33.7349 260
33.75502 280
33.77513 268
33.79524 269
33.81536 278
33.83547 256
33.85559 291
33.8757 251
33.89581 252
33.91593 256
33.93604 274
33.95615 285
33.97627 310
33.99638 290
34.0165 296
34.03661 292
34.05672 319
34.07684 321
34.09695 318
34.11706 366
34.13718 332
34.15729 373
34.17741 373
34.19752 358
34.21763 340
34.23775 403
34.25786 351
34.27797 365
34.29809 368
34.3182 351
34.33831 396
34.35843 426
34.37854 394
34.39866 419
34.41877 436
34.43888 435
34.459 447
34.47911 436
34.49922 438
34.51934 407
34.53945 410
34.55957 424
34.57968 439
34.59979 392
34.61991 418
34.64002 435
34.66013 475
34.68025 447
34.70036 502
34.72047 551
34.74059 613
34.7607 605
34.78082 644
34.80093 705
34.82104 788
34.84116 758
34.86127 818
34.88138 843
34.9015 802
34.92161 742
34.94173 646
34.96184 651
34.98195 606
35.00207 570
35.02218 561
35.04229 506
35.06241 471
35.08252 439
35.10264 474
35.12275 437
35.14286 446
35.16298 383
35.18309 430
35.2032 420
35.22332 426
35.24343 451
35.26354 459
35.28366 421
35.30377 405
35.32389 478
35.344 485
35.36411 477
35.38423 471
35.40434 474
35.42445 438
35.44457 464
35.46468 490
35.4848 471
35.50491 468
35.52502 512
35.54514 467
35.56525 466
35.58536 486
35.60548 444
35.62559 510
35.64571 490
35.66582 471
35.68593 493
35.70605 492
35.72616 439
35.74627 459
35.76639 455
35.7865 433
35.80661 460
35.82673 425
35.84684 434
35.86696 455
35.88707 446
35.90718 474
35.9273 430
35.94741 432
35.96752 455
35.98764 426
36.00775 440
36.02787 427
36.04798 398
36.06809 369
36.08821 375
36.10832 402
36.12843 359
36.14855 399
36.16866 385
36.18878 369
36.20889 403
36.229 435
36.24912 411
36.26923 429
36.28934 506
36.30946 512
36.32957 526
36.34968 593
36.3698 607
36.38991 727
36.41003 847
36.43014 942
36.45025 1154
36.47037 1320
36.49048 1422
36.51059 1531
36.53071 1539
36.55082 1356
36.57094 1234
36.59105 1000
36.61116 948
36.63128 809
36.65139 713
36.6715 524
36.69162 448
36.71173 421
36.73184 373
36.75196 367
36.77207 368
36.79219 359
36.8123 356
36.83241 351
36.85253 392
36.87264 393
36.89275 357
36.91287 370
36.93298 380
36.9531 353
36.97321 366
36.99332 315
37.01344 388
37.03355 365
37.05366 374
37.07378 316
37.09389 328
37.11401 329
37.13412 347
37.15423 308
37.17435 337
37.19446 339
37.21457 366
37.23469 364
37.2548 322
37.27491 341
37.29503 374
37.31514 380
37.33526 379
37.35537 391
37.37548 389
37.3956 374
37.41571 400
37.43582 360
37.45594 422
37.47605 398
37.49617 407
37.51628 393
37.53639 415
37.55651 424
37.57662 448
37.59673 465
37.61685 476
37.63696 427
37.65708 449
37.67719 434
37.6973 431
37.71742 428
37.73753 389
37.75764 403
37.77776 364
37.79787 347
37.81798 342
37.8381 320
37.85821 330
37.87833 315
37.89844 331
37.91855 339
37.93867 380
37.95878 305
37.97889 338
37.99901 333
38.01912 343
38.03924 348
38.05935 355
38.07946 383
38.09958 371
38.11969 341
38.1398 369
38.15992 353
38.18003 376
38.20015 357
38.22026 376
38.24037 343
38.26049 433
38.2806 390
38.30071 407
38.32083 407
38.34094 394
38.36105 444
38.38117 420
38.40128 438
38.4214 467
38.44151 412
38.46162 447
38.48174 443
38.50185 417
38.52196 434
38.54208 414
38.56219 338
38.58231 404
38.60242 367
38.62253 386
38.64265 408
38.66276 367
38.68287 347
38.70299 357
38.7231 307
38.74321 292
38.76333 358
38.78344 344
38.80356 325
38.82367 326
38.84378 329
38.8639 313
38.88401 364
38.90412 340
38.92424 304
38.94435 357
38.96447 347
38.98458 350
39.00469 356
39.02481 389
39.04492 359
39.06503 370
39.08515 366
39.10526 382
39.12538 371
39.14549 374
39.1656 419
39.18572 415
39.20583 427
39.22594 445
39.24606 467
39.26617 535
39.28628 568
39.3064 680
39.32651 741
39.34663 855
39.36674 1009
39.38685 1191
39.40697 1296
39.42708 1430
39.44719 1405
39.46731 1317
39.48742 1176
39.50754 997
39.52765 866
39.54776 852
39.56788 738
39.58799 627
39.6081 464
39.62822 393
39.64833 382
39.66845 336
39.68856 348
39.70867 341
39.72879 312
39.7489 314
39.76901 345
39.78913 330
39.80924 349
39.82935 352
39.84947 288
39.86958 360
39.8897 393
39.90981 387
39.92992 348
39.95004 374
39.97015 387
39.99026 372
40.01038 354
40.03049 382
40.05061 377
40.07072 405
40.09083 465
40.11095 444
40.13106 485
40.15117 519
40.17129 556
40.1914 686
40.21152 731
40.23163 779
40.25174 898
40.27186 845
40.29197 815
40.31208 691
40.3322 638
40.35231 581
40.37242 512
40.39254 522
40.41265 461
40.43277 386
40.45288 354
40.47299 316
40.49311 308
40.51322 315
40.53333 286
40.55345 320
40.57356 291
40.59368 317
40.61379 329
40.6339 329
40.65402 352
40.67413 326
40.69424 316
40.71436 314
40.73447 308
40.75458 324
40.7747 320
40.79481 313
40.81493 339
40.83504 332
40.85515 361
40.87527 350
40.89538 355
40.91549 327
40.93561 327
40.95572 320
40.97584 330
40.99595 322
41.01606 298
41.03618 340
41.05629 299
41.0764 322
41.09652 353
41.11663 310
41.13675 293
41.15686 324
41.17697 294
41.19709 307
41.2172 256
41.23731 327
41.25743 324
41.27754 305
41.29765 271
41.31777 318
41.33788 293
41.358 290
41.37811 274
41.39822 283
41.41834 331
41.43845 287
41.45856 313
41.47868 340
41.49879 255
41.51891 302
41.53902 316
41.55913 303
41.57925 314
41.59936 288
41.61947 318
41.63959 343
41.6597 299
41.67982 306
41.69993 364
41.72004 368
41.74016 418
41.76027 401
41.78038 380
41.8005 389
41.82061 436
41.84072 402
41.86084 384
41.88095 344
41.90107 358
41.92118 382
41.94129 343
41.96141 337
41.98152 320
42.00163 326
42.02175 308
42.04186 318
42.06198 319
42.08209 349
42.1022 392
42.12232 342
42.14243 365
42.16254 383
42.18266 431
42.20277 402
42.22289 474
42.243 493
42.26311 558
42.28323 606
42.30334 723
42.32345 760
42.34357 863
42.36368 882
42.38379 1069
42.40391 1100
42.42402 1030
42.44414 1070
42.46425 841
42.48436 805
42.50448 737
42.52459 729
42.5447 654
42.56482 571
42.58493 439
42.60505 393
42.62516 313
42.64527 328
42.66539 313
42.6855 280
42.70561 275
42.72573 292
42.74584 285
42.76595 304
42.78607 287
42.80618 293
42.8263 277
42.84641 294
42.86652 272
42.88664 279
42.90675 278
42.92686 268
42.94698 264
42.96709 286
42.98721 262
43.00732 268
43.02743 260
43.04755 255
43.06766 243
43.08777 242
43.10789 280
43.128 272
43.14812 259
43.16823 270
43.18834 260
43.20846 257
43.22857 264
43.24868 268
43.2688 258
43.28891 276
43.30902 273
43.32914 276
43.34925 238
43.36937 247
43.38948 244
43.40959 240
43.42971 257
43.44982 281
43.46993 252
43.49005 263
43.51016 267
43.53028 274
43.55039 263
43.5705 267
43.59062 281
43.61073 252
43.63084 256
43.65096 267
43.67107 253
43.69119 247
43.7113 230
43.73141 255
43.75153 236
43.77164 246
43.79175 245
43.81187 248
43.83198 244
43.85209 246
43.87221 272
43.89232 287
43.91244 265
43.93255 245
43.95266 281
43.97278 240
43.99289 267
44.013 256
44.03312 260
44.05323 249
44.07335 263
44.09346 279
44.11357 268
44.13369 258
44.1538 247
44.17391 267
44.19403 236
44.21414 248
44.23426 280
44.25437 267
44.27448 254
44.2946 247
44.31471 246
44.33482 247
44.35494 256
44.37505 278
44.39516 267
44.41528 257
44.43539 248
44.45551 254
44.47562 249
44.49573 262
44.51585 236
44.53596 256
44.55607 246
44.57619 264
44.5963 258
44.61642 301
44.63653 262
44.65664 238
44.67676 244
44.69687 244
44.71698 226
44.7371 250
44.75721 233
44.77732 246
44.79744 273
44.81755 273
44.83767 247
44.85778 258
44.87789 268
44.89801 257
44.91812 240
44.93823 266
44.95835 220
44.97846 268
44.99858 302
45.01869 257
45.0388 269
45.05892 273
45.07903 260
45.09914 291
45.11926 290
45.13937 254
45.15949 281
45.1796 331
45.19971 319
45.21983 327
45.23994 296
45.26005 325
45.28017 313
45.30028 356
45.32039 361
45.34051 414
45.36062 388
45.38074 425
45.40085 417
45.42096 435
45.44108 485
45.46119 455
45.4813 419
45.50142 420
45.52153 442
45.54165 461
45.56176 463
45.58187 435
45.60199 478
45.6221 515
45.64221 539
45.66233 591
45.68244 598
45.70256 721
45.72267 775
45.74278 791
45.7629 809
45.78301 820
45.80312 698
45.82324 615
45.84335 637
45.86346 612
45.88358 575
45.90369 506
45.92381 480
45.94392 442
45.96403 376
45.98415 361
46.00426 351
46.02437 351
46.04449 275
46.0646 322
46.08472 281
46.10483 296
46.12494 280
46.14506 277
46.16517 283
46.18528 285
46.2054 295
46.22551 288
46.24563 267
46.26574 286
46.28585 253
46.30597 290
46.32608 290
46.34619 276
46.36631 273
46.38642 254
46.40653 286
46.42665 296
46.44676 259
46.46688 297
46.48699 271
46.5071 273
46.52722 283
46.54733 307
46.56744 265
46.58756 255
46.60767 264
46.62779 268
46.6479 259
46.66801 230
46.68813 248
46.70824 260
46.72835 249
46.74847 234
46.76858 267
46.78869 242
46.80881 261
46.82892 245
46.84904 257
46.86915 259
46.88926 243
46.90938 233
46.92949 268
46.9496 280
46.96972 249
46.98983 265
47.00995 264
47.03006 266
47.05017 269
47.07029 288
47.0904 242
47.11051 259
47.13063 266
47.15074 288
47.17086 273
47.19097 244
47.21108 296
47.2312 283
47.25131 262
47.27142 228
47.29154 280
47.31165 252
47.33176 264
47.35188 234
47.37199 251
47.39211 252
47.41222 253
47.43233 265
47.45245 244
47.47256 291
47.49267 261
47.51279 240
47.5329 294
47.55302 242
47.57313 243
47.59324 251
47.61336 233
47.63347 252
47.65358 241
47.6737 235
47.69381 246
47.71393 273
47.73404 260
47.75415 250
47.77427 237
47.79438 265
47.81449 245
47.83461 257
47.85472 232
47.87483 235
47.89495 232
47.91506 276
47.93518 271
47.95529 266
47.9754 269
47.99552 268
48.01563 282
48.03574 250
48.05586 264
48.07597 251
48.09609 253
48.1162 253
48.13631 257
48.15643 248
48.17654 261
48.19665 252
48.21677 237
48.23688 254
48.257 213
48.27711 254
48.29722 228
48.31734 264
48.33745 258
48.35756 242
48.37768 247
48.39779 238
48.4179 271
48.43802 256
48.45813 265
48.47825 239
48.49836 255
48.51847 242
48.53859 242
48.5587 218
48.57881 270
48.59893 256
48.61904 264
48.63916 268
48.65927 268
48.67938 313
48.6995 283
48.71961 249
48.73972 277
48.75984 279
48.77995 247
48.80006 268
48.82018 233
48.84029 257
48.86041 299
48.88052 279
48.90063 267
48.92075 269
48.94086 237
48.96097 279
48.98109 282
49.0012 257
49.02132 301
49.04143 271
49.06154 281
49.08166 280
49.10177 267
49.12188 247
49.142 274
49.16211 290
49.18223 268
49.20234 253
49.22245 300
49.24257 233
49.26268 262
49.28279 265
49.30291 247
49.32302 268
49.34313 252
49.36325 292
49.38336 299
49.40348 294
49.42359 274
49.4437 306
49.46382 291
49.48393 281
49.50404 248
49.52416 312
49.54427 293
49.56439 290
49.5845 282
49.60461 273
49.62473 271
49.64484 297
49.66495 307
49.68507 311
49.70518 329
49.7253 304
49.74541 342
49.76552 319
49.78564 372
49.80575 405
49.82586 429
49.84598 437
49.86609 460
49.8862 537
49.90632 552
49.92643 636
49.94655 755
49.96666 881
49.98677 953
50.00689 1262
50.027 1373
50.04711 1711
50.06723 1908
50.08734 2059
50.10746 2089
50.12757 2001
50.14768 1716
50.1678 1481
50.18791 1263
50.20802 1280
50.22814 1188
50.24825 1150
50.26837 991
50.28848 725
50.30859 579
50.32871 430
50.34882 415
50.36893 390
50.38905 363
50.40916 371
50.42927 360
50.44939 363
50.4695 368
50.48962 385
50.50973 401
50.52984 413
50.54996 374
50.57007 387
50.59018 380
50.6103 355
50.63041 334
50.65053 333
50.67064 335
50.69075 314
50.71087 289
50.73098 290
50.75109 287
50.77121 276
50.79132 269
50.81143 286
50.83155 249
50.85166 268
50.87178 269
50.89189 277
50.912 268
50.93212 273
50.95223 269
50.97234 264
50.99246 274
51.01257 271
51.03269 286
51.0528 244
51.07291 241
51.09303 251
51.11314 233
51.13325 233
51.15337 225
51.17348 223
51.1936 235
51.21371 221
51.23382 261
51.25394 241
51.27405 251
51.29416 248
51.31428 226
51.33439 209
51.3545 249
51.37462 238
51.39473 226
51.41485 216
51.43496 225
51.45507 230
51.47519 208
51.4953 254
51.51541 221
51.53553 247
51.55564 234
51.57576 242
51.59587 222
51.61598 241
51.6361 242
51.65621 231
51.67632 243
51.69644 241
51.71655 247
51.73667 224
51.75678 257
51.77689 230
51.79701 218
51.81712 221
51.83723 226
51.85735 217
51.87746 252
51.89757 234
51.91769 228
51.9378 214
51.95792 211
51.97803 225
51.99814 246
52.01826 237
52.03837 205
52.05848 234
52.0786 248
52.09871 222
52.11883 219
52.13894 226
52.15905 217
52.17917 241
52.19928 221
52.21939 256
52.23951 238
52.25962 231
52.27974 239
52.29985 216
52.31996 221
52.34008 228
52.36019 231
52.3803 236
52.40042 248
52.42053 232
52.44064 221
52.46076 235
52.48087 259
52.50099 282
52.5211 207
52.54121 247
52.56133 259
52.58144 244
52.60155 223
52.62167 267
52.64178 265
52.6619 263
52.68201 238
52.70212 256
52.72224 264
52.74235 216
52.76246 245
52.78258 245
52.80269 264
52.8228 251
52.84292 233
52.86303 286
52.88315 261
52.90326 234
52.92337 254
52.94349 254
52.9636 256
52.98371 263
53.00383 250
53.02394 223
53.04406 242
53.06417 249
53.08428 239
53.1044 253
53.12451 241
53.14462 254
53.16474 243
53.18485 220
53.20497 220
53.22508 248
53.24519 245
53.26531 211
53.28542 243
53.30553 267
53.32565 235
53.34576 277
53.36587 287
53.38599 272
53.4061 279
53.42622 238
53.44633 247
53.46644 247
53.48656 248
53.50667 264
53.52678 274
53.5469 301
53.56701 267
53.58713 258
53.60724 245
53.62735 272
53.64747 316
53.66758 267
53.68769 280
53.70781 263
53.72792 283
53.74804 311
53.76815 307
53.78826 258
53.80838 281
53.82849 283
53.8486 269
53.86872 293
53.88883 329
53.90894 284
53.92906 275
53.94917 309
53.96929 313
53.9894 285
54.00951 296
54.02963 299
54.04974 305
54.06985 296
54.08997 332
54.11008 325
54.1302 278
54.15031 276
54.17042 320
54.19054 289
54.21065 324
54.23076 295
54.25088 339
54.27099 284
54.29111 254
54.31122 305
54.33133 297
54.35145 317
54.37156 297
54.39167 322
54.41179 334
54.4319 295
54.45201 313
54.47213 332
54.49224 301
54.51236 323
54.53247 311
54.55258 389
54.5727 341
54.59281 370
54.61292 387
54.63304 408
54.65315 383
54.67327 457
54.69338 443
54.71349 524
54.73361 568
54.75372 570
54.77383 713
54.79395 764
54.81406 813
54.83417 839
54.85429 857
54.8744 812
54.89452 693
54.91463 645
54.93474 597
54.95486 574
54.97497 660
54.99508 636
55.0152 587
55.03531 478
55.05543 472
55.07554 480
55.09565 456
55.11577 471
55.13588 415
55.15599 466
55.17611 428
55.19622 481
55.21634 530
55.23645 527
55.25656 573
55.27668 587
55.29679 574
55.3169 536
55.33702 495
55.35713 502
55.37724 442
55.39736 423
55.41747 477
55.43759 468
55.4577 437
55.47781 408
55.49793 369
55.51804 369
55.53815 381
55.55827 378
55.57838 344
55.5985 383
55.61861 354
55.63872 350
55.65884 388
55.67895 359
55.69906 364
55.71918 361
55.73929 337
55.75941 346
55.77952 341
55.79963 368
55.81975 327
55.83986 323
55.85997 345
55.88009 321
55.9002 339
55.92031 336
55.94043 298
55.96054 306
55.98066 269
56.00077 280
56.02088 275
56.041 282
56.06111 282
56.08122 283
56.10134 273
56.12145 280
56.14157 252
56.16168 263
56.18179 265
56.20191 268
56.22202 284
56.24213 273
56.26225 274
56.28236 266
56.30248 284
56.32259 283
56.3427 251
56.36282 279
56.38293 281
56.40304 269
56.42316 279
56.44327 258
56.46338 263
56.4835 293
56.50361 276
56.52373 255
56.54384 307
56.56395 289
56.58407 266
56.60418 285
56.62429 275
56.64441 287
56.66452 280
56.68464 280
56.70475 265
56.72486 289
56.74498 284
56.76509 271
56.7852 290
56.80532 289
56.82543 268
56.84554 285
56.86566 263
56.88577 282
56.90589 275
56.926 269
56.94611 265
56.96623 254
56.98634 274
57.00645 275
57.02657 280
57.04668 273
57.0668 235
57.08691 287
57.10702 259
57.12714 251
57.14725 275
57.16736 279
57.18748 291
57.20759 283
57.22771 307
57.24782 289
57.26793 295
57.28805 276
57.30816 281
57.32827 276
57.34839 282
57.3685 279
57.38861 277
57.40873 264
57.42884 269
57.44896 279
57.46907 286
57.48918 272
57.5093 276
57.52941 259
57.54952 257
57.56964 240
57.58975 258
57.60987 270
57.62998 249
57.65009 212
57.67021 208
57.69032 223
57.71043 235
57.73055 237
57.75066 262
57.77078 226
57.79089 219
57.811 239
57.83112 248
57.85123 221
57.87134 215
57.89146 211
57.91157 251
57.93168 249
57.9518 221
57.97191 202
57.99203 230
58.01214 257
58.03225 237
58.05237 210
58.07248 247
58.09259 236
58.11271 236
58.13282 217
58.15294 244
58.17305 255
58.19316 228
58.21328 250
58.23339 223
58.2535 256
58.27362 237
58.29373 235
58.31385 246
58.33396 273
58.35407 229
58.37419 247
58.3943 253
58.41441 236
58.43453 268
58.45464 236
58.47475 251
58.49487 230
58.51498 226
58.5351 222
58.55521 241
58.57532 251
58.59544 258
58.61555 242
58.63566 253
58.65578 237
58.67589 257
58.69601 226
58.71612 253
58.73623 253
58.75635 235
58.77646 242
58.79657 242
58.81669 246
58.8368 241
58.85691 273
58.87703 258
58.89714 236
58.91726 226
58.93737 248
58.95748 253
58.9776 239
58.99771 254
59.01782 290
59.03794 246
59.05805 238
59.07817 258
59.09828 245
59.11839 276
59.13851 256
59.15862 282
59.17873 266
59.19885 242
59.21896 281
59.23908 269
59.25919 308
59.2793 277
59.29942 271
59.31953 294
59.33964 242
59.35976 262
59.37987 266
59.39998 304
59.4201 282
59.44021 275
59.46033 240
59.48044 277
59.50055 309
59.52067 311
59.54078 301
59.56089 315
59.58101 362
59.60112 352
59.62124 380
59.64135 374
59.66146 426
59.68158 408
59.70169 494
59.7218 496
59.74192 519
59.76203 598
59.78215 715
59.80226 804
59.82237 907
59.84249 1099
59.8626 1168
59.88271 1326
59.90283 1435
59.92294 1477
59.94305 1301
59.96317 1133
59.98328 945
60.0034 852
60.02351 830
60.04362 809
60.06374 873
60.08385 811
60.10396 728
60.12408 647
60.14419 531
60.16431 430
60.18442 369
60.20453 350
60.22465 309
60.24476 309
60.26487 306
60.28499 312
60.3051 291
60.32522 339
60.34533 295
60.36544 299
60.38556 272
60.40567 291
60.42578 287
60.4459 241
60.46601 312
60.48612 284
60.50624 333
60.52635 285
60.54647 245
60.56658 301
60.58669 282
60.60681 285
60.62692 283
60.64703 260
60.66715 282
60.68726 296
60.70738 304
60.72749 275
60.7476 303
60.76772 279
60.78783 260
60.80794 269
60.82806 263
60.84817 245
60.86828 269
60.8884 262
60.90851 261
60.92863 279
60.94874 251
60.96885 281
60.98897 274
61.00908 277
61.02919 295
61.04931 291
61.06942 295
61.08954 283
61.10965 302
61.12976 284
61.14988 259
61.16999 293
61.1901 282
61.21022 256
61.23033 298
61.25045 297
61.27056 310
61.29067 330
61.31079 340
61.3309 349
61.35101 321
61.37113 346
61.39124 323
61.41135 358
61.43147 363
61.45158 391
61.4717 324
61.49181 355
61.51192 416
61.53204 360
61.55215 356
61.57226 348
61.59238 321
61.61249 356
61.63261 330
61.65272 305
61.67283 334
61.69295 291
61.71306 263
61.73317 287
61.75329 295
61.7734 302
61.79352 295
61.81363 261
61.83374 275
61.85386 265
61.87397 286
61.89408 254
61.9142 266
61.93431 293
61.95442 302
61.97454 256
61.99465 278
62.01477 287
62.03488 304
62.05499 310
62.07511 296
62.09522 291
62.11533 315
62.13545 352
62.15556 351
62.17568 314
62.19579 341
62.2159 341
62.23602 342
62.25613 337
62.27624 347
62.29636 354
62.31647 372
62.33659 358
62.3567 348
62.37681 370
62.39693 320
62.41704 339
62.43715 313
62.45727 353
62.47738 315
62.49749 329
62.51761 323
62.53772 305
62.55784 311
62.57795 293
62.59806 277
62.61818 288
62.63829 286
62.6584 295
62.67852 270
62.69863 273
62.71875 259
62.73886 287
62.75897 259
62.77909 291
62.7992 241
62.81931 280
62.83943 254
62.85954 266
62.87965 244
62.89977 276
62.91988 270
62.94 284
62.96011 274
62.98022 265
63.00034 255
63.02045 295
63.04056 249
63.06068 262
63.08079 247
63.10091 260
63.12102 262
63.14113 285
63.16125 260
63.18136 262
63.20147 277
63.22159 267
63.2417 268
63.26182 242
63.28193 251
63.30204 262
63.32216 239
63.34227 238
63.36238 236
63.3825 254
63.40261 230
63.42272 252
63.44284 234
63.46295 233
63.48307 225
63.50318 241
63.52329 251
63.54341 267
63.56352 242
63.58363 260
63.60375 240
63.62386 235
63.64398 272
63.66409 264
63.6842 277
63.70432 298
63.72443 282
63.74454 288
63.76466 298
63.78477 310
63.80489 302
63.825 349
63.84511 367
63.86523 395
63.88534 366
63.90545 404
63.92557 439
63.94568 477
63.96579 494
63.98591 521
64.00602 451
64.02614 486
64.04625 427
64.06636 383
64.08648 398
64.10659 400
64.1267 360
64.14682 368
64.16693 343
64.18705 331
64.20716 326
64.22727 265
64.24739 291
64.2675 246
64.28761 263
64.30773 224
64.32784 220
64.34796 231
64.36807 268
64.38818 242
64.4083 236
64.42841 217
64.44852 202
64.46864 241
64.48875 234
64.50886 229
64.52898 226
64.54909 224
64.56921 240
64.58932 214
64.60943 218
64.62955 224
64.64966 206
64.66977 201
64.68989 227
64.71 238
64.73012 226
64.75023 250
64.77034 216
64.79046 198
64.81057 246
64.83068 230
64.8508 248
64.87091 209
64.89102 261
64.91114 246
64.93125 254
64.95137 236
64.97148 214
64.99159 242
65.01171 235
65.03182 269
65.05193 219
65.07205 250
65.09216 255
65.11228 258
65.13239 232
65.1525 240
65.17262 239
65.19273 247
65.21284 252
65.23296 246
65.25307 239
65.27319 224
65.2933 236
65.31341 259
65.33353 223
65.35364 225
65.37375 229
65.39387 230
65.41398 218
65.43409 236
65.45421 240
65.47432 217
65.49444 238
65.51455 223
65.53466 243
65.55478 224
65.57489 229
65.595 240
65.61512 247
65.63523 260
65.65535 271
65.67546 241
65.69557 280
65.71569 260
65.7358 298
65.75591 298
65.77603 277
65.79614 250
65.81626 259
65.83637 257
65.85648 249
65.8766 260
65.89671 239
65.91682 246
65.93694 242
65.95705 251
65.97716 231
65.99728 254
66.01739 222
66.03751 230
66.05762 226
66.07773 234
66.09785 240
66.11796 226
66.13807 251
66.15819 229
66.1783 254
66.19842 265
66.21853 220
66.23864 225
66.25876 233
66.27887 207
66.29898 219
66.3191 213
66.33921 245
66.35933 229
66.37944 255
66.39955 247
66.41967 225
66.43978 218
66.45989 270
66.48001 206
66.50012 236
66.52023 242
66.54035 244
66.56046 258
66.58058 203
66.60069 229
66.6208 212
66.64092 247
66.66103 220
66.68114 230
66.70126 211
66.72137 215
66.74149 211
66.7616 238
66.78171 231
66.80183 225
66.82194 243
66.84205 262
66.86217 236
66.88228 214
66.90239 229
66.92251 218
66.94262 197
66.96274 209
66.98285 216
67.00296 233
67.02308 236
67.04319 221
67.0633 236
67.08342 227
67.10353 267
67.12365 222
67.14376 282
67.16387 249
67.18399 247
67.2041 233
67.22421 246
67.24433 263
67.26444 268
67.28456 283
67.30467 272
67.32478 261
67.3449 293
67.36501 273
67.38512 296
67.40524 283
67.42535 312
67.44546 300
67.46558 356
67.48569 356
67.50581 396
67.52592 426
67.54603 452
67.56615 525
67.58626 596
67.60637 654
67.62649 704
67.6466 848
67.66672 867
67.68683 876
67.70694 892
67.72706 881
67.74717 792
67.76728 691
67.7874 631
67.80751 623
67.82763 650
67.84774 670
67.86785 651
67.88797 771
67.90808 783
67.92819 688
67.94831 737
67.96842 718
67.98853 760
68.00865 839
68.02876 950
68.04888 957
68.06899 1074
68.0891 1167
68.10922 1198
68.12933 1095
68.14944 1024
68.16956 910
68.18967 944
68.20979 973
68.2299 998
68.25001 1106
68.27013 1141
68.29024 1028
68.31035 974
68.33047 860
68.35058 721
68.3707 578
68.39081 537
68.41092 527
68.43104 507
68.45115 512
68.47126 465
68.49138 460
68.51149 392
68.5316 350
68.55172 319
68.57183 279
68.59195 309
68.61206 244
68.63217 247
68.65229 236
68.6724 270
68.69251 242
68.71263 247
68.73274 245
68.75286 251
68.77297 243
68.79308 227
68.8132 216
68.83331 241
68.85342 220
68.87354 245
68.89365 238
68.91376 268
68.93388 206
68.95399 241
68.97411 227
68.99422 233
69.01433 236
69.03445 228
69.05456 256
69.07467 247
69.09479 241
69.1149 212
69.13502 254
69.15513 221
69.17524 238
69.19536 238
69.21547 258
69.23558 244
69.2557 238
69.27581 240
69.29593 268
69.31604 268
69.33615 274
69.35627 254
69.37638 272
69.39649 276
69.41661 263
69.43672 273
69.45683 245
69.47695 267
69.49706 227
69.51718 267
69.53729 255
69.5574 248
69.57752 246
69.59763 252
69.61774 267
69.63786 263
69.65797 232
69.67809 227
69.6982 223
69.71831 254
69.73843 218
69.75854 251
69.77865 242
69.79877 194
69.81888 241
69.839 242
69.85911 222
69.87922 237
69.89934 214
69.91945 251
69.93956 221
69.95968 233
69.97979 240
69.9999 233
70.02002 243
70.04013 229
70.06025 239
70.08036 233
70.10047 211
70.12059 237
70.1407 260
70.16081 251
70.18093 251
70.20104 268
70.22116 265
70.24127 240
70.26138 240
70.2815 250
70.30161 256
70.32172 224
70.34184 218
70.36195 223
70.38207 250
70.40218 231
70.42229 254
70.44241 217
70.46252 224
70.48263 217
70.50275 227
70.52286 231
70.54297 212
70.56309 244
70.5832 202
70.60332 217
70.62343 230
70.64354 225
70.66366 215
70.68377 188
70.70388 222
70.724 230
70.74411 226
70.76423 227
70.78434 197
70.80445 220
70.82457 199
70.84468 183
70.86479 239
70.88491 205
70.90502 213
70.92513 238
70.94525 219
70.96536 217
70.98548 220
71.00559 228
71.0257 206
71.04582 229
71.06593 223
71.08604 209
71.10616 232
71.12627 211
71.14639 213
71.1665 212
71.18661 236
71.20673 212
71.22684 209
71.24695 235
71.26707 224
71.28718 223
71.3073 227
71.32741 246
71.34752 203
71.36764 206
71.38775 235
71.40786 227
71.42798 245
71.44809 190
71.4682 226
71.48832 198
71.50843 220
71.52855 211
71.54866 216
71.56877 216
71.58889 210
71.609 215
71.62911 211
71.64923 205
71.66934 200
71.68946 231
71.70957 232
71.72968 219
71.7498 226
71.76991 220
71.79002 213
71.81014 192
71.83025 224
71.85037 225
71.87048 224
71.89059 239
71.91071 236
71.93082 257
71.95093 256
71.97105 208
71.99116 246
72.01127 213
72.03139 231
72.0515 215
72.07162 241
72.09173 234
72.11184 234
72.13196 233
72.15207 247
72.17218 211
72.1923 240
72.21241 239
72.23253 213
72.25264 269
72.27275 243
72.29287 234
72.31298 237
72.33309 228
72.35321 255
72.37332 251
72.39344 281
72.41355 256
72.43366 235
72.45378 242
72.47389 264
72.494 266
72.51412 252
72.53423 265
72.55434 264
72.57446 242
72.59457 283
72.61469 258
72.6348 249
72.65491 256
72.67503 255
72.69514 233
72.71525 285
72.73537 246
72.75548 251
72.7756 261
72.79571 226
72.81582 235
72.83594 245
72.85605 246
72.87616 259
72.89628 266
72.91639 243
72.9365 255
72.95662 265
72.97673 249
72.99685 260
73.01696 248
73.03707 237
73.05719 256
73.0773 262
73.09741 267
73.11753 294
73.13764 232
73.15776 269
73.17787 256
73.19798 291
73.2181 298
73.23821 283
73.25832 328
73.27844 328
73.29855 331
73.31867 364
73.33878 379
73.35889 429
73.37901 459
73.39912 471
73.41923 489
73.43935 449
73.45946 417
73.47957 391
73.49969 287
73.5198 339
73.53992 338
73.56003 317
73.58014 348
73.60026 349
73.62037 365
73.64048 328
73.6606 346
73.68071 286
73.70083 290
73.72094 261
73.74105 280
73.76117 228
73.78128 270
73.80139 229
73.82151 244
73.84162 227
73.86174 232
73.88185 275
73.90196 213
73.92208 239
73.94219 237
73.9623 258
73.98242 225
74.00253 233
74.02264 222
74.04276 233
74.06287 205
74.08299 250
74.1031 243
74.12321 233
74.14333 223
74.16344 194
74.18355 220
74.20367 230
74.22378 246
74.2439 231
74.26401 219
74.28412 223
74.30424 210
74.32435 218
74.34446 224
74.36458 201
74.38469 218
74.40481 239
74.42492 214
74.44503 208
74.46515 206
74.48526 221
74.50537 228
74.52549 206
74.5456 210
74.56571 209
74.58583 254
74.60594 224
74.62606 228
74.64617 230
74.66628 223
74.6864 215
74.70651 195
74.72662 230
74.74674 228
74.76685 218
74.78697 240
74.80708 216
74.82719 226
74.84731 243
74.86742 219
74.88753 222
74.90765 238
74.92776 249
74.94787 229
74.96799 227
74.9881 240
75.00822 204
