3.00117 21592.026810737
3.02128 21414.4951204468
3.0414 20666
3.06151 20034.7174317167
3.08162 19508.5708623517
3.10174 19236.8010763397
3.12185 18986.8269086496
3.14197 17943.2541392056
3.16208 17607.040599717
3.18219 17392.3221757139
3.20231 16596.8024157767
3.22242 16510.5964422031
3.24253 15679.9090565328
3.26265 15359.6991116938
3.28276 15173.6074536039
3.30288 14770.4227350887
3.32299 14272.3472967755
3.3431 13613
3.36322 13630.78870924
3.38333 13023.0047469937
3.40344 12649.8770054332
3.42356 12569.8894521372
3.44367 11828.9152726468
3.46379 11529.1103979193
3.4839 11194
3.50401 10795.8157651466
3.52413 10474.5911765861
3.54424 10144.0303268876
3.56435 9690.31720672664
3.58447 9742.30961521133
3.60458 9195.52284274133
3.62469 8866.1587663677
3.64481 8550.93536881478
3.66492 8492.72145079546
3.68504 7954.93198280013
3.70515 7615.49597591126
3.72526 7421.50508620462
3.74538 7052.46826051879
3.76549 6719.9833208728
3.7856 6907
3.80572 6505.72446359125
3.82583 6416.60990347573
3.84595 5918.91200623641
3.86606 5680.38883496105
3.88617 5456.25149192392
3.90629 5362.04238534207
3.9264 5196
3.94651 4897.88884674518
3.96663 4798.96100313159
3.98674 4745.74507290497
4.00686 4591.16683064025
4.02697 4497.42009487943
4.04708 4117.20985006076
4.0672 4105
4.08731 3926.92491753284
4.10742 3867.94534339628
4.12754 3727.54868970907
4.14765 3462.6280755847
4.16776 3334.87921296521
4.18788 3448.03393366982
4.20799 3289.03062756635
4.22811 3247.84068162291
4.24822 2789.84568167431
4.26833 2995.27411211872
4.28845 2894.33753197951
4.30856 2687.08098990392
4.32867 2716.15706943684
4.34879 2478.08160151549
4.3689 2503
4.38902 2579.98079064592
4.40913 2509.96356414469
4.42924 2466.55816700916
4.44936 2164.24411524003
4.46947 2257.86782421724
4.48958 2212.08669540852
4.5097 2133
4.52981 1988.93918118986
4.54992 1928.99211878449
4.57004 1967.17559883081
4.59015 2013.23116901748
4.61027 1840.14518282585
4.63038 1832.06127573486
4.65049 1690.05275557841
4.67061 1691.03116291592
4.69072 1725.96351310268
4.71083 1633.86967904498
4.73095 1578.86348426025
4.75106 1514.10414581761
4.77118 1514.92745743117
4.79129 1581.01921235018
4.8114 1448
4.83152 1380.91555445821
4.85163 1274.90957383398
4.87174 1288.09708423998
4.89186 1291.17149369447
4.91197 1172.07759137506
4.93209 1220.95850597546
4.9522 1240
4.97231 1132.98206135599
4.99243 1191.11237224329
5.01254 1184.78185117724
5.03265 1041.2126974943
5.05277 1016.08065346203
5.07288 957.947495622754
5.09299 1072.99334283017
5.11311 946.930880346002
5.13322 913.06247408501
5.15334 971.926008018309
5.17345 857.800721057262
5.19356 891.766457737699
5.21368 978.029268849026
5.23379 843.072659648246
5.2539 782
5.27402 822.983431118283
5.29413 777.038378591344
5.31425 854.017968130265
5.33436 775.120125946804
5.35447 771.021371533918
5.37459 734.002581389964
5.3947 766
5.41481 754.994076864013
5.43493 727.870909270085
5.45504 636.00128085771
5.47516 715.905621932912
5.49527 684.069852028496
5.51538 679.968418940333
5.5355 707
5.55561 658.975434836321
5.57572 613.930209723596
5.59584 559.059780411287
5.61595 638.93881956595
5.63606 601.999555898792
5.65618 637.03184544845
5.67629 540.028793367069
5.69641 566.025059162932
5.71652 585.994265744751
5.73663 563.950106901851
5.75675 538.996297671865
5.77686 545.034664532645
5.79697 525.951975326093
5.81709 576.00931508406
5.8372 498
5.85732 507.979310774872
5.87743 457.001571372292
5.89754 520.105685147327
5.91766 527.007316811076
5.93777 518.066629361589
5.95788 465.003501150247
5.978 508
5.99811 483.973561597501
6.01823 453.028779307867
6.03834 499.042438266832
6.05845 483.036204796916
6.07857 500.936187153404
6.09868 528.021477377592
6.11879 471.022957731734
6.13891 451.989112495593
6.15902 425.998646610368
6.17913 449.027567842265
6.19925 453.020870442156
6.21936 478.925100025781
6.23948 491.044972020328
6.25959 417.021170879455
6.2797 431
6.29982 452.006194666208
6.31993 439.950274492992
6.34004 406.984033836873
6.36016 427.941827290947
6.38027 434.04181206527
6.40039 400.998965212472
6.4205 429
6.44061 410.00321987921
6.46073 432.972388643375
6.48084 388.002402458545
6.50095 434.951674153089
6.52107 407.032788041462
6.54118 418.97974400482
6.56129 427.998249508595
6.58141 435.006761159319
6.60152 430.951312581568
6.62164 369.974260330305
6.64175 403.042939061302
6.66186 389.992466136348
6.68198 414.996546322047
6.70209 384.017688166635
6.7222 373
6.74232 388.999485370964
6.76243 373.988376694842
6.78255 387.064217968269
6.80266 397.052624814802
6.82277 356.019570243689
6.84289 377.989252208461
6.863 378
6.88311 381.008337803826
6.90323 399.004905234049
6.92334 384.964058308404
6.94346 375.999892466632
6.96357 377.008966712875
6.98368 374.979097867686
7.0038 404
7.02391 370.977917174139
7.04402 353.021680164267
7.06414 398.076373158392
7.08425 406.040864602246
7.10436 390.987758725095
7.12448 407.005378578081
7.14459 378.011651030683
7.16471 364.986589060499
7.18482 344.029097472824
7.20493 412.076466862974
7.22505 413.939004778693
7.24516 395.00804770332
7.26527 400.997127767172
7.28539 396.998807110613
7.3055 400
7.32562 361.950940427527
7.34573 335.025142579832
7.36584 377.054137055523
7.38596 375.011422894205
7.40607 373.024386494154
7.42618 350.003779694076
7.4463 363
7.46641 356.008045590019
7.48653 388.013324997232
7.50664 370.985803826572
7.52675 381.996074018519
7.54687 366.021046389295
7.56698 363.99920708552
7.58709 367.99159388624
7.60721 390.004758481471
7.62732 382.989835625487
7.64743 388.037850084024
7.66755 409.974595770754
7.68766 371.070179657209
7.70778 362.989467186032
7.72789 371.003569025605
7.748 355
7.76812 359.997555014959
7.78823 355.023338743679
7.80834 373.964161483979
7.82846 336.994846534826
7.84857 380.956921111612
7.86869 370.009362989384
7.8888 369
7.90891 379.001942248564
7.92903 365.947531108122
7.94914 329.97939774749
7.96925 346.951538738935
7.98937 362.953228631529
8.00948 395.997924703104
8.0296 361
8.04971 346.014884377939
8.06982 387.003821309855
8.08994 357.981201393981
8.11005 379.025626872847
8.13016 371.979848845072
8.15028 394.005886801113
8.17039 362.008120662428
8.1905 371
8.21062 364.01363803881
8.23073 382.968790638201
8.25085 346.039252752033
8.27096 396.006364703566
8.29107 340.031633184196
8.31119 366.999714836045
8.3313 320
8.35141 328.023289703457
8.37153 366.992190826754
8.39164 337.001636120547
8.41176 381.907477283655
8.43187 385.064322483006
8.45198 337.00877462794
8.4721 365
8.49221 367.013095447458
8.51232 409.008604989866
8.53244 380.961988089618
8.55255 379.054707740874
8.57266 340.031113345865
8.59278 353.990842008173
8.61289 352.991132131717
8.63301 382.00169717388
8.65312 361.995459242272
8.67323 386.040288858053
8.69335 391.966328292657
8.71346 376.005555025045
8.73357 381.012148885451
8.75369 367.994293448136
8.7738 402
8.79392 397.977795094235
8.81403 370.956764862348
8.83414 349.988513140131
8.85426 363.938531360919
8.87437 388.005839251495
8.89448 355.041776405872
8.9146 339
8.93471 376.002689680894
8.95483 345.961803673855
8.97494 346.014255406705
8.99505 349.977913602288
9.01517 365.974354528237
9.03528 374.005566866115
9.05539 363.001858059157
9.07551 369.002739534057
9.09562 364.987731883687
9.11573 351.989247623287
9.13585 344.953115903686
9.15596 324.002539606926
9.17608 341.984968404169
9.19619 339.007030527027
9.2163 327
9.23642 327.995333363869
9.25653 323.015359276559
9.27664 344.023157690699
9.29676 345.976055560115
9.31687 360.017703619507
9.33699 333.001669485849
9.3571 336
9.37721 277.011169661228
9.39733 360.043363121386
9.41744 325.00936336261
9.43755 376.00021967476
9.45767 314.055607313103
9.47778 327.995135889765
9.4979 314
9.51801 355.002427773378
9.53812 323.992597141395
9.55824 355.049874953576
9.57835 356.007322683367
9.59846 358.055148570714
9.61858 315.014878102903
9.63869 336.987875465403
9.6588 331
9.67892 307.023754611235
9.69903 362.048158938283
9.71915 355.984534543654
9.73926 357.044244856104
9.75937 324.996610396237
9.77949 350.004063649806
9.7996 309
9.81971 345.03152702859
9.83983 390.010415513443
9.85994 354.877318107634
9.88006 304.035538827872
9.90017 318.961687157154
9.92028 337.982949255979
9.9404 343
9.96051 317.004343443936
9.98062 356.026246127898
10.00074 342.927485271525
10.02085 315.008418717276
10.04097 316.045853962416
10.06108 283.966720205212
10.08119 367.973846440561
10.10131 356.987756816971
10.12142 354.003967644168
10.14153 356.008448303359
10.16165 356.956064681874
10.18176 321.078898115378
10.20187 307.955847595714
10.22199 350.99453483316
10.2421 324
10.26222 327.018785236118
10.28233 341.001373729986
10.30244 340.032614310986
10.32256 364.989402332168
10.34267 347.025201443895
10.36278 340.012757855918
10.3829 330
10.40301 362.004943914242
10.42313 338.955138462996
10.44324 328.016743537122
10.46335 330.075610846917
10.48347 289.005462041657
10.50358 322.976390671763
10.52369 319.0005783349
10.54381 328.999451408019
10.56392 316.999526330842
10.58403 335.03150267748
10.60415 343.992487286438
10.62426 329.053447062782
10.64438 302.015269442933
10.66449 311.981514326988
10.6846 346
10.70472 310.965476433425
10.72483 301.007894868715
10.74494 315.05101610539
10.76506 347.93483673654
10.78517 351.073047883378
10.80529 286.011227787847
10.8254 318
10.84551 325.991051256207
10.86563 310.011720503758
10.88574 329.997472035039
10.90585 317.947458901484
10.92597 355.012489952475
10.94608 306.023178407633
10.9662 324
10.98631 316.009892878757
11.00642 354.002166140099
11.02654 328.014476613984
11.04665 366.981165298885
11.06676 335.033084521899
11.08688 344.010281689795
11.10699 307.012910963347
11.1271 311
11.14722 323.013448900761
11.16733 329.981803263666
11.18745 310.997946469263
11.20756 328.975220796882
11.22767 332.974782042671
11.24779 344.017481655156
11.2679 291
11.28801 336.009962043106
11.30813 314.991105277724
11.32824 332.990150196983
11.34836 303.01995394177
11.36847 328.950441953296
11.38858 348.984867938847
11.4087 353
11.42881 322.997455310556
11.44892 333.98559646158
11.46904 303.005864100504
11.48915 343.919403606193
11.50927 340.032413417507
11.52938 324.005388988254
11.54949 333.987407792551
11.56961 357.001547388246
11.58972 340.983267659863
11.60983 341.024220693262
11.62995 362.037246547924
11.65006 361.032113925173
11.67017 337.037934127007
11.69029 326.992148662197
11.7104 353
11.73052 344.997396098501
11.75063 365.05430766034
11.77074 376.906419401638
11.79086 313.007705403456
11.81097 369.937303113689
11.83108 358.028761091225
11.8512 340
11.87131 335.012555390118
11.89143 375.030453419705
11.91154 362.95397434111
11.93165 359.932826757525
11.95177 390.005841579061
11.97188 353.031907163307
11.99199 346.998447962175
12.01211 363.02467069538
12.03222 422.023442845094
12.05234 407.982037730335
12.07245 412.96445514301
12.09256 385.999434050449
12.11268 418.96889652797
12.13279 438.983248217676
12.1529 478
12.17302 448.952486594741
12.19313 437.085299441869
12.21324 517.046749015339
12.23336 480.043774156151
12.25347 492.015485819777
12.27359 468.984711598742
12.2937 542
12.31381 515.980541140307
12.33393 497.980853152152
12.35404 475.941031032913
12.37415 449.038128054873
12.39427 439.029452376406
12.41438 414.010623268253
12.4345 414
12.45461 384.987209736941
12.47472 373.995559234496
12.49484 363.961271055084
12.51495 353.944579656159
12.53506 378.054918116559
12.55518 318.019210760275
12.57529 349.989742843477
12.5954 332
12.61552 321.979995368447
12.63563 303.02167010599
12.65575 343.062820234964
12.67586 326.092382916822
12.69597 289.997752821298
12.71609 315.994987598578
12.7362 306
12.75631 337.013978817958
12.77643 334.952680347182
12.79654 300.981357316426
12.81666 309.017378308459
12.83677 286.000978110197
12.85688 303.006798288603
12.877 273
12.89711 288.002611494727
12.91722 285.025693996854
12.93734 326.011003920548
12.95745 288.096193695081
12.97757 279.983097509223
12.99768 291.994792907841
13.01779 291.99811894491
13.03791 288.985377629597
13.05802 253.999760949957
13.07813 280.005255954494
13.09825 271.092198810846
13.11836 327.021683860915
13.13847 261.035534361
13.15859 295.993706849697
13.1787 277
13.19882 324.989477361555
13.21893 261.963752599692
13.23904 296.042153230808
13.25916 269.077899266854
13.27927 261.95001971321
13.29938 306.981173040839
13.3195 288
13.33961 275.004536644921
13.35973 282.969380966927
13.37984 254.019485470667
13.39995 287.016703880959
13.42007 249.99240968138
13.44018 304.960175881076
13.46029 291.020910762139
13.48041 263.001097497908
13.50052 282.006226878827
13.52064 279.041252684241
13.54075 317.040000298952
13.56086 295.073491132537
13.58098 270.009184881275
13.60109 274.993155862858
13.6212 287
13.64132 281.986590774529
13.66143 267.987639085707
13.68154 260.967419487438
13.70166 245.98435380098
13.72177 267.990980098161
13.74189 266.984519288876
13.762 316
13.78211 286.987661117797
13.80223 289.007247075497
13.82234 284.99862556792
13.84245 287.020028617141
13.86257 266.035820231017
13.88268 252.000946164982
13.9028 265
13.92291 282.997512877889
13.94302 268.004216858673
13.96314 295.048087436065
13.98325 297.034666347771
14.00336 279.032781520694
14.02348 267.010154275968
14.04359 260.998370616001
14.06371 263.994060891599
14.08382 247.002440863829
14.10393 265.007797134381
14.12405 262.053710326621
14.14416 283.074526523095
14.16427 222.983379087404
14.18439 294.985957604912
14.2045 251
14.22461 260.01333029827
14.24473 271.993670850692
14.26484 257.968294773078
14.28496 247.013698538747
14.30507 249.970751023515
14.32518 279.972770091047
14.3453 290
14.36541 267.986460352084
14.38552 248.994942214449
14.40564 257.02910735874
14.42575 270.969166229618
14.44587 276.01101043992
14.46598 257.02465412271
14.48609 242.996270464808
14.50621 259.000352397101
14.52632 247.00160828985
14.54643 266.02078296957
14.56655 269.021432419968
14.58666 283.989039106411
14.60677 269.045856402592
14.62689 246.996776522828
14.647 273
14.66712 262.974709334841
14.68723 242.992479373507
14.70734 250.013311330028
14.72746 245.031094285816
14.74757 238.965945460943
14.76768 276.979958925758
14.7878 267
14.80791 259.001451811847
14.82803 267.011329182125
14.84814 263.963482480612
14.86825 245.000177818105
14.88837 269.945237518148
14.90848 287.020618937922
14.92859 245.014229848948
14.94871 236.992573564863
14.96882 227.034130610474
14.98894 282.02553044139
15.00905 252.979701627946
15.02916 284.94301837963
15.04928 283.016422444402
15.06939 258.021648931808
15.0895 215
15.10962 245.057783149277
15.12973 281.97315348061
15.14984 234.967242113749
15.16996 258.970694245456
15.19007 248.005235164201
15.21019 259.000399490927
15.2303 240
15.25041 246.015371594954
15.27053 265.957616165631
15.29064 215.984885723254
15.31075 251.958622150894
15.33087 236.99397296407
15.35098 268.982032806146
15.3711 251
15.39121 231.002292561678
15.41132 253.021659494956
15.43144 265.020457241261
15.45155 268.044390689729
15.47166 244.00370416805
15.49178 262.990037275877
15.51189 253.005544143706
15.53201 253.002271023526
15.55212 252.992897780563
15.57223 240.98202048661
15.59235 231.980947141269
15.61246 231.968872044847
15.63257 251.992429900565
15.65269 242.002877539128
15.6728 246
15.69291 246.008715525166
15.71303 267.993797943918
15.73314 241.973885227766
15.75326 253.971016305975
15.77337 251.027074956097
15.79348 232.007871111057
15.8136 231
15.83371 217.002024678192
15.85382 244.032916064643
15.87394 264.009053754112
15.89405 265.963782879209
15.91417 278.031186123515
15.93428 244.993792628654
15.95439 286.988700570652
15.97451 265.983074940019
15.99462 253.011408298014
16.01473 265.982390230022
16.03485 236.969096899681
16.05496 245.002741143633
16.07508 229.005949748198
16.09519 236.000870388619
16.1153 225
16.13542 240.00967754047
16.15553 240.007499529262
16.17564 245.976509933148
16.19576 235.940090628679
16.21587 282.996436527671
16.23598 242.021152804652
16.2561 256
16.27621 234.997164182619
16.29633 255.027442914688
16.31644 247.94222931665
16.33655 228.950872052058
16.35667 268.980515990141
16.37678 244.026592476608
16.39689 237.001081747967
16.41701 245.019121146769
16.43712 288.001451744176
16.45724 254.971242667433
16.47735 263.961803100438
16.49746 225.027682226526
16.51758 247.976900533856
16.53769 242.013902104508
16.5578 212
16.57792 217.030331470199
16.59803 247.003684132305
16.61814 229.996905323295
16.63826 252.957148665356
16.65837 259.992169197893
16.67849 259.012194313471
16.6986 230
16.71871 266.016950643672
16.73883 266.957828460601
16.75894 232.959891932327
16.77905 230.997527951436
16.79917 231.980150542375
16.81928 250.994303250568
16.8394 244
16.85951 250.997375523255
16.87962 230.982253960933
16.89974 238.075117972602
16.91985 270.040486982338
16.93996 228.999624007713
16.96008 270.982108630427
16.98019 245.011936396332
17.00031 242.996998405173
17.02042 233.012029092077
17.04053 258.004130030688
17.06065 237.979260593351
17.08076 257.939418922628
17.10087 267.039578995594
17.12099 223.014468900383
17.1411 234
17.16121 260.983928477287
17.18133 206.002068991221
17.20144 263.066288428149
17.22156 251.993456249495
17.24167 276.011335988176
17.26178 246.987716480356
17.2819 287
17.30201 232.990997255945
17.32212 264.012539824615
17.34224 238.971181112205
17.36235 256.939814810377
17.38247 265.006471614039
17.40258 257.006722486303
17.42269 254.999329493907
17.44281 257.000673767256
17.46292 259.005210097553
17.48303 266.00703560544
17.50315 259.947333280061
17.52326 239.001788982764
17.54338 265.957304439505
17.56349 293.00438031336
17.5836 259
17.60372 256.012113867976
17.62383 261.983378726538
17.64394 242.986611831053
17.66406 249.995932791172
17.68417 240.015572831011
17.70428 244.975474708671
17.7244 270
17.74451 253.997725040362
17.76463 271.029278721254
17.78474 285.037929836171
17.80485 300.022258240756
17.82497 278.006441357427
17.84508 287.012848816809
17.86519 253.009404153286
17.88531 261.005207166419
17.90542 251.974082702438
17.92554 238.049317421437
17.94565 287.08029937306
17.96576 274.091195456637
17.98588 241.984028095571
18.00599 282.995832665111
18.0261 249
18.04622 246.997492338115
18.06633 240.017153700125
18.08645 264.019044482794
18.10656 255.988547309304
18.12667 274.00107891223
18.14679 255.002823258103
18.1669 268
18.18701 250.986082436961
18.20713 238.024711965139
18.22724 271.043646491128
18.24735 255.131860542155
18.26747 211.980167980489
18.28758 261.979671225923
18.3077 233
18.32781 234.01134053339
18.34792 254.003576942724
18.36804 238.955662654133
18.38815 231.951452495165
18.40826 265.949842767061
18.42838 265.021051074688
18.44849 247.997253078186
18.46861 260.993519525758
18.48872 228.98955684101
18.50883 243.001715183946
18.52895 238.081751090303
18.54906 291.971896985738
18.56917 255.057796016308
18.58929 251.989710931431
18.6094 270
18.62951 257.996868428392
18.64963 268.027345838571
18.66974 268.932173064354
18.68986 225.021180448752
18.70997 258.929841774188
18.73008 278.018283538572
18.7502 256
18.77031 296.000766515529
18.79042 260.991064777413
18.81054 285.003038820547
18.83065 260.000221633416
18.85077 277.037581812318
18.87088 226.000895833307
18.89099 273.990306703113
18.91111 245.991585109447
18.93122 262.012261898968
18.95133 258.005287252315
18.97145 281.076227605531
18.99156 290.059925399374
19.01168 243.024111156462
19.03179 252.99208245336
19.0519 264
19.07202 294.012764426387
19.09213 275.941718426922
19.11224 248.010685646516
19.13236 278.947607311035
19.15247 281.01779218709
19.17258 272.996589912697
19.1927 285
19.21281 282.993024630328
19.23293 266.987974298539
19.25304 279.068455189225
19.27315 310.001866073308
19.29327 281.038157634521
19.31338 285.969223361387
19.33349 314.998144136585
19.35361 293.989171807497
19.37372 299.035256188011
19.39384 330.982141363602
19.41395 284.895489560596
19.43406 282.934199552394
19.45418 335.937505945833
19.47429 379.996677425121
19.4944 356
19.51452 348.014933437096
19.53463 372.026031226175
19.55475 380.0277613869
19.57486 405.92128795445
19.59497 449.939907724124
19.61509 467.008721985598
19.6352 440
19.65531 481.029683677562
19.67543 532.055725565558
19.69554 560.055515518782
19.71565 582.990503208015
19.73577 577.984158356311
19.75588 609.965586018292
19.776 627
19.79611 630.016553120342
19.81622 681.030765597311
19.83634 672.943971250002
19.85645 651.020122604926
19.87656 657.968706719027
19.89668 657.036644675386
19.91679 614.000121778105
19.93691 639.993346825285
19.95702 593.993625008364
19.97713 631.018289481194
19.99725 582.810844687063
20.01736 536.979478801978
20.03747 577.969626211343
20.05759 567.000732221948
20.0777 578
20.09782 549.005327205036
20.11793 579.998863456207
20.13804 537.929056663517
20.15816 534.983185124053
20.17827 538.992504043064
20.19838 544.998554956176
20.2185 546
20.23861 565.008833776599
20.25872 570.99377340435
20.27884 560.990541342513
20.29895 568.952347045015
20.31907 590.9731275113
20.33918 596.010066577149
20.35929 581.003712398392
20.37941 577.992999432303
20.39952 556.991757065362
20.41963 578.070683361228
20.43975 613.97468553906
20.45986 571.054735534458
20.47998 589.951808483119
20.50009 634.987255409896
20.5202 637
20.54032 628.99579205861
20.56043 635.031057518356
20.58054 679.141646847954
20.60066 761.851890680017
20.62077 838.835910938478
20.64088 1001.79556095631
20.661 1238
20.68111 1553.19282642075
20.70123 2053.94043463297
20.72134 2781.54024671915
20.74145 3574.92480202139
20.76157 4458.63146008493
20.78168 5265.43763149995
20.80179 5514.00701037061
20.82191 5210.66504535737
20.84202 4270.98550811669
20.86214 3298.04691828003
20.88225 2334.86144921677
20.90236 1639.10415461737
20.92248 1181.37662932585
20.94259 906.063520758102
20.9627 872
20.98282 794.947812330331
21.00293 779.95861239408
21.02305 718.838665139833
21.04316 678.036305259761
21.06327 663.044047492405
21.08339 629.005265557934
21.1035 626
21.12361 563.986284474588
21.14373 587.048679569922
21.16384 591.96204014931
21.18395 566.047482433592
21.20407 563.982603585694
21.22418 566.027460018189
21.2443 540
21.26441 600.010910227812
21.28452 567.969358142717
21.30464 559.962851369479
21.32475 519.102129795623
21.34486 503.969677531643
21.36498 535.969355454815
21.38509 546.006173583875
21.40521 509.97059378743
21.42532 456.981955253673
21.44543 485.084932900123
21.46555 524.986227498207
21.48566 485.0688614316
21.50577 473.017524681712
21.52589 458.998212484369
21.546 476
21.56612 465.992135008788
21.58623 460.970630486731
21.60634 428.951238249839
21.62646 424.980562029907
21.64657 435.990238053333
21.66668 432.014797553769
21.6868 413
21.70691 409.004909603124
21.72702 414.982596730617
21.74714 381.958224606574
21.76725 386.956562700951
21.78737 402.97886953223
21.80748 412.996087146312
21.82759 420.987993019755
21.84771 442.994752234069
21.86782 405.973099433009
21.88793 402.998225169469
21.90805 391.97448771843
21.92816 396.952002740069
21.94828 430.969469599202
21.96839 445.001404236377
21.9885 438
22.00862 436.972289923283
22.02873 390.953142059375
22.04884 391.031162224001
22.06896 401.002560124626
22.08907 387.033739248713
22.10919 354.024488008303
22.1293 331
22.14941 421.021894854595
22.16953 394.946629401197
22.18964 395.042335918187
22.20975 411.996091823315
22.22987 399.023403319545
22.24998 395.986924311994
22.27009 410.00196896514
22.29021 379.977483000597
22.31032 360.034913376984
22.33044 404.960129185648
22.35055 337.946190832338
22.37066 390.872080130861
22.39078 420.986847032941
22.41089 417.019417089007
22.431 361
22.45112 375.06079630738
22.47123 425.981488560636
22.49135 359.858299860092
22.51146 352.957157485943
22.53157 370.993810209322
22.55169 364.002484357158
22.5718 354
22.59191 320.006816128541
22.61203 361.002080723726
22.63214 327.002680147016
22.65225 373.920734798936
22.67237 363.031273252877
22.69248 356.001987246844
22.7126 358
22.73271 380.009104433619
22.75282 379.978927726664
22.77294 367.054629859477
22.79305 407.019312390577
22.81316 351.088467751398
22.83328 353.973845892989
22.85339 370.001894889581
22.87351 355.997523979576
22.89362 363.00275256723
22.91373 360.008775050552
22.93385 365.957016876911
22.95396 340.987513418546
22.97407 381.939876491224
22.99419 385.017566942851
23.0143 347
23.03442 379.032780375598
23.05453 390.001496950858
23.07464 390.998037978945
23.09476 397.946735955547
23.11487 414.05542988676
23.13498 350.021706961049
23.1551 386
23.17521 386.98621667627
23.19532 369.019648545388
23.21544 398.969691354821
23.23555 355.994313050804
23.25567 401.977466877125
23.27578 362.044163495433
23.29589 345.004269298011
23.31601 332.995865548539
23.33612 347.047655799077
23.35623 388.977251076338
23.37635 334.942090065812
23.39646 356.975133049577
23.41658 338.0175371091
23.43669 350.980107763691
23.4568 392
23.47692 400.028472388167
23.49703 441.019460286066
23.51714 407.886314994542
23.53726 367.012210115488
23.55737 372.038470674975
23.57749 328.003721114047
23.5976 369
23.61771 384.995992448912
23.63783 370.98744967805
23.65794 365.969623520481
23.67805 348.991128120081
23.69817 371.97159356207
23.71828 381.980762444503
23.73839 401.004680920291
23.75851 367.988262084696
23.77862 371.013819920824
23.79874 372.966143834745
23.81885 362.067472818849
23.83896 412.943898569965
23.85908 414.981418998112
23.87919 449.995995807726
23.8993 428
23.91942 438.003084004237
23.93953 437.039306746643
23.95965 472.991677006678
23.97976 429.07314731265
23.99987 427.976644972781
24.01999 430.011398801181
24.0401 396
24.06021 388.989857592625
24.08033 360.994740552318
24.10044 383.033287207199
24.12056 389.953423231271
24.14067 419.003799985868
24.16078 376.054638472558
24.1809 347
24.20101 365.999976163676
24.22112 359.02979237396
24.24124 409.01866177231
24.26135 381.003681205191
24.28146 402.048685280346
24.30158 341.020000914668
24.32169 375.986736882778
24.34181 370.000255300848
24.36192 375.971483240954
24.38203 334.008974057231
24.40215 384.072070722381
24.42226 381.956798665679
24.44237 419.016503733413
24.46249 359.022889187138
24.4826 372
24.50272 407.976585466163
24.52283 355.987758602464
24.54294 396.041308031981
24.56306 389.946282998467
24.58317 450.946211822647
24.60328 438.026716000734
24.6234 428
24.64351 437.007077760022
24.66362 445.994704684098
24.68374 440.031957368446
24.70385 472.945762084073
24.72397 473.006717152335
24.74408 479.982875464428
24.76419 508.978310172825
24.78431 542.998670828556
24.80442 513.982092176532
24.82453 515.990697257881
24.84465 507.05452585729
24.86476 538.030723919781
24.88488 485.026122624515
24.90499 500.995363595288
24.9251 479
24.94522 463.995750763226
24.96533 450.943363747697
24.98544 406.970039883973
25.00556 429.93038659784
25.02567 447.007466905742
25.04579 430.007360259057
25.0659 447
25.08601 515.00646098573
25.10613 468.924950390836
25.12624 445.962891915968
25.14635 434.943023156877
25.16647 479.956809900385
25.18658 467.042251610327
25.20669 445.980590039552
25.22681 509.006052304333
25.24692 461.960298132744
25.26704 467.04306926098
25.28715 465.913433204122
25.30726 414.081576388971
25.32738 414.953963569425
25.34749 459.00462329132
25.3676 420
25.38772 471.020880782149
25.40783 440.959197920945
25.42795 458.123500881389
25.44806 494.024748075668
25.46817 465.964654268205
25.48829 517.00684520116
25.5084 449
25.52851 492.008371799107
25.54863 461.98672659704
25.56874 493.043987553383
25.58886 484.026808091162
25.60897 494.943745180472
25.62908 537.975589128725
25.6492 525
25.66931 500.022068677055
25.68942 575.018265700862
25.70954 515.860318422414
25.72965 488.988121240666
25.74976 510.927409831869
25.76988 538.003754479513
25.78999 523.991162343397
25.81011 563.003772055139
25.83022 532.978865669892
25.85033 534.990291696757
25.87045 523.042864578332
25.89056 556.993068576071
25.91067 535.988659978932
25.93079 575.988644290734
25.9509 568
25.97102 580.000715301882
25.99113 574.026782157112
26.01124 609.029210570568
26.03136 599.003344804703
26.05147 620.958248249379
26.07158 633.008161082705
26.0917 644
26.11181 751.033022095249
26.13193 767.043942298754
26.15204 818.034001895413
26.17215 800.989732250368
26.19227 853.889387563482
26.21238 920.941006560503
26.23249 990.950370871427
26.25261 1081.01071709448
26.27272 1073.05966901576
26.29283 1214.20605040988
26.31295 1319.31255761666
26.33306 1498.57831793301
26.35318 1754.66951432042
26.37329 2121.83673972277
26.3934 2482
26.41352 3306.07030698844
26.43363 4535.9670231037
26.45374 6077.90310907148
26.47386 8563.2168640879
26.49397 11792.7025152663
26.51409 15615.9895131484
26.5342 19621
26.55431 22802.2384214801
26.57443 24241.2158830292
26.59454 22883.3956235691
26.61465 19129.4390695882
26.63477 15090.6081013542
26.65488 11527.5433248907
26.67499 8023.58581783312
26.69511 5295.82049734547
26.71522 3262.40539329688
26.73534 2130.58518127029
26.75545 1686.30093573681
26.77556 1453.39301399593
26.79568 1285.13084729693
26.81579 1195.02524426525
26.8359 1144
26.85602 1035.9287773722
26.87613 986.856954839779
26.89625 855.787692723081
26.91636 833.047457295138
26.93647 794.006779515098
26.95659 800.028502100532
26.9767 699
26.99681 720.010913800508
27.01693 698.945200083509
27.03704 662.908297245505
27.05716 615.060429540952
27.07727 606.004297812446
27.09738 594.021020251625
27.1175 560
27.13761 522.003706304592
27.15772 556.008805713701
27.17784 528.956170845985
27.19795 526.026278086646
27.21806 494.080446407845
27.23818 480.962947661139
27.25829 548.97203944065
27.27841 577.012938707098
27.29852 605.007766260636
27.31863 603.030893614519
27.33875 651.118450012719
27.35886 676.979286360718
27.37897 684.981636237975
27.39909 692.007289668062
27.4192 673
27.43932 695.985199762561
27.45943 624.857900379788
27.47954 562.993685980959
27.49966 568.124636371321
27.51977 464.064227301926
27.53988 503.95806277926
27.56 494
27.58011 453.975059290283
27.60023 417.007588164143
27.62034 444.000117297122
27.64045 422.968522985185
27.66057 454.030996787598
27.68068 392.02208335709
27.70079 423.990406164533
27.72091 396.980153034049
27.74102 384.020304337179
27.76113 415.018457194647
27.78125 403.97499066964
27.80136 418.921131098921
27.82148 449.01356038104
27.84159 413.001443857541
27.8617 441
27.88182 404.974491527901
27.90193 411.017321603714
27.92204 417.030243351436
27.94216 427.048510537295
27.96227 386.015997889982
27.98239 411.989085486312
28.0025 396
28.02261 353.99619747568
28.04273 377.030905473775
28.06284 374.975407606066
28.08295 368.988234960148
28.10307 377.99629263898
28.12318 366.023473226138
28.1433 353
28.16341 377.995923416748
28.18352 345.994791536379
28.20364 363.974595348471
28.22375 326.997365376056
28.24386 365.954480971743
28.26398 354.009553215749
28.28409 357.005703164291
28.3042 322
28.32432 306.020439356252
28.34443 344.036511420971
28.36455 334.921298145674
28.38466 315.963927683206
28.40477 354.971203860814
28.42489 347.001035529445
28.445 358
28.46511 334.987010655428
28.48523 321.997662413337
28.50534 321.986884569387
28.52546 325.920957715626
28.54557 372.99911169846
28.56568 337.008669634544
28.5858 368
28.60591 345.979825866064
28.62602 325.014144091397
28.64614 353.009503123987
28.66625 333.023038937704
28.68636 342.995443634106
28.70648 323.029589970344
28.72659 305.997162238029
28.74671 325.006388953309
28.76682 324.999874902132
28.78693 327.995037186985
28.80705 311.936139986635
28.82716 296.973952619075
28.84727 321.994820616307
28.86739 302.005846305554
28.8875 310
28.90762 304.990634668011
28.92773 312.054013422051
28.94784 338.933708500313
28.96796 275.026906357201
28.98807 331.90028417741
29.00818 341.055327324874
29.0283 272
29.04841 301.015812883235
29.06853 303.989277156282
29.08864 304.011919235729
29.10875 309.00445226739
29.12887 304.993821503332
29.14898 316.990880022722
29.16909 330.981490746312
29.18921 364.992987320157
29.20932 318.9831465714
29.22943 357.086769772272
29.24955 385.96331327668
29.26966 342.087279015656
29.28978 322.998422194521
29.30989 324.008254107181
29.33 309
29.35012 361.036047985262
29.37023 350.937298190506
29.39034 314.987568121041
29.41046 331.980195086291
29.43057 336.951770033817
29.45069 370.012652737879
29.4708 307
29.49091 340.008563596996
29.51103 324.003769209759
29.53114 345.981889740225
29.55125 309.027139170556
29.57137 332.979380578467
29.59148 324.996282205286
29.6116 343
29.63171 316.983910007763
29.65182 297.993295252117
29.67194 312.088407762971
29.69205 352.9854320796
29.71216 313.035675593415
29.73228 330.988306894493
29.75239 322.999532518897
29.7725 333
29.79262 307.992277324506
29.81273 318.99808329656
29.83285 311.054363318049
29.85296 357.93920834452
29.87307 355.018552047209
29.89319 344.011337686793
29.9133 316
29.93341 327.012612863595
29.95353 340.980484555716
29.97364 316.9936345041
29.99376 341.94302077588
30.01387 346.036547762695
30.03398 323.984598368216
30.0541 356
30.07421 312.991125790144
30.09432 328.998126918739
30.11444 310.032451551202
30.13455 361.912328315323
30.15467 352.047081040712
30.17478 329.007890240141
30.19489 334.993942882962
30.21501 335.990147721593
30.23512 311.998035540456
30.25523 336.041566321564
30.27535 340.943869841413
30.29546 314.006923386792
30.31557 336.963158307538
30.33569 338.011546483496
30.3558 305
30.37592 299.017225227362
30.39603 326.032222649085
30.41614 323.94263671172
30.43626 294.998201093642
30.45637 313.011186729003
30.47648 285.997724371821
30.4966 315
30.51671 279.981642312282
30.53683 279.053109696316
30.55694 329.083069951252
30.57705 343.026729527733
30.59717 329.993997281864
30.61728 343.005432586956
30.63739 319.007498714683
30.65751 320.999856700448
30.67762 324.031060906553
30.69773 361.997754878443
30.71785 324.944036611671
30.73796 338.955192919719
30.75808 337.031364323984
30.77819 305.997656684831
30.7983 337
30.81842 316.978095639867
30.83853 315.014327400847
30.85864 325.015230671172
30.87876 319.055868164118
30.89887 289.004882313104
30.91899 302.00501536307
30.9391 276
30.95921 311.009221968603
30.97933 291.953901536903
30.99944 279.018130370042
31.01955 294.99158184633
31.03967 286.002558547247
31.05978 293.002568054823
31.0799 277
31.10001 282.01452167245
31.12012 309.99714795894
31.14024 281.964458591102
31.16035 288.97185183428
31.18046 295.970896308117
31.20058 317.982997540431
31.22069 318.008426216544
31.2408 298
31.26092 300.000090096113
31.28103 289.977414470379
31.30115 271.941298927594
31.32126 253.002579154572
31.34137 268.970199138502
31.36149 279.998791693165
31.3816 282
31.40171 296.004065617519
31.42183 289.973009428708
31.44194 265.948456952608
31.46206 260.931073778433
31.48217 310.966613207978
31.50228 294.024705982278
31.5224 283
31.54251 262.980075199378
31.56262 236.026143232
31.58274 300.09187109002
31.60285 293.099315119874
31.62297 254.036547359367
31.64308 255.973420598627
31.66319 281.999239851968
31.68331 265.998642335017
31.70342 277.997468420613
31.72353 259.992260995676
31.74365 273.020940612216
31.76376 269.997128986091
31.78387 274.016750923415
31.80399 254.00219562065
31.8241 276
31.84422 306.020892770411
31.86433 302.943350399055
31.88444 254.955541086898
31.90456 270.937891509837
31.92467 271.081304697507
31.94478 226.945292376544
31.9649 338
31.98501 279.982201272871
32.00513 308.027361409697
32.02524 281.9364876194
32.04535 285.892695613411
32.06547 333.977210145942
32.08558 304.049655402637
32.10569 272.999300285227
32.12581 287.99808743325
32.14592 274.016833177428
32.16604 308.998522974498
32.18615 270.941735505343
32.20626 280.979106989587
32.22638 277.99749717613
32.24649 296.986364873046
32.2666 311
32.28672 290.004297125459
32.30683 310.994067668582
32.32694 279.962873804577
32.34706 295.933503201934
32.36717 309.041860514316
32.38729 264.008406158263
32.4074 283
32.42751 287.007742739177
32.44763 311.006225284997
32.46774 289.953284754805
32.48785 282.985579492364
32.50797 289.999392316837
32.52808 289.986457252944
32.5482 299
32.56831 262.007048531075
32.58842 318.028251111291
32.60854 294.942310548263
32.62865 288.005672204967
32.64876 280.013257130372
32.66888 278.998117670224
32.68899 272.012392586264
32.7091 251
32.72922 288.017580638523
32.74933 276.990056300428
32.76945 296.082457676549
32.78956 313.035836162681
32.80967 271.054114604506
32.82979 264.990587056856
32.8499 284
32.87001 263.990119984968
32.89013 268.047817558018
32.91024 299.999565072089
32.93036 278.996271600862
32.95047 302.00176812762
32.97058 264.041672185019
32.9907 257
33.01081 295.000015363504
33.03092 266.99611686357
33.05104 292.013358067002
33.07115 272.019638705459
33.09127 287.980854755245
33.11138 281.016280077466
33.13149 274.993211427901
33.15161 305.01677525606
33.17172 318.983491184815
33.19183 279.9365688948
33.21195 268.084050847042
33.23206 303.046997811455
33.25217 250.98592026627
33.27229 322.97747692428
33.2924 306
33.31252 301.993848278492
33.33263 278.953944928461
33.35274 261.013260535711
33.37286 284.956222080709
33.39297 291.007268812357
33.41308 287.99349121413
33.4332 295
33.45331 283.007905996003
33.47343 309.986242938471
33.49354 264.933586119933
33.51365 262.995400179951
33.53377 264.960941544652
33.55388 294.013598901562
33.57399 250.008092095528
33.59411 280.018222913132
33.61422 290.992670335328
33.63434 285.015579827196
33.65445 295.97796507973
33.67456 277.986874826983
33.69468 301.999473887081
33.71479 273.011736292101
33.7349 278
33.75502 290.990322606814
33.77513 273.00300705407
33.79524 285.973715940902
33.81536 246.05930099332
33.83547 247.97204521864
33.85559 273.980712708694
33.8757 302
33.89581 267.995329945465
33.91593 294.038020052554
33.93604 291.958789987328
33.95615 277.976656390486
33.97627 298.993687576776
33.99638 286.999176729776
34.0165 308
34.03661 302.984910653931
34.05672 266.979044300544
34.07684 274.055176261915
34.09695 297.992614570069
34.11706 290.977781914637
34.13718 318.984934691723
34.15729 311.005799981695
34.17741 302.991786983294
34.19752 282.993703795205
34.21763 296.0312326901
34.23775 312.023916421883
34.25786 313.016760490958
34.27797 302.008878538656
34.29809 295.010858018083
34.3182 273
34.33831 309.019247005023
34.35843 331.01928128265
34.37854 348.053032839277
34.39866 369.011322083159
34.41877 336.059778852365
34.43888 326.960352102965
34.459 379
34.47911 341.98387428557
34.49922 346.021271217783
34.51934 366.037655236973
34.53945 381.973352766251
34.55957 387.993990981483
34.57968 398.97594197831
34.59979 421.999401278784
34.61991 411.003530905232
34.64002 437.015408638659
34.66013 424.959434842167
34.68025 409.023059433311
34.70036 442.912848105606
34.72047 460.047362911224
34.74059 417.995763274611
34.7607 485
34.78082 511.983253965211
34.80093 482.983087248961
34.82104 507.094367353166
34.84116 527.092201412316
34.86127 462.991479856815
34.88138 527.974224980482
34.9015 495
34.92161 527.011566580382
34.94173 512.961062213328
34.96184 493.964461308166
34.98195 483.973650582535
35.00207 489.058825489236
35.02218 428.02052428883
35.04229 455.988722782212
35.06241 448.996511845864
35.08252 459.014385885034
35.10264 452.922532484524
35.12275 408.977787805423
35.14286 428.994517146895
35.16298 406.011008359889
35.18309 418.994308264131
35.2032 425
35.22332 439.962437282176
35.24343 380.994780006448
35.26354 430.044217671408
35.28366 400.056046402321
35.30377 404.97683309062
35.32389 410.001969669506
35.344 412
35.36411 443.008734589206
35.38423 440.993097821447
35.40434 431.936170294415
35.42445 396.997129919398
35.44457 430.963280264673
35.46468 424.018357532937
35.4848 410
35.50491 398.999252795443
35.52502 405.004768421936
35.54514 401.9826753207
35.56525 396.984978507613
35.58536 409.982967450259
35.60548 403.022068347681
35.62559 386.994416646517
35.64571 418.011039124354
35.66582 406.960099297447
35.68593 383.049613076713
35.70605 438.000928567572
35.72616 386.051085256184
35.74627 413.954450861543
35.76639 416.003146917914
35.7865 416
35.80661 404.985063484778
35.82673 378.007905765135
35.84684 410.047967856595
35.86696 410.011486736553
35.88707 406.019563294342
35.90718 390.001726564585
35.9273 400
35.94741 395.004432573313
35.96752 411.998441176295
35.98764 390.97066275838
36.00775 394.976258572931
36.02787 394.021445156767
36.04798 378.002967723539
36.06809 377.012319790739
36.08821 349.007536891867
36.10832 406.051060519838
36.12843 408.939347250585
36.14855 362.955476986865
36.16866 380.943801067043
36.18878 394.00210581212
36.20889 393.990399262734
36.229 437
36.24912 470.996173012481
36.26923 450.000572176178
36.28934 501.184435534078
36.30946 606.803848904923
36.32957 692.869248390847
36.34968 795.882622679734
36.3698 940
36.38991 1156.11750846309
36.41003 1399.37432611972
36.43014 1612.25553962303
36.45025 1694.69738958051
36.47037 1840.89530141493
36.49048 1761.20238994511
36.51059 1526.09997043744
36.53071 1369.91742799567
36.55082 1170.8006679146
36.57094 1018.82993233703
36.59105 946.67797958562
36.61116 747.418552803655
36.63128 581.124161420055
36.65139 497.020307021144
36.6715 472
36.69162 427.990229171958
36.71173 461.068092088741
36.73184 473.930698049509
36.75196 429.004097363841
36.77207 464.975470571246
36.79219 439.016628226697
36.8123 423
36.83241 411.993602827497
36.85253 406.013654703215
36.87264 415.97674575457
36.89275 392.01063516539
36.91287 414.961444569346
36.93298 427.991101847429
36.9531 424
36.97321 382.997237874237
36.99332 392.964023199444
37.01344 341.04800336556
37.03355 414.98650576594
37.05366 340.097365708699
37.07378 364.960464796456
37.09389 372.007008969851
37.11401 352.990390189183
37.13412 339.995397508874
37.15423 345.02070648575
37.17435 360.022783421654
37.19446 352.058488957976
37.21457 326.985864132371
37.23469 362.987961879601
37.2548 356
37.27491 344.999428580972
37.29503 352.017721922234
37.31514 357.985328439862
37.33526 332.083641761653
37.35537 302.983912233309
37.37548 338.980495613907
37.3956 339
37.41571 374.004797548374
37.43582 350.978492835428
37.45594 346.991816696601
37.47605 334.031801851562
37.49617 332.980094784954
37.51628 351.986735020061
37.53639 358.994341725088
37.55651 369.997585832701
37.57662 352.990042761284
37.59673 358.013370535285
37.61685 365.025318843464
37.63696 373.009379919734
37.65708 366.985468888945
37.67719 390.999898765985
37.6973 359
37.71742 339.001228005224
37.73753 355.03358079588
37.75764 370.003470504155
37.77776 364.004923440937
37.79787 366.005695654581
37.81798 346.0359985664
37.8381 325
37.85821 373.007300800266
37.87833 340.945614817191
37.89844 330.004498764208
37.91855 334.976702510453
37.93867 345.987782827616
37.95878 347.006042163475
37.97889 339.002418632564
37.99901 341.003736752779
38.01912 349.004791379587
38.03924 342.958537953283
38.05935 328.038566936602
38.07946 355.01034185236
38.09958 322.012760498091
38.11969 346.983888265989
38.1398 363
38.15992 360.984629361931
38.18003 351.029151957568
38.20015 384.016059748588
38.22026 371.965333539112
38.24037 407.010745438191
38.26049 363.007568797538
38.2806 388
38.30071 374.002053645839
38.32083 399.008215177067
38.34094 381.995288400604
38.36105 398.99032058332
38.38117 386.001764064124
38.40128 404.981364949137
38.4214 406
38.44151 383.986630837313
38.46162 369.010181661468
38.48174 382.966097072295
38.50185 345.034455570111
38.52196 373.909348382904
38.54208 394.021289914598
38.56219 353.011317198495
38.58231 360.005134639996
38.60242 360.002394350085
38.62253 370.01506224292
38.64265 375.005463716271
38.66276 367.055152266874
38.68287 332.030135212751
38.70299 331.998347776151
38.7231 332
38.74321 347.007048267569
38.76333 347.976722733559
38.78344 321.946486110803
38.80356 306.005251059267
38.82367 315.970681015598
38.84378 337.980100378516
38.8639 343
38.88401 318.998771589706
38.90412 346.037402321793
38.92424 363.9741669627
38.94435 335.045918688648
38.96447 337.986571685048
38.98458 344.987638431834
39.00469 367.984443078823
39.02481 386.994253746618
39.04492 366.008854921848
39.06503 392.991162644894
39.08515 348.909168016135
39.10526 353.930336440441
39.12538 390.977588432298
39.14549 416.968184072164
39.1656 475
39.18572 411.023854809143
39.20583 526.125613427884
39.22594 547.093358315857
39.24606 649.803187367547
39.26617 710.927819779069
39.28628 786.881938743232
39.3064 955
39.32651 1186.12097238425
39.34663 1407.26044248108
39.36674 1557.34143929878
39.38685 1695.98800545138
39.40697 1591.13408750344
39.42708 1510.20245583675
39.44719 1217.10826187186
39.46731 1124.95951063814
39.48742 990.865536452913
39.50754 890.840965515186
39.52765 788.623619781825
39.54776 608.321743926884
39.56788 488.102168793471
39.58799 406.016789131067
39.6081 402
39.62822 354.962859239633
39.64833 352.029828531204
39.66845 361.946190728807
39.68856 321.05212534986
39.70867 322.985440055939
39.72879 326.997439190323
39.7489 337
39.76901 338.992139778099
39.78913 314.978397677865
39.80924 313.997641944601
39.82935 308.004306574586
39.84947 313.987894313488
39.86958 318.997733237193
39.8897 318
39.90981 309.995800945614
39.92992 317.035835969473
39.95004 363.04664722038
39.97015 341.143051403507
39.99026 308.911089884824
40.01038 398.948296701212
40.03049 393.998673051707
40.05061 430.015086728297
40.07072 445.028809770086
40.09083 507.126909368955
40.11095 599.231435222871
40.13106 681.867407616125
40.15117 756.83108988982
40.17129 884.955534723779
40.1914 912
40.21152 914.019955246954
40.23163 911.888505397466
40.25174 791.825398851456
40.27186 757.076751182985
40.29197 700.049513756672
40.31208 670.089440383575
40.3322 549
40.35231 553.990792063999
40.37242 465.885282254413
40.39254 376.898059092445
40.41265 353.045397890241
40.43277 325.046635485376
40.45288 309.985858798904
40.47299 339.990426011562
40.49311 326.980017113177
40.51322 299.018381591717
40.53333 339.003638019368
40.55345 291.876594894216
40.57356 273.997358350154
40.59368 285.973494968663
40.61379 309.001463271685
40.6339 287
40.65402 293.002110733826
40.67413 296.045206949308
40.69424 331.987740705288
40.71436 292.034620331
40.73447 302.020833400547
40.75458 271.986645464102
40.7747 320
40.79481 292.99682261411
40.81493 313.990464816788
40.83504 279.985379687238
40.85515 304.97840070962
40.87527 290.991592768997
40.89538 319.986437084808
40.91549 303.011960756914
40.93561 287.993309348083
40.95572 276.999833894278
40.97584 298.08803854708
40.99595 333.985677563784
41.01606 298.042018856907
41.03618 306.990631016533
41.05629 303.000776209198
41.0764 311
41.09652 312.996294739404
41.11663 306.991138454565
41.13675 297.956337838202
41.15686 293.926359856386
41.17697 340.006685167018
41.19709 293.01075281798
41.2172 314
41.23731 297.992507449477
41.25743 306.034928725231
41.27754 320.980958292907
41.29765 296.037198756301
41.31777 297.99920951623
41.33788 297.981265339687
41.358 327
41.37811 313.992539984886
41.39822 308.994998828476
41.41834 298.980257857332
41.43845 295.985742047438
41.45856 304.990012701724
41.47868 302.007702811129
41.49879 293.004987374466
41.51891 292.008884144946
41.53902 310.992636769649
41.55913 284.986000411553
41.57925 298.015135361042
41.59936 301.928854815243
41.61947 344.016809332611
41.63959 288.016021838183
41.6597 317
41.67982 360.011801909976
41.69993 348.984097196821
41.72004 351.007632228788
41.74016 343.044824773205
41.76027 324.98754759085
41.78038 345.005015069043
41.8005 316
41.82061 321.998067840297
41.84072 307.003492608807
41.86084 322.985866537396
41.88095 290.064271120891
41.90107 293.964757991421
41.92118 312.002718108036
41.94129 295.004761789789
41.96141 303.006960947949
41.98152 308.995588893005
42.00163 300.996581457027
42.02175 302.989127219021
42.04186 295.990518978895
42.06198 311.98774455091
42.08209 315.997022451667
42.1022 326
42.12232 330.013012353526
42.14243 352.029869053782
42.16254 365.023533755679
42.18266 382.949463365059
42.20277 421.914512231824
42.22289 488.968481858133
42.243 548
42.26311 644.065876499625
42.28323 776.129836828853
42.30334 858.32127229175
42.32345 1066.65680414509
42.34357 1111.93028991314
42.36368 1195.93812604999
42.38379 1216.99018888384
42.40391 1192.92529124817
42.42402 962.819582361513
42.44414 891.946267174682
42.46425 838.794123449454
42.48436 759.079844441245
42.50448 712.136018700505
42.52459 524.058528431098
42.5447 492
42.56482 384.912846166948
42.58493 359.006969494641
42.60505 347.895239792757
42.62516 301.019707512857
42.64527 321.993773710594
42.66539 297.00924127784
42.6855 307
42.70561 314.986050976997
42.72573 267.955191970547
42.74584 267.008705293247
42.76595 271.939355872436
42.78607 298.013557136091
42.80618 265.008740137839
42.8263 282
42.84641 250.991336784798
42.86652 266.025583181467
42.88664 278.997054056755
42.90675 264.063697838166
42.92686 245.989931341717
42.94698 262.997888321857
42.96709 252.996260138226
42.98721 282.012309462524
43.00732 277.968562712573
43.02743 243.981468477894
43.04755 252.008534068551
43.06766 240.026333245021
43.08777 239.979783289987
43.10789 253.99952426179
43.128 247
43.14812 261.005355200591
43.16823 245.957748483513
43.18834 227.011677578543
43.20846 255.931264004969
43.22857 278.982577086507
43.24868 278.015052548658
43.2688 256
43.28891 244.998248362477
43.30902 254.028063448614
43.32914 286.027326196963
43.34925 268.101792675425
43.36937 233.013222968827
43.38948 244.992888560938
43.40959 234.008298379982
43.42971 236.01622390322
43.44982 272.000245155846
43.46993 235.949535329345
43.49005 235.060224154908
43.51016 262.964677367274
43.53028 263.011447447965
43.55039 249.00679789545
43.5705 239
43.59062 243.018952470962
43.61073 268.024924031804
43.63084 261.942280717397
43.65096 237.981197170954
43.67107 273.959100460648
43.69119 271.009909876659
43.7113 253
43.73141 248.998277664791
43.75153 235.96039629544
43.77164 215.01511490955
43.79175 243.950379959621
43.81187 246.987402851218
43.83198 261.002723710945
43.85209 242.006164911785
43.87221 246.003621178566
43.89232 240.980324272826
43.91244 227.029546861114
43.93255 259.036444333639
43.95266 251.003094939981
43.97278 258.011442423724
43.99289 236.9971973893
44.013 269
44.03312 262.984872339805
44.05323 255.999958697325
44.07335 266.060706009087
44.09346 275.080507291392
44.11357 213.032203339074
44.13369 244.981922258242
44.1538 257
44.17391 264.99552220265
44.19403 244.987788617721
44.21414 248.987764718237
44.23426 238.970602129347
44.25437 269.984968898862
44.27448 247.030678653298
44.2946 237
44.31471 259.004825066642
44.33482 251.991921884151
44.35494 255.021544241436
44.37505 258.042591742498
44.39516 233.0165085294
44.41528 246.983013361281
44.43539 250.004479609668
44.45551 249.012438894597
44.47562 282.004999200923
44.49573 256.968245886772
44.51585 258.020440557633
44.53596 260.999245743694
44.55607 261.001187323054
44.57619 254.009045649374
44.5963 242
44.61642 268.996909019292
44.63653 237.975632753295
44.65664 251.029113709342
44.67676 252.000441811237
44.69687 258.984836252247
44.71698 265.001416186162
44.7371 260
44.75721 257.993091187054
44.77732 245.011912624872
44.79744 279.057946553645
44.81755 279.065750642159
44.83767 256.98421949618
44.85778 277.021961064639
44.87789 225.008983212773
44.89801 256.015507591389
44.91812 254.983313920519
44.93823 243.999865807497
44.95835 254.035375995547
44.97846 266.976061915651
44.99858 270.014434265627
45.01869 253.996478712323
45.0388 273
45.05892 248.997467374879
45.07903 275.031708085855
45.09914 277.002862546651
45.11926 280.023846743586
45.13937 263.98880232195
45.15949 288.995643902631
45.1796 279
45.19971 297.002615889815
45.21983 278.964786734675
45.23994 283.094093519678
45.26005 332.016891625561
45.28017 283.030329260499
45.30028 302.999167053535
45.32039 269.012383021859
45.34051 280.014774057141
45.36062 308.02296021719
45.38074 323.013843951217
45.40085 325.000073825623
45.42096 325.002152884601
45.44108 324.995722352248
45.46119 332.996088579855
45.4813 334
45.50142 331.021062724454
45.52153 371.052538836828
45.54165 389.029635291962
45.56176 416.891267828817
45.58187 480.932701125801
45.60199 522.958624011236
45.6221 630
45.64221 670.040426927241
45.66233 803.186479277753
45.68244 870.03691901357
45.70256 873.973116100916
45.72267 895.992182332993
45.74278 858.081822198807
45.7629 754
45.78301 679.978392987819
45.80312 646.955045591369
45.82324 593.93256975933
45.84335 567.145790552249
45.86346 480.145184069008
45.88358 438.036642569398
45.90369 386.030731538912
45.92381 335.989034048944
45.94392 321.958172055342
45.96403 271.997182495092
45.98415 307.012198934958
46.00426 271.041114449176
46.02437 281.000157419004
46.04449 268.992432431283
46.0646 302
46.08472 264.964151680143
46.10483 257.010553102347
46.12494 264.009531885722
46.14506 260.034120036578
46.16517 239.016627871382
46.18528 247.974538281661
46.2054 267
46.22551 243.99583653197
46.24563 256.011677143487
46.26574 247.977999024455
46.28585 243.006314026434
46.30597 250.954839999717
46.32608 280.007581276412
46.34619 243.011727631805
46.36631 252.008886476767
46.38642 255.991100417231
46.40653 247.00432076016
46.42665 257.00106815982
46.44676 243.032870226025
46.46688 239.98533990895
46.48699 254.004725966189
46.5071 231
46.52722 258.03599570451
46.54733 273.981882205396
46.56744 242.934693342349
46.58756 228.982978563761
46.60767 246.983881064425
46.62779 246.998840366459
46.6479 250
46.66801 238.00754327006
46.68813 275.038079705507
46.70824 267.945330333185
46.72835 235.087637435672
46.74847 219.96302329018
46.76858 267.965347786891
46.78869 260.021867330666
46.80881 222.001558762481
46.82892 257.022418525748
46.84904 254.005232966632
46.86915 261.955334865975
46.88926 225.034990474695
46.90938 236.986517919723
46.92949 242.991362866018
46.9496 267
46.96972 256.996774755568
46.98983 274.04046636442
47.00995 282.932056272451
47.03006 236.062745179355
47.05017 247.927163349561
47.07029 285.008410501458
47.0904 234
47.11051 256.010978759956
47.13063 252.98760786027
47.15074 261.052233613051
47.17086 272.078803444272
47.19097 221.977508312897
47.21108 288.970370808602
47.2312 256
47.25131 253.996453829863
47.27142 241.015303039144
47.29154 275.017315760259
47.31165 256.012891178276
47.33176 276.964252029797
47.35188 270.024419715371
47.37199 243.010794973061
47.39211 237.006133324233
47.41222 255.008354659191
47.43233 253.003022901888
47.45245 255.966426132332
47.47256 235.997965558498
47.49267 266.936586404058
47.51279 288.007462872341
47.5329 259
47.55302 264.97158548764
47.57313 220.005143603154
47.59324 266.03616029025
47.61336 239.037754370452
47.63347 253.967505768964
47.65358 258.011045058865
47.6737 242
47.69381 246.014073670601
47.71393 271.985218556472
47.73404 235.962283904035
47.75415 258.884492419668
47.77427 285.029739062468
47.79438 240.023270508854
47.81449 254.988398773204
47.83461 262.999545753893
47.85472 266.013289674306
47.87483 271.961897172724
47.89495 229.951735150179
47.91506 252.908433977898
47.93518 292.975940521338
47.95529 284.024682888334
47.9754 233
47.99552 266.017911159655
48.01563 245.958756323831
48.03574 240.029131873438
48.05586 258.984198772056
48.07597 253.011314372469
48.09609 252.997825972508
48.1162 257
48.13631 249.989197621079
48.15643 237.037055474713
48.17654 283.043091669143
48.19665 266.060587141607
48.21677 252.025684045137
48.23688 238.987876441507
48.257 268
48.27711 249.977865580329
48.29722 220.017603230317
48.31734 261.013642912309
48.33745 233.991146187575
48.35756 257.009115384996
48.37768 228.993145016469
48.39779 265.998078330118
48.4179 235
48.43802 262.001059319133
48.45813 233.995177657672
48.47825 262.030071132589
48.49836 249.000448958637
48.51847 260.025669487869
48.53859 225.001352040952
48.5587 254
48.57881 232.99337071894
48.59893 244.019934647652
48.61904 241.973716033184
48.63916 233.981125292205
48.65927 251.992034722225
48.67938 243.003694584674
48.6995 257
48.71961 266.988953063296
48.73972 230.986377282676
48.75984 248.040052465058
48.77995 254.987453888659
48.80006 260.008878931137
48.82018 253.990151980483
48.84029 275.993635460163
48.86041 271.99649984321
48.88052 264.982451588999
48.90063 251.021761631867
48.92075 286.055969423145
48.94086 273.0766177824
48.96097 235.031969621912
48.98109 240.986066413489
49.0012 263
49.02132 240.998801095284
49.04143 264.021900009202
49.06154 256.980813070376
49.08166 259.976465320277
49.10177 272.984597782694
49.12188 277.002058976767
49.142 266
49.16211 248.003549823795
49.18223 274.027624426769
49.20234 259.909636779107
49.22245 228.929887798558
49.24257 291.957152518324
49.26268 267.028559859035
49.28279 263.998964706919
49.30291 254.992220246804
49.32302 250.018415641984
49.34313 273.998009207792
49.36325 251.981724459528
49.38336 264.992500965561
49.40348 252.007669402281
49.42359 272.974619237175
49.4437 317
49.46382 273.957994714618
49.48393 261.003698874708
49.50404 272.052536065563
49.52416 297.994631589194
49.54427 275.042414344581
49.56439 269.986589322561
49.5845 301
49.60461 280.004523364561
49.62473 317.019679296933
49.64484 295.971846169673
49.66495 314.907602887023
49.68507 350.954651019744
49.70518 372.984698597586
49.7253 367
49.74541 322.003543788718
49.76552 389.081141994459
49.78564 432.999033495282
49.80575 425.070037648031
49.82586 490.878069252418
49.84598 546.908415398934
49.86609 661.958513964938
49.8862 702
49.90632 791.144977560152
49.92643 991.365660721447
49.94655 1216.37133633446
49.96666 1379.36066208724
49.98677 1806.49936653997
50.00689 2007.88951698148
50.027 2341
50.04711 2607.03044958854
50.06723 2477.68247155609
50.08734 2252.45790450346
50.10746 1914.76569423984
50.12757 1604.19554488435
50.14768 1588.07023948376
50.1678 1420
50.18791 1359.96984606263
50.20802 1241.84718441383
50.22814 1061.56364348906
50.24825 813.62900396373
50.26837 589.275914498439
50.28848 466.048872642266
50.30859 446.02390235836
50.32871 370.978318587395
50.34882 375.00949931174
50.36893 362.97209575019
50.38905 355.013154864857
50.40916 356.046355677007
50.42927 335.953887152765
50.44939 386.005333142898
50.4695 327
50.48962 374.034071438264
50.50973 368.000970606834
50.52984 383.986604051454
50.54996 347.072313684041
50.57007 340.965110727142
50.59018 360.018236803871
50.6103 317
50.63041 327.003325833276
50.65053 314.983643704871
50.67064 311.984516845639
50.69075 299.014419174624
50.71087 304.985024495587
50.73098 309.004331918992
50.75109 302.999293236123
50.77121 301.988870149296
50.79132 272.998045127389
50.81143 298.027448881908
50.83155 284.910914185592
50.85166 258.984077538262
50.87178 285.99298902962
50.89189 264.010488091289
50.912 256
50.93212 244.011951174824
50.95223 269.005650918322
50.97234 246.963437396915
50.99246 254.9451218452
51.01257 278.993984449238
51.03269 263.00970770741
51.0528 251
51.07291 249.008621290727
51.09303 267.98748325017
51.11314 239.978113264109
51.13325 247.026165449868
51.15337 223.992187263639
51.17348 255.983723286179
51.1936 242
51.21371 245.008387769618
51.23382 256.994116192656
51.25394 237.971580601211
51.27405 232.029325684064
51.29416 223.961060830718
51.31428 254.997781202934
51.33439 226.011112704493
51.3545 231
51.37462 231.980001334492
51.39473 216.030281602312
51.41485 251.997766021326
51.43496 218.021272828743
51.45507 235.010720257237
51.47519 197.011598865734
51.4953 211
51.51541 226.999775292293
51.53553 222.009515289011
51.55564 240.027988475063
51.57576 235.046844598903
51.59587 211.010252362106
51.61598 222.985216786362
51.6361 234
51.65621 254.00616074791
51.67632 249.982067464916
51.69644 235.005401570256
51.71655 247.00457013659
51.73667 232.006489883113
51.75678 242.992896614834
51.77689 233.010529587463
51.79701 210.9908240062
51.81712 204.007936541187
51.83723 220.020294268783
51.85735 227.016396539083
51.87746 234.99016393953
51.89757 235.999177386321
51.91769 241.993112292557
51.9378 250
51.95792 224.991051102541
51.97803 242.038935936521
51.99814 252.977278243239
52.01826 224.067859666094
52.03837 215.944670382519
52.05848 261.003459467917
52.0786 207
52.09871 210.024860422326
52.11883 260.013318806891
52.13894 230.954162427006
52.15905 233.986952882075
52.17917 227.014619347779
52.19928 220.008006066688
52.21939 216.994041529176
52.23951 240.009993475668
52.25962 242.985684092852
52.27974 224.984941367009
52.29985 232.029401672698
52.31996 227.066732315823
52.34008 194.988647305327
52.36019 241.983747486177
52.3803 233
52.40042 219.010493912545
52.42053 248.04622205944
52.44064 254.947146733828
52.46076 216.040600012735
52.48087 225.967875540301
52.50099 239.99688675053
52.5211 244
52.54121 255.00440362803
52.56133 247.953819231136
52.58144 214.989718003843
52.60155 235.961414323167
52.62167 227.031185725511
52.64178 219.979985923313
52.6619 250
52.68201 237.998388267592
52.70212 245.991757033791
52.72224 231.03055757777
52.74235 264.990769406594
52.76246 231.060234805745
52.78258 234.972949127796
52.80269 257.998804215861
52.8228 245
52.84292 254.0124987242
52.86303 253.975267210366
52.88315 232.976767382321
52.90326 240.97030108705
52.92337 241.039311658279
52.94349 225.977308621467
52.9636 301
52.98371 259.980805271794
53.00383 258.00251121453
53.02394 251.009504267823
53.04406 268.976023393872
53.06417 261.034452293478
53.08428 244.991688718566
53.1044 266
53.12451 249.99429661118
53.14462 259.020293833724
53.16474 270.985765680907
53.18485 258.979613046888
53.20497 281.98905295422
53.22508 261.031221764582
53.24519 242.999401265519
53.26531 259.010200914464
53.28542 266.988787473886
53.30553 257.027682673192
53.32565 297.06783359182
53.34576 291.051088379824
53.36587 273.990518261829
53.38599 287.005933587846
53.4061 259
53.42622 290.035117994947
53.44633 301.986994996421
53.46644 282.957087748158
53.48656 271.989897773311
53.50667 293.948722257044
53.52678 315.013467356941
53.5469 280
53.56701 286.007270055351
53.58713 289.990326770193
53.60724 280.992578070547
53.62735 284.984153057771
53.64747 289.992200024583
53.66758 301.976412464331
53.68769 322.002037209122
53.70781 292.982961600705
53.72792 283.024057746028
53.74804 314.001160661935
53.76815 296.0303288333
53.78826 321.056180703263
53.80838 265.989301725978
53.82849 334.986616320322
53.8486 294
53.86872 295.993073255926
53.88883 282.038792089017
53.90894 331.016428661616
53.92906 289.074995760398
53.94917 287.979492948943
53.96929 302.987739434118
53.9894 324
54.00951 296.987422997158
54.02963 287.996277790973
54.04974 295.058345061991
54.06985 326.995027570159
54.08997 305.011178775385
54.11008 320.990214611228
54.1302 305
54.15031 285.0046572453
54.17042 310.009339912284
54.19054 302.007983571495
54.21065 320.981456205836
54.23076 315.983919081113
54.25088 332.006902611985
54.27099 307.003592832088
54.29111 324.005847320031
54.31122 315.987187535905
54.33133 316.023587115174
54.35145 328.971818168652
54.37156 308.983121092579
54.39167 336.997761425018
54.41179 305.013034998913
54.4319 304
54.45201 303.001444564592
54.47213 316.029996487736
54.49224 334.019319351155
54.51236 337.98616725773
54.53247 357.948743385776
54.55258 386.997401394144
54.5727 369
54.59281 390.026339432099
54.61292 448.036685449407
54.63304 461.024786227633
54.65315 496.851402215455
54.67327 555.950648937472
54.69338 588.916272853743
54.71349 722.934801955536
54.73361 819.040633829009
54.75372 897.063952920608
54.77383 941.040483512608
54.79395 960.040133355883
54.81406 946.151783778959
54.83417 812.230712394675
54.85429 693.032022855697
54.8744 666
54.89452 648.033776197487
54.91463 696.975392064416
54.93474 614.865507209942
54.95486 592.055063525256
54.97497 552.015159424058
54.99508 551.054635847788
55.0152 450
55.03531 425.991742448253
55.05543 400.992893433326
55.07554 411.987694070965
55.09565 391.001010899838
55.11577 413.979392008659
55.13588 424.953022266695
55.15599 492.98301053189
55.17611 491.00712805271
55.19622 544.061394180692
55.21634 580.011440052223
55.23645 559.907928821638
55.25656 537.967368225095
55.27668 568.004349976076
55.29679 516.032197001251
55.3169 465
55.33702 431.995676706915
55.35713 433.9554910185
55.37724 398.042780136048
55.39736 463.933682234878
55.41747 436.061587040086
55.43759 402.026983926219
55.4577 339
55.47781 338.998115345426
55.49793 317.977400216136
55.51804 316.996970248752
55.53815 304.051163989857
55.55827 288.004560802669
55.57838 293.997324919718
55.5985 287
55.61861 287.009458304816
55.63872 313.012580836901
55.65884 303.962782215086
55.67895 287.038836491281
55.69906 276.999256328285
55.71918 292.968180851687
55.73929 317.004156170633
55.75941 289.996299850071
55.77952 308.011151583696
55.79963 289.943980583402
55.81975 269.054724794387
55.83986 307.993117303447
55.85997 276.022513211021
55.88009 300.982265251978
55.9002 311
55.92031 276.991374829973
55.94043 279.998451813937
55.96054 261.952935641884
55.98066 250.982642977165
56.00077 262.016526837901
56.02088 241.991314922302
56.041 283
56.06111 293.995693389572
56.08122 282.995675744142
56.10134 290.028063489273
56.12145 290.076913801536
56.14157 262.957227334025
56.16168 320.99115195728
56.18179 266.027319090299
56.20191 252.001865749929
56.22202 258.015806584317
56.24213 279.020514977938
56.26225 273.942766580094
56.28236 252.999196863033
56.30248 268.993456193513
56.32259 251.016244211427
56.3427 233
56.36282 274.03715280487
56.38293 279.963287507813
56.40304 250.983946898196
56.42316 271.93501241291
56.44327 275.075591192666
56.46338 215.000719937165
56.4835 273
56.50361 276.999016624476
56.52373 270.932403619721
56.54384 215.999888761066
56.56395 269.895157012032
56.58407 263.041381049879
56.60418 255.973279170718
56.62429 283.009872771588
56.64441 229.987416206932
56.66452 249.019101491977
56.68464 255.046707107594
56.70475 284.987737391727
56.72486 250.037091350817
56.74498 266.974481045443
56.76509 272.008948562005
56.7852 255
56.80532 276.991495529108
56.82543 251.017416186251
56.84554 292.014247343053
56.86566 257.043921394893
56.88577 265.995056082464
56.90589 252.003023381971
56.926 259
56.94611 257.010503873972
56.96623 288.003809592031
56.98634 262.972943393196
57.00645 270.005288384855
57.02657 256.993700746803
57.04668 274.002863548754
57.0668 263
57.08691 318.016499479296
57.10702 312.991838512863
57.12714 300.897684530012
57.14725 242.989543387402
57.16736 295.960408954798
57.18748 266.014199782587
57.20759 296.980045971378
57.22771 301.980988941189
57.24782 253.983806414228
57.26793 269.006713382863
57.28805 255.002897898932
57.30816 274.982506916567
57.32827 263.018522257655
57.34839 258.005064257836
57.3685 249
57.38861 270.000813571815
57.40873 246.964574095178
57.42884 240.006821969456
57.44896 240.021679186412
57.46907 226.002733049947
57.48918 232.00584845431
57.5093 239
57.52941 316.000059619515
57.54952 244.953115908538
57.56964 257.023134566157
57.58975 244.005876602871
57.60987 268.949721814631
57.62998 281.021286548506
57.65009 250.002462957452
57.67021 274.009999543221
57.69032 263.966600645191
57.71043 240.018170062662
57.73055 270.007586108501
57.75066 246.012736903858
57.77078 261.004372194583
57.79089 237.001461705961
57.811 257
57.83112 245.010582467979
57.85123 275.011228501644
57.87134 255.98417245914
57.89146 261.035064372098
57.91157 223.03052963252
57.93168 235.975885991809
57.9518 252
57.97191 261.004412069955
57.99203 256.953717999653
58.01214 226.020072231638
58.03225 264.964030620393
58.05237 238.04776650844
58.07248 232.98254501048
58.09259 255.992176404102
58.11271 253.991328966981
58.13282 235.994027763736
58.15294 239.998986015983
58.17305 228.967486453857
58.19316 225.978517093335
58.21328 240.994109022895
58.23339 238.997727889504
58.2535 257
58.27362 265.981306916425
58.29373 234.97799808404
58.31385 237.984797190022
58.33396 225.975826613863
58.35407 253.991728172432
58.37419 234.005016265264
58.3943 253
58.41441 264.987998656478
58.43453 224.971167937883
58.45464 237.035159153381
58.47475 242.993602324446
58.49487 244.010576624178
58.51498 235.995201885266
58.5351 249
58.55521 240.999655800801
58.57532 249.000078977472
58.59544 237.982727687752
58.61555 236.010651610241
58.63566 232.978365655193
58.65578 256.976489854743
58.67589 259.01361256826
58.69601 221.990511259779
58.71612 238.040571087457
58.73623 273.013414516484
58.75635 256.950389831221
58.77646 242.043657721046
58.79657 219.009007550361
58.81669 234.987607432738
58.8368 254
58.85691 256.997846080229
58.87703 263.04927629587
58.89714 293.966847145365
58.91726 247.028022851379
58.93737 267.011421587728
58.95748 226.017954105346
58.9776 255
58.99771 272.992219040187
59.01782 243.985943238499
59.03794 246.988516920302
59.05805 237.952402632185
59.07817 270.998328901274
59.09828 251.98148425586
59.11839 297.997394218678
59.13851 246.972929132528
59.15862 237.029451685703
59.17873 271.01208289937
59.19885 261.02453236702
59.21896 289.981406391764
59.23908 269.02325900535
59.25919 261.999913981601
59.2793 269
59.29942 281.969255001704
59.31953 232.989214487226
59.33964 277.090019019751
59.35976 290.999842811592
59.37987 293.992340411439
59.39998 301.987689469147
59.4201 304
59.44021 287.020526873739
59.46033 346.982963765991
59.48044 275.941840690357
59.50055 317.897870191971
59.52067 323.986627216142
59.54078 351.975058561129
59.56089 351.014016038282
59.58101 325.003350933457
59.60112 357.0192242265
59.62124 374.125374031241
59.64135 464.124652779109
59.66146 473.928587000515
59.68158 542.957465156747
59.70169 558.976001596149
59.7218 667
59.74192 799.1262448267
59.76203 934.234801829711
59.78215 1115.47776692591
59.80226 1303.63842731111
59.82237 1470.78144581562
59.84249 1606.92947790655
59.8626 1736
59.88271 1732.95518749413
59.90283 1581.72618134369
59.92294 1378.52584703979
59.94305 1136.49320195909
59.96317 1014.09056892472
59.98328 991.991576936795
60.0034 1018
60.02351 1029.97553157133
60.04362 935.912368763896
60.06374 860.790029640272
60.08385 718.353290979832
60.10396 595.243921421564
60.12408 475.096206644272
60.14419 411.021304997695
60.16431 366.972092143979
60.18442 310.967360817576
60.20453 305.002177629379
60.22465 297.969993201328
60.24476 289.002239112177
60.26487 281.051158379501
60.28499 240.004257591529
60.3051 277
60.32522 306.983805595048
60.34533 275.003779431704
60.36544 294.941003024933
60.38556 231.030800778298
60.40567 280.925397302104
60.42578 292.001334640095
60.4459 283
60.46601 246.008801482211
60.48612 298.012851944772
60.50624 258.939079139532
60.52635 265.966209324536
60.54647 263.017266312867
60.56658 254.003238389743
60.58669 253.002707628002
60.60681 244.999027093562
60.62692 243.986341224591
60.64703 233.03112980687
60.66715 271.028512379063
60.68726 252.019454650934
60.70738 273.963574337648
60.72749 294.005333325311
60.7476 263
60.76772 252.994307229346
60.78783 247.002256342712
60.80794 249.981503667819
60.82806 238.976753192198
60.84817 262.002044638324
60.86828 243.991051410419
60.8884 278
60.90851 257.990115586461
60.92863 258.009434737476
60.94874 263.019058473026
60.96885 269.02890352637
60.98897 253.985210471318
61.00908 278.998203849541
61.02919 257.003975133309
61.04931 270.001538696242
61.06942 251.980626988538
61.08954 248.017629609438
61.10965 256.997721395808
61.12976 257.951001186705
61.14988 290.995726743987
61.16999 268.005797780956
61.1901 280
61.21022 273.992535816689
61.23033 264.963770116393
61.25045 242.02136851938
61.27056 270.984340068322
61.29067 261.970551917443
61.31079 303.99406421042
61.3309 271
61.35101 267.019272965816
61.37113 306.990154447797
61.39124 267.980677411902
61.41135 298.947131920721
61.43147 293.000511630197
61.45158 302.010859569183
61.4717 277
61.49181 302.013136108145
61.51192 307.991232031538
61.53204 300.005642716618
61.55215 305.028518877588
61.57226 285.997872779542
61.59238 304.993096605503
61.61249 295.999386280617
61.63261 313.00601217441
61.65272 320.022283799953
61.67283 353.027470386656
61.69295 345.954702383011
61.71306 334.004890891529
61.73317 327.042915562849
61.75329 301.989236496266
61.7734 351
61.79352 316.967154950131
61.81363 317.024089289735
61.83374 326.99693820369
61.85386 312.049356640702
61.87397 303.952448603867
61.89408 353.977043037717
61.9142 332
61.93431 320.017337527068
61.95442 367.005568774806
61.97454 328.939377139162
61.99465 329.986624204239
62.01477 325.00425791657
62.03488 328.997002894586
62.05499 326.003075691152
62.07511 331.013802488586
62.09522 361.000216019009
62.11533 330.957028010909
62.13545 328.040078680998
62.15556 350.951996951646
62.17568 364.004847100491
62.19579 349.005243217476
62.2159 349
62.23602 347.999482055022
62.25613 344.98218139713
62.27624 330.994498327697
62.29636 343.960482607181
62.31647 340.074183851072
62.33659 284.998853906936
62.3567 341
62.37681 330.981209602869
62.39693 304.999669447358
62.41704 316.993643013926
62.43715 296.034417039408
62.45727 300.984153003529
62.47738 291.043405085596
62.49749 249.994518577343
62.51761 305.020577459611
62.53772 295.961531046517
62.55784 270.01656630361
62.57795 291.984137223485
62.59806 259.031214731997
62.61818 270.993739292199
62.63829 267.991280267946
62.6584 289
62.67852 238.985458618924
62.69863 277.067537081817
62.71875 289.966252325822
62.73886 271.017734083465
62.75897 270.015809254863
62.77909 256.9953392419
62.7992 277
62.81931 245.990730242322
62.83943 259.039633885622
62.85954 268.96284628603
62.87965 239.029044842707
62.89977 247.996190235936
62.91988 242.986563857408
62.94 264
62.96011 241.007597181255
62.98022 286.013632589802
63.00034 260.979582572108
63.02045 276.999119505165
63.04056 251.041882180971
63.06068 253.985388762303
63.08079 260.005347613234
63.10091 243.999192746434
63.12102 258.011241849815
63.14113 264.024481373072
63.16125 277.957908554825
63.18136 240.040836299845
63.20147 252.963776045492
63.22159 265.000795051863
63.2417 256
63.26182 248.988978083718
63.28193 240.007670590467
63.30204 253.005192080412
63.32216 245.995171830865
63.34227 260.982570509466
63.36238 260.00704426452
63.3825 246
63.40261 225.007683558161
63.42272 269.035465275907
63.44284 272.971799229293
63.46295 261.007161829801
63.48307 264.001793309917
63.50318 258.0012769674
63.52329 261.999847814712
63.54341 264.008997993728
63.56352 285.999371411263
63.58363 262.972099945881
63.60375 269.061120023971
63.62386 281.050816660579
63.64398 245.991529265583
63.66409 300.974502684396
63.6842 307
63.70432 271.983900462793
63.72443 284.039385846209
63.74454 307.031141572287
63.76466 311.016021335082
63.78477 311.953086844509
63.80489 356.990015085113
63.825 349
63.84511 385.033145008893
63.86523 441.015080782358
63.88534 424.019205842217
63.90545 469.905829930107
63.92557 489.945400092808
63.94568 544.959514819546
63.96579 541.022985817226
63.98591 477.971770610273
64.00602 441.976365698889
64.02614 411.907917100191
64.04625 374.01200528986
64.06636 396.041444375943
64.08648 341.02035399064
64.10659 382.968431987206
64.1267 416
64.14682 379.961432874659
64.16693 356.979921521197
64.18705 338.924282598353
64.20716 304.046613933243
64.22727 291.029021269501
64.24739 265.007824853207
64.2675 266
64.28761 266.996199620178
64.30773 256.994355767193
64.32784 256.985695321774
64.34796 243.018550581418
64.36807 245.982698744887
64.38818 251.013012274005
64.4083 236
64.42841 265.005855064614
64.44852 245.972144669972
64.46864 236.026449801288
64.48875 254.003066632749
64.50886 233.034648812973
64.52898 241.965428408939
64.54909 273.999348926635
64.56921 244.984639691996
64.58932 235.005253473419
64.60943 244.010141392254
64.62955 247.008742376486
64.64966 248.017555525322
64.66977 231.024170722664
64.68989 222.002202044883
64.71 222
64.73012 236.018812464896
64.75023 253.015653269384
64.77034 245.938346013442
64.79046 214.006586566344
64.81057 237.969382469502
64.83068 235.015576341428
64.8508 227
64.87091 239.997009329959
64.89102 223.002836308963
64.91114 244.013327618561
64.93125 232.999164390198
64.95137 243.016555908485
64.97148 220.991868127284
64.99159 256.989937528525
65.01171 246.994520580712
65.03182 247.996909827784
65.05193 226.94529833926
65.07205 208.074139804079
65.09216 261.955862192032
65.11228 240.022794338351
65.13239 240.996783307154
65.1525 239
65.17262 233.996441236017
65.19273 239.030323384862
65.21284 265.030625916936
65.23296 260.037478952346
65.25307 242.013491962031
65.27319 241.001040258635
65.2933 243
65.31341 269.002228659529
65.33353 256.000975304671
65.35364 266.974195703094
65.37375 236.021362973326
65.39387 256.974017987343
65.41398 246.030814537084
65.43409 221.000722889456
65.45421 248.021249650897
65.47432 275.995563633074
65.49444 258.010035180591
65.51455 270.924068050517
65.53466 219.993617096455
65.55478 280.952319227176
65.57489 277.011846559574
65.595 263
65.61512 257.993289028272
65.63523 256.018817975272
65.65535 288.115612823286
65.67546 317.031281806601
65.69557 280.011810252461
65.71569 303.995985102691
65.7358 285
65.75591 297.004170455862
65.77603 278.936923305145
65.79614 250.039171856523
65.81626 291.001312891664
65.83637 258.985595144148
65.85648 310.978428401496
65.8766 282
65.89671 290.0119120644
65.91682 288.952520441827
65.93694 227.961877211082
65.95705 262.885268286027
65.97716 273.060525326388
65.99728 235.008056873759
66.01739 255.994205185177
66.03751 237.985342371439
66.05762 223.007230525353
66.07773 231.973785380907
66.09785 209.052046612132
66.11796 257.976662842119
66.13807 229.012159529737
66.15819 256.991243863195
66.1783 244
66.19842 247.021387173655
66.21853 262.982504324243
66.23864 233.972553943707
66.25876 245.968529914455
66.27887 256.970933983076
66.29898 272.015669622647
66.3191 233
66.33921 237.011920020409
66.35933 249.975215112221
66.37944 218.976688820914
66.39955 233.961720930893
66.41967 237.989336040526
66.43978 247.004954419126
66.45989 232.002562425401
66.48001 240.002259545739
66.50012 239.007912802381
66.52023 247.981592484497
66.54035 228.020651729701
66.56046 254.999761531868
66.58058 221.029702295753
66.60069 226.982464154667
66.6208 252
66.64092 218.010691446062
66.66103 266.026144424772
66.68114 246.005717174897
66.70126 276.992446680081
66.72137 241.049512913117
66.74149 243.985182655871
66.7616 267
66.78171 237.992275303808
66.80183 244.001814546273
66.82194 231.985167436224
66.84205 234.003412315761
66.86217 228.994025425931
66.88228 247.972866296616
66.90239 264.004030181866
66.92251 242.995135732213
66.94262 251.008239672775
66.96274 244.96534519537
66.98285 235.03330372602
67.00296 259.982577500684
67.02308 251.997600391161
67.04319 266.000220639239
67.0633 248
67.08342 252.008790750616
67.10353 252.988378660879
67.12365 245.003214714532
67.14376 261.94144365858
67.16387 283.007699661658
67.18399 259.008736944866
67.2041 269
67.22421 295.997458254294
67.24433 268.98057989614
67.26444 289.072482299273
67.28456 303.061055021052
67.30467 261.992335607366
67.32478 308.972398934865
67.3449 308
67.36501 354.009453697816
67.38512 342.003805539308
67.40524 371.033456159848
67.42535 366.990516039441
67.44546 396.909039176122
67.46558 436.976865027599
67.48569 456.979419506087
67.50581 529.043392167923
67.52592 611.071364884651
67.54603 662.036995286909
67.56615 713.33651600885
67.58626 893.744561220781
67.60637 957.874271827428
67.62649 1075.95999272599
67.6466 1106
67.66672 1147.98294777488
67.68683 1054.81630548585
67.70694 941.783899009642
67.72706 839.177220693148
67.74717 769.078736540694
67.76728 740.994138880237
67.7874 763
67.80751 767.013983229439
67.82763 827.102486397443
67.84774 870.012090209427
67.86785 862.963105799962
67.88797 883.039592883732
67.90808 810.066999025544
67.92819 806.966297589624
67.94831 909.046333133038
67.96842 982.084220078217
67.98853 1105.23357436835
68.00865 1241.16492171407
68.02876 1284.76760537806
68.04888 1452.89918142677
68.06899 1463.99239751843
68.0891 1481
68.10922 1316.85834427767
68.12933 1235.87062494487
68.14944 1145.9523431016
68.16956 1207.80523077365
68.18967 1286.91807060713
68.20979 1332.97127156296
68.2299 1376
68.25001 1299.95961295454
68.27013 1209.76942664248
68.29024 1009.65895909055
68.31035 873.41943944423
68.33047 681.20690906199
68.35058 643.964618635478
68.3707 672
68.39081 607.990223380104
68.41092 631.989758290198
68.43104 571.905643445291
68.45115 560.96849091249
68.47126 507.191203477488
68.49138 411.052008298779
68.51149 395.015460351369
68.5316 342
68.55172 342.996626700837
68.57183 321.975861391763
68.59195 311.938097556974
68.61206 280.02000027459
68.63217 287.014334065164
68.65229 252.017585732579
68.6724 250
68.69251 291.997617521677
68.71263 259.009111063094
68.73274 306.04533242341
68.75286 271.121037766018
68.77297 233.992921154189
68.79308 266.970630251422
68.8132 269
68.83331 249.995304772594
68.85342 254.01049580591
68.87354 268.042338150447
68.89365 278.05876962447
68.91376 238.033329072393
68.93388 255.975843979536
68.95399 259.008650209092
68.97411 247.009133942406
68.99422 278.000992593733
69.01433 245.961877485654
69.03445 251.050677853669
69.05456 259.033679088416
69.07467 232.014554381429
69.09479 249.985701209259
69.1149 256
69.13502 214.99941355058
69.15513 242.995281848174
69.17524 215.025855908612
69.19536 271.924997469825
69.21547 253.074821317146
69.23558 221.987103348539
69.2557 261
69.27581 245.985519402083
69.29593 231.006654078803
69.31604 246.022666116121
69.33615 246.012528331739
69.35627 243.000434414522
69.37638 238.017713578696
69.39649 222.994252327245
69.41661 259.017163136621
69.43672 264.97646312638
69.45683 239.000097758354
69.47695 253.976437936237
69.49706 223.020053923495
69.51718 242.983153030552
69.53729 247.991366851092
69.5574 278
69.57752 263.956335176255
69.59763 219.974453302316
69.61774 237.062949834769
69.63786 256.997202642235
69.65797 248.006739580348
69.67809 244.011139529093
69.6982 220
69.71831 255.007405985755
69.73843 234.963047183202
69.75854 235.048385089976
69.77865 259.994142338582
69.79877 239.032630405752
69.81888 236.984016678998
69.839 250
69.85911 223.991486813708
69.87922 225.002973000847
69.89934 227.028201140635
69.91945 247.016002046893
69.93956 237.019700674951
69.95968 234.005775405366
69.97979 230.992479142652
69.9999 245
70.02002 208.002816723674
70.04013 249.033820543489
70.06025 227.915979320743
70.08036 219.949329800285
70.10047 248.011817613022
70.12059 215.004211124817
70.1407 236
70.16081 220.000248249366
70.18093 242.015383786244
70.20104 224.946362848339
70.22116 217.949305602355
70.24127 251.990838685144
70.26138 227.022653656765
70.2815 236
70.30161 263.993113406193
70.32172 219.970541282337
70.34184 225.030718030339
70.36195 231.990618861756
70.38207 238.98309023769
70.40218 248.001103794771
70.42229 232.01384316901
70.44241 208.997741117167
70.46252 226.027915308036
70.48263 242.991474362453
70.50275 226.994236778603
70.52286 239.988100562499
70.54297 232.00990882405
70.56309 224.013655020281
70.5832 206
70.60332 268.005402252511
70.62343 218.967802994129
70.64354 246.030309920486
70.66366 224.048041506579
70.68377 229.950175847736
70.70388 256.01346202851
70.724 213
70.74411 218.009782476573
70.76423 226.990034379692
70.78434 213.989976883284
70.80445 226.933725416551
70.82457 243.021870044302
70.84468 217.99484715267
70.86479 249.992655115328
70.88491 233.991957792243
70.90502 228.987024872101
70.92513 220.039299800878
70.94525 262.017097302178
70.96536 228.05918704865
70.98548 231.977874020233
71.00559 241.010095097478
71.0257 212
71.04582 230.994211793699
71.06593 207.013585635853
71.08604 251.059134123026
71.10616 245.027811310132
71.12627 244.987929812035
71.14639 247.006176273513
71.1665 230
71.18661 237.999483803717
71.20673 222.979857889346
71.22684 220.002189561924
71.24695 225.955283627685
71.26707 244.997224176822
71.28718 229.016188073361
71.3073 226
71.32741 230.998728423525
71.34752 223.998019902954
71.36764 234.038966208516
71.38775 239.077679977958
71.40786 203.969457510279
71.42798 255.979853419053
71.44809 235.001584562658
71.4682 258
71.48832 222.973571774391
71.50843 231.040309040489
71.52855 252.013782607557
71.54866 235.073632163717
71.56877 206.988641050497
71.58889 238.990921922928
71.609 233
71.62911 248.009515755664
71.64923 251.974661199358
71.66934 227.977475426601
71.68946 232.989522936634
71.70957 233.987659131159
71.72968 245.002377970552
71.7498 220
71.76991 202.017880393196
71.79002 264.028795062521
71.81014 242.942384183114
71.83025 236.985160448507
71.85037 240.005585030509
71.87048 230.011879747757
71.89059 229.98930874453
71.91071 259.006416688737
71.93082 245.974952828263
71.95093 223.974310708988
71.97105 230.114927134165
71.99116 275.029321934042
72.01127 216.04417067826
72.03139 240.984700628055
72.0515 253
72.07162 276.004129736914
72.09173 250.939859480162
72.11184 222.996127399795
72.13196 244.940531073631
72.15207 260.010101684563
72.17218 241.014571272405
72.1923 244
72.21241 256.996710906503
72.23253 231.959839339029
72.25264 216.988705387472
72.27275 220.958821751111
72.29287 237.996444396868
72.31298 233.987048768097
72.33309 250.009217373812
72.35321 217.005097016244
72.37332 264.019594633409
72.39344 239.959748112229
72.41355 249.04103002595
72.43366 248.043098436551
72.45378 226.995885917351
72.47389 255.985581862719
72.494 254
72.51412 216.00730985238
72.53423 257.028224965554
72.55434 230.92373449035
72.57446 228.900054954507
72.59457 282.014190579259
72.61469 222.016226534187
72.6348 242
72.65491 232.992919998655
72.67503 228.997014840238
72.69514 231.032341627916
72.71525 250.000309080336
72.73537 238.987849920466
72.75548 259.005539779824
72.7756 233
72.79571 250.998194429809
72.81582 229.0061244514
72.83594 262.02415386232
72.85605 247.001862685806
72.87616 266.988522773741
72.89628 254.998121369871
72.91639 274.994718536823
72.9365 267
72.95662 259.977773645507
72.97673 236.006915734752
72.99685 265.047294394809
73.01696 255.047103506657
73.03707 249.954296963322
73.05719 301.979160107872
73.0773 310
73.09741 280.983986918057
73.11753 263.008916415841
73.13764 285.040707191576
73.15776 296.97215008715
73.17787 317.966687992303
73.19798 331.001244590107
73.2181 325
73.23821 348.018510294018
73.25832 379.009344816242
73.27844 384.066082099314
73.29855 441.885114305813
73.31867 460.981295734805
73.33878 496.931660982054
73.35889 551.008646361128
73.37901 507.015491095351
73.39912 582.98908328939
73.41923 481.906290688822
73.43935 486.936735409613
73.45946 405.131006336418
73.47957 386.02022918303
73.49969 372.988036115211
73.5198 419
73.53992 399.991928936957
73.56003 417.01543867901
73.58014 403.957366069662
73.60026 388.022799280231
73.62037 378.015680296284
73.64048 362.024378866597
73.6606 341
73.68071 335.978229514256
73.70083 268.942457516427
73.72094 273.018604711183
73.74105 269.989649907687
73.76117 276.025479388189
73.78128 248.998728087759
73.80139 274.995624640036
73.82151 258.996824447217
73.84162 265.989857103973
73.86174 237.96830370892
73.88185 244.020260232763
73.90196 245.985509184464
73.92208 255.004344473221
73.94219 237.008330806865
73.9623 234
73.98242 247.013298054211
74.00253 250.983811723009
74.02264 226.940093926499
74.04276 207.995124848249
74.06287 226.969381781734
74.08299 238.995765915883
74.1031 244
74.12321 234.996841119049
74.14333 239.020854009058
74.16344 252.002943735495
74.18355 245.997275798133
74.20367 252.00877430527
74.22378 235.010434376284
74.2439 236
74.26401 236.007159154069
74.28412 251.990719952454
74.30424 223.973767792032
74.32435 233.979942280359
74.34446 230.996083417926
74.36458 239.001006595161
74.38469 232.995962263518
74.40481 250.000739414187
74.42492 238.000878024045
74.44503 249.992616693223
74.46515 219.912218606435
74.48526 205.97165586918
74.50537 236.955991453965
74.52549 249.001557719854
74.5456 246
74.56571 259.9978825861
74.58583 232.952043235214
74.60594 223.043616022553
74.62606 254.979631192459
74.64617 239.022588864918
74.66628 237.003722950043
74.6864 230
74.70651 245.007587875621
74.72662 245.983906205558
74.74674 226.990891172506
74.76685 244.922190651759
74.78697 266.00553329158
74.80708 246.013190115128
74.82719 242.007618148358
74.84731 218.996796053267
74.86742 237.02603090994
74.88753 253.005615414307
74.90765 244.956914351997
74.92776 242.929599271025
74.94787 287.99285745621
74.96799 254.010512634663
74.9881 265
75.00822 253.978237620249
