3.00117 19878
3.02128 18989
3.0414 18619
3.06151 18215
3.08162 17730
3.10174 17250
3.12185 16622
3.14197 16470
3.16208 15733
3.18219 15592
3.20231 14946
3.22242 14192
3.24253 14272
3.26265 13372
3.28276 13083
3.30288 12692
3.32299 12411
3.3431 12070
3.36322 11612
3.38333 11243
3.40344 10881
3.42356 10482
3.44367 10315
3.46379 9633
3.4839 9601
3.50401 9075
3.52413 8671
3.54424 8613
3.56435 8235
3.58447 7782
3.60458 7736
3.62469 7226
3.64481 7161
3.66492 6618
3.68504 6491
3.70515 6378
3.72526 6031
3.74538 5753
3.76549 5329
3.7856 5247
3.80572 5173
3.82583 4891
3.84595 4739
3.86606 4335
3.88617 4350
3.90629 4039
3.9264 3863
3.94651 3787
3.96663 3418
3.98674 3276
4.00686 3326
4.02697 2996
4.04708 3117
4.0672 2770
4.08731 2562
4.10742 2724
4.12754 2493
4.14765 2452
4.16776 2201
4.18788 2207
4.20799 2137
4.22811 2045
4.24822 2017
4.26833 1764
4.28845 1738
4.30856 1776
4.32867 1830
4.34879 1646
4.3689 1520
4.38902 1514
4.40913 1579
4.42924 1522
4.44936 1498
4.46947 1401
4.48958 1286
4.5097 1412
4.52981 1301
4.54992 1269
4.57004 1195
4.59015 1182
4.61027 1240
4.63038 1176
4.65049 1085
4.67061 1062
4.69072 992
4.71083 1077
4.73095 995
4.75106 1034
4.77118 966
4.79129 906
4.8114 925
4.83152 882
4.85163 898
4.87174 908
4.89186 803
4.91197 904
4.93209 842
4.9522 805
4.97231 761
4.99243 793
5.01254 757
5.03265 759
5.05277 678
5.07288 675
5.09299 654
5.11311 700
5.13322 702
5.15334 657
5.17345 646
5.19356 633
5.21368 607
5.23379 673
5.2539 574
5.27402 572
5.29413 549
5.31425 509
5.33436 542
5.35447 520
5.37459 591
5.3947 505
5.41481 578
5.43493 524
5.45504 481
5.47516 501
5.49527 427
5.51538 435
5.5355 442
5.55561 438
5.57572 436
5.59584 426
5.61595 405
5.63606 453
5.65618 418
5.67629 368
5.69641 406
5.71652 386
5.73663 332
5.75675 336
5.77686 362
5.79697 379
5.81709 364
5.8372 367
5.85732 327
5.87743 323
5.89754 365
5.91766 374
5.93777 331
5.95788 315
5.978 358
5.99811 325
6.01823 331
6.03834 333
6.05845 330
6.07857 294
6.09868 341
6.11879 307
6.13891 322
6.15902 288
6.17913 329
6.19925 288
6.21936 312
6.23948 337
6.25959 338
6.2797 293
6.29982 303
6.31993 301
6.34004 317
6.36016 302
6.38027 300
6.40039 283
6.4205 304
6.44061 307
6.46073 293
6.48084 302
6.50095 273
6.52107 317
6.54118 297
6.56129 308
6.58141 311
6.60152 278
6.62164 311
6.64175 298
6.66186 295
6.68198 324
6.70209 280
6.7222 308
6.74232 293
6.76243 252
6.78255 302
6.80266 294
6.82277 255
6.84289 275
6.863 266
6.88311 324
6.90323 259
6.92334 295
6.94346 288
6.96357 310
6.98368 282
7.0038 309
7.02391 286
7.04402 276
7.06414 287
7.08425 305
7.10436 271
7.12448 301
7.14459 268
7.16471 266
7.18482 278
7.20493 267
7.22505 275
7.24516 278
7.26527 279
7.28539 264
7.3055 284
7.32562 257
7.34573 256
7.36584 308
7.38596 278
7.40607 291
7.42618 235
7.4463 289
7.46641 281
7.48653 295
7.50664 278
7.52675 270
7.54687 313
7.56698 277
7.58709 282
7.60721 266
7.62732 286
7.64743 276
7.66755 282
7.68766 294
7.70778 287
7.72789 263
7.748 302
7.76812 312
7.78823 289
7.80834 301
7.82846 288
7.84857 315
7.86869 319
7.8888 280
7.90891 286
7.92903 248
7.94914 312
7.96925 304
7.98937 271
8.00948 308
8.0296 296
8.04971 259
8.06982 292
8.08994 349
8.11005 282
8.13016 262
8.15028 320
8.17039 295
8.1905 267
8.21062 313
8.23073 314
8.25085 299
8.27096 296
8.29107 303
8.31119 306
8.3313 305
8.35141 282
8.37153 308
8.39164 328
8.41176 294
8.43187 319
8.45198 294
8.4721 313
8.49221 334
8.51232 323
8.53244 304
8.55255 324
8.57266 318
8.59278 306
8.61289 306
8.63301 287
8.65312 339
8.67323 344
8.69335 320
8.71346 329
8.73357 331
8.75369 362
8.7738 314
8.79392 335
8.81403 343
8.83414 296
8.85426 317
8.87437 358
8.89448 339
8.9146 354
8.93471 380
8.95483 313
8.97494 342
8.99505 284
9.01517 327
9.03528 288
9.05539 334
9.07551 303
9.09562 318
9.11573 318
9.13585 321
9.15596 329
9.17608 252
9.19619 347
9.2163 308
9.23642 308
9.25653 312
9.27664 294
9.29676 280
9.31687 296
9.33699 318
9.3571 307
9.37721 275
9.39733 327
9.41744 329
9.43755 301
9.45767 336
9.47778 324
9.4979 289
9.51801 310
9.53812 304
9.55824 268
9.57835 274
9.59846 307
9.61858 327
9.63869 309
9.6588 298
9.67892 346
9.69903 308
9.71915 304
9.73926 313
9.75937 285
9.77949 317
9.7996 288
9.81971 310
9.83983 313
9.85994 314
9.88006 286
9.90017 324
9.92028 267
9.9404 278
9.96051 301
9.98062 286
10.00074 282
10.02085 288
10.04097 271
10.06108 312
10.08119 282
10.10131 266
10.12142 307
10.14153 318
10.16165 332
10.18176 312
10.20187 297
10.22199 279
10.2421 284
10.26222 284
10.28233 298
10.30244 327
10.32256 312
10.34267 299
10.36278 287
10.3829 280
10.40301 318
10.42313 314
10.44324 298
10.46335 272
10.48347 303
10.50358 275
10.52369 318
10.54381 292
10.56392 295
10.58403 298
10.60415 311
10.62426 307
10.64438 284
10.66449 326
10.6846 278
10.70472 268
10.72483 312
10.74494 315
10.76506 287
10.78517 308
10.80529 276
10.8254 286
10.84551 284
10.86563 290
10.88574 304
10.90585 292
10.92597 313
10.94608 321
10.9662 283
10.98631 293
11.00642 296
11.02654 316
11.04665 285
11.06676 313
11.08688 296
11.10699 310
11.1271 340
11.14722 286
11.16733 305
11.18745 286
11.20756 311
11.22767 310
11.24779 300
11.2679 298
11.28801 306
11.30813 327
11.32824 291
11.34836 302
11.36847 272
11.38858 280
11.4087 335
11.42881 295
11.44892 306
11.46904 314
11.48915 312
11.50927 300
11.52938 309
11.54949 309
11.56961 326
11.58972 298
11.60983 313
11.62995 299
11.65006 306
11.67017 270
11.69029 285
11.7104 311
11.73052 287
11.75063 294
11.77074 314
11.79086 332
11.81097 336
11.83108 329
11.8512 327
11.87131 330
11.89143 316
11.91154 353
11.93165 352
11.95177 288
11.97188 357
11.99199 361
12.01211 358
12.03222 346
12.05234 312
12.07245 356
12.09256 304
12.11268 320
12.13279 350
12.1529 332
12.17302 310
12.19313 314
12.21324 327
12.23336 302
12.25347 299
12.27359 315
12.2937 345
12.31381 303
12.33393 319
12.35404 350
12.37415 336
12.39427 290
12.41438 303
12.4345 320
12.45461 322
12.47472 344
12.49484 296
12.51495 336
12.53506 318
12.55518 321
12.57529 297
12.5954 307
12.61552 330
12.63563 326
12.65575 297
12.67586 310
12.69597 271
12.71609 318
12.7362 289
12.75631 326
12.77643 303
12.79654 301
12.81666 309
12.83677 273
12.85688 305
12.877 290
12.89711 285
12.91722 291
12.93734 292
12.95745 281
12.97757 271
12.99768 258
13.01779 301
13.03791 292
13.05802 319
13.07813 244
13.09825 254
13.11836 271
13.13847 279
13.15859 306
13.1787 275
13.19882 297
13.21893 295
13.23904 303
13.25916 348
13.27927 345
13.29938 281
13.3195 308
13.33961 316
13.35973 298
13.37984 344
13.39995 312
13.42007 256
13.44018 277
13.46029 298
13.48041 297
13.50052 307
13.52064 282
13.54075 287
13.56086 299
13.58098 300
13.60109 358
13.6212 342
13.64132 283
13.66143 322
13.68154 326
13.70166 294
13.72177 326
13.74189 291
13.762 280
13.78211 296
13.80223 289
13.82234 269
13.84245 299
13.86257 281
13.88268 292
13.9028 292
13.92291 278
13.94302 282
13.96314 279
13.98325 264
14.00336 271
14.02348 266
14.04359 268
14.06371 251
14.08382 293
14.10393 275
14.12405 284
14.14416 254
14.16427 246
14.18439 255
14.2045 265
14.22461 273
14.24473 280
14.26484 275
14.28496 258
14.30507 278
14.32518 279
14.3453 271
14.36541 296
14.38552 289
14.40564 285
14.42575 286
14.44587 270
14.46598 221
14.48609 270
14.50621 258
14.52632 278
14.54643 262
14.56655 250
14.58666 262
14.60677 249
14.62689 282
14.647 271
14.66712 247
14.68723 257
14.70734 240
14.72746 259
14.74757 264
14.76768 265
14.7878 292
14.80791 274
14.82803 267
14.84814 276
14.86825 281
14.88837 256
14.90848 287
14.92859 266
14.94871 259
14.96882 282
14.98894 275
15.00905 301
15.02916 318
15.04928 308
15.06939 328
15.0895 317
15.10962 286
15.12973 294
15.14984 317
15.16996 275
15.19007 273
15.21019 260
15.2303 284
15.25041 269
15.27053 267
15.29064 259
15.31075 283
15.33087 272
15.35098 230
15.3711 247
15.39121 260
15.41132 251
15.43144 236
15.45155 248
15.47166 290
15.49178 262
15.51189 269
15.53201 258
15.55212 226
15.57223 266
15.59235 253
15.61246 242
15.63257 274
15.65269 266
15.6728 275
15.69291 252
15.71303 262
15.73314 238
15.75326 261
15.77337 224
15.79348 251
15.8136 259
15.83371 281
15.85382 272
15.87394 268
15.89405 297
15.91417 264
15.93428 236
15.95439 251
15.97451 212
15.99462 245
16.01473 259
16.03485 268
16.05496 256
16.07508 226
16.09519 267
16.1153 243
16.13542 216
16.15553 237
16.17564 279
16.19576 271
16.21587 273
16.23598 270
16.2561 231
16.27621 268
16.29633 252
16.31644 275
16.33655 258
16.35667 261
16.37678 281
16.39689 256
16.41701 250
16.43712 244
16.45724 259
16.47735 212
16.49746 286
16.51758 260
16.53769 270
16.5578 240
16.57792 254
16.59803 231
16.61814 276
16.63826 261
16.65837 248
16.67849 261
16.6986 226
16.71871 255
16.73883 236
16.75894 229
16.77905 243
16.79917 237
16.81928 258
16.8394 261
16.85951 261
16.87962 277
16.89974 271
16.91985 256
16.93996 241
16.96008 261
16.98019 252
17.00031 225
17.02042 259
17.04053 260
17.06065 258
17.08076 249
17.10087 282
17.12099 276
17.1411 294
17.16121 234
17.18133 275
17.20144 240
17.22156 264
17.24167 258
17.26178 273
17.2819 293
17.30201 249
17.32212 260
17.34224 249
17.36235 257
17.38247 244
17.40258 239
17.42269 264
17.44281 246
17.46292 318
17.48303 275
17.50315 259
17.52326 272
17.54338 240
17.56349 262
17.5836 252
17.60372 250
17.62383 241
17.64394 245
17.66406 263
17.68417 254
17.70428 257
17.7244 262
17.74451 243
17.76463 255
17.78474 249
17.80485 238
17.82497 256
17.84508 271
17.86519 282
17.88531 269
17.90542 274
17.92554 260
17.94565 267
17.96576 252
17.98588 258
18.00599 257
18.0261 302
18.04622 261
18.06633 241
18.08645 268
18.10656 259
18.12667 208
18.14679 255
18.1669 251
18.18701 243
18.20713 255
18.22724 261
18.24735 264
18.26747 251
18.28758 250
18.3077 237
18.32781 249
18.34792 287
18.36804 264
18.38815 251
18.40826 244
18.42838 271
18.44849 278
18.46861 235
18.48872 260
18.50883 234
18.52895 228
18.54906 267
18.56917 282
18.58929 299
18.6094 275
18.62951 267
18.64963 246
18.66974 264
18.68986 241
18.70997 305
18.73008 234
18.7502 287
18.77031 238
18.79042 267
18.81054 265
18.83065 285
18.85077 270
18.87088 313
18.89099 264
18.91111 268
18.93122 270
18.95133 280
18.97145 254
18.99156 258
19.01168 275
19.03179 255
19.0519 279
19.07202 268
19.09213 241
19.11224 261
19.13236 278
19.15247 276
19.17258 260
19.1927 281
19.21281 273
19.23293 292
19.25304 293
19.27315 314
19.29327 304
19.31338 279
19.33349 307
19.35361 284
19.37372 299
19.39384 292
19.41395 336
19.43406 301
19.45418 259
19.47429 285
19.4944 288
19.51452 306
19.53463 313
19.55475 300
19.57486 306
19.59497 259
19.61509 305
19.6352 290
19.65531 339
19.67543 346
19.69554 307
19.71565 343
19.73577 339
19.75588 348
19.776 331
19.79611 374
19.81622 365
19.83634 407
19.85645 408
19.87656 368
19.89668 397
19.91679 399
19.93691 409
19.95702 388
19.97713 408
19.99725 346
20.01736 346
20.03747 387
20.05759 373
20.0777 340
20.09782 404
20.11793 380
20.13804 368
20.15816 386
20.17827 420
20.19838 405
20.2185 359
20.23861 365
20.25872 383
20.27884 364
20.29895 419
20.31907 384
20.33918 388
20.35929 382
20.37941 399
20.39952 394
20.41963 406
20.43975 415
20.45986 465
20.47998 418
20.50009 418
20.5202 464
20.54032 455
20.56043 453
20.58054 439
20.60066 463
20.62077 536
20.64088 592
20.661 570
20.68111 683
20.70123 899
20.72134 1192
20.74145 1551
20.76157 2123
20.78168 2900
20.80179 3680
20.82191 4499
20.84202 4923
20.86214 4807
20.88225 4056
20.90236 3002
20.92248 2193
20.94259 1552
20.9627 1113
20.98282 987
21.00293 1012
21.02305 900
21.04316 947
21.06327 856
21.08339 789
21.1035 623
21.12361 620
21.14373 508
21.16384 469
21.18395 463
21.20407 477
21.22418 392
21.2443 413
21.26441 413
21.28452 395
21.30464 420
21.32475 440
21.34486 412
21.36498 422
21.38509 430
21.40521 372
21.42532 419
21.44543 375
21.46555 362
21.48566 392
21.50577 347
21.52589 394
21.546 356
21.56612 331
21.58623 323
21.60634 351
21.62646 352
21.64657 336
21.66668 327
21.6868 355
21.70691 375
21.72702 354
21.74714 324
21.76725 354
21.78737 338
21.80748 335
21.82759 366
21.84771 346
21.86782 370
21.88793 377
21.90805 415
21.92816 429
21.94828 428
21.96839 421
21.9885 420
22.00862 399
22.02873 447
22.04884 411
22.06896 314
22.08907 318
22.10919 341
22.1293 292
22.14941 322
22.16953 324
22.18964 334
22.20975 348
22.22987 309
22.24998 322
22.27009 318
22.29021 299
22.31032 314
22.33044 356
22.35055 315
22.37066 336
22.39078 329
22.41089 364
22.431 399
22.45112 394
22.47123 429
22.49135 444
22.51146 474
22.53157 458
22.55169 439
22.5718 387
22.59191 383
22.61203 353
22.63214 364
22.65225 336
22.67237 321
22.69248 360
22.7126 370
22.73271 331
22.75282 320
22.77294 319
22.79305 298
22.81316 322
22.83328 332
22.85339 308
22.87351 351
22.89362 333
22.91373 318
22.93385 338
22.95396 353
22.97407 361
22.99419 327
23.0143 345
23.03442 334
23.05453 323
23.07464 387
23.09476 362
23.11487 337
23.13498 381
23.1551 314
23.17521 324
23.19532 366
23.21544 340
23.23555 331
23.25567 320
23.27578 356
23.29589 329
23.31601 331
23.33612 327
23.35623 362
23.37635 430
23.39646 423
23.41658 478
23.43669 515
23.4568 578
23.47692 624
23.49703 759
23.51714 843
23.53726 901
23.55737 868
23.57749 810
23.5976 749
23.61771 725
23.63783 597
23.65794 524
23.67805 492
23.69817 449
23.71828 461
23.73839 412
23.75851 422
23.77862 412
23.79874 443
23.81885 459
23.83896 454
23.85908 438
23.87919 426
23.8993 390
23.91942 444
23.93953 375
23.95965 390
23.97976 423
23.99987 409
24.01999 398
24.0401 401
24.06021 378
24.08033 393
24.10044 380
24.12056 397
24.14067 362
24.16078 369
24.1809 378
24.20101 368
24.22112 388
24.24124 356
24.26135 379
24.28146 332
24.30158 376
24.32169 412
24.34181 369
24.36192 381
24.38203 387
24.40215 379
24.42226 303
24.44237 390
24.46249 361
24.4826 360
24.50272 406
24.52283 409
24.54294 456
24.56306 459
24.58317 448
24.60328 412
24.6234 423
24.64351 459
24.66362 389
24.68374 385
24.70385 363
24.72397 407
24.74408 379
24.76419 350
24.78431 327
24.80442 361
24.82453 344
24.84465 374
24.86476 312
24.88488 324
24.90499 351
24.9251 350
24.94522 359
24.96533 339
24.98544 380
25.00556 339
25.02567 349
25.04579 420
25.0659 395
25.08601 423
25.10613 393
25.12624 387
25.14635 418
25.16647 377
25.18658 369
25.20669 430
25.22681 394
25.24692 398
25.26704 394
25.28715 348
25.30726 371
25.32738 367
25.34749 355
25.3676 391
25.38772 345
25.40783 387
25.42795 361
25.44806 361
25.46817 394
25.48829 406
25.5084 448
25.52851 487
25.54863 544
25.56874 564
25.58886 673
25.60897 734
25.62908 781
25.6492 822
25.66931 837
25.68942 757
25.70954 674
25.72965 630
25.74976 563
25.76988 504
25.78999 478
25.81011 483
25.83022 474
25.85033 454
25.87045 491
25.89056 437
25.91067 461
25.93079 488
25.9509 490
25.97102 454
25.99113 457
26.01124 519
26.03136 441
26.05147 484
26.07158 551
26.0917 582
26.11181 577
26.13193 577
26.15204 566
26.17215 612
26.19227 689
26.21238 708
26.23249 707
26.25261 768
26.27272 791
26.29283 835
26.31295 897
26.33306 1036
26.35318 1065
26.37329 1084
26.3934 1338
26.41352 1573
26.43363 1954
26.45374 2473
26.47386 3242
26.49397 4608
26.51409 6305
26.5342 8998
26.55431 12478
26.57443 16011
26.59454 19504
26.61465 22099
26.63477 21400
26.65488 17933
26.67499 14244
26.69511 10652
26.71522 7711
26.73534 4790
26.75545 2847
26.77556 1992
26.79568 1782
26.81579 1637
26.8359 1574
26.85602 1579
26.87613 1592
26.89625 1463
26.91636 1449
26.93647 1373
26.95659 1286
26.9767 1193
26.99681 1086
27.01693 1026
27.03704 1032
27.05716 996
27.07727 979
27.09738 1012
27.1175 932
27.13761 899
27.15772 770
27.17784 683
27.19795 653
27.21806 608
27.23818 514
27.25829 509
27.27841 518
27.29852 513
27.31863 580
27.33875 662
27.35886 637
27.37897 745
27.39909 796
27.4192 956
27.43932 1023
27.45943 1144
27.47954 1250
27.49966 1244
27.51977 1262
27.53988 1237
27.56 1106
27.58011 949
27.60023 823
27.62034 709
27.64045 651
27.66057 580
27.68068 544
27.70079 592
27.72091 601
27.74102 650
27.76113 646
27.78125 631
27.80136 575
27.82148 610
27.84159 523
27.8617 496
27.88182 477
27.90193 495
27.92204 496
27.94216 497
27.96227 530
27.98239 497
28.0025 531
28.02261 471
28.04273 444
28.06284 420
28.08295 394
28.10307 405
28.12318 388
28.1433 360
28.16341 350
28.18352 354
28.20364 358
28.22375 364
28.24386 400
28.26398 369
28.28409 376
28.3042 389
28.32432 407
28.34443 370
28.36455 398
28.38466 322
28.40477 318
28.42489 356
28.445 338
28.46511 337
28.48523 335
28.50534 321
28.52546 341
28.54557 311
28.56568 337
28.5858 335
28.60591 343
28.62602 326
28.64614 314
28.66625 319
28.68636 308
28.70648 344
28.72659 328
28.74671 327
28.76682 343
28.78693 334
28.80705 349
28.82716 321
28.84727 299
28.86739 310
28.8875 311
28.90762 297
28.92773 273
28.94784 327
28.96796 325
28.98807 300
29.00818 306
29.0283 345
29.04841 287
29.06853 299
29.08864 280
29.10875 318
29.12887 295
29.14898 287
29.16909 333
29.18921 324
29.20932 300
29.22943 286
29.24955 313
29.26966 319
29.28978 290
29.30989 321
29.33 299
29.35012 302
29.37023 292
29.39034 329
29.41046 325
29.43057 319
29.45069 296
29.4708 316
29.49091 330
29.51103 294
29.53114 340
29.55125 342
29.57137 330
29.59148 385
29.6116 353
29.63171 372
29.65182 379
29.67194 450
29.69205 501
29.71216 485
29.73228 560
29.75239 501
29.7725 596
29.79262 635
29.81273 723
29.83285 620
29.85296 664
29.87307 594
29.89319 571
29.9133 492
29.93341 470
29.95353 400
29.97364 380
29.99376 389
30.01387 349
30.03398 324
30.0541 362
30.07421 312
30.09432 337
30.11444 346
30.13455 294
30.15467 368
30.17478 338
30.19489 327
30.21501 316
30.23512 304
30.25523 350
30.27535 332
30.29546 353
30.31557 373
30.33569 360
30.3558 361
30.37592 369
30.39603 405
30.41614 381
30.43626 358
30.45637 377
30.47648 369
30.4966 371
30.51671 364
30.53683 363
30.55694 345
30.57705 353
30.59717 317
30.61728 339
30.63739 383
30.65751 391
30.67762 418
30.69773 438
30.71785 433
30.73796 503
30.75808 527
30.77819 553
30.7983 536
30.81842 526
30.83853 471
30.85864 468
30.87876 428
30.89887 414
30.91899 362
30.9391 357
30.95921 318
30.97933 323
30.99944 298
31.01955 308
31.03967 295
31.05978 297
31.0799 278
31.10001 297
31.12012 291
31.14024 291
31.16035 295
31.18046 325
31.20058 294
31.22069 306
31.2408 299
31.26092 286
31.28103 305
31.30115 263
31.32126 291
31.34137 314
31.36149 310
31.3816 331
31.40171 311
31.42183 306
31.44194 301
31.46206 305
31.48217 285
31.50228 273
31.5224 288
31.54251 287
31.56262 283
31.58274 300
31.60285 270
31.62297 262
31.64308 291
31.66319 299
31.68331 275
31.70342 299
31.72353 295
31.74365 272
31.76376 285
31.78387 254
31.80399 300
31.8241 294
31.84422 245
31.86433 283
31.88444 271
31.90456 271
31.92467 270
31.94478 319
31.9649 283
31.98501 289
32.00513 276
32.02524 276
32.04535 258
32.06547 313
32.08558 298
32.10569 297
32.12581 332
32.14592 345
32.16604 336
32.18615 332
32.20626 341
32.22638 361
32.24649 389
32.2666 420
32.28672 445
32.30683 487
32.32694 488
32.34706 445
32.36717 411
32.38729 397
32.4074 381
32.42751 378
32.44763 386
32.46774 365
32.48785 382
32.50797 375
32.52808 398
32.5482 420
32.56831 429
32.58842 385
32.60854 380
32.62865 352
32.64876 348
32.66888 300
32.68899 316
32.7091 305
32.72922 333
32.74933 331
32.76945 346
32.78956 295
32.80967 321
32.82979 307
32.8499 314
32.87001 334
32.89013 328
32.91024 322
32.93036 336
32.95047 354
32.97058 327
32.9907 366
33.01081 398
33.03092 400
33.05104 377
33.07115 381
33.09127 405
33.11138 408
33.13149 425
33.15161 392
33.17172 375
33.19183 373
33.21195 372
33.23206 345
33.25217 354
33.27229 307
33.2924 327
33.31252 314
33.33263 278
33.35274 303
33.37286 297
33.39297 315
33.41308 306
33.4332 297
33.45331 301
33.47343 345
33.49354 299
33.51365 285
33.53377 276
33.55388 271
33.57399 310
33.59411 294
33.61422 297
33.63434 260
33.65445 296
33.67456 298
33.69468 334
33.71479 327
33.7349 296
33.75502 311
33.77513 298
33.79524 319
33.81536 287
33.83547 301
33.85559 284
33.8757 287
33.89581 304
33.91593 304
33.93604 309
33.95615 267
33.97627 281
33.99638 292
34.0165 283
34.03661 291
34.05672 286
34.07684 297
34.09695 283
34.11706 325
34.13718 304
34.15729 335
34.17741 353
34.19752 348
34.21763 326
34.23775 345
34.25786 344
34.27797 353
34.29809 390
34.3182 370
34.33831 393
34.35843 399
34.37854 419
34.39866 406
34.41877 381
34.43888 400
34.459 396
34.47911 388
34.49922 372
34.51934 350
34.53945 324
34.55957 332
34.57968 358
34.59979 310
34.61991 364
34.64002 373
34.66013 399
34.68025 399
34.70036 436
34.72047 440
34.74059 449
34.7607 498
34.78082 510
34.80093 511
34.82104 550
34.84116 527
34.86127 522
34.88138 466
34.9015 479
34.92161 500
34.94173 450
34.96184 449
34.98195 394
35.00207 394
35.02218 434
35.04229 396
35.06241 403
35.08252 423
35.10264 437
35.12275 455
35.14286 475
35.16298 453
35.18309 449
35.2032 415
35.22332 440
35.24343 476
35.26354 406
35.28366 449
35.30377 458
35.32389 498
35.344 418
35.36411 405
35.38423 450
35.40434 459
35.42445 444
35.44457 463
35.46468 438
35.4848 491
35.50491 460
35.52502 502
35.54514 470
35.56525 481
35.58536 541
35.60548 521
35.62559 443
35.64571 488
35.66582 444
35.68593 415
35.70605 372
35.72616 395
35.74627 392
35.76639 350
35.7865 355
35.80661 361
35.82673 350
35.84684 392
35.86696 349
35.88707 348
35.90718 356
35.9273 384
35.94741 360
35.96752 374
35.98764 372
36.00775 381
36.02787 337
36.04798 379
36.06809 352
36.08821 407
36.10832 358
36.12843 345
36.14855 375
36.16866 379
36.18878 375
36.20889 379
36.229 352
36.24912 380
36.26923 375
36.28934 410
36.30946 395
36.32957 467
36.34968 506
36.3698 551
36.38991 659
36.41003 776
36.43014 930
36.45025 1148
36.47037 1329
36.49048 1427
36.51059 1658
36.53071 1614
36.55082 1474
36.57094 1266
36.59105 1114
36.61116 935
36.63128 921
36.65139 802
36.6715 566
36.69162 439
36.71173 426
36.73184 384
36.75196 369
36.77207 380
36.79219 362
36.8123 358
36.83241 353
36.85253 385
36.87264 377
36.89275 354
36.91287 353
36.93298 371
36.9531 393
36.97321 353
36.99332 349
37.01344 351
37.03355 372
37.05366 374
37.07378 355
37.09389 347
37.11401 367
37.13412 405
37.15423 380
37.17435 348
37.19446 387
37.21457 366
37.23469 351
37.2548 349
37.27491 358
37.29503 336
37.31514 332
37.33526 309
37.35537 285
37.37548 321
37.3956 303
37.41571 304
37.43582 322
37.45594 269
37.47605 312
37.49617 318
37.51628 300
37.53639 348
37.55651 282
37.57662 349
37.59673 304
37.61685 334
37.63696 378
37.65708 344
37.67719 339
37.6973 326
37.71742 364
37.73753 313
37.75764 339
37.77776 340
37.79787 299
37.81798 328
37.8381 314
37.85821 344
37.87833 318
37.89844 288
37.91855 275
37.93867 313
37.95878 291
37.97889 312
37.99901 315
38.01912 317
38.03924 326
38.05935 281
38.07946 313
38.09958 285
38.11969 303
38.1398 327
38.15992 285
38.18003 298
38.20015 297
38.22026 303
38.24037 296
38.26049 254
38.2806 281
38.30071 302
38.32083 295
38.34094 304
38.36105 316
38.38117 309
38.40128 312
38.4214 283
38.44151 343
38.46162 321
38.48174 310
38.50185 331
38.52196 315
38.54208 329
38.56219 345
38.58231 306
38.60242 341
38.62253 362
38.64265 343
38.66276 321
38.68287 337
38.70299 337
38.7231 329
38.74321 294
38.76333 317
38.78344 330
38.80356 306
38.82367 308
38.84378 294
38.8639 286
38.88401 330
38.90412 301
38.92424 291
38.94435 294
38.96447 326
38.98458 291
39.00469 301
39.02481 310
39.04492 348
39.06503 330
39.08515 309
39.10526 307
39.12538 358
39.14549 316
39.1656 349
39.18572 374
39.20583 328
39.22594 370
39.24606 459
39.26617 445
39.28628 502
39.3064 575
39.32651 712
39.34663 852
39.36674 1009
39.38685 1154
39.40697 1326
39.42708 1572
39.44719 1591
39.46731 1425
39.48742 1156
39.50754 1047
39.52765 924
39.54776 844
39.56788 744
39.58799 604
39.6081 479
39.62822 419
39.64833 359
39.66845 339
39.68856 338
39.70867 330
39.72879 362
39.7489 334
39.76901 302
39.78913 337
39.80924 295
39.82935 281
39.84947 305
39.86958 326
39.8897 307
39.90981 319
39.92992 297
39.95004 348
39.97015 312
39.99026 335
40.01038 313
40.03049 360
40.05061 374
40.07072 357
40.09083 416
40.11095 419
40.13106 451
40.15117 514
40.17129 604
40.1914 636
40.21152 769
40.23163 834
40.25174 866
40.27186 875
40.29197 873
40.31208 701
40.3322 667
40.35231 612
40.37242 606
40.39254 544
40.41265 438
40.43277 387
40.45288 330
40.47299 358
40.49311 306
40.51322 334
40.53333 342
40.55345 316
40.57356 343
40.59368 313
40.61379 301
40.6339 310
40.65402 322
40.67413 352
40.69424 286
40.71436 321
40.73447 301
40.75458 327
40.7747 332
40.79481 322
40.81493 340
40.83504 304
40.85515 317
40.87527 324
40.89538 332
40.91549 324
40.93561 321
40.95572 313
40.97584 315
40.99595 300
41.01606 325
41.03618 304
41.05629 300
41.0764 312
41.09652 293
41.11663 296
41.13675 290
41.15686 316
41.17697 313
41.19709 281
41.2172 330
41.23731 315
41.25743 330
41.27754 332
41.29765 301
41.31777 315
41.33788 312
41.358 296
41.37811 311
41.39822 330
41.41834 322
41.43845 322
41.45856 281
41.47868 349
41.49879 327
41.51891 309
41.53902 349
41.55913 344
41.57925 394
41.59936 363
41.61947 377
41.63959 438
41.6597 400
41.67982 440
41.69993 470
41.72004 483
41.74016 461
41.76027 444
41.78038 382
41.8005 359
41.82061 380
41.84072 356
41.86084 366
41.88095 322
41.90107 280
41.92118 292
41.94129 279
41.96141 290
41.98152 296
42.00163 273
42.02175 288
42.04186 292
42.06198 282
42.08209 316
42.1022 307
42.12232 306
42.14243 331
42.16254 297
42.18266 375
42.20277 352
42.22289 369
42.243 403
42.26311 460
42.28323 543
42.30334 595
42.32345 684
42.34357 823
42.36368 931
42.38379 1042
42.40391 1120
42.42402 1117
42.44414 1114
42.46425 949
42.48436 884
42.50448 807
42.52459 771
42.5447 697
42.56482 651
42.58493 459
42.60505 418
42.62516 422
42.64527 371
42.66539 334
42.6855 362
42.70561 366
42.72573 340
42.74584 348
42.76595 310
42.78607 331
42.80618 291
42.8263 293
42.84641 310
42.86652 272
42.88664 299
42.90675 321
42.92686 324
42.94698 284
42.96709 266
42.98721 272
43.00732 276
43.02743 304
43.04755 273
43.06766 280
43.08777 283
43.10789 267
43.128 257
43.14812 253
43.16823 265
43.18834 243
43.20846 247
43.22857 256
43.24868 228
43.2688 256
43.28891 267
43.30902 236
43.32914 269
43.34925 263
43.36937 240
43.38948 296
43.40959 252
43.42971 255
43.44982 253
43.46993 282
43.49005 271
43.51016 295
43.53028 273
43.55039 271
43.5705 301
43.59062 257
43.61073 267
43.63084 255
43.65096 294
43.67107 285
43.69119 287
43.7113 301
43.73141 302
43.75153 286
43.77164 254
43.79175 284
43.81187 298
43.83198 284
43.85209 261
43.87221 267
43.89232 261
43.91244 279
43.93255 277
43.95266 285
43.97278 288
43.99289 265
44.013 271
44.03312 258
44.05323 267
44.07335 256
44.09346 284
44.11357 267
44.13369 262
44.1538 299
44.17391 255
44.19403 261
44.21414 272
44.23426 266
44.25437 246
44.27448 240
44.2946 247
44.31471 246
44.33482 248
44.35494 222
44.37505 258
44.39516 243
44.41528 246
44.43539 228
44.45551 222
44.47562 234
44.49573 224
44.51585 249
44.53596 254
44.55607 230
44.57619 255
44.5963 264
44.61642 265
44.63653 264
44.65664 219
44.67676 243
44.69687 255
44.71698 264
44.7371 257
44.75721 266
44.77732 257
44.79744 258
44.81755 256
44.83767 250
44.85778 305
44.87789 260
44.89801 265
44.91812 261
44.93823 253
44.95835 260
44.97846 317
44.99858 287
45.01869 319
45.0388 294
45.05892 333
45.07903 341
45.09914 310
45.11926 311
45.13937 324
45.15949 321
45.1796 332
45.19971 317
45.21983 296
45.23994 316
45.26005 294
45.28017 301
45.30028 313
45.32039 294
45.34051 302
45.36062 281
45.38074 273
45.40085 261
45.42096 255
45.44108 283
45.46119 278
45.4813 309
45.50142 310
45.52153 309
45.54165 321
45.56176 349
45.58187 335
45.60199 346
45.6221 416
45.64221 471
45.66233 546
45.68244 613
45.70256 674
45.72267 785
45.74278 815
45.7629 906
45.78301 818
45.80312 724
45.82324 633
45.84335 596
45.86346 585
45.88358 560
45.90369 547
45.92381 488
45.94392 433
45.96403 364
45.98415 365
46.00426 324
46.02437 302
46.04449 308
46.0646 301
46.08472 308
46.10483 295
46.12494 329
46.14506 267
46.16517 281
46.18528 287
46.2054 252
46.22551 246
46.24563 257
46.26574 272
46.28585 271
46.30597 235
46.32608 244
46.34619 273
46.36631 281
46.38642 264
46.40653 255
46.42665 263
46.44676 260
46.46688 272
46.48699 273
46.5071 259
46.52722 229
46.54733 224
46.56744 247
46.58756 289
46.60767 235
46.62779 280
46.6479 226
46.66801 258
46.68813 229
46.70824 244
46.72835 261
46.74847 245
46.76858 277
46.78869 245
46.80881 278
46.82892 283
46.84904 268
46.86915 262
46.88926 230
46.90938 260
46.92949 266
46.9496 253
46.96972 289
46.98983 253
47.00995 270
47.03006 321
47.05017 305
47.07029 273
47.0904 282
47.11051 297
47.13063 314
47.15074 303
47.17086 330
47.19097 304
47.21108 329
47.2312 336
47.25131 318
47.27142 303
47.29154 318
47.31165 276
47.33176 326
47.35188 281
47.37199 287
47.39211 298
47.41222 276
47.43233 294
47.45245 282
47.47256 309
47.49267 312
47.51279 281
47.5329 291
47.55302 289
47.57313 299
47.59324 256
47.61336 281
47.63347 246
47.65358 269
47.6737 252
47.69381 244
47.71393 272
47.73404 257
47.75415 240
47.77427 267
47.79438 235
47.81449 246
47.83461 259
47.85472 266
47.87483 260
47.89495 240
47.91506 256
47.93518 263
47.95529 297
47.9754 241
47.99552 257
48.01563 275
48.03574 254
48.05586 237
48.07597 242
48.09609 223
48.1162 261
48.13631 287
48.15643 219
48.17654 256
48.19665 298
48.21677 303
48.23688 242
48.257 260
48.27711 290
48.29722 271
48.31734 257
48.33745 268
48.35756 255
48.37768 256
48.39779 258
48.4179 247
48.43802 293
48.45813 279
48.47825 255
48.49836 256
48.51847 269
48.53859 302
48.5587 279
48.57881 256
48.59893 279
48.61904 273
48.63916 307
48.65927 287
48.67938 279
48.6995 306
48.71961 322
48.73972 337
48.75984 304
48.77995 293
48.80006 292
48.82018 307
48.84029 313
48.86041 261
48.88052 293
48.90063 306
48.92075 283
48.94086 277
48.96097 339
48.98109 330
49.0012 332
49.02132 326
49.04143 320
49.06154 318
49.08166 305
49.10177 362
49.12188 321
49.142 313
49.16211 300
49.18223 353
49.20234 356
49.22245 305
49.24257 283
49.26268 305
49.28279 323
49.30291 286
49.32302 354
49.34313 335
49.36325 320
49.38336 319
49.40348 315
49.42359 330
49.4437 294
49.46382 305
49.48393 297
49.50404 323
49.52416 323
49.54427 332
49.56439 309
49.5845 352
49.60461 343
49.62473 327
49.64484 336
49.66495 342
49.68507 301
49.70518 341
49.7253 307
49.74541 338
49.76552 373
49.78564 406
49.80575 402
49.82586 407
49.84598 476
49.86609 448
49.8862 527
49.90632 547
49.92643 655
49.94655 698
49.96666 844
49.98677 1013
50.00689 1230
50.027 1410
50.04711 1714
50.06723 2058
50.08734 2277
50.10746 2297
50.12757 2275
50.14768 1843
50.1678 1473
50.18791 1306
50.20802 1369
50.22814 1305
50.24825 1202
50.26837 1065
50.28848 860
50.30859 635
50.32871 494
50.34882 437
50.36893 383
50.38905 385
50.40916 370
50.42927 361
50.44939 359
50.4695 403
50.48962 357
50.50973 417
50.52984 391
50.54996 436
50.57007 387
50.59018 509
50.6103 516
50.63041 501
50.65053 498
50.67064 483
50.69075 503
50.71087 492
50.73098 492
50.75109 439
50.77121 435
50.79132 395
50.81143 382
50.83155 336
50.85166 348
50.87178 359
50.89189 300
50.912 320
50.93212 294
50.95223 304
50.97234 287
50.99246 285
51.01257 266
51.03269 279
51.0528 271
51.07291 278
51.09303 252
51.11314 249
51.13325 288
51.15337 286
51.17348 280
51.1936 263
51.21371 274
51.23382 242
51.25394 267
51.27405 275
51.29416 279
51.31428 296
51.33439 270
51.3545 302
51.37462 278
51.39473 284
51.41485 283
51.43496 312
51.45507 295
51.47519 275
51.4953 282
51.51541 286
51.53553 270
51.55564 252
51.57576 299
51.59587 246
51.61598 280
51.6361 279
51.65621 261
51.67632 283
51.69644 305
51.71655 257
51.73667 271
51.75678 248
51.77689 258
51.79701 251
51.81712 278
51.83723 249
51.85735 254
51.87746 253
51.89757 238
51.91769 255
51.9378 262
51.95792 247
51.97803 244
51.99814 252
52.01826 211
52.03837 276
52.05848 275
52.0786 274
52.09871 245
52.11883 218
52.13894 265
52.15905 263
52.17917 236
52.19928 256
52.21939 273
52.23951 259
52.25962 265
52.27974 247
52.29985 263
52.31996 262
52.34008 278
52.36019 233
52.3803 273
52.40042 303
52.42053 274
52.44064 262
52.46076 255
52.48087 251
52.50099 247
52.5211 290
52.54121 276
52.56133 262
52.58144 237
52.60155 225
52.62167 259
52.64178 262
52.6619 235
52.68201 264
52.70212 260
52.72224 278
52.74235 238
52.76246 269
52.78258 260
52.80269 264
52.8228 283
52.84292 297
52.86303 286
52.88315 272
52.90326 274
52.92337 303
52.94349 253
52.9636 308
52.98371 297
53.00383 307
53.02394 315
53.04406 335
53.06417 328
53.08428 309
53.1044 304
53.12451 292
53.14462 306
53.16474 289
53.18485 324
53.20497 319
53.22508 293
53.24519 319
53.26531 328
53.28542 317
53.30553 310
53.32565 303
53.34576 310
53.36587 275
53.38599 273
53.4061 291
53.42622 277
53.44633 297
53.46644 291
53.48656 289
53.50667 255
53.52678 319
53.5469 316
53.56701 269
53.58713 275
53.60724 290
53.62735 285
53.64747 284
53.66758 304
53.68769 291
53.70781 331
53.72792 278
53.74804 300
53.76815 282
53.78826 298
53.80838 302
53.82849 306
53.8486 326
53.86872 307
53.88883 317
53.90894 310
53.92906 307
53.94917 339
53.96929 337
53.9894 315
54.00951 302
54.02963 334
54.04974 358
54.06985 355
54.08997 340
54.11008 297
54.1302 342
54.15031 296
54.17042 312
54.19054 279
54.21065 331
54.23076 307
54.25088 322
54.27099 305
54.29111 337
54.31122 313
54.33133 317
54.35145 300
54.37156 316
54.39167 310
54.41179 296
54.4319 360
54.45201 330
54.47213 323
54.49224 344
54.51236 305
54.53247 327
54.55258 312
54.5727 364
54.59281 320
54.61292 348
54.63304 398
54.65315 410
54.67327 419
54.69338 433
54.71349 511
54.73361 554
54.75372 599
54.77383 699
54.79395 787
54.81406 855
54.83417 809
54.85429 829
54.8744 815
54.89452 639
54.91463 583
54.93474 521
54.95486 613
54.97497 590
54.99508 564
55.0152 511
55.03531 472
55.05543 399
55.07554 357
55.09565 354
55.11577 366
55.13588 340
55.15599 373
55.17611 390
55.19622 414
55.21634 462
55.23645 452
55.25656 511
55.27668 533
55.29679 534
55.3169 485
55.33702 469
55.35713 419
55.37724 440
55.39736 402
55.41747 376
55.43759 384
55.4577 409
55.47781 341
55.49793 323
55.51804 305
55.53815 290
55.55827 301
55.57838 307
55.5985 306
55.61861 318
55.63872 283
55.65884 275
55.67895 299
55.69906 310
55.71918 282
55.73929 276
55.75941 276
55.77952 285
55.79963 266
55.81975 257
55.83986 282
55.85997 236
55.88009 277
55.9002 273
55.92031 265
55.94043 290
55.96054 269
55.98066 262
56.00077 267
56.02088 254
56.041 235
56.06111 258
56.08122 267
56.10134 263
56.12145 273
56.14157 268
56.16168 285
56.18179 254
56.20191 276
56.22202 271
56.24213 280
56.26225 269
56.28236 275
56.30248 267
56.32259 272
56.3427 319
56.36282 288
56.38293 279
56.40304 290
56.42316 249
56.44327 267
56.46338 297
56.4835 272
56.50361 261
56.52373 274
56.54384 283
56.56395 263
56.58407 291
56.60418 296
56.62429 294
56.64441 302
56.66452 248
56.68464 277
56.70475 267
56.72486 275
56.74498 256
56.76509 285
56.7852 288
56.80532 269
56.82543 289
56.84554 275
56.86566 255
56.88577 256
56.90589 245
56.926 265
56.94611 252
56.96623 242
56.98634 278
57.00645 223
57.02657 255
57.04668 257
57.0668 262
57.08691 262
57.10702 295
57.12714 257
57.14725 293
57.16736 269
57.18748 285
57.20759 283
57.22771 283
57.24782 258
57.26793 300
57.28805 270
57.30816 306
57.32827 265
57.34839 284
57.3685 279
57.38861 266
57.40873 272
57.42884 277
57.44896 263
57.46907 225
57.48918 240
57.5093 232
57.52941 257
57.54952 268
57.56964 260
57.58975 285
57.60987 228
57.62998 253
57.65009 256
57.67021 259
57.69032 266
57.71043 245
57.73055 280
57.75066 282
57.77078 270
57.79089 281
57.811 291
57.83112 267
57.85123 267
57.87134 265
57.89146 287
57.91157 256
57.93168 252
57.9518 240
57.97191 278
57.99203 258
58.01214 253
58.03225 234
58.05237 247
58.07248 269
58.09259 263
58.11271 245
58.13282 276
58.15294 247
58.17305 268
58.19316 268
58.21328 267
58.23339 261
58.2535 245
58.27362 201
58.29373 242
58.31385 262
58.33396 238
58.35407 250
58.37419 250
58.3943 234
58.41441 220
58.43453 260
58.45464 286
58.47475 272
58.49487 262
58.51498 259
58.5351 270
58.55521 239
58.57532 283
58.59544 256
58.61555 259
58.63566 263
58.65578 257
58.67589 273
58.69601 273
58.71612 311
58.73623 301
58.75635 280
58.77646 295
58.79657 293
58.81669 266
58.8368 266
58.85691 268
58.87703 286
58.89714 250
58.91726 253
58.93737 274
58.95748 249
58.9776 248
58.99771 205
59.01782 286
59.03794 251
59.05805 268
59.07817 249
59.09828 278
59.11839 258
59.13851 286
59.15862 260
59.17873 268
59.19885 255
59.21896 264
59.23908 271
59.25919 269
59.2793 255
59.29942 280
59.31953 245
59.33964 264
59.35976 294
59.37987 281
59.39998 295
59.4201 256
59.44021 288
59.46033 297
59.48044 284
59.50055 297
59.52067 299
59.54078 309
59.56089 331
59.58101 328
59.60112 355
59.62124 332
59.64135 341
59.66146 408
59.68158 386
59.70169 439
59.7218 451
59.74192 546
59.76203 574
59.78215 659
59.80226 779
59.82237 888
59.84249 1079
59.8626 1258
59.88271 1411
59.90283 1549
59.92294 1542
59.94305 1394
59.96317 1243
59.98328 956
60.0034 861
60.02351 893
60.04362 857
60.06374 924
60.08385 957
60.10396 827
60.12408 713
60.14419 555
60.16431 481
60.18442 401
60.20453 372
60.22465 330
60.24476 320
60.26487 311
60.28499 321
60.3051 315
60.32522 335
60.34533 304
60.36544 302
60.38556 293
60.40567 279
60.42578 318
60.4459 276
60.46601 288
60.48612 314
60.50624 283
60.52635 289
60.54647 273
60.56658 301
60.58669 276
60.60681 276
60.62692 296
60.64703 297
60.66715 257
60.68726 242
60.70738 259
60.72749 296
60.7476 277
60.76772 298
60.78783 275
60.80794 281
60.82806 266
60.84817 265
60.86828 297
60.8884 271
60.90851 262
60.92863 289
60.94874 286
60.96885 291
60.98897 237
61.00908 258
61.02919 260
61.04931 285
61.06942 251
61.08954 269
61.10965 280
61.12976 250
61.14988 284
61.16999 277
61.1901 285
61.21022 290
61.23033 297
61.25045 262
61.27056 271
61.29067 266
61.31079 265
61.3309 266
61.35101 279
61.37113 294
61.39124 281
61.41135 276
61.43147 303
61.45158 278
61.4717 296
61.49181 291
61.51192 309
61.53204 325
61.55215 307
61.57226 306
61.59238 315
61.61249 268
61.63261 299
61.65272 306
61.67283 269
61.69295 329
61.71306 291
61.73317 319
61.75329 312
61.7734 294
61.79352 291
61.81363 315
61.83374 304
61.85386 320
61.87397 345
61.89408 319
61.9142 352
61.93431 327
61.95442 351
61.97454 346
61.99465 334
62.01477 370
62.03488 345
62.05499 356
62.07511 318
62.09522 327
62.11533 307
62.13545 313
62.15556 328
62.17568 314
62.19579 321
62.2159 320
62.23602 321
62.25613 324
62.27624 314
62.29636 295
62.31647 283
62.33659 302
62.3567 307
62.37681 301
62.39693 281
62.41704 286
62.43715 287
62.45727 319
62.47738 315
62.49749 289
62.51761 286
62.53772 284
62.55784 275
62.57795 306
62.59806 309
62.61818 263
62.63829 273
62.6584 278
62.67852 267
62.69863 302
62.71875 311
62.73886 274
62.75897 255
62.77909 238
62.7992 294
62.81931 291
62.83943 287
62.85954 279
62.87965 272
62.89977 287
62.91988 273
62.94 258
62.96011 266
62.98022 251
63.00034 284
63.02045 270
63.04056 273
63.06068 277
63.08079 268
63.10091 264
63.12102 280
63.14113 285
63.16125 260
63.18136 269
63.20147 276
63.22159 295
63.2417 290
63.26182 285
63.28193 274
63.30204 280
63.32216 281
63.34227 257
63.36238 285
63.3825 291
63.40261 269
63.42272 299
63.44284 280
63.46295 259
63.48307 279
63.50318 250
63.52329 273
63.54341 267
63.56352 268
63.58363 271
63.60375 255
63.62386 299
63.64398 243
63.66409 289
63.6842 246
63.70432 328
63.72443 303
63.74454 329
63.76466 296
63.78477 328
63.80489 340
63.825 381
63.84511 368
63.86523 391
63.88534 383
63.90545 419
63.92557 442
63.94568 505
63.96579 500
63.98591 520
64.00602 513
64.02614 503
64.04625 462
64.06636 440
64.08648 405
64.10659 413
64.1267 385
64.14682 405
64.16693 420
64.18705 421
64.20716 407
64.22727 338
64.24739 271
64.2675 335
64.28761 277
64.30773 280
64.32784 288
64.34796 261
64.36807 269
64.38818 267
64.4083 281
64.42841 282
64.44852 284
64.46864 255
64.48875 277
64.50886 269
64.52898 279
64.54909 276
64.56921 294
64.58932 299
64.60943 339
64.62955 304
64.64966 266
64.66977 288
64.68989 265
64.71 266
64.73012 279
64.75023 283
64.77034 263
64.79046 261
64.81057 285
64.83068 267
64.8508 271
64.87091 272
64.89102 271
64.91114 277
64.93125 245
64.95137 257
64.97148 254
64.99159 286
65.01171 286
65.03182 250
65.05193 269
65.07205 279
65.09216 263
65.11228 267
65.13239 281
65.1525 278
65.17262 283
65.19273 260
65.21284 276
65.23296 269
65.25307 284
65.27319 251
65.2933 275
65.31341 269
65.33353 265
65.35364 283
65.37375 292
65.39387 265
65.41398 253
65.43409 260
65.45421 246
65.47432 262
65.49444 263
65.51455 273
65.53466 288
65.55478 265
65.57489 268
65.595 300
65.61512 269
65.63523 282
65.65535 284
65.67546 286
65.69557 296
65.71569 328
65.7358 308
65.75591 293
65.77603 312
65.79614 303
65.81626 265
65.83637 273
65.85648 279
65.8766 281
65.89671 261
65.91682 298
65.93694 276
65.95705 278
65.97716 276
65.99728 264
66.01739 227
66.03751 258
66.05762 239
66.07773 208
66.09785 238
66.11796 234
66.13807 254
66.15819 234
66.1783 252
66.19842 266
66.21853 259
66.23864 238
66.25876 253
66.27887 258
66.29898 248
66.3191 261
66.33921 250
66.35933 298
66.37944 242
66.39955 284
66.41967 270
66.43978 280
66.45989 282
66.48001 274
66.50012 249
66.52023 270
66.54035 289
66.56046 234
66.58058 245
66.60069 261
66.6208 246
66.64092 260
66.66103 275
66.68114 245
66.70126 244
66.72137 260
66.74149 237
66.7616 251
66.78171 225
66.80183 238
66.82194 241
66.84205 238
66.86217 248
66.88228 252
66.90239 261
66.92251 249
66.94262 269
66.96274 269
66.98285 250
67.00296 263
67.02308 264
67.04319 272
67.0633 268
67.08342 287
67.10353 288
67.12365 285
67.14376 237
67.16387 274
67.18399 281
67.2041 260
67.22421 263
67.24433 271
67.26444 281
67.28456 287
67.30467 289
67.32478 287
67.3449 303
67.36501 307
67.38512 297
67.40524 313
67.42535 321
67.44546 311
67.46558 347
67.48569 418
67.50581 389
67.52592 402
67.54603 493
67.56615 530
67.58626 601
67.60637 688
67.62649 772
67.6466 803
67.66672 931
67.68683 1056
67.70694 987
67.72706 943
67.74717 833
67.76728 709
67.7874 696
67.80751 671
67.82763 695
67.84774 708
67.86785 751
67.88797 795
67.90808 819
67.92819 756
67.94831 745
67.96842 686
67.98853 755
68.00865 821
68.02876 953
68.04888 1036
68.06899 1154
68.0891 1265
68.10922 1270
68.12933 1175
68.14944 1114
68.16956 1091
68.18967 982
68.20979 1021
68.2299 1136
68.25001 1262
68.27013 1264
68.29024 1197
68.31035 1082
68.33047 968
68.35058 775
68.3707 679
68.39081 597
68.41092 569
68.43104 559
68.45115 548
68.47126 561
68.49138 545
68.51149 417
68.5316 397
68.55172 387
68.57183 331
68.59195 319
68.61206 324
68.63217 283
68.65229 280
68.6724 282
68.69251 308
68.71263 288
68.73274 261
68.75286 285
68.77297 267
68.79308 286
68.8132 258
68.83331 297
68.85342 279
68.87354 304
68.89365 258
68.91376 283
68.93388 243
68.95399 297
68.97411 268
68.99422 267
69.01433 288
69.03445 276
69.05456 266
69.07467 253
69.09479 247
69.1149 276
69.13502 272
69.15513 269
69.17524 256
69.19536 255
69.21547 274
69.23558 281
69.2557 247
69.27581 262
69.29593 251
69.31604 234
69.33615 261
69.35627 266
69.37638 229
69.39649 251
69.41661 239
69.43672 256
69.45683 266
69.47695 272
69.49706 249
69.51718 259
69.53729 284
69.5574 257
69.57752 238
69.59763 265
69.61774 275
69.63786 292
69.65797 252
69.67809 279
69.6982 283
69.71831 276
69.73843 260
69.75854 273
69.77865 252
69.79877 271
69.81888 280
69.839 279
69.85911 289
69.87922 275
69.89934 258
69.91945 267
69.93956 268
69.95968 284
69.97979 255
69.9999 253
70.02002 282
70.04013 257
70.06025 263
70.08036 254
70.10047 275
70.12059 248
70.1407 281
70.16081 279
70.18093 289
70.20104 272
70.22116 266
70.24127 272
70.26138 259
70.2815 257
70.30161 246
70.32172 276
70.34184 272
70.36195 269
70.38207 238
70.40218 274
70.42229 254
70.44241 263
70.46252 256
70.48263 241
70.50275 232
70.52286 258
70.54297 240
70.56309 253
70.5832 234
70.60332 253
70.62343 272
70.64354 272
70.66366 269
70.68377 250
70.70388 261
70.724 246
70.74411 261
70.76423 260
70.78434 270
70.80445 274
70.82457 267
70.84468 251
70.86479 232
70.88491 267
70.90502 234
70.92513 251
70.94525 244
70.96536 263
70.98548 267
71.00559 237
71.0257 229
71.04582 254
71.06593 245
71.08604 241
71.10616 221
71.12627 256
71.14639 252
71.1665 224
71.18661 276
71.20673 240
71.22684 247
71.24695 266
71.26707 248
71.28718 237
71.3073 239
71.32741 261
71.34752 250
71.36764 242
71.38775 236
71.40786 241
71.42798 261
71.44809 249
71.4682 246
71.48832 240
71.50843 253
71.52855 250
71.54866 260
71.56877 255
71.58889 255
71.609 277
71.62911 284
71.64923 282
71.66934 274
71.68946 254
71.70957 246
71.72968 297
71.7498 259
71.76991 247
71.79002 274
71.81014 263
71.83025 257
71.85037 247
71.87048 273
71.89059 285
71.91071 295
71.93082 252
71.95093 277
71.97105 262
71.99116 262
72.01127 274
72.03139 276
72.0515 274
72.07162 278
72.09173 260
72.11184 261
72.13196 270
72.15207 246
72.17218 260
72.1923 255
72.21241 270
72.23253 266
72.25264 251
72.27275 253
72.29287 266
72.31298 245
72.33309 254
72.35321 256
72.37332 262
72.39344 256
72.41355 273
72.43366 237
72.45378 249
72.47389 283
72.494 248
72.51412 273
72.53423 280
72.55434 264
72.57446 236
72.59457 227
72.61469 259
72.6348 259
72.65491 261
72.67503 235
72.69514 249
72.71525 258
72.73537 271
72.75548 240
72.7756 287
72.79571 269
72.81582 266
72.83594 252
72.85605 239
72.87616 244
72.89628 257
72.91639 268
72.9365 276
72.95662 264
72.97673 260
72.99685 250
73.01696 267
73.03707 255
73.05719 263
73.0773 260
73.09741 251
73.11753 292
73.13764 242
73.15776 285
73.17787 269
73.19798 300
73.2181 315
73.23821 303
73.25832 327
73.27844 378
73.29855 336
73.31867 365
73.33878 443
73.35889 477
73.37901 458
73.39912 517
73.41923 543
73.43935 546
73.45946 492
73.47957 411
73.49969 405
73.5198 382
73.53992 371
73.56003 361
73.58014 374
73.60026 460
73.62037 413
73.64048 364
73.6606 383
73.68071 371
73.70083 349
73.72094 340
73.74105 292
73.76117 300
73.78128 334
73.80139 293
73.82151 258
73.84162 291
73.86174 255
73.88185 330
73.90196 262
73.92208 267
73.94219 302
73.9623 272
73.98242 224
74.00253 279
74.02264 283
74.04276 294
74.06287 274
74.08299 292
74.1031 289
74.12321 262
74.14333 262
74.16344 306
74.18355 239
74.20367 248
74.22378 239
74.2439 251
74.26401 255
74.28412 248
74.30424 258
74.32435 287
74.34446 266
74.36458 257
74.38469 266
74.40481 249
74.42492 242
74.44503 236
74.46515 241
74.48526 265
74.50537 245
74.52549 226
74.5456 248
74.56571 228
74.58583 234
74.60594 222
74.62606 242
74.64617 260
74.66628 251
74.6864 292
74.70651 244
74.72662 263
74.74674 245
74.76685 253
74.78697 240
74.80708 240
74.82719 262
74.84731 234
74.86742 269
74.88753 212
74.90765 265
74.92776 236
74.94787 262
74.96799 254
74.9881 254
75.00822 266
