3.00117 20767
3.02128 20565
3.0414 19589
3.06151 19088
3.08162 18961
3.10174 17952
3.12185 17727
3.14197 17371
3.16208 16329
3.18219 16332
3.20231 15541
3.22242 15167
3.24253 14870
3.26265 14170
3.28276 14026
3.30288 13546
3.32299 13285
3.3431 12645
3.36322 12037
3.38333 11544
3.40344 11383
3.42356 10987
3.44367 10702
3.46379 10300
3.4839 10035
3.50401 9646
3.52413 9398
3.54424 8770
3.56435 8525
3.58447 8522
3.60458 8072
3.62469 7828
3.64481 7443
3.66492 7084
3.68504 7028
3.70515 6611
3.72526 6273
3.74538 6137
3.76549 5865
3.7856 5744
3.80572 5399
3.82583 5229
3.84595 4760
3.86606 4707
3.88617 4586
3.90629 4372
3.9264 4287
3.94651 4029
3.96663 3684
3.98674 3899
4.00686 3521
4.02697 3428
4.04708 3172
4.0672 2943
4.08731 2900
4.10742 2938
4.12754 2709
4.14765 2487
4.16776 2376
4.18788 2325
4.20799 2319
4.22811 2134
4.24822 2144
4.26833 1883
4.28845 1956
4.30856 1913
4.32867 1848
4.34879 1782
4.3689 1755
4.38902 1677
4.40913 1714
4.42924 1531
4.44936 1514
4.46947 1463
4.48958 1508
4.5097 1508
4.52981 1373
4.54992 1359
4.57004 1334
4.59015 1309
4.61027 1291
4.63038 1182
4.65049 1232
4.67061 1123
4.69072 1094
4.71083 1151
4.73095 1070
4.75106 1028
4.77118 1001
4.79129 1052
4.8114 1080
4.83152 937
4.85163 911
4.87174 969
4.89186 966
4.91197 885
4.93209 834
4.9522 824
4.97231 806
4.99243 820
5.01254 787
5.03265 770
5.05277 716
5.07288 726
5.09299 745
5.11311 697
5.13322 664
5.15334 680
5.17345 664
5.19356 665
5.21368 688
5.23379 566
5.2539 624
5.27402 614
5.29413 575
5.31425 569
5.33436 564
5.35447 528
5.37459 520
5.3947 563
5.41481 544
5.43493 483
5.45504 469
5.47516 523
5.49527 463
5.51538 456
5.5355 437
5.55561 408
5.57572 418
5.59584 424
5.61595 441
5.63606 434
5.65618 401
5.67629 402
5.69641 367
5.71652 428
5.73663 338
5.75675 358
5.77686 341
5.79697 343
5.81709 366
5.8372 367
5.85732 325
5.87743 375
5.89754 319
5.91766 319
5.93777 322
5.95788 333
5.978 317
5.99811 327
6.01823 328
6.03834 350
6.05845 312
6.07857 335
6.09868 273
6.11879 314
6.13891 339
6.15902 307
6.17913 314
6.19925 305
6.21936 277
6.23948 288
6.25959 290
6.2797 255
6.29982 254
6.31993 313
6.34004 257
6.36016 270
6.38027 300
6.40039 279
6.4205 297
6.44061 281
6.46073 273
6.48084 286
6.50095 250
6.52107 274
6.54118 222
6.56129 269
6.58141 287
6.60152 260
6.62164 273
6.64175 241
6.66186 253
6.68198 253
6.70209 270
6.7222 264
6.74232 244
6.76243 253
6.78255 278
6.80266 252
6.82277 246
6.84289 241
6.863 217
6.88311 259
6.90323 254
6.92334 264
6.94346 240
6.96357 240
6.98368 248
7.0038 249
7.02391 259
7.04402 258
7.06414 245
7.08425 265
7.10436 249
7.12448 254
7.14459 247
7.16471 237
7.18482 238
7.20493 249
7.22505 234
7.24516 272
7.26527 241
7.28539 215
7.3055 262
7.32562 266
7.34573 234
7.36584 264
7.38596 257
7.40607 276
7.42618 251
7.4463 234
7.46641 261
7.48653 274
7.50664 239
7.52675 235
7.54687 268
7.56698 230
7.58709 275
7.60721 268
7.62732 270
7.64743 273
7.66755 275
7.68766 260
7.70778 278
7.72789 253
7.748 252
7.76812 254
7.78823 255
7.80834 262
7.82846 249
7.84857 204
7.86869 251
7.8888 267
7.90891 260
7.92903 252
7.94914 263
7.96925 241
7.98937 270
8.00948 248
8.0296 258
8.04971 274
8.06982 262
8.08994 280
8.11005 270
8.13016 271
8.15028 282
8.17039 262
8.1905 244
8.21062 257
8.23073 251
8.25085 247
8.27096 273
8.29107 251
8.31119 255
8.3313 271
8.35141 234
8.37153 243
8.39164 265
8.41176 253
8.43187 267
8.45198 249
8.4721 305
8.49221 292
8.51232 267
8.53244 265
8.55255 226
8.57266 255
8.59278 258
8.61289 241
8.63301 243
8.65312 235
8.67323 287
8.69335 268
8.71346 236
8.73357 256
8.75369 284
8.7738 226
8.79392 284
8.81403 272
8.83414 279
8.85426 290
8.87437 279
8.89448 263
8.9146 253
8.93471 244
8.95483 266
8.97494 271
8.99505 255
9.01517 292
9.03528 265
9.05539 234
9.07551 244
9.09562 254
9.11573 264
9.13585 230
9.15596 232
9.17608 221
9.19619 267
9.2163 290
9.23642 276
9.25653 235
9.27664 270
9.29676 236
9.31687 249
9.33699 272
9.3571 273
9.37721 266
9.39733 273
9.41744 226
9.43755 261
9.45767 275
9.47778 254
9.4979 248
9.51801 222
9.53812 251
9.55824 298
9.57835 248
9.59846 272
9.61858 279
9.63869 301
9.6588 264
9.67892 275
9.69903 249
9.71915 294
9.73926 246
9.75937 264
9.77949 232
9.7996 245
9.81971 262
9.83983 251
9.85994 262
9.88006 236
9.90017 262
9.92028 251
9.9404 252
9.96051 251
9.98062 253
10.00074 251
10.02085 301
10.04097 269
10.06108 279
10.08119 244
10.10131 225
10.12142 288
10.14153 257
10.16165 285
10.18176 272
10.20187 237
10.22199 255
10.2421 287
10.26222 255
10.28233 260
10.30244 272
10.32256 258
10.34267 267
10.36278 256
10.3829 298
10.40301 269
10.42313 234
10.44324 266
10.46335 251
10.48347 254
10.50358 243
10.52369 231
10.54381 244
10.56392 283
10.58403 245
10.60415 279
10.62426 291
10.64438 265
10.66449 268
10.6846 251
10.70472 248
10.72483 276
10.74494 279
10.76506 241
10.78517 283
10.80529 278
10.8254 268
10.84551 278
10.86563 253
10.88574 292
10.90585 259
10.92597 253
10.94608 270
10.9662 249
10.98631 273
11.00642 317
11.02654 293
11.04665 252
11.06676 252
11.08688 269
11.10699 292
11.1271 278
11.14722 300
11.16733 283
11.18745 264
11.20756 269
11.22767 275
11.24779 289
11.2679 278
11.28801 245
11.30813 293
11.32824 290
11.34836 274
11.36847 295
11.38858 266
11.4087 286
11.42881 294
11.44892 297
11.46904 303
11.48915 287
11.50927 275
11.52938 286
11.54949 308
11.56961 334
11.58972 304
11.60983 301
11.62995 334
11.65006 312
11.67017 314
11.69029 323
11.7104 338
11.73052 342
11.75063 328
11.77074 323
11.79086 326
11.81097 330
11.83108 294
11.8512 331
11.87131 344
11.89143 357
11.91154 392
11.93165 351
11.95177 375
11.97188 357
11.99199 371
12.01211 379
12.03222 381
12.05234 410
12.07245 434
12.09256 395
12.11268 407
12.13279 360
12.1529 421
12.17302 431
12.19313 396
12.21324 413
12.23336 384
12.25347 347
12.27359 398
12.2937 401
12.31381 370
12.33393 394
12.35404 349
12.37415 378
12.39427 326
12.41438 319
12.4345 295
12.45461 344
12.47472 307
12.49484 320
12.51495 287
12.53506 325
12.55518 286
12.57529 287
12.5954 268
12.61552 249
12.63563 297
12.65575 297
12.67586 283
12.69597 297
12.71609 281
12.7362 292
12.75631 307
12.77643 255
12.79654 265
12.81666 283
12.83677 285
12.85688 276
12.877 294
12.89711 270
12.91722 213
12.93734 260
12.95745 250
12.97757 263
12.99768 264
13.01779 253
13.03791 260
13.05802 243
13.07813 254
13.09825 237
13.11836 253
13.13847 266
13.15859 240
13.1787 286
13.19882 252
13.21893 231
13.23904 260
13.25916 274
13.27927 243
13.29938 232
13.3195 241
13.33961 253
13.35973 254
13.37984 257
13.39995 246
13.42007 241
13.44018 226
13.46029 253
13.48041 235
13.50052 224
13.52064 265
13.54075 243
13.56086 232
13.58098 271
13.60109 226
13.6212 246
13.64132 250
13.66143 248
13.68154 268
13.70166 287
13.72177 279
13.74189 267
13.762 322
13.78211 339
13.80223 344
13.82234 368
13.84245 319
13.86257 304
13.88268 315
13.9028 278
13.92291 271
13.94302 287
13.96314 242
13.98325 245
14.00336 224
14.02348 219
14.04359 231
14.06371 203
14.08382 199
14.10393 229
14.12405 218
14.14416 199
14.16427 211
14.18439 231
14.2045 201
14.22461 225
14.24473 208
14.26484 230
14.28496 217
14.30507 223
14.32518 194
14.3453 191
14.36541 244
14.38552 210
14.40564 215
14.42575 227
14.44587 220
14.46598 222
14.48609 189
14.50621 218
14.52632 245
14.54643 247
14.56655 223
14.58666 210
14.60677 233
14.62689 214
14.647 223
14.66712 215
14.68723 199
14.70734 220
14.72746 202
14.74757 208
14.76768 201
14.7878 194
14.80791 206
14.82803 217
14.84814 222
14.86825 221
14.88837 237
14.90848 215
14.92859 233
14.94871 207
14.96882 245
14.98894 204
15.00905 229
15.02916 231
15.04928 265
15.06939 235
15.0895 243
15.10962 213
15.12973 256
15.14984 196
15.16996 212
15.19007 234
15.21019 207
15.2303 203
15.25041 213
15.27053 251
15.29064 208
15.31075 192
15.33087 230
15.35098 216
15.3711 213
15.39121 204
15.41132 175
15.43144 196
15.45155 225
15.47166 200
15.49178 198
15.51189 191
15.53201 180
15.55212 238
15.57223 195
15.59235 211
15.61246 201
15.63257 206
15.65269 229
15.6728 218
15.69291 231
15.71303 227
15.73314 235
15.75326 226
15.77337 210
15.79348 236
15.8136 196
15.83371 191
15.85382 219
15.87394 200
15.89405 185
15.91417 229
15.93428 213
15.95439 175
15.97451 192
15.99462 200
16.01473 195
16.03485 185
16.05496 184
16.07508 198
16.09519 199
16.1153 204
16.13542 200
16.15553 213
16.17564 172
16.19576 201
16.21587 218
16.23598 198
16.2561 197
16.27621 207
16.29633 201
16.31644 182
16.33655 195
16.35667 203
16.37678 208
16.39689 234
16.41701 235
16.43712 205
16.45724 223
16.47735 213
16.49746 213
16.51758 204
16.53769 196
16.5578 199
16.57792 188
16.59803 192
16.61814 214
16.63826 180
16.65837 181
16.67849 219
16.6986 191
16.71871 179
16.73883 206
16.75894 213
16.77905 208
16.79917 205
16.81928 195
16.8394 204
16.85951 199
16.87962 170
16.89974 223
16.91985 195
16.93996 217
16.96008 187
16.98019 187
17.00031 209
17.02042 209
17.04053 203
17.06065 195
17.08076 220
17.10087 184
17.12099 200
17.1411 205
17.16121 209
17.18133 188
17.20144 222
17.22156 205
17.24167 183
17.26178 205
17.2819 193
17.30201 188
17.32212 195
17.34224 202
17.36235 183
17.38247 208
17.40258 212
17.42269 209
17.44281 210
17.46292 179
17.48303 211
17.50315 184
17.52326 208
17.54338 178
17.56349 199
17.5836 187
17.60372 206
17.62383 205
17.64394 196
17.66406 212
17.68417 225
17.70428 211
17.7244 199
17.74451 200
17.76463 190
17.78474 212
17.80485 210
17.82497 206
17.84508 191
17.86519 181
17.88531 186
17.90542 211
17.92554 200
17.94565 163
17.96576 192
17.98588 221
18.00599 197
18.0261 195
18.04622 187
18.06633 189
18.08645 195
18.10656 207
18.12667 210
18.14679 188
18.1669 204
18.18701 205
18.20713 215
18.22724 195
18.24735 216
18.26747 216
18.28758 204
18.3077 201
18.32781 178
18.34792 193
18.36804 229
18.38815 225
18.40826 202
18.42838 174
18.44849 181
18.46861 206
18.48872 212
18.50883 205
18.52895 219
18.54906 204
18.56917 210
18.58929 183
18.6094 187
18.62951 190
18.64963 186
18.66974 219
18.68986 193
18.70997 195
18.73008 181
18.7502 210
18.77031 187
18.79042 227
18.81054 212
18.83065 220
18.85077 199
18.87088 232
18.89099 208
18.91111 222
18.93122 214
18.95133 214
18.97145 225
18.99156 243
19.01168 186
19.03179 203
19.0519 211
19.07202 217
19.09213 211
19.11224 237
19.13236 241
19.15247 218
19.17258 246
19.1927 221
19.21281 209
19.23293 216
19.25304 221
19.27315 211
19.29327 217
19.31338 211
19.33349 223
19.35361 221
19.37372 227
19.39384 217
19.41395 218
19.43406 224
19.45418 262
19.47429 224
19.4944 250
19.51452 247
19.53463 235
19.55475 249
19.57486 250
19.59497 260
19.61509 273
19.6352 328
19.65531 297
19.67543 286
19.69554 336
19.71565 344
19.73577 369
19.75588 381
19.776 412
19.79611 414
19.81622 488
19.83634 472
19.85645 429
19.87656 436
19.89668 456
19.91679 433
19.93691 397
19.95702 459
19.97713 418
19.99725 467
20.01736 460
20.03747 408
20.05759 415
20.0777 453
20.09782 430
20.11793 417
20.13804 421
20.15816 411
20.17827 459
20.19838 422
20.2185 455
20.23861 398
20.25872 418
20.27884 441
20.29895 495
20.31907 422
20.33918 458
20.35929 447
20.37941 457
20.39952 482
20.41963 460
20.43975 454
20.45986 526
20.47998 502
20.50009 504
20.5202 567
20.54032 550
20.56043 547
20.58054 624
20.60066 619
20.62077 715
20.64088 855
20.661 1039
20.68111 1424
20.70123 1707
20.72134 2266
20.74145 2990
20.76157 3894
20.78168 4492
20.80179 4954
20.82191 5123
20.84202 4731
20.86214 4183
20.88225 3055
20.90236 2295
20.92248 1604
20.94259 1132
20.9627 899
20.98282 748
21.00293 656
21.02305 625
21.04316 566
21.06327 538
21.08339 491
21.1035 464
21.12361 401
21.14373 448
21.16384 450
21.18395 439
21.20407 444
21.22418 455
21.2443 431
21.26441 459
21.28452 391
21.30464 441
21.32475 397
21.34486 394
21.36498 400
21.38509 426
21.40521 415
21.42532 378
21.44543 357
21.46555 422
21.48566 390
21.50577 350
21.52589 373
21.546 398
21.56612 373
21.58623 360
21.60634 359
21.62646 373
21.64657 398
21.66668 372
21.6868 367
21.70691 379
21.72702 371
21.74714 350
21.76725 425
21.78737 415
21.80748 444
21.82759 517
21.84771 558
21.86782 647
21.88793 748
21.90805 802
21.92816 967
21.94828 1016
21.96839 916
21.9885 883
22.00862 740
22.02873 695
22.04884 555
22.06896 519
22.08907 411
22.10919 356
22.1293 380
22.14941 339
22.16953 299
22.18964 296
22.20975 341
22.22987 318
22.24998 341
22.27009 310
22.29021 323
22.31032 280
22.33044 278
22.35055 312
22.37066 300
22.39078 314
22.41089 309
22.431 296
22.45112 302
22.47123 312
22.49135 303
22.51146 293
22.53157 318
22.55169 281
22.5718 305
22.59191 294
22.61203 275
22.63214 274
22.65225 300
22.67237 307
22.69248 303
22.7126 321
22.73271 310
22.75282 321
22.77294 364
22.79305 336
22.81316 365
22.83328 349
22.85339 399
22.87351 417
22.89362 438
22.91373 376
22.93385 385
22.95396 361
22.97407 341
22.99419 323
23.0143 276
23.03442 311
23.05453 284
23.07464 283
23.09476 318
23.11487 332
23.13498 285
23.1551 294
23.17521 308
23.19532 308
23.21544 287
23.23555 325
23.25567 280
23.27578 295
23.29589 312
23.31601 300
23.33612 328
23.35623 307
23.37635 314
23.39646 294
23.41658 341
23.43669 357
23.4568 372
23.47692 380
23.49703 455
23.51714 458
23.53726 504
23.55737 532
23.57749 565
23.5976 580
23.61771 558
23.63783 496
23.65794 471
23.67805 419
23.69817 431
23.71828 362
23.73839 394
23.75851 385
23.77862 414
23.79874 472
23.81885 509
23.83896 578
23.85908 609
23.87919 642
23.8993 596
23.91942 603
23.93953 477
23.95965 465
23.97976 442
23.99987 423
24.01999 404
24.0401 360
24.06021 340
24.08033 388
24.10044 390
24.12056 357
24.14067 408
24.16078 397
24.1809 441
24.20101 493
24.22112 505
24.24124 563
24.26135 552
24.28146 526
24.30158 527
24.32169 528
24.34181 488
24.36192 447
24.38203 464
24.40215 455
24.42226 393
24.44237 384
24.46249 297
24.4826 355
24.50272 362
24.52283 333
24.54294 372
24.56306 383
24.58317 362
24.60328 364
24.6234 340
24.64351 359
24.66362 363
24.68374 369
24.70385 375
24.72397 358
24.74408 364
24.76419 369
24.78431 394
24.80442 376
24.82453 391
24.84465 409
24.86476 357
24.88488 403
24.90499 401
24.9251 408
24.94522 393
24.96533 375
24.98544 393
25.00556 401
25.02567 393
25.04579 348
25.0659 413
25.08601 411
25.10613 392
25.12624 391
25.14635 397
25.16647 340
25.18658 388
25.20669 376
25.22681 362
25.24692 380
25.26704 395
25.28715 350
25.30726 379
25.32738 413
25.34749 356
25.3676 382
25.38772 435
25.40783 399
25.42795 436
25.44806 442
25.46817 450
25.48829 482
25.5084 484
25.52851 466
25.54863 469
25.56874 434
25.58886 494
25.60897 451
25.62908 449
25.6492 425
25.66931 432
25.68942 425
25.70954 480
25.72965 472
25.74976 458
25.76988 502
25.78999 511
25.81011 431
25.83022 480
25.85033 459
25.87045 520
25.89056 494
25.91067 475
25.93079 478
25.9509 466
25.97102 525
25.99113 547
26.01124 562
26.03136 521
26.05147 600
26.07158 601
26.0917 596
26.11181 612
26.13193 631
26.15204 687
26.17215 757
26.19227 790
26.21238 860
26.23249 914
26.25261 984
26.27272 1110
26.29283 1264
26.31295 1462
26.33306 1573
26.35318 1835
26.37329 2261
26.3934 2697
26.41352 3426
26.43363 4427
26.45374 5946
26.47386 7890
26.49397 10273
26.51409 13794
26.5342 16828
26.55431 19932
26.57443 21789
26.59454 22388
26.61465 21039
26.63477 18065
26.65488 14671
26.67499 10940
26.69511 7814
26.71522 5185
26.73534 3529
26.75545 2323
26.77556 1686
26.79568 1473
26.81579 1269
26.8359 1113
26.85602 1009
26.87613 956
26.89625 914
26.91636 825
26.93647 846
26.95659 752
26.9767 707
26.99681 628
27.01693 632
27.03704 650
27.05716 522
27.07727 568
27.09738 500
27.1175 511
27.13761 491
27.15772 499
27.17784 493
27.19795 477
27.21806 463
27.23818 473
27.25829 484
27.27841 500
27.29852 486
27.31863 491
27.33875 542
27.35886 513
27.37897 470
27.39909 622
27.4192 557
27.43932 581
27.45943 514
27.47954 518
27.49966 573
27.51977 530
27.53988 527
27.56 571
27.58011 582
27.60023 682
27.62034 741
27.64045 835
27.66057 963
27.68068 1124
27.70079 1286
27.72091 1408
27.74102 1529
27.76113 1662
27.78125 1671
27.80136 1517
27.82148 1475
27.84159 1426
27.8617 1242
27.88182 1256
27.90193 1270
27.92204 1225
27.94216 1173
27.96227 1143
27.98239 1039
28.0025 900
28.02261 798
28.04273 710
28.06284 585
28.08295 523
28.10307 467
28.12318 461
28.1433 486
28.16341 471
28.18352 500
28.20364 527
28.22375 566
28.24386 605
28.26398 628
28.28409 559
28.3042 521
28.32432 562
28.34443 452
28.36455 436
28.38466 380
28.40477 344
28.42489 322
28.445 288
28.46511 288
28.48523 277
28.50534 314
28.52546 279
28.54557 278
28.56568 297
28.5858 355
28.60591 282
28.62602 300
28.64614 258
28.66625 259
28.68636 302
28.70648 268
28.72659 242
28.74671 287
28.76682 244
28.78693 269
28.80705 283
28.82716 269
28.84727 257
28.86739 262
28.8875 271
28.90762 240
28.92773 256
28.94784 275
28.96796 295
28.98807 312
29.00818 268
29.0283 292
29.04841 243
29.06853 268
29.08864 252
29.10875 264
29.12887 280
29.14898 260
29.16909 249
29.18921 248
29.20932 241
29.22943 248
29.24955 254
29.26966 245
29.28978 248
29.30989 238
29.33 275
29.35012 244
29.37023 300
29.39034 282
29.41046 249
29.43057 287
29.45069 261
29.4708 271
29.49091 278
29.51103 288
29.53114 287
29.55125 297
29.57137 276
29.59148 330
29.6116 352
29.63171 346
29.65182 340
29.67194 431
29.69205 374
29.71216 402
29.73228 378
29.75239 373
29.7725 328
29.79262 347
29.81273 304
29.83285 306
29.85296 292
29.87307 280
29.89319 274
29.9133 284
29.93341 278
29.95353 301
29.97364 270
29.99376 272
30.01387 280
30.03398 296
30.0541 260
30.07421 281
30.09432 315
30.11444 298
30.13455 286
30.15467 323
30.17478 338
30.19489 379
30.21501 331
30.23512 407
30.25523 421
30.27535 443
30.29546 448
30.31557 490
30.33569 489
30.3558 461
30.37592 496
30.39603 454
30.41614 446
30.43626 439
30.45637 413
30.47648 377
30.4966 344
30.51671 345
30.53683 366
30.55694 282
30.57705 270
30.59717 281
30.61728 285
30.63739 281
30.65751 296
30.67762 271
30.69773 267
30.71785 268
30.73796 309
30.75808 265
30.77819 296
30.7983 265
30.81842 288
30.83853 272
30.85864 244
30.87876 247
30.89887 260
30.91899 263
30.9391 239
30.95921 237
30.97933 248
30.99944 201
31.01955 235
31.03967 224
31.05978 229
31.0799 262
31.10001 208
31.12012 241
31.14024 233
31.16035 238
31.18046 281
31.20058 264
31.22069 253
31.2408 276
31.26092 308
31.28103 311
31.30115 334
31.32126 326
31.34137 347
31.36149 352
31.3816 296
31.40171 339
31.42183 299
31.44194 281
31.46206 298
31.48217 265
31.50228 287
31.5224 262
31.54251 251
31.56262 244
31.58274 254
31.60285 242
31.62297 244
31.64308 263
31.66319 239
31.68331 245
31.70342 256
31.72353 230
31.74365 237
31.76376 241
31.78387 218
31.80399 222
31.8241 213
31.84422 228
31.86433 235
31.88444 220
31.90456 213
31.92467 211
31.94478 209
31.9649 221
31.98501 223
32.00513 212
32.02524 205
32.04535 217
32.06547 219
32.08558 236
32.10569 239
32.12581 244
32.14592 235
32.16604 221
32.18615 231
32.20626 207
32.22638 230
32.24649 210
32.2666 233
32.28672 235
32.30683 248
32.32694 244
32.34706 219
32.36717 243
32.38729 241
32.4074 250
32.42751 237
32.44763 206
32.46774 281
32.48785 250
32.50797 277
32.52808 212
32.5482 254
32.56831 269
32.58842 243
32.60854 251
32.62865 254
32.64876 223
32.66888 216
32.68899 198
32.7091 234
32.72922 255
32.74933 220
32.76945 202
32.78956 205
32.80967 203
32.82979 223
32.8499 201
32.87001 245
32.89013 208
32.91024 221
32.93036 232
32.95047 205
32.97058 207
32.9907 198
33.01081 201
33.03092 204
33.05104 226
33.07115 215
33.09127 212
33.11138 195
33.13149 229
33.15161 207
33.17172 216
33.19183 215
33.21195 229
33.23206 210
33.25217 236
33.27229 204
33.2924 235
33.31252 227
33.33263 219
33.35274 189
33.37286 214
33.39297 232
33.41308 217
33.4332 223
33.45331 207
33.47343 226
33.49354 213
33.51365 222
33.53377 208
33.55388 226
33.57399 222
33.59411 230
33.61422 240
33.63434 250
33.65445 243
33.67456 252
33.69468 263
33.71479 283
33.7349 307
33.75502 297
33.77513 290
33.79524 328
33.81536 268
33.83547 261
33.85559 239
33.8757 246
33.89581 234
33.91593 226
33.93604 208
33.95615 224
33.97627 210
33.99638 197
34.0165 196
34.03661 213
34.05672 208
34.07684 231
34.09695 259
34.11706 217
34.13718 265
34.15729 208
34.17741 216
34.19752 210
34.21763 206
34.23775 207
34.25786 208
34.27797 229
34.29809 220
34.3182 245
34.33831 213
34.35843 226
34.37854 211
34.39866 244
34.41877 217
34.43888 245
34.459 269
34.47911 226
34.49922 240
34.51934 231
34.53945 227
34.55957 245
34.57968 238
34.59979 240
34.61991 225
34.64002 251
34.66013 285
34.68025 264
34.70036 269
34.72047 306
34.74059 302
34.7607 296
34.78082 277
34.80093 274
34.82104 260
34.84116 292
34.86127 284
34.88138 285
34.9015 267
34.92161 292
34.94173 304
34.96184 340
34.98195 298
35.00207 309
35.02218 314
35.04229 343
35.06241 313
35.08252 334
35.10264 285
35.12275 338
35.14286 362
35.16298 350
35.18309 381
35.2032 329
35.22332 376
35.24343 442
35.26354 409
35.28366 414
35.30377 438
35.32389 405
35.344 388
35.36411 394
35.38423 397
35.40434 405
35.42445 370
35.44457 357
35.46468 395
35.4848 357
35.50491 358
35.52502 394
35.54514 342
35.56525 313
35.58536 327
35.60548 386
35.62559 358
35.64571 358
35.66582 335
35.68593 281
35.70605 319
35.72616 336
35.74627 289
35.76639 317
35.7865 304
35.80661 311
35.82673 322
35.84684 305
35.86696 358
35.88707 346
35.90718 299
35.9273 284
35.94741 330
35.96752 319
35.98764 358
36.00775 364
36.02787 373
36.04798 377
36.06809 388
36.08821 397
36.10832 394
36.12843 402
36.14855 364
36.16866 389
36.18878 383
36.20889 388
36.229 417
36.24912 386
36.26923 460
36.28934 479
36.30946 511
36.32957 600
36.34968 695
36.3698 855
36.38991 1034
36.41003 1174
36.43014 1305
36.45025 1486
36.47037 1664
36.49048 1615
36.51059 1534
36.53071 1384
36.55082 1240
36.57094 1114
36.59105 888
36.61116 767
36.63128 658
36.65139 493
36.6715 423
36.69162 364
36.71173 348
36.73184 383
36.75196 327
36.77207 317
36.79219 313
36.8123 362
36.83241 330
36.85253 329
36.87264 346
36.89275 332
36.91287 336
36.93298 307
36.9531 315
36.97321 317
36.99332 332
37.01344 336
37.03355 336
37.05366 323
37.07378 319
37.09389 279
37.11401 318
37.13412 280
37.15423 288
37.17435 267
37.19446 275
37.21457 285
37.23469 288
37.2548 267
37.27491 325
37.29503 281
37.31514 299
37.33526 321
37.35537 281
37.37548 323
37.3956 298
37.41571 348
37.43582 315
37.45594 307
37.47605 303
37.49617 328
37.51628 320
37.53639 316
37.55651 325
37.57662 321
37.59673 323
37.61685 321
37.63696 317
37.65708 293
37.67719 283
37.6973 286
37.71742 288
37.73753 281
37.75764 272
37.77776 269
37.79787 281
37.81798 305
37.8381 279
37.85821 274
37.87833 274
37.89844 279
37.91855 253
37.93867 285
37.95878 267
37.97889 247
37.99901 260
38.01912 274
38.03924 276
38.05935 283
38.07946 267
38.09958 263
38.11969 310
38.1398 253
38.15992 286
38.18003 269
38.20015 275
38.22026 296
38.24037 270
38.26049 283
38.2806 284
38.30071 283
38.32083 277
38.34094 309
38.36105 310
38.38117 305
38.40128 271
38.4214 287
38.44151 305
38.46162 289
38.48174 272
38.50185 284
38.52196 312
38.54208 302
38.56219 297
38.58231 282
38.60242 274
38.62253 299
38.64265 272
38.66276 277
38.68287 277
38.70299 274
38.7231 301
38.74321 294
38.76333 295
38.78344 249
38.80356 268
38.82367 246
38.84378 298
38.8639 276
38.88401 317
38.90412 281
38.92424 265
38.94435 292
38.96447 322
38.98458 280
39.00469 345
39.02481 307
39.04492 320
39.06503 358
39.08515 364
39.10526 365
39.12538 388
39.14549 398
39.1656 399
39.18572 417
39.20583 480
39.22594 522
39.24606 531
39.26617 640
39.28628 791
39.3064 969
39.32651 1082
39.34663 1230
39.36674 1453
39.38685 1530
39.40697 1545
39.42708 1498
39.44719 1354
39.46731 1212
39.48742 1038
39.50754 923
39.52765 807
39.54776 728
39.56788 539
39.58799 464
39.6081 392
39.62822 329
39.64833 328
39.66845 271
39.68856 320
39.70867 284
39.72879 246
39.7489 275
39.76901 251
39.78913 231
39.80924 278
39.82935 228
39.84947 252
39.86958 248
39.8897 272
39.90981 265
39.92992 274
39.95004 263
39.97015 278
39.99026 292
40.01038 298
40.03049 355
40.05061 351
40.07072 360
40.09083 408
40.11095 517
40.13106 527
40.15117 695
40.17129 692
40.1914 733
40.21152 855
40.23163 833
40.25174 861
40.27186 776
40.29197 715
40.31208 607
40.3322 562
40.35231 498
40.37242 431
40.39254 400
40.41265 362
40.43277 290
40.45288 254
40.47299 270
40.49311 253
40.51322 262
40.53333 236
40.55345 253
40.57356 236
40.59368 227
40.61379 278
40.6339 252
40.65402 246
40.67413 264
40.69424 282
40.71436 264
40.73447 251
40.75458 246
40.7747 236
40.79481 237
40.81493 228
40.83504 263
40.85515 249
40.87527 244
40.89538 217
40.91549 241
40.93561 242
40.95572 212
40.97584 219
40.99595 246
41.01606 254
41.03618 243
41.05629 234
41.0764 207
41.09652 220
41.11663 264
41.13675 229
41.15686 252
41.17697 237
41.19709 220
41.2172 249
41.23731 239
41.25743 252
41.27754 225
41.29765 244
41.31777 233
41.33788 229
41.358 220
41.37811 220
41.39822 210
41.41834 239
41.43845 225
41.45856 216
41.47868 236
41.49879 247
41.51891 255
41.53902 232
41.55913 231
41.57925 211
41.59936 239
41.61947 278
41.63959 258
41.6597 259
41.67982 262
41.69993 239
41.72004 266
41.74016 241
41.76027 246
41.78038 247
41.8005 289
41.82061 238
41.84072 232
41.86084 245
41.88095 247
41.90107 266
41.92118 253
41.94129 269
41.96141 236
41.98152 264
42.00163 257
42.02175 264
42.04186 276
42.06198 253
42.08209 286
42.1022 282
42.12232 314
42.14243 330
42.16254 371
42.18266 397
42.20277 423
42.22289 490
42.243 573
42.26311 602
42.28323 690
42.30334 840
42.32345 940
42.34357 1105
42.36368 1165
42.38379 1218
42.40391 1111
42.42402 1050
42.44414 946
42.46425 805
42.48436 740
42.50448 674
42.52459 547
42.5447 467
42.56482 450
42.58493 318
42.60505 300
42.62516 270
42.64527 286
42.66539 283
42.6855 264
42.70561 276
42.72573 292
42.74584 305
42.76595 299
42.78607 272
42.80618 283
42.8263 287
42.84641 294
42.86652 311
42.88664 276
42.90675 243
42.92686 266
42.94698 265
42.96709 253
42.98721 258
43.00732 251
43.02743 217
43.04755 219
43.06766 204
43.08777 226
43.10789 216
43.128 198
43.14812 204
43.16823 204
43.18834 209
43.20846 231
43.22857 212
43.24868 205
43.2688 202
43.28891 204
43.30902 211
43.32914 202
43.34925 211
43.36937 198
43.38948 205
43.40959 178
43.42971 203
43.44982 201
43.46993 197
43.49005 202
43.51016 201
43.53028 171
43.55039 212
43.5705 189
43.59062 200
43.61073 200
43.63084 195
43.65096 214
43.67107 204
43.69119 195
43.7113 217
43.73141 192
43.75153 210
43.77164 174
43.79175 209
43.81187 221
43.83198 186
43.85209 180
43.87221 182
43.89232 186
43.91244 201
43.93255 206
43.95266 183
43.97278 203
43.99289 193
44.013 198
44.03312 192
44.05323 185
44.07335 205
44.09346 178
44.11357 202
44.13369 208
44.1538 187
44.17391 213
44.19403 196
44.21414 174
44.23426 206
44.25437 225
44.27448 194
44.2946 210
44.31471 214
44.33482 191
44.35494 188
44.37505 197
44.39516 201
44.41528 182
44.43539 177
44.45551 206
44.47562 192
44.49573 199
44.51585 210
44.53596 202
44.55607 236
44.57619 230
44.5963 204
44.61642 194
44.63653 204
44.65664 203
44.67676 204
44.69687 220
44.71698 201
44.7371 222
44.75721 222
44.77732 235
44.79744 203
44.81755 214
44.83767 239
44.85778 222
44.87789 239
44.89801 215
44.91812 228
44.93823 234
44.95835 224
44.97846 238
44.99858 200
45.01869 205
45.0388 225
45.05892 223
45.07903 224
45.09914 215
45.11926 214
45.13937 207
45.15949 229
45.1796 202
45.19971 240
45.21983 214
45.23994 222
45.26005 221
45.28017 241
45.30028 207
45.32039 243
45.34051 234
45.36062 225
45.38074 247
45.40085 263
45.42096 272
45.44108 254
45.46119 295
45.4813 276
45.50142 315
45.52153 300
45.54165 346
45.56176 412
45.58187 438
45.60199 494
45.6221 555
45.64221 605
45.66233 686
45.68244 766
45.70256 860
45.72267 827
45.74278 915
45.7629 785
45.78301 794
45.80312 655
45.82324 619
45.84335 562
45.86346 486
45.88358 427
45.90369 425
45.92381 364
45.94392 264
45.96403 243
45.98415 221
46.00426 211
46.02437 215
46.04449 230
46.0646 225
46.08472 224
46.10483 194
46.12494 211
46.14506 231
46.16517 200
46.18528 199
46.2054 250
46.22551 201
46.24563 193
46.26574 207
46.28585 216
46.30597 205
46.32608 216
46.34619 188
46.36631 214
46.38642 187
46.40653 204
46.42665 198
46.44676 197
46.46688 207
46.48699 195
46.5071 229
46.52722 209
46.54733 184
46.56744 167
46.58756 176
46.60767 189
46.62779 177
46.6479 192
46.66801 214
46.68813 207
46.70824 223
46.72835 243
46.74847 195
46.76858 229
46.78869 218
46.80881 217
46.82892 206
46.84904 202
46.86915 204
46.88926 215
46.90938 206
46.92949 191
46.9496 204
46.96972 205
46.98983 232
47.00995 207
47.03006 207
47.05017 180
47.07029 197
47.0904 205
47.11051 213
47.13063 197
47.15074 205
47.17086 209
47.19097 197
47.21108 191
47.2312 200
47.25131 191
47.27142 230
47.29154 215
47.31165 224
47.33176 228
47.35188 251
47.37199 232
47.39211 227
47.41222 251
47.43233 249
47.45245 214
47.47256 244
47.49267 236
47.51279 253
47.5329 198
47.55302 216
47.57313 196
47.59324 189
47.61336 206
47.63347 235
47.65358 174
47.6737 207
47.69381 209
47.71393 201
47.73404 220
47.75415 185
47.77427 207
47.79438 204
47.81449 203
47.83461 190
47.85472 198
47.87483 210
47.89495 216
47.91506 187
47.93518 194
47.95529 214
47.9754 194
47.99552 217
48.01563 206
48.03574 202
48.05586 201
48.07597 211
48.09609 198
48.1162 203
48.13631 195
48.15643 238
48.17654 237
48.19665 231
48.21677 225
48.23688 217
48.257 197
48.27711 241
48.29722 238
48.31734 253
48.33745 235
48.35756 217
48.37768 200
48.39779 202
48.4179 235
48.43802 210
48.45813 202
48.47825 242
48.49836 239
48.51847 232
48.53859 189
48.5587 221
48.57881 213
48.59893 227
48.61904 206
48.63916 225
48.65927 228
48.67938 213
48.6995 220
48.71961 211
48.73972 203
48.75984 204
48.77995 247
48.80006 211
48.82018 246
48.84029 238
48.86041 233
48.88052 236
48.90063 244
48.92075 236
48.94086 235
48.96097 230
48.98109 228
49.0012 252
49.02132 264
49.04143 260
49.06154 259
49.08166 256
49.10177 267
49.12188 294
49.142 289
49.16211 286
49.18223 285
49.20234 244
49.22245 240
49.24257 237
49.26268 268
49.28279 263
49.30291 253
49.32302 229
49.34313 226
49.36325 212
49.38336 205
49.40348 206
49.42359 211
49.4437 216
49.46382 228
49.48393 244
49.50404 276
49.52416 259
49.54427 252
49.56439 275
49.5845 260
49.60461 299
49.62473 318
49.64484 317
49.66495 357
49.68507 360
49.70518 390
49.7253 402
49.74541 409
49.76552 449
49.78564 562
49.80575 528
49.82586 568
49.84598 670
49.86609 634
49.8862 747
49.90632 832
49.92643 969
49.94655 1184
49.96666 1319
49.98677 1635
50.00689 1853
50.027 2095
50.04711 2382
50.06723 2327
50.08734 2183
50.10746 2048
50.12757 1813
50.14768 1598
50.1678 1482
50.18791 1371
50.20802 1229
50.22814 1073
50.24825 904
50.26837 725
50.28848 544
50.30859 464
50.32871 389
50.34882 349
50.36893 341
50.38905 332
50.40916 296
50.42927 310
50.44939 311
50.4695 296
50.48962 290
50.50973 310
50.52984 316
50.54996 325
50.57007 315
50.59018 296
50.6103 286
50.63041 304
50.65053 341
50.67064 306
50.69075 293
50.71087 295
50.73098 295
50.75109 241
50.77121 282
50.79132 228
50.81143 251
50.83155 279
50.85166 252
50.87178 227
50.89189 219
50.912 256
50.93212 207
50.95223 224
50.97234 247
50.99246 225
51.01257 203
51.03269 220
51.0528 227
51.07291 246
51.09303 219
51.11314 238
51.13325 245
51.15337 256
51.17348 248
51.1936 284
51.21371 238
51.23382 279
51.25394 283
51.27405 307
51.29416 335
51.31428 280
51.33439 294
51.3545 281
51.37462 248
51.39473 247
51.41485 233
51.43496 248
51.45507 223
51.47519 213
51.4953 193
51.51541 214
51.53553 200
51.55564 193
51.57576 183
51.59587 171
51.61598 181
51.6361 194
51.65621 157
51.67632 175
51.69644 189
51.71655 200
51.73667 187
51.75678 178
51.77689 192
51.79701 148
51.81712 178
51.83723 187
51.85735 174
51.87746 169
51.89757 173
51.91769 175
51.9378 187
51.95792 179
51.97803 188
51.99814 157
52.01826 186
52.03837 179
52.05848 175
52.0786 197
52.09871 199
52.11883 203
52.13894 187
52.15905 211
52.17917 179
52.19928 201
52.21939 216
52.23951 189
52.25962 183
52.27974 193
52.29985 210
52.31996 182
52.34008 207
52.36019 220
52.3803 180
52.40042 206
52.42053 203
52.44064 206
52.46076 211
52.48087 231
52.50099 223
52.5211 234
52.54121 228
52.56133 194
52.58144 211
52.60155 198
52.62167 228
52.64178 208
52.6619 196
52.68201 178
52.70212 220
52.72224 204
52.74235 219
52.76246 200
52.78258 191
52.80269 189
52.8228 202
52.84292 202
52.86303 195
52.88315 224
52.90326 218
52.92337 218
52.94349 236
52.9636 217
52.98371 239
53.00383 213
53.02394 243
53.04406 226
53.06417 238
53.08428 208
53.1044 237
53.12451 229
53.14462 211
53.16474 234
53.18485 204
53.20497 245
53.22508 216
53.24519 216
53.26531 222
53.28542 227
53.30553 223
53.32565 214
53.34576 194
53.36587 228
53.38599 201
53.4061 196
53.42622 200
53.44633 208
53.46644 207
53.48656 209
53.50667 226
53.52678 215
53.5469 202
53.56701 242
53.58713 221
53.60724 222
53.62735 225
53.64747 222
53.66758 216
53.68769 225
53.70781 243
53.72792 212
53.74804 214
53.76815 215
53.78826 232
53.80838 195
53.82849 228
53.8486 229
53.86872 252
53.88883 246
53.90894 225
53.92906 233
53.94917 233
53.96929 197
53.9894 235
54.00951 248
54.02963 232
54.04974 218
54.06985 220
54.08997 242
54.11008 225
54.1302 250
54.15031 230
54.17042 244
54.19054 259
54.21065 246
54.23076 252
54.25088 243
54.27099 229
54.29111 268
54.31122 246
54.33133 229
54.35145 259
54.37156 291
54.39167 230
54.41179 266
54.4319 276
54.45201 288
54.47213 308
54.49224 278
54.51236 293
54.53247 303
54.55258 338
54.5727 321
54.59281 344
54.61292 369
54.63304 409
54.65315 420
54.67327 464
54.69338 538
54.71349 570
54.73361 688
54.75372 731
54.77383 819
54.79395 818
54.81406 781
54.83417 734
54.85429 702
54.8744 599
54.89452 591
54.91463 596
54.93474 543
54.95486 508
54.97497 511
54.99508 430
55.0152 423
55.03531 375
55.05543 345
55.07554 324
55.09565 360
55.11577 339
55.13588 351
55.15599 395
55.17611 418
55.19622 447
55.21634 457
55.23645 431
55.25656 492
55.27668 481
55.29679 466
55.3169 394
55.33702 380
55.35713 378
55.37724 364
55.39736 386
55.41747 339
55.43759 252
55.4577 315
55.47781 254
55.49793 262
55.51804 249
55.53815 211
55.55827 231
55.57838 207
55.5985 256
55.61861 231
55.63872 216
55.65884 206
55.67895 220
55.69906 208
55.71918 201
55.73929 250
55.75941 194
55.77952 198
55.79963 213
55.81975 212
55.83986 224
55.85997 200
55.88009 192
55.9002 195
55.92031 215
55.94043 219
55.96054 200
55.98066 244
56.00077 227
56.02088 208
56.041 190
56.06111 214
56.08122 194
56.10134 212
56.12145 191
56.14157 218
56.16168 195
56.18179 189
56.20191 180
56.22202 193
56.24213 224
56.26225 200
56.28236 188
56.30248 180
56.32259 188
56.3427 186
56.36282 188
56.38293 219
56.40304 207
56.42316 186
56.44327 208
56.46338 207
56.4835 196
56.50361 208
56.52373 212
56.54384 201
56.56395 208
56.58407 210
56.60418 193
56.62429 182
56.64441 179
56.66452 191
56.68464 192
56.70475 193
56.72486 179
56.74498 207
56.76509 179
56.7852 184
56.80532 195
56.82543 190
56.84554 187
56.86566 186
56.88577 167
56.90589 165
56.926 169
56.94611 187
56.96623 174
56.98634 194
57.00645 196
57.02657 210
57.04668 217
57.0668 215
57.08691 217
57.10702 222
57.12714 236
57.14725 199
57.16736 226
57.18748 217
57.20759 223
57.22771 207
57.24782 200
57.26793 212
57.28805 227
57.30816 204
57.32827 244
57.34839 216
57.3685 260
57.38861 217
57.40873 184
57.42884 208
57.44896 198
57.46907 217
57.48918 187
57.5093 192
57.52941 182
57.54952 187
57.56964 186
57.58975 195
57.60987 188
57.62998 182
57.65009 194
57.67021 187
57.69032 192
57.71043 193
57.73055 174
57.75066 168
57.77078 165
57.79089 183
57.811 189
57.83112 176
57.85123 174
57.87134 186
57.89146 190
57.91157 194
57.93168 183
57.9518 193
57.97191 168
57.99203 212
58.01214 186
58.03225 185
58.05237 170
58.07248 195
58.09259 196
58.11271 169
58.13282 181
58.15294 200
58.17305 171
58.19316 184
58.21328 182
58.23339 217
58.2535 189
58.27362 202
58.29373 177
58.31385 201
58.33396 189
58.35407 203
58.37419 182
58.3943 187
58.41441 178
58.43453 198
58.45464 182
58.47475 226
58.49487 192
58.51498 205
58.5351 218
58.55521 206
58.57532 204
58.59544 204
58.61555 228
58.63566 195
58.65578 209
58.67589 191
58.69601 191
58.71612 211
58.73623 201
58.75635 172
58.77646 194
58.79657 183
58.81669 211
58.8368 178
58.85691 184
58.87703 175
58.89714 203
58.91726 194
58.93737 183
58.95748 188
58.9776 186
58.99771 203
59.01782 171
59.03794 185
59.05805 194
59.07817 176
59.09828 207
59.11839 187
59.13851 213
59.15862 211
59.17873 195
59.19885 199
59.21896 204
59.23908 206
59.25919 210
59.2793 199
59.29942 204
59.31953 214
59.33964 200
59.35976 243
59.37987 209
59.39998 210
59.4201 224
59.44021 231
59.46033 237
59.48044 248
59.50055 267
59.52067 279
59.54078 274
59.56089 314
59.58101 303
59.60112 361
59.62124 338
59.64135 423
59.66146 387
59.68158 466
59.70169 562
59.7218 607
59.74192 713
59.76203 853
59.78215 924
59.80226 1084
59.82237 1264
59.84249 1432
59.8626 1523
59.88271 1539
59.90283 1446
59.92294 1329
59.94305 1163
59.96317 986
59.98328 966
60.0034 941
60.02351 873
60.04362 899
60.06374 775
60.08385 668
60.10396 567
60.12408 464
60.14419 373
60.16431 348
60.18442 278
60.20453 283
60.22465 260
60.24476 288
60.26487 249
60.28499 225
60.3051 242
60.32522 249
60.34533 228
60.36544 240
60.38556 207
60.40567 213
60.42578 217
60.4459 212
60.46601 223
60.48612 216
60.50624 189
60.52635 199
60.54647 193
60.56658 207
60.58669 190
60.60681 198
60.62692 188
60.64703 197
60.66715 184
60.68726 215
60.70738 198
60.72749 192
60.7476 170
60.76772 172
60.78783 198
60.80794 190
60.82806 193
60.84817 180
60.86828 184
60.8884 175
60.90851 187
60.92863 181
60.94874 207
60.96885 194
60.98897 192
61.00908 209
61.02919 177
61.04931 173
61.06942 178
61.08954 201
61.10965 212
61.12976 198
61.14988 175
61.16999 191
61.1901 194
61.21022 162
61.23033 176
61.25045 206
61.27056 196
61.29067 170
61.31079 189
61.3309 174
61.35101 215
61.37113 179
61.39124 213
61.41135 187
61.43147 169
61.45158 201
61.4717 208
61.49181 204
61.51192 186
61.53204 202
61.55215 187
61.57226 202
61.59238 213
61.61249 205
61.63261 203
61.65272 205
61.67283 183
61.69295 207
61.71306 205
61.73317 215
61.75329 239
61.7734 227
61.79352 218
61.81363 257
61.83374 241
61.85386 204
61.87397 256
61.89408 234
61.9142 230
61.93431 221
61.95442 238
61.97454 235
61.99465 258
62.01477 252
62.03488 266
62.05499 293
62.07511 284
62.09522 306
62.11533 275
62.13545 283
62.15556 279
62.17568 273
62.19579 246
62.2159 275
62.23602 280
62.25613 261
62.27624 279
62.29636 253
62.31647 226
62.33659 245
62.3567 254
62.37681 224
62.39693 223
62.41704 227
62.43715 222
62.45727 236
62.47738 228
62.49749 218
62.51761 247
62.53772 228
62.55784 215
62.57795 209
62.59806 203
62.61818 213
62.63829 205
62.6584 220
62.67852 210
62.69863 245
62.71875 200
62.73886 202
62.75897 236
62.77909 251
62.7992 220
62.81931 211
62.83943 228
62.85954 202
62.87965 240
62.89977 205
62.91988 211
62.94 189
62.96011 221
62.98022 203
63.00034 208
63.02045 200
63.04056 205
63.06068 184
63.08079 220
63.10091 204
63.12102 203
63.14113 199
63.16125 205
63.18136 198
63.20147 232
63.22159 212
63.2417 217
63.26182 206
63.28193 198
63.30204 195
63.32216 224
63.34227 210
63.36238 203
63.3825 209
63.40261 228
63.42272 228
63.44284 236
63.46295 228
63.48307 250
63.50318 225
63.52329 232
63.54341 235
63.56352 225
63.58363 209
63.60375 221
63.62386 238
63.64398 246
63.66409 275
63.6842 254
63.70432 269
63.72443 277
63.74454 265
63.76466 293
63.78477 286
63.80489 333
63.825 326
63.84511 334
63.86523 347
63.88534 353
63.90545 420
63.92557 458
63.94568 452
63.96579 433
63.98591 419
64.00602 431
64.02614 388
64.04625 341
64.06636 298
64.08648 305
64.10659 298
64.1267 303
64.14682 263
64.16693 298
64.18705 242
64.20716 236
64.22727 248
64.24739 194
64.2675 171
64.28761 173
64.30773 193
64.32784 176
64.34796 186
64.36807 187
64.38818 187
64.4083 189
64.42841 169
64.44852 159
64.46864 173
64.48875 147
64.50886 161
64.52898 178
64.54909 164
64.56921 170
64.58932 160
64.60943 169
64.62955 192
64.64966 161
64.66977 163
64.68989 184
64.71 188
64.73012 193
64.75023 162
64.77034 183
64.79046 172
64.81057 183
64.83068 185
64.8508 181
64.87091 180
64.89102 168
64.91114 189
64.93125 220
64.95137 211
64.97148 165
64.99159 178
65.01171 187
65.03182 207
65.05193 197
65.07205 189
65.09216 201
65.11228 193
65.13239 172
65.1525 223
65.17262 176
65.19273 207
65.21284 192
65.23296 189
65.25307 194
65.27319 188
65.2933 209
65.31341 192
65.33353 197
65.35364 194
65.37375 219
65.39387 199
65.41398 191
65.43409 205
65.45421 160
65.47432 186
65.49444 203
65.51455 191
65.53466 196
65.55478 215
65.57489 202
65.595 222
65.61512 197
65.63523 205
65.65535 230
65.67546 222
65.69557 222
65.71569 244
65.7358 198
65.75591 208
65.77603 213
65.79614 200
65.81626 185
65.83637 210
65.85648 175
65.8766 195
65.89671 219
65.91682 217
65.93694 197
65.95705 191
65.97716 184
65.99728 192
66.01739 167
66.03751 160
66.05762 177
66.07773 180
66.09785 185
66.11796 169
66.13807 197
66.15819 185
66.1783 183
66.19842 170
66.21853 191
66.23864 189
66.25876 193
66.27887 172
66.29898 170
66.3191 183
66.33921 182
66.35933 203
66.37944 193
66.39955 198
66.41967 192
66.43978 182
66.45989 173
66.48001 180
66.50012 197
66.52023 156
66.54035 178
66.56046 183
66.58058 184
66.60069 181
66.6208 197
66.64092 188
66.66103 205
66.68114 169
66.70126 178
66.72137 199
66.74149 175
66.7616 171
66.78171 197
66.80183 203
66.82194 193
66.84205 179
66.86217 207
66.88228 159
66.90239 197
66.92251 179
66.94262 207
66.96274 177
66.98285 185
67.00296 190
67.02308 174
67.04319 188
67.0633 196
67.08342 212
67.10353 217
67.12365 195
67.14376 227
67.16387 223
67.18399 215
67.2041 218
67.22421 221
67.24433 215
67.26444 225
67.28456 228
67.30467 252
67.32478 237
67.3449 281
67.36501 255
67.38512 312
67.40524 280
67.42535 338
67.44546 358
67.46558 427
67.48569 421
67.50581 496
67.52592 518
67.54603 526
67.56615 704
67.58626 800
67.60637 845
67.62649 927
67.6466 1013
67.66672 1038
67.68683 1009
67.70694 873
67.72706 786
67.74717 752
67.76728 671
67.7874 660
67.80751 674
67.82763 748
67.84774 737
67.86785 790
67.88797 794
67.90808 768
67.92819 764
67.94831 821
67.96842 881
67.98853 969
68.00865 1052
68.02876 1161
68.04888 1256
68.06899 1212
68.0891 1202
68.10922 1141
68.12933 1081
68.14944 1053
68.16956 1062
68.18967 1088
68.20979 1101
68.2299 1164
68.25001 1115
68.27013 1024
68.29024 950
68.31035 828
68.33047 733
68.35058 549
68.3707 569
68.39081 554
68.41092 526
68.43104 469
68.45115 461
68.47126 383
68.49138 384
68.51149 296
68.5316 296
68.55172 273
68.57183 245
68.59195 215
68.61206 245
68.63217 245
68.65229 214
68.6724 221
68.69251 214
68.71263 215
68.73274 212
68.75286 184
68.77297 183
68.79308 183
68.8132 176
68.83331 192
68.85342 188
68.87354 174
68.89365 214
68.91376 187
68.93388 186
68.95399 171
68.97411 185
68.99422 195
69.01433 204
69.03445 214
69.05456 195
69.07467 209
69.09479 215
69.1149 211
69.13502 180
69.15513 236
69.17524 209
69.19536 225
69.21547 214
69.23558 196
69.2557 206
69.27581 197
69.29593 197
69.31604 200
69.33615 228
69.35627 191
69.37638 211
69.39649 172
69.41661 205
69.43672 182
69.45683 163
69.47695 185
69.49706 190
69.51718 191
69.53729 187
69.5574 184
69.57752 194
69.59763 178
69.61774 209
69.63786 211
69.65797 181
69.67809 176
69.6982 205
69.71831 192
69.73843 157
69.75854 198
69.77865 197
69.79877 190
69.81888 197
69.839 182
69.85911 170
69.87922 226
69.89934 198
69.91945 209
69.93956 169
69.95968 169
69.97979 173
69.9999 191
70.02002 174
70.04013 174
70.06025 156
70.08036 196
70.10047 160
70.12059 173
70.1407 169
70.16081 165
70.18093 144
70.20104 149
70.22116 155
70.24127 160
70.26138 159
70.2815 155
70.30161 163
70.32172 157
70.34184 143
70.36195 165
70.38207 169
70.40218 176
70.42229 143
70.44241 154
70.46252 180
70.48263 165
70.50275 142
70.52286 136
70.54297 145
70.56309 159
70.5832 155
70.60332 150
70.62343 149
70.64354 179
70.66366 144
70.68377 167
70.70388 158
70.724 166
70.74411 185
70.76423 164
70.78434 169
70.80445 181
70.82457 166
70.84468 172
70.86479 161
70.88491 168
70.90502 168
70.92513 174
70.94525 148
70.96536 180
70.98548 160
71.00559 193
71.0257 181
71.04582 176
71.06593 192
71.08604 187
71.10616 197
71.12627 156
71.14639 181
71.1665 172
71.18661 163
71.20673 183
71.22684 177
71.24695 192
71.26707 194
71.28718 173
71.3073 177
71.32741 163
71.34752 156
71.36764 156
71.38775 134
71.40786 183
71.42798 192
71.44809 164
71.4682 169
71.48832 194
71.50843 155
71.52855 175
71.54866 162
71.56877 169
71.58889 162
71.609 136
71.62911 189
71.64923 155
71.66934 144
71.68946 144
71.70957 150
71.72968 171
71.7498 158
71.76991 143
71.79002 155
71.81014 159
71.83025 159
71.85037 149
71.87048 147
71.89059 151
71.91071 157
71.93082 146
71.95093 152
71.97105 144
71.99116 173
72.01127 139
72.03139 150
72.0515 154
72.07162 146
72.09173 155
72.11184 156
72.13196 144
72.15207 155
72.17218 151
72.1923 156
72.21241 160
72.23253 169
72.25264 142
72.27275 153
72.29287 150
72.31298 149
72.33309 168
72.35321 165
72.37332 149
72.39344 150
72.41355 144
72.43366 158
72.45378 159
72.47389 160
72.494 162
72.51412 172
72.53423 136
72.55434 153
72.57446 152
72.59457 153
72.61469 148
72.6348 139
72.65491 170
72.67503 150
72.69514 158
72.71525 146
72.73537 158
72.75548 147
72.7756 155
72.79571 167
72.81582 164
72.83594 186
72.85605 174
72.87616 165
72.89628 183
72.91639 157
72.9365 162
72.95662 175
72.97673 186
72.99685 168
73.01696 180
73.03707 173
73.05719 188
73.0773 225
73.09741 179
73.11753 202
73.13764 213
73.15776 210
73.17787 252
73.19798 258
73.2181 250
73.23821 282
73.25832 306
73.27844 332
73.29855 348
73.31867 395
73.33878 404
73.35889 414
73.37901 438
73.39912 426
73.41923 403
73.43935 393
73.45946 331
73.47957 317
73.49969 304
73.5198 300
73.53992 296
73.56003 309
73.58014 325
73.60026 298
73.62037 281
73.64048 266
73.6606 243
73.68071 222
73.70083 215
73.72094 192
73.74105 203
73.76117 180
73.78128 193
73.80139 174
73.82151 156
73.84162 183
73.86174 190
73.88185 176
73.90196 174
73.92208 179
73.94219 165
73.9623 160
73.98242 167
74.00253 191
74.02264 169
74.04276 161
74.06287 158
74.08299 149
74.1031 169
74.12321 153
74.14333 164
74.16344 166
74.18355 176
74.20367 184
74.22378 155
74.2439 177
74.26401 172
74.28412 174
74.30424 160
74.32435 169
74.34446 181
74.36458 154
74.38469 173
74.40481 146
74.42492 148
74.44503 171
74.46515 196
74.48526 139
74.50537 164
74.52549 182
74.5456 157
74.56571 190
74.58583 175
74.60594 181
74.62606 182
74.64617 172
74.66628 189
74.6864 189
74.70651 165
74.72662 169
74.74674 169
74.76685 206
74.78697 171
74.80708 189
74.82719 179
74.84731 180
74.86742 161
74.88753 177
74.90765 198
74.92776 166
74.94787 171
74.96799 161
74.9881 185
75.00822 184
