3.00117 20516
3.02128 19504
3.0414 19195
3.06151 18754
3.08162 18395
3.10174 17889
3.12185 17206
3.14197 16726
3.16208 16218
3.18219 16343
3.20231 15486
3.22242 14920
3.24253 14773
3.26265 13953
3.28276 13752
3.30288 13462
3.32299 12735
3.3431 12200
3.36322 12071
3.38333 11733
3.40344 11453
3.42356 10961
3.44367 10951
3.46379 10327
3.4839 9968
3.50401 9829
3.52413 9240
3.54424 9149
3.56435 8442
3.58447 8601
3.60458 8039
3.62469 7635
3.64481 7502
3.66492 7220
3.68504 7108
3.70515 6758
3.72526 6581
3.74538 6151
3.76549 5883
3.7856 5884
3.80572 5841
3.82583 5293
3.84595 5146
3.86606 5058
3.88617 4833
3.90629 4605
3.9264 4387
3.94651 4275
3.96663 3904
3.98674 4009
4.00686 3670
4.02697 3534
4.04708 3506
4.0672 3346
4.08731 3297
4.10742 3127
4.12754 3011
4.14765 2902
4.16776 2813
4.18788 2828
4.20799 2644
4.22811 2413
4.24822 2434
4.26833 2332
4.28845 2239
4.30856 2323
4.32867 2261
4.34879 2182
4.3689 2052
4.38902 2036
4.40913 2026
4.42924 1899
4.44936 1935
4.46947 1775
4.48958 1926
4.5097 1880
4.52981 1724
4.54992 1761
4.57004 1716
4.59015 1736
4.61027 1687
4.63038 1562
4.65049 1572
4.67061 1499
4.69072 1483
4.71083 1538
4.73095 1480
4.75106 1446
4.77118 1363
4.79129 1493
4.8114 1445
4.83152 1309
4.85163 1355
4.87174 1361
4.89186 1314
4.91197 1263
4.93209 1168
4.9522 1328
4.97231 1220
4.99243 1184
5.01254 1173
5.03265 1170
5.05277 1100
5.07288 1096
5.09299 1174
5.11311 1134
5.13322 1006
5.15334 1106
5.17345 1085
5.19356 1069
5.21368 1099
5.23379 1005
5.2539 1007
5.27402 1017
5.29413 970
5.31425 955
5.33436 902
5.35447 968
5.37459 924
5.3947 943
5.41481 927
5.43493 855
5.45504 869
5.47516 877
5.49527 835
5.51538 823
5.5355 855
5.55561 834
5.57572 837
5.59584 811
5.61595 808
5.63606 818
5.65618 804
5.67629 786
5.69641 823
5.71652 773
5.73663 723
5.75675 798
5.77686 751
5.79697 756
5.81709 713
5.8372 718
5.85732 746
5.87743 820
5.89754 723
5.91766 711
5.93777 758
5.95788 710
5.978 712
5.99811 680
6.01823 676
6.03834 645
6.05845 727
6.07857 656
6.09868 702
6.11879 697
6.13891 707
6.15902 731
6.17913 657
6.19925 701
6.21936 764
6.23948 668
6.25959 639
6.2797 668
6.29982 683
6.31993 681
6.34004 641
6.36016 674
6.38027 608
6.40039 640
6.4205 584
6.44061 636
6.46073 668
6.48084 661
6.50095 651
6.52107 623
6.54118 624
6.56129 618
6.58141 635
6.60152 645
6.62164 581
6.64175 632
6.66186 628
6.68198 574
6.70209 584
6.7222 631
6.74232 649
6.76243 597
6.78255 637
6.80266 607
6.82277 547
6.84289 551
6.863 666
6.88311 543
6.90323 602
6.92334 583
6.94346 635
6.96357 646
6.98368 603
7.0038 603
7.02391 581
7.04402 616
7.06414 540
7.08425 558
7.10436 574
7.12448 580
7.14459 592
7.16471 605
7.18482 538
7.20493 577
7.22505 530
7.24516 580
7.26527 568
7.28539 541
7.3055 585
7.32562 559
7.34573 546
7.36584 582
7.38596 571
7.40607 564
7.42618 526
7.4463 556
7.46641 590
7.48653 529
7.50664 561
7.52675 568
7.54687 566
7.56698 523
7.58709 550
7.60721 570
7.62732 534
7.64743 551
7.66755 604
7.68766 583
7.70778 491
7.72789 521
7.748 526
7.76812 514
7.78823 591
7.80834 557
7.82846 546
7.84857 560
7.86869 509
7.8888 532
7.90891 568
7.92903 535
7.94914 514
7.96925 578
7.98937 542
8.00948 593
8.0296 549
8.04971 539
8.06982 512
8.08994 579
8.11005 558
8.13016 533
8.15028 520
8.17039 566
8.1905 583
8.21062 540
8.23073 527
8.25085 562
8.27096 546
8.29107 522
8.31119 539
8.3313 555
8.35141 532
8.37153 569
8.39164 561
8.41176 504
8.43187 569
8.45198 557
8.4721 544
8.49221 551
8.51232 547
8.53244 528
8.55255 531
8.57266 550
8.59278 532
8.61289 549
8.63301 598
8.65312 580
8.67323 548
8.69335 562
8.71346 526
8.73357 577
8.75369 553
8.7738 550
8.79392 566
8.81403 554
8.83414 550
8.85426 549
8.87437 604
8.89448 630
8.9146 552
8.93471 557
8.95483 561
8.97494 550
8.99505 537
9.01517 500
9.03528 485
9.05539 507
9.07551 481
9.09562 508
9.11573 500
9.13585 518
9.15596 522
9.17608 506
9.19619 532
9.2163 502
9.23642 545
9.25653 485
9.27664 499
9.29676 521
9.31687 514
9.33699 462
9.3571 538
9.37721 499
9.39733 512
9.41744 484
9.43755 504
9.45767 502
9.47778 470
9.4979 486
9.51801 495
9.53812 485
9.55824 518
9.57835 513
9.59846 546
9.61858 512
9.63869 500
9.6588 477
9.67892 464
9.69903 504
9.71915 511
9.73926 474
9.75937 479
9.77949 442
9.7996 475
9.81971 454
9.83983 487
9.85994 448
9.88006 481
9.90017 519
9.92028 467
9.9404 460
9.96051 515
9.98062 477
10.00074 500
10.02085 485
10.04097 489
10.06108 454
10.08119 478
10.10131 482
10.12142 454
10.14153 469
10.16165 495
10.18176 512
10.20187 461
10.22199 497
10.2421 481
10.26222 474
10.28233 484
10.30244 499
10.32256 493
10.34267 446
10.36278 477
10.3829 477
10.40301 456
10.42313 501
10.44324 465
10.46335 534
10.48347 476
10.50358 472
10.52369 462
10.54381 470
10.56392 542
10.58403 496
10.60415 477
10.62426 446
10.64438 482
10.66449 480
10.6846 494
10.70472 459
10.72483 463
10.74494 490
10.76506 487
10.78517 454
10.80529 465
10.8254 446
10.84551 452
10.86563 484
10.88574 504
10.90585 526
10.92597 476
10.94608 484
10.9662 485
10.98631 514
11.00642 507
11.02654 473
11.04665 472
11.06676 514
11.08688 461
11.10699 483
11.1271 479
11.14722 494
11.16733 477
11.18745 495
11.20756 477
11.22767 503
11.24779 531
11.2679 536
11.28801 523
11.30813 453
11.32824 523
11.34836 479
11.36847 552
11.38858 505
11.4087 497
11.42881 448
11.44892 493
11.46904 468
11.48915 483
11.50927 488
11.52938 513
11.54949 471
11.56961 473
11.58972 514
11.60983 503
11.62995 513
11.65006 529
11.67017 531
11.69029 495
11.7104 513
11.73052 560
11.75063 518
11.77074 499
11.79086 512
11.81097 527
11.83108 541
11.8512 529
11.87131 556
11.89143 582
11.91154 531
11.93165 548
11.95177 559
11.97188 583
11.99199 581
12.01211 606
12.03222 585
12.05234 611
12.07245 568
12.09256 593
12.11268 588
12.13279 534
12.1529 589
12.17302 572
12.19313 568
12.21324 581
12.23336 613
12.25347 602
12.27359 552
12.2937 549
12.31381 609
12.33393 581
12.35404 603
12.37415 595
12.39427 562
12.41438 540
12.4345 523
12.45461 512
12.47472 523
12.49484 484
12.51495 493
12.53506 529
12.55518 489
12.57529 479
12.5954 476
12.61552 512
12.63563 460
12.65575 476
12.67586 471
12.69597 475
12.71609 459
12.7362 450
12.75631 454
12.77643 454
12.79654 476
12.81666 441
12.83677 460
12.85688 465
12.877 448
12.89711 454
12.91722 440
12.93734 446
12.95745 414
12.97757 403
12.99768 446
13.01779 434
13.03791 487
13.05802 454
13.07813 478
13.09825 451
13.11836 423
13.13847 448
13.15859 411
13.1787 465
13.19882 464
13.21893 424
13.23904 441
13.25916 430
13.27927 393
13.29938 395
13.3195 443
13.33961 443
13.35973 424
13.37984 436
13.39995 447
13.42007 385
13.44018 371
13.46029 387
13.48041 411
13.50052 438
13.52064 410
13.54075 439
13.56086 446
13.58098 460
13.60109 427
13.6212 427
13.64132 455
13.66143 413
13.68154 432
13.70166 432
13.72177 400
13.74189 436
13.762 383
13.78211 466
13.80223 436
13.82234 437
13.84245 432
13.86257 416
13.88268 394
13.9028 433
13.92291 410
13.94302 424
13.96314 431
13.98325 407
14.00336 405
14.02348 370
14.04359 428
14.06371 367
14.08382 401
14.10393 404
14.12405 453
14.14416 404
14.16427 433
14.18439 406
14.2045 414
14.22461 399
14.24473 333
14.26484 374
14.28496 421
14.30507 393
14.32518 404
14.3453 388
14.36541 434
14.38552 398
14.40564 391
14.42575 400
14.44587 408
14.46598 360
14.48609 385
14.50621 361
14.52632 413
14.54643 407
14.56655 382
14.58666 387
14.60677 412
14.62689 396
14.647 402
14.66712 385
14.68723 412
14.70734 435
14.72746 404
14.74757 392
14.76768 403
14.7878 365
14.80791 387
14.82803 423
14.84814 408
14.86825 407
14.88837 392
14.90848 424
14.92859 424
14.94871 378
14.96882 409
14.98894 437
15.00905 387
15.02916 389
15.04928 359
15.06939 387
15.0895 403
15.10962 409
15.12973 391
15.14984 428
15.16996 400
15.19007 430
15.21019 406
15.2303 427
15.25041 382
15.27053 397
15.29064 398
15.31075 394
15.33087 343
15.35098 408
15.3711 404
15.39121 411
15.41132 388
15.43144 369
15.45155 411
15.47166 438
15.49178 397
15.51189 383
15.53201 388
15.55212 376
15.57223 385
15.59235 405
15.61246 382
15.63257 377
15.65269 415
15.6728 393
15.69291 374
15.71303 407
15.73314 418
15.75326 375
15.77337 415
15.79348 402
15.8136 366
15.83371 385
15.85382 388
15.87394 360
15.89405 365
15.91417 419
15.93428 361
15.95439 382
15.97451 403
15.99462 388
16.01473 425
16.03485 366
16.05496 380
16.07508 400
16.09519 428
16.1153 406
16.13542 423
16.15553 415
16.17564 428
16.19576 383
16.21587 401
16.23598 387
16.2561 390
16.27621 359
16.29633 393
16.31644 391
16.33655 386
16.35667 420
16.37678 382
16.39689 353
16.41701 404
16.43712 380
16.45724 416
16.47735 424
16.49746 383
16.51758 353
16.53769 363
16.5578 379
16.57792 414
16.59803 390
16.61814 405
16.63826 363
16.65837 377
16.67849 391
16.6986 383
16.71871 400
16.73883 364
16.75894 408
16.77905 374
16.79917 363
16.81928 349
16.8394 394
16.85951 389
16.87962 396
16.89974 407
16.91985 390
16.93996 371
16.96008 398
16.98019 409
17.00031 406
17.02042 397
17.04053 394
17.06065 362
17.08076 353
17.10087 422
17.12099 397
17.1411 403
17.16121 419
17.18133 367
17.20144 418
17.22156 427
17.24167 397
17.26178 422
17.2819 367
17.30201 382
17.32212 417
17.34224 392
17.36235 392
17.38247 412
17.40258 343
17.42269 394
17.44281 409
17.46292 394
17.48303 403
17.50315 398
17.52326 406
17.54338 389
17.56349 421
17.5836 409
17.60372 386
17.62383 444
17.64394 402
17.66406 426
17.68417 377
17.70428 416
17.7244 412
17.74451 453
17.76463 462
17.78474 453
17.80485 426
17.82497 401
17.84508 418
17.86519 426
17.88531 402
17.90542 460
17.92554 400
17.94565 431
17.96576 448
17.98588 402
18.00599 375
18.0261 392
18.04622 401
18.06633 437
18.08645 383
18.10656 373
18.12667 375
18.14679 414
18.1669 394
18.18701 408
18.20713 427
18.22724 422
18.24735 381
18.26747 391
18.28758 431
18.3077 410
18.32781 394
18.34792 414
18.36804 387
18.38815 400
18.40826 411
18.42838 388
18.44849 433
18.46861 409
18.48872 401
18.50883 415
18.52895 408
18.54906 362
18.56917 415
18.58929 406
18.6094 392
18.62951 415
18.64963 417
18.66974 446
18.68986 425
18.70997 408
18.73008 431
18.7502 416
18.77031 417
18.79042 380
18.81054 386
18.83065 420
18.85077 379
18.87088 459
18.89099 383
18.91111 420
18.93122 420
18.95133 426
18.97145 451
18.99156 450
19.01168 409
19.03179 449
19.0519 403
19.07202 439
19.09213 454
19.11224 458
19.13236 417
19.15247 472
19.17258 448
19.1927 453
19.21281 434
19.23293 505
19.25304 471
19.27315 518
19.29327 512
19.31338 524
19.33349 484
19.35361 506
19.37372 513
19.39384 499
19.41395 542
19.43406 565
19.45418 618
19.47429 559
19.4944 603
19.51452 642
19.53463 635
19.55475 662
19.57486 639
19.59497 687
19.61509 784
19.6352 782
19.65531 842
19.67543 843
19.69554 849
19.71565 933
19.73577 941
19.75588 1014
19.776 993
19.79611 1053
19.81622 973
19.83634 1014
19.85645 983
19.87656 990
19.89668 924
19.91679 928
19.93691 858
19.95702 931
19.97713 860
19.99725 882
20.01736 831
20.03747 855
20.05759 803
20.0777 838
20.09782 848
20.11793 789
20.13804 828
20.15816 864
20.17827 796
20.19838 800
20.2185 771
20.23861 811
20.25872 785
20.27884 782
20.29895 734
20.31907 796
20.33918 685
20.35929 768
20.37941 800
20.39952 771
20.41963 812
20.43975 758
20.45986 774
20.47998 764
20.50009 772
20.5202 783
20.54032 844
20.56043 767
20.58054 808
20.60066 826
20.62077 892
20.64088 911
20.661 908
20.68111 1052
20.70123 1150
20.72134 1375
20.74145 1653
20.76157 1777
20.78168 2019
20.80179 2048
20.82191 2044
20.84202 1862
20.86214 1745
20.88225 1511
20.90236 1246
20.92248 1124
20.94259 1036
20.9627 1031
20.98282 947
21.00293 901
21.02305 910
21.04316 803
21.06327 841
21.08339 804
21.1035 793
21.12361 782
21.14373 751
21.16384 713
21.18395 724
21.20407 767
21.22418 712
21.2443 711
21.26441 765
21.28452 707
21.30464 771
21.32475 738
21.34486 694
21.36498 685
21.38509 693
21.40521 682
21.42532 668
21.44543 677
21.46555 682
21.48566 711
21.50577 683
21.52589 654
21.546 685
21.56612 644
21.58623 638
21.60634 635
21.62646 630
21.64657 661
21.66668 635
21.6868 616
21.70691 637
21.72702 636
21.74714 614
21.76725 661
21.78737 611
21.80748 622
21.82759 633
21.84771 678
21.86782 620
21.88793 623
21.90805 665
21.92816 710
21.94828 698
21.96839 659
21.9885 742
22.00862 735
22.02873 689
22.04884 637
22.06896 685
22.08907 639
22.10919 643
22.1293 654
22.14941 578
22.16953 601
22.18964 654
22.20975 623
22.22987 667
22.24998 629
22.27009 638
22.29021 644
22.31032 638
22.33044 588
22.35055 565
22.37066 599
22.39078 559
22.41089 602
22.431 606
22.45112 579
22.47123 577
22.49135 552
22.51146 584
22.53157 597
22.55169 571
22.5718 595
22.59191 583
22.61203 562
22.63214 557
22.65225 586
22.67237 566
22.69248 599
22.7126 566
22.73271 583
22.75282 585
22.77294 593
22.79305 575
22.81316 585
22.83328 546
22.85339 590
22.87351 613
22.89362 611
22.91373 601
22.93385 573
22.95396 603
22.97407 618
22.99419 632
23.0143 576
23.03442 702
23.05453 631
23.07464 638
23.09476 615
23.11487 666
23.13498 669
23.1551 715
23.17521 686
23.19532 601
23.21544 625
23.23555 590
23.25567 590
23.27578 583
23.29589 574
23.31601 591
23.33612 594
23.35623 569
23.37635 551
23.39646 574
23.41658 615
23.43669 592
23.4568 578
23.47692 585
23.49703 572
23.51714 579
23.53726 592
23.55737 606
23.57749 596
23.5976 588
23.61771 581
23.63783 632
23.65794 574
23.67805 575
23.69817 634
23.71828 570
23.73839 666
23.75851 599
23.77862 575
23.79874 629
23.81885 640
23.83896 636
23.85908 599
23.87919 633
23.8993 671
23.91942 664
23.93953 677
23.95965 730
23.97976 696
23.99987 661
24.01999 689
24.0401 631
24.06021 601
24.08033 623
24.10044 618
24.12056 642
24.14067 645
24.16078 643
24.1809 641
24.20101 615
24.22112 692
24.24124 626
24.26135 631
24.28146 666
24.30158 645
24.32169 611
24.34181 635
24.36192 643
24.38203 630
24.40215 577
24.42226 652
24.44237 583
24.46249 599
24.4826 584
24.50272 578
24.52283 643
24.54294 635
24.56306 636
24.58317 666
24.60328 628
24.6234 649
24.64351 663
24.66362 686
24.68374 644
24.70385 629
24.72397 766
24.74408 685
24.76419 692
24.78431 646
24.80442 644
24.82453 668
24.84465 676
24.86476 653
24.88488 687
24.90499 717
24.9251 692
24.94522 635
24.96533 711
24.98544 691
25.00556 665
25.02567 734
25.04579 648
25.0659 685
25.08601 689
25.10613 646
25.12624 734
25.14635 686
25.16647 718
25.18658 720
25.20669 729
25.22681 697
25.24692 706
25.26704 720
25.28715 719
25.30726 749
25.32738 707
25.34749 734
25.3676 695
25.38772 745
25.40783 742
25.42795 776
25.44806 812
25.46817 813
25.48829 802
25.5084 755
25.52851 749
25.54863 773
25.56874 739
25.58886 776
25.60897 687
25.62908 714
25.6492 727
25.66931 685
25.68942 695
25.70954 672
25.72965 624
25.74976 611
25.76988 652
25.78999 603
25.81011 582
25.83022 647
25.85033 584
25.87045 631
25.89056 583
25.91067 603
25.93079 637
25.9509 649
25.97102 633
25.99113 640
26.01124 591
26.03136 650
26.05147 685
26.07158 607
26.0917 635
26.11181 654
26.13193 706
26.15204 758
26.17215 722
26.19227 827
26.21238 786
26.23249 868
26.25261 891
26.27272 907
26.29283 967
26.31295 1060
26.33306 1153
26.35318 1204
26.37329 1308
26.3934 1424
26.41352 1713
26.43363 2041
26.45374 2498
26.47386 3083
26.49397 3906
26.51409 5055
26.5342 6041
26.55431 6653
26.57443 7060
26.59454 6745
26.61465 6185
26.63477 5203
26.65488 4034
26.67499 3208
26.69511 2419
26.71522 1735
26.73534 1306
26.75545 1120
26.77556 931
26.79568 903
26.81579 875
26.8359 831
26.85602 804
26.87613 777
26.89625 784
26.91636 787
26.93647 747
26.95659 873
26.9767 824
26.99681 832
27.01693 792
27.03704 825
27.05716 734
27.07727 776
27.09738 685
27.1175 665
27.13761 683
27.15772 649
27.17784 676
27.19795 701
27.21806 709
27.23818 718
27.25829 793
27.27841 833
27.29852 926
27.31863 915
27.33875 964
27.35886 929
27.37897 1016
27.39909 987
27.4192 982
27.43932 874
27.45943 891
27.47954 773
27.49966 766
27.51977 738
27.53988 649
27.56 685
27.58011 685
27.60023 618
27.62034 637
27.64045 639
27.66057 676
27.68068 682
27.70079 668
27.72091 697
27.74102 669
27.76113 678
27.78125 703
27.80136 711
27.82148 735
27.84159 720
27.8617 689
27.88182 744
27.90193 723
27.92204 680
27.94216 660
27.96227 596
27.98239 573
28.0025 619
28.02261 571
28.04273 559
28.06284 547
28.08295 580
28.10307 571
28.12318 513
28.1433 560
28.16341 564
28.18352 580
28.20364 556
28.22375 587
28.24386 555
28.26398 546
28.28409 506
28.3042 524
28.32432 508
28.34443 502
28.36455 517
28.38466 500
28.40477 482
28.42489 432
28.445 505
28.46511 502
28.48523 492
28.50534 509
28.52546 519
28.54557 474
28.56568 479
28.5858 462
28.60591 458
28.62602 490
28.64614 490
28.66625 494
28.68636 491
28.70648 527
28.72659 481
28.74671 495
28.76682 447
28.78693 478
28.80705 460
28.82716 467
28.84727 497
28.86739 494
28.8875 478
28.90762 464
28.92773 465
28.94784 445
28.96796 477
28.98807 489
29.00818 451
29.0283 522
29.04841 462
29.06853 499
29.08864 467
29.10875 488
29.12887 502
29.14898 507
29.16909 468
29.18921 462
29.20932 474
29.22943 524
29.24955 509
29.26966 528
29.28978 517
29.30989 509
29.33 556
29.35012 549
29.37023 519
29.39034 527
29.41046 516
29.43057 520
29.45069 527
29.4708 480
29.49091 483
29.51103 485
29.53114 509
29.55125 491
29.57137 487
29.59148 454
29.6116 514
29.63171 517
29.65182 480
29.67194 548
29.69205 505
29.71216 507
29.73228 546
29.75239 506
29.7725 538
29.79262 516
29.81273 556
29.83285 519
29.85296 504
29.87307 508
29.89319 510
29.9133 541
29.93341 508
29.95353 493
29.97364 547
29.99376 531
30.01387 573
30.03398 532
30.0541 571
30.07421 585
30.09432 541
30.11444 571
30.13455 599
30.15467 570
30.17478 597
30.19489 556
30.21501 551
30.23512 560
30.25523 507
30.27535 537
30.29546 497
30.31557 491
30.33569 511
30.3558 491
30.37592 493
30.39603 504
30.41614 487
30.43626 482
30.45637 531
30.47648 467
30.4966 494
30.51671 534
30.53683 546
30.55694 523
30.57705 526
30.59717 509
30.61728 557
30.63739 538
30.65751 559
30.67762 575
30.69773 550
30.71785 601
30.73796 555
30.75808 537
30.77819 608
30.7983 575
30.81842 520
30.83853 561
30.85864 555
30.87876 538
30.89887 508
30.91899 527
30.9391 470
30.95921 494
30.97933 500
30.99944 466
31.01955 498
31.03967 513
31.05978 500
31.0799 479
31.10001 428
31.12012 458
31.14024 465
31.16035 519
31.18046 467
31.20058 506
31.22069 473
31.2408 488
31.26092 511
31.28103 463
31.30115 480
31.32126 414
31.34137 441
31.36149 438
31.3816 444
31.40171 436
31.42183 416
31.44194 426
31.46206 465
31.48217 458
31.50228 460
31.5224 447
31.54251 434
31.56262 450
31.58274 433
31.60285 451
31.62297 457
31.64308 441
31.66319 461
31.68331 443
31.70342 462
31.72353 503
31.74365 520
31.76376 442
31.78387 448
31.80399 469
31.8241 442
31.84422 497
31.86433 472
31.88444 502
31.90456 489
31.92467 451
31.94478 473
31.9649 496
31.98501 467
32.00513 475
32.02524 468
32.04535 459
32.06547 469
32.08558 439
32.10569 476
32.12581 491
32.14592 462
32.16604 464
32.18615 448
32.20626 493
32.22638 457
32.24649 460
32.2666 491
32.28672 475
32.30683 483
32.32694 492
32.34706 488
32.36717 518
32.38729 499
32.4074 475
32.42751 479
32.44763 499
32.46774 498
32.48785 440
32.50797 506
32.52808 432
32.5482 476
32.56831 454
32.58842 457
32.60854 454
32.62865 469
32.64876 431
32.66888 477
32.68899 487
32.7091 491
32.72922 451
32.74933 445
32.76945 462
32.78956 505
32.80967 483
32.82979 488
32.8499 465
32.87001 500
32.89013 479
32.91024 438
32.93036 472
32.95047 478
32.97058 490
32.9907 526
33.01081 506
33.03092 503
33.05104 484
33.07115 526
33.09127 558
33.11138 495
33.13149 509
33.15161 556
33.17172 503
33.19183 499
33.21195 557
33.23206 528
33.25217 525
33.27229 547
33.2924 510
33.31252 515
33.33263 482
33.35274 508
33.37286 496
33.39297 428
33.41308 500
33.4332 510
33.45331 507
33.47343 485
33.49354 463
33.51365 482
33.53377 495
33.55388 486
33.57399 494
33.59411 442
33.61422 482
33.63434 445
33.65445 502
33.67456 463
33.69468 437
33.71479 433
33.7349 466
33.75502 425
33.77513 486
33.79524 468
33.81536 472
33.83547 472
33.85559 459
33.8757 435
33.89581 469
33.91593 508
33.93604 481
33.95615 478
33.97627 470
33.99638 472
34.0165 465
34.03661 510
34.05672 512
34.07684 580
34.09695 527
34.11706 529
34.13718 520
34.15729 523
34.17741 529
34.19752 574
34.21763 534
34.23775 549
34.25786 534
34.27797 553
34.29809 595
34.3182 543
34.33831 609
34.35843 561
34.37854 633
34.39866 569
34.41877 585
34.43888 558
34.459 644
34.47911 594
34.49922 617
34.51934 616
34.53945 630
34.55957 601
34.57968 645
34.59979 621
34.61991 615
34.64002 684
34.66013 693
34.68025 704
34.70036 704
34.72047 755
34.74059 746
34.7607 763
34.78082 764
34.80093 800
34.82104 799
34.84116 789
34.86127 859
34.88138 794
34.9015 750
34.92161 794
34.94173 756
34.96184 738
34.98195 723
35.00207 696
35.02218 696
35.04229 705
35.06241 703
35.08252 649
35.10264 675
35.12275 664
35.14286 645
35.16298 655
35.18309 656
35.2032 704
35.22332 615
35.24343 671
35.26354 647
35.28366 673
35.30377 640
35.32389 666
35.344 672
35.36411 651
35.38423 692
35.40434 672
35.42445 665
35.44457 695
35.46468 705
35.4848 711
35.50491 640
35.52502 675
35.54514 706
35.56525 635
35.58536 625
35.60548 691
35.62559 632
35.64571 683
35.66582 635
35.68593 674
35.70605 626
35.72616 648
35.74627 635
35.76639 666
35.7865 690
35.80661 648
35.82673 622
35.84684 662
35.86696 652
35.88707 635
35.90718 611
35.9273 650
35.94741 649
35.96752 617
35.98764 626
36.00775 651
36.02787 583
36.04798 586
36.06809 598
36.08821 616
36.10832 599
36.12843 549
36.14855 582
36.16866 587
36.18878 610
36.20889 627
36.229 617
36.24912 623
36.26923 637
36.28934 673
36.30946 601
36.32957 694
36.34968 723
36.3698 776
36.38991 812
36.41003 871
36.43014 861
36.45025 969
36.47037 970
36.49048 987
36.51059 968
36.53071 871
36.55082 820
36.57094 821
36.59105 797
36.61116 688
36.63128 734
36.65139 677
36.6715 641
36.69162 657
36.71173 601
36.73184 624
36.75196 602
36.77207 630
36.79219 631
36.8123 624
36.83241 618
36.85253 590
36.87264 665
36.89275 618
36.91287 667
36.93298 634
36.9531 588
36.97321 574
36.99332 579
37.01344 600
37.03355 589
37.05366 648
37.07378 608
37.09389 602
37.11401 578
37.13412 586
37.15423 565
37.17435 556
37.19446 537
37.21457 596
37.23469 555
37.2548 588
37.27491 586
37.29503 566
37.31514 624
37.33526 562
37.35537 602
37.37548 584
37.3956 585
37.41571 585
37.43582 563
37.45594 584
37.47605 575
37.49617 542
37.51628 608
37.53639 616
37.55651 565
37.57662 617
37.59673 589
37.61685 588
37.63696 606
37.65708 636
37.67719 591
37.6973 623
37.71742 543
37.73753 559
37.75764 543
37.77776 583
37.79787 557
37.81798 515
37.8381 530
37.85821 537
37.87833 573
37.89844 518
37.91855 560
37.93867 547
37.95878 547
37.97889 559
37.99901 544
38.01912 587
38.03924 530
38.05935 544
38.07946 535
38.09958 573
38.11969 565
38.1398 562
38.15992 605
38.18003 568
38.20015 552
38.22026 578
38.24037 547
38.26049 561
38.2806 594
38.30071 584
38.32083 542
38.34094 573
38.36105 572
38.38117 565
38.40128 582
38.4214 594
38.44151 544
38.46162 594
38.48174 582
38.50185 568
38.52196 540
38.54208 576
38.56219 575
38.58231 543
38.60242 541
38.62253 514
38.64265 545
38.66276 522
38.68287 517
38.70299 518
38.7231 557
38.74321 557
38.76333 500
38.78344 516
38.80356 539
38.82367 537
38.84378 493
38.8639 541
38.88401 525
38.90412 529
38.92424 561
38.94435 489
38.96447 513
38.98458 533
39.00469 534
39.02481 511
39.04492 480
39.06503 551
39.08515 527
39.10526 534
39.12538 546
39.14549 540
39.1656 556
39.18572 537
39.20583 571
39.22594 574
39.24606 595
39.26617 590
39.28628 662
39.3064 723
39.32651 718
39.34663 758
39.36674 840
39.38685 861
39.40697 806
39.42708 843
39.44719 845
39.46731 753
39.48742 708
39.50754 661
39.52765 599
39.54776 564
39.56788 563
39.58799 461
39.6081 462
39.62822 474
39.64833 498
39.66845 489
39.68856 471
39.70867 532
39.72879 433
39.7489 520
39.76901 475
39.78913 480
39.80924 450
39.82935 494
39.84947 506
39.86958 527
39.8897 500
39.90981 525
39.92992 504
39.95004 474
39.97015 474
39.99026 511
40.01038 531
40.03049 492
40.05061 536
40.07072 528
40.09083 518
40.11095 523
40.13106 574
40.15117 587
40.17129 641
40.1914 663
40.21152 660
40.23163 649
40.25174 658
40.27186 627
40.29197 636
40.31208 563
40.3322 576
40.35231 571
40.37242 521
40.39254 528
40.41265 468
40.43277 494
40.45288 508
40.47299 496
40.49311 499
40.51322 517
40.53333 506
40.55345 486
40.57356 509
40.59368 516
40.61379 516
40.6339 482
40.65402 473
40.67413 482
40.69424 480
40.71436 479
40.73447 484
40.75458 493
40.7747 487
40.79481 501
40.81493 517
40.83504 471
40.85515 462
40.87527 433
40.89538 501
40.91549 503
40.93561 509
40.95572 528
40.97584 470
40.99595 531
41.01606 464
41.03618 497
41.05629 505
41.0764 534
41.09652 495
41.11663 486
41.13675 480
41.15686 470
41.17697 437
41.19709 483
41.2172 494
41.23731 522
41.25743 493
41.27754 488
41.29765 464
41.31777 462
41.33788 443
41.358 464
41.37811 478
41.39822 452
41.41834 480
41.43845 481
41.45856 482
41.47868 482
41.49879 495
41.51891 483
41.53902 455
41.55913 464
41.57925 476
41.59936 526
41.61947 552
41.63959 565
41.6597 473
41.67982 536
41.69993 581
41.72004 548
41.74016 556
41.76027 539
41.78038 471
41.8005 498
41.82061 545
41.84072 535
41.86084 504
41.88095 498
41.90107 483
41.92118 450
41.94129 449
41.96141 471
41.98152 433
42.00163 463
42.02175 446
42.04186 481
42.06198 476
42.08209 472
42.1022 493
42.12232 482
42.14243 483
42.16254 520
42.18266 501
42.20277 475
42.22289 504
42.243 551
42.26311 539
42.28323 612
42.30334 628
42.32345 666
42.34357 700
42.36368 776
42.38379 703
42.40391 717
42.42402 671
42.44414 642
42.46425 573
42.48436 590
42.50448 535
42.52459 556
42.5447 520
42.56482 522
42.58493 523
42.60505 453
42.62516 496
42.64527 471
42.66539 458
42.6855 402
42.70561 466
42.72573 473
42.74584 430
42.76595 425
42.78607 432
42.80618 451
42.8263 454
42.84641 438
42.86652 430
42.88664 446
42.90675 443
42.92686 443
42.94698 424
42.96709 450
42.98721 425
43.00732 407
43.02743 412
43.04755 415
43.06766 423
43.08777 465
43.10789 424
43.128 446
43.14812 426
43.16823 445
43.18834 438
43.20846 420
43.22857 412
43.24868 413
43.2688 419
43.28891 428
43.30902 422
43.32914 423
43.34925 393
43.36937 416
43.38948 449
43.40959 444
43.42971 413
43.44982 400
43.46993 428
43.49005 470
43.51016 404
43.53028 415
43.55039 449
43.5705 432
43.59062 451
43.61073 405
43.63084 431
43.65096 434
43.67107 451
43.69119 396
43.7113 424
43.73141 437
43.75153 432
43.77164 420
43.79175 454
43.81187 426
43.83198 424
43.85209 382
43.87221 409
43.89232 449
43.91244 438
43.93255 399
43.95266 412
43.97278 451
43.99289 434
44.013 409
44.03312 404
44.05323 439
44.07335 425
44.09346 411
44.11357 433
44.13369 418
44.1538 404
44.17391 417
44.19403 457
44.21414 396
44.23426 426
44.25437 435
44.27448 401
44.2946 422
44.31471 423
44.33482 428
44.35494 414
44.37505 435
44.39516 406
44.41528 405
44.43539 455
44.45551 428
44.47562 418
44.49573 426
44.51585 393
44.53596 432
44.55607 404
44.57619 434
44.5963 425
44.61642 442
44.63653 402
44.65664 432
44.67676 436
44.69687 412
44.71698 426
44.7371 409
44.75721 368
44.77732 406
44.79744 461
44.81755 437
44.83767 413
44.85778 399
44.87789 404
44.89801 443
44.91812 434
44.93823 406
44.95835 438
44.97846 415
44.99858 445
45.01869 467
45.0388 433
45.05892 431
45.07903 403
45.09914 397
45.11926 394
45.13937 447
45.15949 457
45.1796 432
45.19971 412
45.21983 438
45.23994 485
45.26005 456
45.28017 472
45.30028 468
45.32039 494
45.34051 478
45.36062 378
45.38074 446
45.40085 472
45.42096 442
45.44108 484
45.46119 480
45.4813 497
45.50142 480
45.52153 494
45.54165 475
45.56176 478
45.58187 543
45.60199 545
45.6221 575
45.64221 542
45.66233 574
45.68244 680
45.70256 624
45.72267 597
45.74278 580
45.7629 605
45.78301 585
45.80312 562
45.82324 585
45.84335 511
45.86346 512
45.88358 454
45.90369 453
45.92381 477
45.94392 468
45.96403 448
45.98415 445
46.00426 437
46.02437 422
46.04449 440
46.0646 430
46.08472 464
46.10483 478
46.12494 449
46.14506 453
46.16517 460
46.18528 488
46.2054 460
46.22551 455
46.24563 443
46.26574 430
46.28585 461
46.30597 472
46.32608 402
46.34619 382
46.36631 426
46.38642 456
46.40653 429
46.42665 451
46.44676 392
46.46688 442
46.48699 444
46.5071 458
46.52722 411
46.54733 419
46.56744 439
46.58756 429
46.60767 392
46.62779 416
46.6479 384
46.66801 419
46.68813 441
46.70824 424
46.72835 383
46.74847 401
46.76858 403
46.78869 422
46.80881 427
46.82892 451
46.84904 401
46.86915 413
46.88926 494
46.90938 408
46.92949 477
46.9496 429
46.96972 449
46.98983 464
47.00995 429
47.03006 432
47.05017 465
47.07029 401
47.0904 441
47.11051 408
47.13063 422
47.15074 386
47.17086 408
47.19097 439
47.21108 441
47.2312 403
47.25131 446
47.27142 422
47.29154 433
47.31165 401
47.33176 425
47.35188 432
47.37199 438
47.39211 437
47.41222 426
47.43233 441
47.45245 430
47.47256 439
47.49267 410
47.51279 400
47.5329 428
47.55302 400
47.57313 412
47.59324 426
47.61336 417
47.63347 405
47.65358 404
47.6737 394
47.69381 436
47.71393 420
47.73404 424
47.75415 413
47.77427 458
47.79438 429
47.81449 419
47.83461 423
47.85472 419
47.87483 437
47.89495 397
47.91506 427
47.93518 442
47.95529 432
47.9754 401
47.99552 416
48.01563 473
48.03574 445
48.05586 406
48.07597 450
48.09609 442
48.1162 433
48.13631 421
48.15643 433
48.17654 421
48.19665 413
48.21677 439
48.23688 428
48.257 366
48.27711 416
48.29722 374
48.31734 438
48.33745 419
48.35756 378
48.37768 406
48.39779 410
48.4179 427
48.43802 410
48.45813 418
48.47825 448
48.49836 425
48.51847 416
48.53859 431
48.5587 390
48.57881 442
48.59893 406
48.61904 421
48.63916 414
48.65927 426
48.67938 436
48.6995 429
48.71961 432
48.73972 421
48.75984 439
48.77995 435
48.80006 427
48.82018 405
48.84029 452
48.86041 419
48.88052 409
48.90063 422
48.92075 415
48.94086 441
48.96097 401
48.98109 420
49.0012 405
49.02132 427
49.04143 437
49.06154 464
49.08166 381
49.10177 414
49.12188 445
49.142 414
49.16211 427
49.18223 412
49.20234 426
49.22245 444
49.24257 411
49.26268 412
49.28279 417
49.30291 417
49.32302 442
49.34313 473
49.36325 414
49.38336 440
49.40348 396
49.42359 390
49.4437 410
49.46382 437
49.48393 429
49.50404 409
49.52416 405
49.54427 380
49.56439 369
49.5845 406
49.60461 452
49.62473 407
49.64484 430
49.66495 426
49.68507 444
49.70518 429
49.7253 483
49.74541 479
49.76552 467
49.78564 481
49.80575 497
49.82586 520
49.84598 511
49.86609 534
49.8862 575
49.90632 600
49.92643 659
49.94655 698
49.96666 748
49.98677 859
50.00689 901
50.027 956
50.04711 987
50.06723 998
50.08734 960
50.10746 915
50.12757 855
50.14768 767
50.1678 797
50.18791 704
50.20802 739
50.22814 620
50.24825 605
50.26837 539
50.28848 529
50.30859 502
50.32871 444
50.34882 508
50.36893 519
50.38905 505
50.40916 512
50.42927 538
50.44939 460
50.4695 490
50.48962 510
50.50973 478
50.52984 458
50.54996 510
50.57007 495
50.59018 473
50.6103 446
50.63041 436
50.65053 441
50.67064 441
50.69075 425
50.71087 420
50.73098 436
50.75109 466
50.77121 426
50.79132 438
50.81143 437
50.83155 462
50.85166 410
50.87178 426
50.89189 418
50.912 416
50.93212 425
50.95223 435
50.97234 452
50.99246 493
51.01257 432
51.03269 370
51.0528 379
51.07291 442
51.09303 420
51.11314 443
51.13325 425
51.15337 395
51.17348 431
51.1936 366
51.21371 412
51.23382 390
51.25394 391
51.27405 411
51.29416 382
51.31428 373
51.33439 381
51.3545 359
51.37462 353
51.39473 368
51.41485 384
51.43496 346
51.45507 390
51.47519 394
51.4953 364
51.51541 379
51.53553 386
51.55564 376
51.57576 375
51.59587 413
51.61598 404
51.6361 422
51.65621 403
51.67632 374
51.69644 379
51.71655 396
51.73667 364
51.75678 389
51.77689 391
51.79701 364
51.81712 396
51.83723 413
51.85735 351
51.87746 400
51.89757 380
51.91769 405
51.9378 377
51.95792 399
51.97803 379
51.99814 362
52.01826 388
52.03837 359
52.05848 410
52.0786 401
52.09871 402
52.11883 359
52.13894 388
52.15905 375
52.17917 365
52.19928 384
52.21939 402
52.23951 363
52.25962 374
52.27974 376
52.29985 377
52.31996 384
52.34008 369
52.36019 398
52.3803 393
52.40042 384
52.42053 430
52.44064 429
52.46076 387
52.48087 409
52.50099 429
52.5211 403
52.54121 447
52.56133 416
52.58144 411
52.60155 394
52.62167 457
52.64178 400
52.6619 396
52.68201 382
52.70212 408
52.72224 397
52.74235 414
52.76246 412
52.78258 401
52.80269 412
52.8228 439
52.84292 429
52.86303 379
52.88315 418
52.90326 423
52.92337 412
52.94349 414
52.9636 378
52.98371 407
53.00383 440
53.02394 412
53.04406 415
53.06417 429
53.08428 442
53.1044 433
53.12451 443
53.14462 407
53.16474 442
53.18485 433
53.20497 473
53.22508 419
53.24519 445
53.26531 460
53.28542 426
53.30553 470
53.32565 414
53.34576 439
53.36587 472
53.38599 456
53.4061 432
53.42622 451
53.44633 414
53.46644 473
53.48656 453
53.50667 516
53.52678 460
53.5469 435
53.56701 486
53.58713 452
53.60724 486
53.62735 436
53.64747 466
53.66758 484
53.68769 481
53.70781 450
53.72792 516
53.74804 479
53.76815 479
53.78826 524
53.80838 472
53.82849 463
53.8486 484
53.86872 512
53.88883 526
53.90894 457
53.92906 485
53.94917 527
53.96929 482
53.9894 476
54.00951 450
54.02963 480
54.04974 535
54.06985 448
54.08997 497
54.11008 508
54.1302 451
54.15031 501
54.17042 506
54.19054 501
54.21065 504
54.23076 451
54.25088 498
54.27099 444
54.29111 495
54.31122 510
54.33133 462
54.35145 513
54.37156 514
54.39167 495
54.41179 504
54.4319 507
54.45201 473
54.47213 468
54.49224 512
54.51236 492
54.53247 497
54.55258 540
54.5727 497
54.59281 468
54.61292 519
54.63304 540
54.65315 476
54.67327 544
54.69338 547
54.71349 646
54.73361 616
54.75372 586
54.77383 627
54.79395 700
54.81406 652
54.83417 646
54.85429 627
54.8744 575
54.89452 566
54.91463 580
54.93474 518
54.95486 506
54.97497 544
54.99508 534
55.0152 525
55.03531 509
55.05543 474
55.07554 514
55.09565 530
55.11577 511
55.13588 508
55.15599 482
55.17611 516
55.19622 561
55.21634 555
55.23645 561
55.25656 552
55.27668 530
55.29679 561
55.3169 543
55.33702 544
55.35713 521
55.37724 511
55.39736 455
55.41747 497
55.43759 518
55.4577 507
55.47781 463
55.49793 493
55.51804 489
55.53815 472
55.55827 462
55.57838 452
55.5985 445
55.61861 434
55.63872 473
55.65884 470
55.67895 450
55.69906 480
55.71918 478
55.73929 459
55.75941 466
55.77952 429
55.79963 450
55.81975 492
55.83986 471
55.85997 454
55.88009 461
55.9002 432
55.92031 481
55.94043 453
55.96054 458
55.98066 458
56.00077 462
56.02088 461
56.041 438
56.06111 459
56.08122 452
56.10134 450
56.12145 468
56.14157 447
56.16168 447
56.18179 436
56.20191 401
56.22202 412
56.24213 438
56.26225 466
56.28236 443
56.30248 434
56.32259 436
56.3427 408
56.36282 423
56.38293 410
56.40304 426
56.42316 402
56.44327 413
56.46338 442
56.4835 446
56.50361 431
56.52373 423
56.54384 421
56.56395 441
56.58407 419
56.60418 449
56.62429 434
56.64441 391
56.66452 450
56.68464 437
56.70475 469
56.72486 462
56.74498 425
56.76509 423
56.7852 421
56.80532 397
56.82543 389
56.84554 436
56.86566 438
56.88577 408
56.90589 401
56.926 422
56.94611 414
56.96623 456
56.98634 400
57.00645 389
57.02657 408
57.04668 408
57.0668 436
57.08691 437
57.10702 420
57.12714 405
57.14725 410
57.16736 428
57.18748 438
57.20759 410
57.22771 414
57.24782 412
57.26793 439
57.28805 439
57.30816 434
57.32827 414
57.34839 415
57.3685 415
57.38861 441
57.40873 424
57.42884 428
57.44896 398
57.46907 435
57.48918 420
57.5093 388
57.52941 426
57.54952 387
57.56964 415
57.58975 450
57.60987 404
57.62998 372
57.65009 381
57.67021 369
57.69032 406
57.71043 399
57.73055 429
57.75066 409
57.77078 430
57.79089 402
57.811 406
57.83112 402
57.85123 391
57.87134 415
57.89146 402
57.91157 392
57.93168 438
57.9518 413
57.97191 420
57.99203 391
58.01214 416
58.03225 424
58.05237 365
58.07248 367
58.09259 392
58.11271 418
58.13282 404
58.15294 396
58.17305 396
58.19316 375
58.21328 394
58.23339 424
58.2535 376
58.27362 388
58.29373 431
58.31385 415
58.33396 395
58.35407 375
58.37419 409
58.3943 419
58.41441 377
58.43453 407
58.45464 375
58.47475 403
58.49487 458
58.51498 415
58.5351 457
58.55521 432
58.57532 398
58.59544 425
58.61555 422
58.63566 370
58.65578 397
58.67589 418
58.69601 410
58.71612 349
58.73623 407
58.75635 390
58.77646 412
58.79657 377
58.81669 412
58.8368 391
58.85691 434
58.87703 395
58.89714 420
58.91726 379
58.93737 384
58.95748 397
58.9776 420
58.99771 430
59.01782 382
59.03794 429
59.05805 422
59.07817 403
59.09828 417
59.11839 369
59.13851 419
59.15862 460
59.17873 409
59.19885 406
59.21896 436
59.23908 427
59.25919 412
59.2793 434
59.29942 419
59.31953 449
59.33964 431
59.35976 456
59.37987 427
59.39998 411
59.4201 431
59.44021 432
59.46033 442
59.48044 437
59.50055 440
59.52067 422
59.54078 405
59.56089 459
59.58101 417
59.60112 450
59.62124 423
59.64135 490
59.66146 499
59.68158 488
59.70169 514
59.7218 526
59.74192 582
59.76203 597
59.78215 657
59.80226 724
59.82237 775
59.84249 750
59.8626 806
59.88271 777
59.90283 731
59.92294 681
59.94305 673
59.96317 651
59.98328 622
60.0034 618
60.02351 583
60.04362 623
60.06374 581
60.08385 485
60.10396 517
60.12408 448
60.14419 474
60.16431 476
60.18442 443
60.20453 429
60.22465 424
60.24476 445
60.26487 411
60.28499 439
60.3051 412
60.32522 447
60.34533 430
60.36544 433
60.38556 395
60.40567 406
60.42578 387
60.4459 405
60.46601 411
60.48612 431
60.50624 429
60.52635 455
60.54647 392
60.56658 407
60.58669 427
60.60681 395
60.62692 410
60.64703 420
60.66715 402
60.68726 425
60.70738 421
60.72749 397
60.7476 418
60.76772 406
60.78783 404
60.80794 431
60.82806 406
60.84817 456
60.86828 443
60.8884 412
60.90851 413
60.92863 441
60.94874 422
60.96885 431
60.98897 428
61.00908 460
61.02919 484
61.04931 445
61.06942 468
61.08954 448
61.10965 408
61.12976 455
61.14988 471
61.16999 463
61.1901 413
61.21022 439
61.23033 488
61.25045 445
61.27056 453
61.29067 469
61.31079 500
61.3309 503
61.35101 475
61.37113 454
61.39124 463
61.41135 440
61.43147 477
61.45158 521
61.4717 509
61.49181 475
61.51192 497
61.53204 510
61.55215 510
61.57226 519
61.59238 513
61.61249 508
61.63261 492
61.65272 472
61.67283 478
61.69295 434
61.71306 493
61.73317 506
61.75329 454
61.7734 521
61.79352 505
61.81363 451
61.83374 512
61.85386 498
61.87397 496
61.89408 452
61.9142 544
61.93431 512
61.95442 540
61.97454 479
61.99465 512
62.01477 510
62.03488 516
62.05499 517
62.07511 511
62.09522 534
62.11533 520
62.13545 584
62.15556 525
62.17568 517
62.19579 534
62.2159 505
62.23602 551
62.25613 513
62.27624 508
62.29636 468
62.31647 514
62.33659 472
62.3567 474
62.37681 457
62.39693 455
62.41704 486
62.43715 453
62.45727 435
62.47738 501
62.49749 499
62.51761 455
62.53772 433
62.55784 464
62.57795 447
62.59806 444
62.61818 430
62.63829 439
62.6584 460
62.67852 439
62.69863 456
62.71875 457
62.73886 458
62.75897 433
62.77909 440
62.7992 434
62.81931 391
62.83943 422
62.85954 446
62.87965 411
62.89977 390
62.91988 438
62.94 450
62.96011 432
62.98022 456
63.00034 434
63.02045 429
63.04056 433
63.06068 435
63.08079 433
63.10091 410
63.12102 428
63.14113 426
63.16125 378
63.18136 424
63.20147 405
63.22159 414
63.2417 437
63.26182 380
63.28193 431
63.30204 400
63.32216 408
63.34227 425
63.36238 404
63.3825 397
63.40261 400
63.42272 395
63.44284 397
63.46295 414
63.48307 434
63.50318 402
63.52329 401
63.54341 441
63.56352 450
63.58363 417
63.60375 435
63.62386 417
63.64398 445
63.66409 449
63.6842 433
63.70432 423
63.72443 439
63.74454 458
63.76466 491
63.78477 463
63.80489 456
63.825 479
63.84511 455
63.86523 481
63.88534 490
63.90545 499
63.92557 453
63.94568 507
63.96579 523
63.98591 490
64.00602 497
64.02614 493
64.04625 474
64.06636 461
64.08648 484
64.10659 421
64.1267 472
64.14682 408
64.16693 475
64.18705 418
64.20716 436
64.22727 409
64.24739 392
64.2675 395
64.28761 406
64.30773 434
64.32784 405
64.34796 400
64.36807 377
64.38818 381
64.4083 372
64.42841 379
64.44852 362
64.46864 387
64.48875 423
64.50886 381
64.52898 374
64.54909 402
64.56921 397
64.58932 352
64.60943 382
64.62955 366
64.64966 391
64.66977 368
64.68989 393
64.71 379
64.73012 392
64.75023 405
64.77034 418
64.79046 397
64.81057 379
64.83068 379
64.8508 398
64.87091 378
64.89102 377
64.91114 396
64.93125 362
64.95137 340
64.97148 374
64.99159 415
65.01171 430
65.03182 388
65.05193 402
65.07205 395
65.09216 414
65.11228 367
65.13239 423
65.1525 393
65.17262 370
65.19273 390
65.21284 379
65.23296 390
65.25307 408
65.27319 376
65.2933 396
65.31341 380
65.33353 360
65.35364 364
65.37375 381
65.39387 409
65.41398 364
65.43409 383
65.45421 374
65.47432 403
65.49444 361
65.51455 350
65.53466 380
65.55478 382
65.57489 404
65.595 366
65.61512 381
65.63523 358
65.65535 360
65.67546 377
65.69557 381
65.71569 351
65.7358 376
65.75591 364
65.77603 366
65.79614 376
65.81626 403
65.83637 378
65.85648 369
65.8766 376
65.89671 382
65.91682 370
65.93694 376
65.95705 372
65.97716 401
65.99728 382
66.01739 343
66.03751 376
66.05762 374
66.07773 371
66.09785 372
66.11796 379
66.13807 373
66.15819 404
66.1783 381
66.19842 404
66.21853 385
66.23864 347
66.25876 380
66.27887 390
66.29898 402
66.3191 400
66.33921 398
66.35933 416
66.37944 390
66.39955 385
66.41967 369
66.43978 335
66.45989 339
66.48001 376
66.50012 356
66.52023 367
66.54035 351
66.56046 350
66.58058 375
66.60069 366
66.6208 393
66.64092 359
66.66103 374
66.68114 358
66.70126 365
66.72137 346
66.74149 364
66.7616 367
66.78171 368
66.80183 362
66.82194 382
66.84205 373
66.86217 367
66.88228 373
66.90239 354
66.92251 355
66.94262 375
66.96274 350
66.98285 347
67.00296 378
67.02308 362
67.04319 401
67.0633 376
67.08342 379
67.10353 370
67.12365 395
67.14376 353
67.16387 371
67.18399 375
67.2041 375
67.22421 363
67.24433 363
67.26444 370
67.28456 364
67.30467 391
67.32478 411
67.3449 423
67.36501 432
67.38512 414
67.40524 419
67.42535 387
67.44546 370
67.46558 449
67.48569 472
67.50581 463
67.52592 480
67.54603 489
67.56615 509
67.58626 540
67.60637 584
67.62649 633
67.6466 536
67.66672 596
67.68683 590
67.70694 558
67.72706 508
67.74717 528
67.76728 485
67.7874 515
67.80751 536
67.82763 536
67.84774 499
67.86785 564
67.88797 528
67.90808 559
67.92819 564
67.94831 540
67.96842 566
67.98853 640
68.00865 643
68.02876 676
68.04888 682
68.06899 656
68.0891 677
68.10922 592
68.12933 620
68.14944 635
68.16956 657
68.18967 672
68.20979 658
68.2299 633
68.25001 607
68.27013 622
68.29024 556
68.31035 561
68.33047 509
68.35058 496
68.3707 502
68.39081 445
68.41092 447
68.43104 420
68.45115 481
68.47126 414
68.49138 417
68.51149 411
68.5316 387
68.55172 380
68.57183 401
68.59195 415
68.61206 371
68.63217 385
68.65229 404
68.6724 407
68.69251 377
68.71263 363
68.73274 352
68.75286 339
68.77297 401
68.79308 362
68.8132 394
68.83331 368
68.85342 400
68.87354 368
68.89365 367
68.91376 350
68.93388 354
68.95399 355
68.97411 381
68.99422 375
69.01433 373
69.03445 400
69.05456 369
69.07467 376
69.09479 351
69.1149 376
69.13502 390
69.15513 375
69.17524 347
69.19536 353
69.21547 367
69.23558 337
69.2557 364
69.27581 393
69.29593 385
69.31604 390
69.33615 365
69.35627 345
69.37638 381
69.39649 362
69.41661 367
69.43672 379
69.45683 356
69.47695 365
69.49706 357
69.51718 361
69.53729 362
69.5574 350
69.57752 373
69.59763 367
69.61774 393
69.63786 360
69.65797 390
69.67809 363
69.6982 379
69.71831 341
69.73843 356
69.75854 379
69.77865 381
69.79877 357
69.81888 334
69.839 376
69.85911 367
69.87922 366
69.89934 337
69.91945 342
69.93956 368
69.95968 362
69.97979 359
69.9999 335
70.02002 388
70.04013 366
70.06025 350
70.08036 351
70.10047 374
70.12059 354
70.1407 352
70.16081 345
70.18093 322
70.20104 347
70.22116 394
70.24127 360
70.26138 359
70.2815 358
70.30161 376
70.32172 342
70.34184 354
70.36195 344
70.38207 369
70.40218 356
70.42229 355
70.44241 399
70.46252 359
70.48263 382
70.50275 381
70.52286 344
70.54297 322
70.56309 335
70.5832 342
70.60332 378
70.62343 365
70.64354 335
70.66366 343
70.68377 342
70.70388 358
70.724 371
70.74411 363
70.76423 350
70.78434 344
70.80445 368
70.82457 384
70.84468 364
70.86479 342
70.88491 328
70.90502 331
70.92513 356
70.94525 369
70.96536 350
70.98548 315
71.00559 354
71.0257 345
71.04582 355
71.06593 366
71.08604 385
71.10616 349
71.12627 382
71.14639 361
71.1665 352
71.18661 345
71.20673 353
71.22684 354
71.24695 356
71.26707 388
71.28718 371
71.3073 369
71.32741 316
71.34752 309
71.36764 331
71.38775 357
71.40786 364
71.42798 372
71.44809 365
71.4682 366
71.48832 382
71.50843 357
71.52855 365
71.54866 341
71.56877 370
71.58889 333
71.609 366
71.62911 380
71.64923 343
71.66934 385
71.68946 393
71.70957 351
71.72968 364
71.7498 363
71.76991 361
71.79002 359
71.81014 373
71.83025 365
71.85037 343
71.87048 360
71.89059 364
71.91071 367
71.93082 358
71.95093 363
71.97105 356
71.99116 367
72.01127 378
72.03139 401
72.0515 394
72.07162 353
72.09173 394
72.11184 365
72.13196 361
72.15207 360
72.17218 367
72.1923 374
72.21241 398
72.23253 398
72.25264 384
72.27275 361
72.29287 388
72.31298 374
72.33309 354
72.35321 387
72.37332 400
72.39344 396
72.41355 357
72.43366 353
72.45378 361
72.47389 382
72.494 368
72.51412 397
72.53423 376
72.55434 425
72.57446 344
72.59457 375
72.61469 369
72.6348 384
72.65491 395
72.67503 348
72.69514 379
72.71525 365
72.73537 407
72.75548 379
72.7756 366
72.79571 375
72.81582 396
72.83594 369
72.85605 367
72.87616 399
72.89628 364
72.91639 360
72.9365 392
72.95662 403
72.97673 391
72.99685 389
73.01696 365
73.03707 402
73.05719 376
73.0773 386
73.09741 404
73.11753 392
73.13764 425
73.15776 413
73.17787 387
73.19798 412
73.2181 396
73.23821 404
73.25832 411
73.27844 420
73.29855 424
73.31867 471
73.33878 437
73.35889 463
73.37901 472
73.39912 425
73.41923 442
73.43935 418
73.45946 414
73.47957 422
73.49969 422
73.5198 414
73.53992 411
73.56003 425
73.58014 407
73.60026 408
73.62037 407
73.64048 381
73.6606 401
73.68071 373
73.70083 399
73.72094 376
73.74105 378
73.76117 326
73.78128 329
73.80139 411
73.82151 355
73.84162 353
73.86174 363
73.88185 370
73.90196 350
73.92208 336
73.94219 385
73.9623 365
73.98242 324
74.00253 369
74.02264 379
74.04276 354
74.06287 366
74.08299 359
74.1031 346
74.12321 363
74.14333 374
74.16344 374
74.18355 348
74.20367 375
74.22378 334
74.2439 339
74.26401 373
74.28412 354
74.30424 375
74.32435 346
74.34446 367
74.36458 346
74.38469 375
74.40481 321
74.42492 363
74.44503 361
74.46515 331
74.48526 385
74.50537 335
74.52549 393
74.5456 373
74.56571 343
74.58583 320
74.60594 342
74.62606 336
74.64617 390
74.66628 342
74.6864 350
74.70651 365
74.72662 289
74.74674 352
74.76685 366
74.78697 383
74.80708 317
74.82719 370
74.84731 376
74.86742 363
74.88753 347
74.90765 357
74.92776 352
74.94787 345
74.96799 351
74.9881 373
75.00822 363
75.02833 412
75.04844 375
75.06856 366
75.08867 344
75.10878 375
75.1289 383
75.14901 370
75.16913 353
75.18924 366
75.20935 394
75.22947 349
75.24958 414
75.26969 387
75.28981 354
75.30992 359
75.33004 377
75.35015 365
75.37026 404
75.39038 389
