3.00117 19211
3.02128 19345
3.0414 18537
3.06151 18187
3.08162 17705
3.10174 16857
3.12185 16857
3.14197 15990
3.16208 16008
3.18219 15417
3.20231 14839
3.22242 14688
3.24253 14116
3.26265 13471
3.28276 13246
3.30288 12585
3.32299 12468
3.3431 11880
3.36322 11545
3.38333 11260
3.40344 10881
3.42356 10586
3.44367 9921
3.46379 9810
3.4839 9397
3.50401 9206
3.52413 8986
3.54424 8566
3.56435 8182
3.58447 7853
3.60458 7527
3.62469 7562
3.64481 6782
3.66492 6613
3.68504 6643
3.70515 6299
3.72526 6243
3.74538 5768
3.76549 5554
3.7856 5309
3.80572 4830
3.82583 5076
3.84595 4496
3.86606 4522
3.88617 4218
3.90629 4057
3.9264 4009
3.94651 3693
3.96663 3599
3.98674 3447
4.00686 3210
4.02697 3178
4.04708 2778
4.0672 2856
4.08731 2738
4.10742 2575
4.12754 2551
4.14765 2326
4.16776 2309
4.18788 2196
4.20799 2140
4.22811 2120
4.24822 1939
4.26833 1888
4.28845 1797
4.30856 1738
4.32867 1764
4.34879 1572
4.3689 1564
4.38902 1449
4.40913 1437
4.42924 1550
4.44936 1338
4.46947 1427
4.48958 1387
4.5097 1316
4.52981 1200
4.54992 1136
4.57004 1170
4.59015 1221
4.61027 1082
4.63038 1099
4.65049 1050
4.67061 1042
4.69072 1047
4.71083 985
4.73095 993
4.75106 876
4.77118 888
4.79129 889
4.8114 923
4.83152 877
4.85163 834
4.87174 801
4.89186 846
4.91197 788
4.93209 751
4.9522 756
4.97231 703
4.99243 693
5.01254 646
5.03265 629
5.05277 624
5.07288 678
5.09299 602
5.11311 600
5.13322 630
5.15334 592
5.17345 547
5.19356 517
5.21368 532
5.23379 493
5.2539 527
5.27402 465
5.29413 459
5.31425 482
5.33436 422
5.35447 458
5.37459 425
5.3947 446
5.41481 465
5.43493 394
5.45504 364
5.47516 377
5.49527 365
5.51538 362
5.5355 328
5.55561 349
5.57572 378
5.59584 350
5.61595 347
5.63606 343
5.65618 322
5.67629 304
5.69641 332
5.71652 287
5.73663 274
5.75675 280
5.77686 303
5.79697 307
5.81709 301
5.8372 303
5.85732 264
5.87743 268
5.89754 276
5.91766 252
5.93777 267
5.95788 226
5.978 240
5.99811 293
6.01823 231
6.03834 212
6.05845 234
6.07857 257
6.09868 223
6.11879 251
6.13891 255
6.15902 194
6.17913 219
6.19925 204
6.21936 258
6.23948 246
6.25959 210
6.2797 210
6.29982 232
6.31993 234
6.34004 212
6.36016 204
6.38027 224
6.40039 236
6.4205 222
6.44061 223
6.46073 233
6.48084 185
6.50095 193
6.52107 222
6.54118 213
6.56129 205
6.58141 222
6.60152 199
6.62164 202
6.64175 193
6.66186 205
6.68198 204
6.70209 220
6.7222 185
6.74232 208
6.76243 186
6.78255 211
6.80266 186
6.82277 196
6.84289 203
6.863 209
6.88311 230
6.90323 203
6.92334 200
6.94346 212
6.96357 191
6.98368 189
7.0038 195
7.02391 199
7.04402 191
7.06414 190
7.08425 195
7.10436 234
7.12448 211
7.14459 194
7.16471 199
7.18482 194
7.20493 199
7.22505 207
7.24516 227
7.26527 199
7.28539 212
7.3055 201
7.32562 196
7.34573 223
7.36584 228
7.38596 210
7.40607 188
7.42618 196
7.4463 192
7.46641 201
7.48653 197
7.50664 196
7.52675 203
7.54687 210
7.56698 196
7.58709 192
7.60721 220
7.62732 201
7.64743 190
7.66755 216
7.68766 212
7.70778 206
7.72789 213
7.748 211
7.76812 232
7.78823 218
7.80834 238
7.82846 230
7.84857 220
7.86869 213
7.8888 192
7.90891 181
7.92903 203
7.94914 214
7.96925 222
7.98937 219
8.00948 227
8.0296 213
8.04971 226
8.06982 222
8.08994 209
8.11005 233
8.13016 246
8.15028 233
8.17039 197
8.1905 233
8.21062 190
8.23073 207
8.25085 239
8.27096 225
8.29107 209
8.31119 211
8.3313 217
8.35141 238
8.37153 220
8.39164 212
8.41176 223
8.43187 242
8.45198 247
8.4721 229
8.49221 223
8.51232 210
8.53244 249
8.55255 226
8.57266 211
8.59278 218
8.61289 232
8.63301 231
8.65312 228
8.67323 222
8.69335 237
8.71346 236
8.73357 238
8.75369 261
8.7738 245
8.79392 247
8.81403 224
8.83414 237
8.85426 250
8.87437 254
8.89448 237
8.9146 240
8.93471 231
8.95483 248
8.97494 226
8.99505 220
9.01517 208
9.03528 235
9.05539 236
9.07551 202
9.09562 194
9.11573 222
9.13585 249
9.15596 251
9.17608 228
9.19619 247
9.2163 225
9.23642 246
9.25653 231
9.27664 210
9.29676 232
9.31687 223
9.33699 237
9.3571 231
9.37721 240
9.39733 224
9.41744 226
9.43755 240
9.45767 207
9.47778 257
9.4979 212
9.51801 236
9.53812 224
9.55824 243
9.57835 207
9.59846 251
9.61858 218
9.63869 246
9.6588 264
9.67892 230
9.69903 235
9.71915 253
9.73926 222
9.75937 214
9.77949 237
9.7996 216
9.81971 204
9.83983 237
9.85994 222
9.88006 228
9.90017 242
9.92028 229
9.9404 237
9.96051 221
9.98062 234
10.00074 251
10.02085 221
10.04097 228
10.06108 218
10.08119 244
10.10131 225
10.12142 223
10.14153 243
10.16165 256
10.18176 227
10.20187 236
10.22199 237
10.2421 202
10.26222 241
10.28233 229
10.30244 239
10.32256 229
10.34267 197
10.36278 237
10.3829 244
10.40301 242
10.42313 257
10.44324 242
10.46335 247
10.48347 277
10.50358 259
10.52369 269
10.54381 239
10.56392 247
10.58403 248
10.60415 249
10.62426 222
10.64438 218
10.66449 254
10.6846 240
10.70472 231
10.72483 226
10.74494 264
10.76506 226
10.78517 260
10.80529 254
10.8254 241
10.84551 222
10.86563 218
10.88574 240
10.90585 219
10.92597 245
10.94608 231
10.9662 210
10.98631 235
11.00642 222
11.02654 233
11.04665 255
11.06676 227
11.08688 248
11.10699 249
11.1271 241
11.14722 237
11.16733 265
11.18745 262
11.20756 207
11.22767 237
11.24779 211
11.2679 233
11.28801 234
11.30813 201
11.32824 229
11.34836 204
11.36847 238
11.38858 218
11.4087 219
11.42881 219
11.44892 219
11.46904 244
11.48915 241
11.50927 254
11.52938 226
11.54949 264
11.56961 235
11.58972 250
11.60983 238
11.62995 258
11.65006 229
11.67017 263
11.69029 252
11.7104 224
11.73052 258
11.75063 259
11.77074 236
11.79086 235
11.81097 223
11.83108 263
11.8512 276
11.87131 278
11.89143 276
11.91154 251
11.93165 248
11.95177 233
11.97188 238
11.99199 257
12.01211 246
12.03222 260
12.05234 271
12.07245 282
12.09256 279
12.11268 270
12.13279 272
12.1529 253
12.17302 263
12.19313 287
12.21324 237
12.23336 276
12.25347 307
12.27359 276
12.2937 250
12.31381 259
12.33393 304
12.35404 274
12.37415 285
12.39427 263
12.41438 267
12.4345 270
12.45461 273
12.47472 258
12.49484 237
12.51495 245
12.53506 222
12.55518 217
12.57529 233
12.5954 214
12.61552 247
12.63563 250
12.65575 207
12.67586 242
12.69597 217
12.71609 245
12.7362 230
12.75631 240
12.77643 248
12.79654 251
12.81666 218
12.83677 209
12.85688 230
12.877 240
12.89711 218
12.91722 187
12.93734 245
12.95745 222
12.97757 233
12.99768 192
13.01779 208
13.03791 209
13.05802 225
13.07813 244
13.09825 218
13.11836 188
13.13847 230
13.15859 202
13.1787 240
13.19882 243
13.21893 231
13.23904 193
13.25916 223
13.27927 221
13.29938 227
13.3195 253
13.33961 201
13.35973 221
13.37984 210
13.39995 209
13.42007 221
13.44018 280
13.46029 209
13.48041 213
13.50052 235
13.52064 217
13.54075 209
13.56086 228
13.58098 213
13.60109 209
13.6212 213
13.64132 230
13.66143 235
13.68154 233
13.70166 246
13.72177 257
13.74189 286
13.762 255
13.78211 247
13.80223 282
13.82234 258
13.84245 259
13.86257 252
13.88268 218
13.9028 231
13.92291 237
13.94302 244
13.96314 210
13.98325 232
14.00336 225
14.02348 219
14.04359 212
14.06371 220
14.08382 190
14.10393 197
14.12405 189
14.14416 213
14.16427 171
14.18439 193
14.2045 170
14.22461 198
14.24473 200
14.26484 225
14.28496 203
14.30507 202
14.32518 193
14.3453 200
14.36541 215
14.38552 217
14.40564 184
14.42575 191
14.44587 199
14.46598 202
14.48609 207
14.50621 199
14.52632 195
14.54643 206
14.56655 190
14.58666 207
14.60677 200
14.62689 201
14.647 210
14.66712 205
14.68723 223
14.70734 206
14.72746 234
14.74757 225
14.76768 172
14.7878 211
14.80791 210
14.82803 193
14.84814 222
14.86825 219
14.88837 218
14.90848 186
14.92859 229
14.94871 206
14.96882 225
14.98894 229
15.00905 270
15.02916 226
15.04928 263
15.06939 208
15.0895 191
15.10962 225
15.12973 207
15.14984 218
15.16996 201
15.19007 197
15.21019 185
15.2303 198
15.25041 206
15.27053 189
15.29064 211
15.31075 191
15.33087 207
15.35098 204
15.3711 210
15.39121 190
15.41132 203
15.43144 179
15.45155 191
15.47166 184
15.49178 225
15.51189 182
15.53201 233
15.55212 211
15.57223 218
15.59235 211
15.61246 204
15.63257 203
15.65269 192
15.6728 190
15.69291 215
15.71303 221
15.73314 172
15.75326 196
15.77337 164
15.79348 184
15.8136 158
15.83371 186
15.85382 203
15.87394 163
15.89405 190
15.91417 208
15.93428 181
15.95439 202
15.97451 199
15.99462 213
16.01473 162
16.03485 192
16.05496 188
16.07508 206
16.09519 193
16.1153 181
16.13542 203
16.15553 190
16.17564 191
16.19576 196
16.21587 195
16.23598 211
16.2561 174
16.27621 181
16.29633 171
16.31644 168
16.33655 179
16.35667 202
16.37678 162
16.39689 189
16.41701 183
16.43712 184
16.45724 195
16.47735 171
16.49746 161
16.51758 181
16.53769 171
16.5578 190
16.57792 175
16.59803 180
16.61814 176
16.63826 192
16.65837 183
16.67849 209
16.6986 190
16.71871 178
16.73883 178
16.75894 185
16.77905 190
16.79917 176
16.81928 185
16.8394 171
16.85951 193
16.87962 189
16.89974 175
16.91985 182
16.93996 223
16.96008 180
16.98019 165
17.00031 185
17.02042 185
17.04053 194
17.06065 205
17.08076 191
17.10087 179
17.12099 189
17.1411 180
17.16121 183
17.18133 209
17.20144 200
17.22156 193
17.24167 201
17.26178 157
17.2819 174
17.30201 195
17.32212 187
17.34224 184
17.36235 203
17.38247 201
17.40258 190
17.42269 161
17.44281 197
17.46292 181
17.48303 183
17.50315 179
17.52326 161
17.54338 175
17.56349 204
17.5836 167
17.60372 197
17.62383 188
17.64394 169
17.66406 185
17.68417 185
17.70428 183
17.7244 179
17.74451 187
17.76463 175
17.78474 184
17.80485 189
17.82497 197
17.84508 191
17.86519 217
17.88531 191
17.90542 179
17.92554 192
17.94565 188
17.96576 198
17.98588 176
18.00599 176
18.0261 177
18.04622 181
18.06633 208
18.08645 172
18.10656 204
18.12667 175
18.14679 168
18.1669 205
18.18701 177
18.20713 194
18.22724 201
18.24735 205
18.26747 193
18.28758 194
18.3077 190
18.32781 197
18.34792 181
18.36804 186
18.38815 176
18.40826 178
18.42838 190
18.44849 205
18.46861 197
18.48872 217
18.50883 206
18.52895 182
18.54906 158
18.56917 188
18.58929 197
18.6094 200
18.62951 186
18.64963 199
18.66974 218
18.68986 213
18.70997 184
18.73008 197
18.7502 189
18.77031 202
18.79042 207
18.81054 189
18.83065 205
18.85077 202
18.87088 195
18.89099 190
18.91111 174
18.93122 201
18.95133 203
18.97145 214
18.99156 160
19.01168 191
19.03179 195
19.0519 188
19.07202 191
19.09213 203
19.11224 164
19.13236 180
19.15247 175
19.17258 166
19.1927 209
19.21281 209
19.23293 188
19.25304 225
19.27315 189
19.29327 202
19.31338 194
19.33349 182
19.35361 185
19.37372 182
19.39384 193
19.41395 216
19.43406 212
19.45418 184
19.47429 212
19.4944 213
19.51452 209
19.53463 200
19.55475 223
19.57486 229
19.59497 232
19.61509 217
19.6352 240
19.65531 235
19.67543 238
19.69554 236
19.71565 232
19.73577 258
19.75588 241
19.776 241
19.79611 266
19.81622 255
19.83634 278
19.85645 285
19.87656 290
19.89668 286
19.91679 284
19.93691 293
19.95702 275
19.97713 276
19.99725 251
20.01736 299
20.03747 301
20.05759 321
20.0777 313
20.09782 274
20.11793 297
20.13804 336
20.15816 322
20.17827 311
20.19838 328
20.2185 333
20.23861 329
20.25872 366
20.27884 351
20.29895 363
20.31907 389
20.33918 427
20.35929 395
20.37941 414
20.39952 427
20.41963 382
20.43975 429
20.45986 496
20.47998 494
20.50009 546
20.5202 575
20.54032 713
20.56043 809
20.58054 885
20.60066 1107
20.62077 1337
20.64088 1738
20.661 2090
20.68111 2577
20.70123 3328
20.72134 4052
20.74145 4776
20.76157 4939
20.78168 5241
20.80179 5156
20.82191 4689
20.84202 4143
20.86214 3224
20.88225 2561
20.90236 1812
20.92248 1379
20.94259 1028
20.9627 832
20.98282 683
21.00293 608
21.02305 521
21.04316 525
21.06327 448
21.08339 414
21.1035 382
21.12361 390
21.14373 368
21.16384 360
21.18395 338
21.20407 321
21.22418 323
21.2443 353
21.26441 306
21.28452 296
21.30464 312
21.32475 306
21.34486 295
21.36498 337
21.38509 284
21.40521 310
21.42532 297
21.44543 307
21.46555 308
21.48566 281
21.50577 302
21.52589 279
21.546 304
21.56612 238
21.58623 301
21.60634 305
21.62646 267
21.64657 281
21.66668 249
21.6868 289
21.70691 296
21.72702 322
21.74714 328
21.76725 364
21.78737 365
21.80748 424
21.82759 463
21.84771 486
21.86782 532
21.88793 584
21.90805 589
21.92816 596
21.94828 562
21.96839 522
21.9885 453
22.00862 387
22.02873 361
22.04884 311
22.06896 307
22.08907 317
22.10919 248
22.1293 286
22.14941 281
22.16953 248
22.18964 270
22.20975 246
22.22987 241
22.24998 241
22.27009 239
22.29021 264
22.31032 273
22.33044 260
22.35055 239
22.37066 243
22.39078 257
22.41089 265
22.431 262
22.45112 233
22.47123 220
22.49135 259
22.51146 247
22.53157 241
22.55169 248
22.5718 247
22.59191 225
22.61203 251
22.63214 236
22.65225 217
22.67237 231
22.69248 214
22.7126 268
22.73271 254
22.75282 245
22.77294 263
22.79305 274
22.81316 323
22.83328 300
22.85339 306
22.87351 267
22.89362 273
22.91373 292
22.93385 270
22.95396 288
22.97407 260
22.99419 272
23.0143 250
23.03442 261
23.05453 245
23.07464 241
23.09476 247
23.11487 269
23.13498 307
23.1551 262
23.17521 262
23.19532 231
23.21544 232
23.23555 259
23.25567 249
23.27578 254
23.29589 245
23.31601 276
23.33612 265
23.35623 287
23.37635 268
23.39646 273
23.41658 326
23.43669 316
23.4568 310
23.47692 386
23.49703 357
23.51714 409
23.53726 417
23.55737 338
23.57749 393
23.5976 330
23.61771 320
23.63783 321
23.65794 294
23.67805 292
23.69817 279
23.71828 320
23.73839 317
23.75851 324
23.77862 365
23.79874 365
23.81885 430
23.83896 420
23.85908 429
23.87919 437
23.8993 492
23.91942 493
23.93953 423
23.95965 392
23.97976 372
23.99987 353
24.01999 308
24.0401 356
24.06021 322
24.08033 316
24.10044 336
24.12056 307
24.14067 316
24.16078 380
24.1809 391
24.20101 384
24.22112 402
24.24124 401
24.26135 383
24.28146 345
24.30158 336
24.32169 322
24.34181 314
24.36192 309
24.38203 265
24.40215 270
24.42226 293
24.44237 265
24.46249 269
24.4826 241
24.50272 286
24.52283 259
24.54294 263
24.56306 279
24.58317 300
24.60328 276
24.6234 288
24.64351 280
24.66362 304
24.68374 295
24.70385 291
24.72397 261
24.74408 270
24.76419 294
24.78431 317
24.80442 281
24.82453 283
24.84465 258
24.86476 281
24.88488 290
24.90499 269
24.9251 302
24.94522 299
24.96533 298
24.98544 276
25.00556 283
25.02567 249
25.04579 282
25.0659 248
25.08601 281
25.10613 271
25.12624 257
25.14635 278
25.16647 269
25.18658 286
25.20669 297
25.22681 295
25.24692 282
25.26704 281
25.28715 285
25.30726 309
25.32738 307
25.34749 328
25.3676 351
25.38772 340
25.40783 363
25.42795 393
25.44806 372
25.46817 356
25.48829 389
25.5084 409
25.52851 400
25.54863 446
25.56874 417
25.58886 429
25.60897 440
25.62908 474
25.6492 440
25.66931 471
25.68942 487
25.70954 491
25.72965 487
25.74976 486
25.76988 488
25.78999 516
25.81011 536
25.83022 526
25.85033 549
25.87045 499
25.89056 566
25.91067 517
25.93079 591
25.9509 617
25.97102 636
25.99113 676
26.01124 717
26.03136 763
26.05147 801
26.07158 851
26.0917 957
26.11181 974
26.13193 1028
26.15204 1080
26.17215 1259
26.19227 1370
26.21238 1625
26.23249 1697
26.25261 1865
26.27272 2204
26.29283 2608
26.31295 3107
26.33306 3673
26.35318 4532
26.37329 5373
26.3934 6893
26.41352 8436
26.43363 10422
26.45374 13024
26.47386 15845
26.49397 18977
26.51409 21518
26.5342 23149
26.55431 23878
26.57443 23438
26.59454 21794
26.61465 18733
26.63477 15685
26.65488 12105
26.67499 9072
26.69511 6669
26.71522 4678
26.73534 3351
26.75545 2568
26.77556 1985
26.79568 1662
26.81579 1532
26.8359 1334
26.85602 1246
26.87613 1121
26.89625 992
26.91636 975
26.93647 951
26.95659 854
26.9767 753
26.99681 778
27.01693 681
27.03704 627
27.05716 663
27.07727 626
27.09738 607
27.1175 545
27.13761 541
27.15772 528
27.17784 543
27.19795 505
27.21806 497
27.23818 524
27.25829 526
27.27841 505
27.29852 509
27.31863 532
27.33875 530
27.35886 553
27.37897 588
27.39909 491
27.4192 538
27.43932 548
27.45943 560
27.47954 498
27.49966 547
27.51977 551
27.53988 563
27.56 600
27.58011 637
27.60023 645
27.62034 743
27.64045 852
27.66057 907
27.68068 953
27.70079 1004
27.72091 1013
27.74102 1022
27.76113 997
27.78125 986
27.80136 974
27.82148 946
27.84159 1045
27.8617 924
27.88182 885
27.90193 894
27.92204 798
27.94216 767
27.96227 696
27.98239 620
28.0025 537
28.02261 508
28.04273 497
28.06284 433
28.08295 426
28.10307 414
28.12318 440
28.1433 411
28.16341 415
28.18352 425
28.20364 433
28.22375 469
28.24386 403
28.26398 445
28.28409 347
28.3042 350
28.32432 340
28.34443 300
28.36455 265
28.38466 305
28.40477 263
28.42489 260
28.445 267
28.46511 260
28.48523 270
28.50534 232
28.52546 279
28.54557 248
28.56568 268
28.5858 231
28.60591 300
28.62602 248
28.64614 252
28.66625 252
28.68636 266
28.70648 267
28.72659 255
28.74671 271
28.76682 245
28.78693 250
28.80705 255
28.82716 251
28.84727 241
28.86739 245
28.8875 281
28.90762 243
28.92773 264
28.94784 266
28.96796 245
28.98807 245
29.00818 253
29.0283 264
29.04841 254
29.06853 236
29.08864 232
29.10875 272
29.12887 249
29.14898 242
29.16909 233
29.18921 270
29.20932 256
29.22943 248
29.24955 258
29.26966 241
29.28978 259
29.30989 281
29.33 277
29.35012 257
29.37023 284
29.39034 254
29.41046 272
29.43057 268
29.45069 262
29.4708 281
29.49091 243
29.51103 284
29.53114 269
29.55125 260
29.57137 287
29.59148 259
29.6116 282
29.63171 306
29.65182 295
29.67194 301
29.69205 301
29.71216 311
29.73228 339
29.75239 303
29.7725 316
29.79262 335
29.81273 295
29.83285 286
29.85296 228
29.87307 251
29.89319 263
29.9133 252
29.93341 240
29.95353 242
29.97364 233
29.99376 238
30.01387 257
30.03398 244
30.0541 239
30.07421 254
30.09432 261
30.11444 288
30.13455 327
30.15467 280
30.17478 279
30.19489 319
30.21501 336
30.23512 335
30.25523 339
30.27535 345
30.29546 368
30.31557 368
30.33569 307
30.3558 350
30.37592 379
30.39603 345
30.41614 337
30.43626 327
30.45637 284
30.47648 236
30.4966 256
30.51671 244
30.53683 238
30.55694 257
30.57705 242
30.59717 236
30.61728 255
30.63739 233
30.65751 243
30.67762 247
30.69773 242
30.71785 240
30.73796 232
30.75808 240
30.77819 266
30.7983 219
30.81842 240
30.83853 237
30.85864 223
30.87876 221
30.89887 213
30.91899 191
30.9391 200
30.95921 219
30.97933 187
30.99944 201
31.01955 211
31.03967 206
31.05978 196
31.0799 223
31.10001 232
31.12012 227
31.14024 224
31.16035 232
31.18046 240
31.20058 231
31.22069 223
31.2408 239
31.26092 284
31.28103 255
31.30115 242
31.32126 249
31.34137 278
31.36149 242
31.3816 239
31.40171 221
31.42183 218
31.44194 217
31.46206 239
31.48217 206
31.50228 243
31.5224 211
31.54251 206
31.56262 231
31.58274 213
31.60285 210
31.62297 192
31.64308 201
31.66319 213
31.68331 209
31.70342 211
31.72353 220
31.74365 198
31.76376 178
31.78387 196
31.80399 193
31.8241 178
31.84422 183
31.86433 219
31.88444 193
31.90456 211
31.92467 207
31.94478 192
31.9649 169
31.98501 199
32.00513 224
32.02524 189
32.04535 232
32.06547 191
32.08558 169
32.10569 203
32.12581 200
32.14592 202
32.16604 208
32.18615 183
32.20626 207
32.22638 205
32.24649 197
32.2666 182
32.28672 163
32.30683 207
32.32694 207
32.34706 189
32.36717 200
32.38729 201
32.4074 190
32.42751 205
32.44763 198
32.46774 170
32.48785 190
32.50797 168
32.52808 174
32.5482 183
32.56831 185
32.58842 184
32.60854 180
32.62865 176
32.64876 169
32.66888 183
32.68899 190
32.7091 187
32.72922 197
32.74933 193
32.76945 175
32.78956 197
32.80967 192
32.82979 178
32.8499 186
32.87001 190
32.89013 178
32.91024 194
32.93036 176
32.95047 194
32.97058 180
32.9907 190
33.01081 175
33.03092 179
33.05104 175
33.07115 178
33.09127 218
33.11138 202
33.13149 168
33.15161 190
33.17172 180
33.19183 184
33.21195 179
33.23206 169
33.25217 179
33.27229 149
33.2924 152
33.31252 168
33.33263 160
33.35274 158
33.37286 181
33.39297 164
33.41308 158
33.4332 176
33.45331 164
33.47343 173
33.49354 177
33.51365 179
33.53377 205
33.55388 192
33.57399 180
33.59411 201
33.61422 184
33.63434 192
33.65445 220
33.67456 215
33.69468 224
33.71479 196
33.7349 232
33.75502 215
33.77513 216
33.79524 230
33.81536 184
33.83547 205
33.85559 206
33.8757 180
33.89581 193
33.91593 201
33.93604 186
33.95615 196
33.97627 177
33.99638 183
34.0165 158
34.03661 188
34.05672 199
34.07684 210
34.09695 184
34.11706 187
34.13718 177
34.15729 207
34.17741 185
34.19752 184
34.21763 195
34.23775 191
34.25786 203
34.27797 182
34.29809 194
34.3182 169
34.33831 200
34.35843 176
34.37854 193
34.39866 190
34.41877 188
34.43888 175
34.459 148
34.47911 178
34.49922 183
34.51934 213
34.53945 208
34.55957 214
34.57968 213
34.59979 193
34.61991 180
34.64002 224
34.66013 192
34.68025 212
34.70036 206
34.72047 201
34.74059 202
34.7607 229
34.78082 209
34.80093 183
34.82104 206
34.84116 208
34.86127 232
34.88138 248
34.9015 238
34.92161 217
34.94173 209
34.96184 236
34.98195 218
35.00207 198
35.02218 232
35.04229 235
35.06241 248
35.08252 232
35.10264 250
35.12275 265
35.14286 255
35.16298 302
35.18309 296
35.2032 295
35.22332 274
35.24343 277
35.26354 307
35.28366 279
35.30377 252
35.32389 282
35.344 229
35.36411 253
35.38423 238
35.40434 242
35.42445 268
35.44457 254
35.46468 232
35.4848 225
35.50491 245
35.52502 225
35.54514 229
35.56525 242
35.58536 212
35.60548 220
35.62559 220
35.64571 238
35.66582 253
35.68593 235
35.70605 236
35.72616 228
35.74627 241
35.76639 193
35.7865 231
35.80661 239
35.82673 227
35.84684 230
35.86696 236
35.88707 250
35.90718 260
35.9273 241
35.94741 260
35.96752 268
35.98764 288
36.00775 282
36.02787 293
36.04798 303
36.06809 353
36.08821 334
36.10832 339
36.12843 386
36.14855 335
36.16866 428
36.18878 428
36.20889 485
36.229 506
36.24912 538
36.26923 684
36.28934 716
36.30946 818
36.32957 933
36.34968 1118
36.3698 1302
36.38991 1391
36.41003 1597
36.43014 1675
36.45025 1672
36.47037 1708
36.49048 1542
36.51059 1385
36.53071 1264
36.55082 1125
36.57094 885
36.59105 744
36.61116 620
36.63128 484
36.65139 427
36.6715 356
36.69162 276
36.71173 294
36.73184 287
36.75196 286
36.77207 306
36.79219 252
36.8123 253
36.83241 253
36.85253 267
36.87264 253
36.89275 318
36.91287 254
36.93298 244
36.9531 239
36.97321 231
36.99332 222
37.01344 254
37.03355 215
37.05366 226
37.07378 215
37.09389 209
37.11401 238
37.13412 197
37.15423 214
37.17435 215
37.19446 231
37.21457 195
37.23469 223
37.2548 205
37.27491 180
37.29503 200
37.31514 203
37.33526 226
37.35537 205
37.37548 226
37.3956 211
37.41571 228
37.43582 227
37.45594 231
37.47605 220
37.49617 238
37.51628 201
37.53639 218
37.55651 238
37.57662 213
37.59673 212
37.61685 188
37.63696 199
37.65708 187
37.67719 190
37.6973 189
37.71742 233
37.73753 190
37.75764 183
37.77776 187
37.79787 170
37.81798 187
37.8381 173
37.85821 182
37.87833 183
37.89844 201
37.91855 198
37.93867 200
37.95878 220
37.97889 197
37.99901 215
38.01912 180
38.03924 147
38.05935 180
38.07946 192
38.09958 189
38.11969 196
38.1398 226
38.15992 212
38.18003 194
38.20015 216
38.22026 210
38.24037 189
38.26049 197
38.2806 190
38.30071 209
38.32083 208
38.34094 208
38.36105 235
38.38117 205
38.40128 203
38.4214 230
38.44151 228
38.46162 234
38.48174 233
38.50185 212
38.52196 211
38.54208 210
38.56219 210
38.58231 208
38.60242 203
38.62253 211
38.64265 192
38.66276 185
38.68287 218
38.70299 212
38.7231 228
38.74321 189
38.76333 225
38.78344 219
38.80356 227
38.82367 239
38.84378 211
38.8639 224
38.88401 256
38.90412 253
38.92424 243
38.94435 270
38.96447 281
38.98458 299
39.00469 286
39.02481 288
39.04492 372
39.06503 365
39.08515 331
39.10526 419
39.12538 454
39.14549 450
39.1656 563
39.18572 644
39.20583 720
39.22594 776
39.24606 880
39.26617 1022
39.28628 1126
39.3064 1339
39.32651 1453
39.34663 1555
39.36674 1609
39.38685 1588
39.40697 1504
39.42708 1345
39.44719 1240
39.46731 1086
39.48742 927
39.50754 838
39.52765 687
39.54776 570
39.56788 470
39.58799 396
39.6081 359
39.62822 330
39.64833 267
39.66845 308
39.68856 284
39.70867 267
39.72879 262
39.7489 239
39.76901 253
39.78913 280
39.80924 243
39.82935 257
39.84947 251
39.86958 279
39.8897 265
39.90981 279
39.92992 302
39.95004 296
39.97015 329
39.99026 353
40.01038 414
40.03049 466
40.05061 469
40.07072 563
40.09083 561
40.11095 704
40.13106 693
40.15117 839
40.17129 861
40.1914 875
40.21152 855
40.23163 815
40.25174 722
40.27186 709
40.29197 615
40.31208 559
40.3322 448
40.35231 400
40.37242 339
40.39254 302
40.41265 265
40.43277 264
40.45288 213
40.47299 199
40.49311 214
40.51322 211
40.53333 208
40.55345 227
40.57356 178
40.59368 205
40.61379 192
40.6339 195
40.65402 202
40.67413 205
40.69424 209
40.71436 215
40.73447 189
40.75458 179
40.7747 192
40.79481 192
40.81493 205
40.83504 200
40.85515 183
40.87527 207
40.89538 163
40.91549 201
40.93561 203
40.95572 190
40.97584 174
40.99595 175
41.01606 194
41.03618 165
41.05629 205
41.0764 203
41.09652 179
41.11663 197
41.13675 182
41.15686 190
41.17697 182
41.19709 178
41.2172 164
41.23731 196
41.25743 160
41.27754 224
41.29765 174
41.31777 196
41.33788 198
41.358 198
41.37811 181
41.39822 180
41.41834 195
41.43845 194
41.45856 191
41.47868 174
41.49879 199
41.51891 206
41.53902 206
41.55913 217
41.57925 205
41.59936 196
41.61947 238
41.63959 185
41.6597 208
41.67982 220
41.69993 195
41.72004 244
41.74016 201
41.76027 208
41.78038 235
41.8005 206
41.82061 215
41.84072 212
41.86084 213
41.88095 227
41.90107 263
41.92118 225
41.94129 243
41.96141 259
41.98152 252
42.00163 267
42.02175 280
42.04186 266
42.06198 329
42.08209 352
42.1022 391
42.12232 414
42.14243 428
42.16254 485
42.18266 596
42.20277 597
42.22289 715
42.243 780
42.26311 866
42.28323 997
42.30334 1028
42.32345 1144
42.34357 1131
42.36368 1164
42.38379 1125
42.40391 1053
42.42402 914
42.44414 848
42.46425 712
42.48436 601
42.50448 557
42.52459 482
42.5447 359
42.56482 338
42.58493 296
42.60505 286
42.62516 270
42.64527 233
42.66539 273
42.6855 243
42.70561 270
42.72573 248
42.74584 225
42.76595 247
42.78607 258
42.80618 244
42.8263 230
42.84641 231
42.86652 231
42.88664 224
42.90675 226
42.92686 242
42.94698 191
42.96709 199
42.98721 184
43.00732 195
43.02743 208
43.04755 203
43.06766 185
43.08777 184
43.10789 182
43.128 172
43.14812 192
43.16823 163
43.18834 173
43.20846 196
43.22857 192
43.24868 188
43.2688 195
43.28891 177
43.30902 186
43.32914 179
43.34925 177
43.36937 156
43.38948 159
43.40959 155
43.42971 156
43.44982 155
43.46993 178
43.49005 161
43.51016 194
43.53028 146
43.55039 143
43.5705 160
43.59062 162
43.61073 167
43.63084 155
43.65096 152
43.67107 167
43.69119 183
43.7113 167
43.73141 168
43.75153 154
43.77164 170
43.79175 151
43.81187 194
43.83198 163
43.85209 168
43.87221 151
43.89232 166
43.91244 167
43.93255 149
43.95266 149
43.97278 154
43.99289 188
44.013 168
44.03312 166
44.05323 160
44.07335 170
44.09346 167
44.11357 171
44.13369 166
44.1538 170
44.17391 158
44.19403 148
44.21414 157
44.23426 161
44.25437 166
44.27448 171
44.2946 167
44.31471 173
44.33482 202
44.35494 148
44.37505 166
44.39516 155
44.41528 174
44.43539 149
44.45551 157
44.47562 158
44.49573 184
44.51585 167
44.53596 184
44.55607 142
44.57619 158
44.5963 172
44.61642 200
44.63653 169
44.65664 152
44.67676 176
44.69687 187
44.71698 166
44.7371 181
44.75721 190
44.77732 175
44.79744 198
44.81755 159
44.83767 187
44.85778 179
44.87789 171
44.89801 197
44.91812 191
44.93823 185
44.95835 173
44.97846 182
44.99858 181
45.01869 194
45.0388 159
45.05892 188
45.07903 192
45.09914 206
45.11926 190
45.13937 168
45.15949 221
45.1796 208
45.19971 209
45.21983 197
45.23994 174
45.26005 194
45.28017 181
45.30028 239
45.32039 231
45.34051 218
45.36062 240
45.38074 258
45.40085 274
45.42096 314
45.44108 299
45.46119 327
45.4813 346
45.50142 359
45.52153 448
45.54165 502
45.56176 518
45.58187 579
45.60199 612
45.6221 748
45.64221 783
45.66233 841
45.68244 797
45.70256 801
45.72267 835
45.74278 730
45.7629 667
45.78301 636
45.80312 544
45.82324 491
45.84335 418
45.86346 383
45.88358 336
45.90369 276
45.92381 255
45.94392 213
45.96403 214
45.98415 221
46.00426 194
46.02437 194
46.04449 189
46.0646 167
46.08472 172
46.10483 167
46.12494 183
46.14506 158
46.16517 180
46.18528 171
46.2054 169
46.22551 174
46.24563 159
46.26574 167
46.28585 166
46.30597 168
46.32608 146
46.34619 169
46.36631 171
46.38642 149
46.40653 159
46.42665 133
46.44676 143
46.46688 167
46.48699 143
46.5071 154
46.52722 168
46.54733 155
46.56744 159
46.58756 161
46.60767 170
46.62779 146
46.6479 178
46.66801 185
46.68813 167
46.70824 190
46.72835 167
46.74847 161
46.76858 182
46.78869 135
46.80881 169
46.82892 163
46.84904 177
46.86915 159
46.88926 154
46.90938 151
46.92949 174
46.9496 161
46.96972 164
46.98983 174
47.00995 155
47.03006 187
47.05017 187
47.07029 174
47.0904 177
47.11051 175
47.13063 173
47.15074 160
47.17086 174
47.19097 177
47.21108 164
47.2312 170
47.25131 162
47.27142 171
47.29154 171
47.31165 158
47.33176 173
47.35188 210
47.37199 204
47.39211 184
47.41222 190
47.43233 183
47.45245 181
47.47256 189
47.49267 174
47.51279 177
47.5329 162
47.55302 171
47.57313 176
47.59324 138
47.61336 153
47.63347 157
47.65358 169
47.6737 162
47.69381 160
47.71393 137
47.73404 172
47.75415 159
47.77427 160
47.79438 145
47.81449 162
47.83461 160
47.85472 168
47.87483 170
47.89495 137
47.91506 146
47.93518 147
47.95529 144
47.9754 143
47.99552 145
48.01563 184
48.03574 191
48.05586 163
48.07597 170
48.09609 166
48.1162 175
48.13631 182
48.15643 168
48.17654 186
48.19665 198
48.21677 166
48.23688 173
48.257 181
48.27711 180
48.29722 172
48.31734 182
48.33745 167
48.35756 172
48.37768 189
48.39779 167
48.4179 179
48.43802 165
48.45813 184
48.47825 159
48.49836 177
48.51847 169
48.53859 179
48.5587 151
48.57881 194
48.59893 188
48.61904 183
48.63916 174
48.65927 186
48.67938 189
48.6995 165
48.71961 160
48.73972 134
48.75984 207
48.77995 177
48.80006 196
48.82018 169
48.84029 200
48.86041 222
48.88052 196
48.90063 207
48.92075 213
48.94086 232
48.96097 191
48.98109 235
49.0012 220
49.02132 198
49.04143 199
49.06154 229
49.08166 201
49.10177 259
49.12188 239
49.142 222
49.16211 213
49.18223 223
49.20234 200
49.22245 217
49.24257 210
49.26268 209
49.28279 214
49.30291 208
49.32302 227
49.34313 216
49.36325 190
49.38336 227
49.40348 260
49.42359 227
49.4437 221
49.46382 251
49.48393 287
49.50404 271
49.52416 291
49.54427 309
49.56439 329
49.5845 354
49.60461 366
49.62473 386
49.64484 379
49.66495 433
49.68507 451
49.70518 500
49.7253 536
49.74541 616
49.76552 644
49.78564 745
49.80575 815
49.82586 939
49.84598 1038
49.86609 1106
49.8862 1317
49.90632 1411
49.92643 1657
49.94655 1892
49.96666 2116
49.98677 2247
50.00689 2531
50.027 2469
50.04711 2425
50.06723 2376
50.08734 2168
50.10746 2044
50.12757 1738
50.14768 1679
50.1678 1391
50.18791 1274
50.20802 1038
50.22814 874
50.24825 727
50.26837 599
50.28848 505
50.30859 392
50.32871 373
50.34882 313
50.36893 353
50.38905 321
50.40916 320
50.42927 336
50.44939 349
50.4695 303
50.48962 302
50.50973 315
50.52984 285
50.54996 304
50.57007 290
50.59018 309
50.6103 256
50.63041 281
50.65053 244
50.67064 238
50.69075 249
50.71087 246
50.73098 221
50.75109 214
50.77121 214
50.79132 195
50.81143 220
50.83155 218
50.85166 203
50.87178 194
50.89189 187
50.912 201
50.93212 201
50.95223 177
50.97234 197
50.99246 164
51.01257 217
51.03269 209
51.0528 212
51.07291 205
51.09303 215
51.11314 206
51.13325 216
51.15337 217
51.17348 213
51.1936 197
51.21371 235
51.23382 240
51.25394 228
51.27405 217
51.29416 201
51.31428 187
51.33439 194
51.3545 201
51.37462 201
51.39473 201
51.41485 164
51.43496 167
51.45507 148
51.47519 165
51.4953 153
51.51541 151
51.53553 163
51.55564 157
51.57576 173
51.59587 158
51.61598 156
51.6361 150
51.65621 149
51.67632 170
51.69644 134
51.71655 158
51.73667 161
51.75678 161
51.77689 165
51.79701 153
51.81712 149
51.83723 160
51.85735 146
51.87746 144
51.89757 142
51.91769 170
51.9378 159
51.95792 165
51.97803 166
51.99814 171
52.01826 176
52.03837 158
52.05848 164
52.0786 166
52.09871 170
52.11883 164
52.13894 173
52.15905 163
52.17917 164
52.19928 161
52.21939 155
52.23951 155
52.25962 148
52.27974 152
52.29985 156
52.31996 163
52.34008 156
52.36019 153
52.3803 172
52.40042 164
52.42053 154
52.44064 171
52.46076 144
52.48087 164
52.50099 179
52.5211 164
52.54121 179
52.56133 161
52.58144 169
52.60155 146
52.62167 176
52.64178 175
52.6619 156
52.68201 175
52.70212 160
52.72224 172
52.74235 185
52.76246 174
52.78258 193
52.80269 180
52.8228 167
52.84292 179
52.86303 173
52.88315 161
52.90326 165
52.92337 179
52.94349 162
52.9636 161
52.98371 184
53.00383 161
53.02394 187
53.04406 182
53.06417 173
53.08428 162
53.1044 175
53.12451 150
53.14462 160
53.16474 173
53.18485 159
53.20497 157
53.22508 191
53.24519 147
53.26531 181
53.28542 183
53.30553 160
53.32565 177
53.34576 178
53.36587 164
53.38599 149
53.4061 163
53.42622 154
53.44633 172
53.46644 158
53.48656 166
53.50667 149
53.52678 146
53.5469 173
53.56701 145
53.58713 165
53.60724 176
53.62735 152
53.64747 174
53.66758 160
53.68769 168
53.70781 158
53.72792 156
53.74804 171
53.76815 169
53.78826 181
53.80838 185
53.82849 180
53.8486 186
53.86872 174
53.88883 170
53.90894 189
53.92906 212
53.94917 206
53.96929 186
53.9894 174
54.00951 207
54.02963 159
54.04974 213
54.06985 182
54.08997 175
54.11008 174
54.1302 212
54.15031 181
54.17042 176
54.19054 171
54.21065 210
54.23076 166
54.25088 208
54.27099 207
54.29111 239
54.31122 230
54.33133 225
54.35145 219
54.37156 244
54.39167 233
54.41179 249
54.4319 273
54.45201 292
54.47213 287
54.49224 304
54.51236 331
54.53247 347
54.55258 395
54.5727 383
54.59281 455
54.61292 461
54.63304 551
54.65315 630
54.67327 660
54.69338 709
54.71349 750
54.73361 789
54.75372 848
54.77383 828
54.79395 809
54.81406 774
54.83417 745
54.85429 642
54.8744 612
54.89452 585
54.91463 552
54.93474 495
54.95486 489
54.97497 411
54.99508 432
55.0152 356
55.03531 344
55.05543 358
55.07554 341
55.09565 356
55.11577 381
55.13588 401
55.15599 428
55.17611 422
55.19622 481
55.21634 471
55.23645 448
55.25656 438
55.27668 394
55.29679 408
55.3169 345
55.33702 389
55.35713 324
55.37724 311
55.39736 317
55.41747 278
55.43759 258
55.4577 242
55.47781 206
55.49793 227
55.51804 213
55.53815 204
55.55827 202
55.57838 200
55.5985 176
55.61861 196
55.63872 168
55.65884 174
55.67895 200
55.69906 174
55.71918 172
55.73929 185
55.75941 162
55.77952 161
55.79963 171
55.81975 136
55.83986 169
55.85997 176
55.88009 143
55.9002 154
55.92031 152
55.94043 143
55.96054 171
55.98066 180
56.00077 157
56.02088 157
56.041 171
56.06111 153
56.08122 149
56.10134 138
56.12145 153
56.14157 158
56.16168 146
56.18179 150
56.20191 158
56.22202 162
56.24213 132
56.26225 167
56.28236 161
56.30248 138
56.32259 160
56.3427 152
56.36282 120
56.38293 141
56.40304 151
56.42316 151
56.44327 147
56.46338 156
56.4835 124
56.50361 151
56.52373 137
56.54384 133
56.56395 143
56.58407 157
56.60418 152
56.62429 146
56.64441 158
56.66452 166
56.68464 146
56.70475 176
56.72486 147
56.74498 154
56.76509 145
56.7852 124
56.80532 148
56.82543 153
56.84554 141
56.86566 149
56.88577 154
56.90589 138
56.926 146
56.94611 170
56.96623 176
56.98634 157
57.00645 173
57.02657 155
57.04668 174
57.0668 192
57.08691 205
57.10702 215
57.12714 177
57.14725 205
57.16736 185
57.18748 173
57.20759 172
57.22771 187
57.24782 194
57.26793 172
57.28805 181
57.30816 177
57.32827 175
57.34839 176
57.3685 170
57.38861 173
57.40873 159
57.42884 160
57.44896 174
57.46907 156
57.48918 165
57.5093 158
57.52941 168
57.54952 190
57.56964 171
57.58975 168
57.60987 157
57.62998 141
57.65009 154
57.67021 162
57.69032 150
57.71043 169
57.73055 142
57.75066 129
57.77078 145
57.79089 142
57.811 160
57.83112 158
57.85123 134
57.87134 190
57.89146 158
57.91157 189
57.93168 161
57.9518 152
57.97191 162
57.99203 161
58.01214 162
58.03225 160
58.05237 140
58.07248 150
58.09259 163
58.11271 168
58.13282 171
58.15294 166
58.17305 165
58.19316 171
58.21328 160
58.23339 146
58.2535 166
58.27362 162
58.29373 166
58.31385 190
58.33396 167
58.35407 155
58.37419 170
58.3943 171
58.41441 183
58.43453 142
58.45464 173
58.47475 178
58.49487 173
58.51498 165
58.5351 162
58.55521 170
58.57532 175
58.59544 175
58.61555 154
58.63566 170
58.65578 172
58.67589 159
58.69601 169
58.71612 166
58.73623 169
58.75635 149
58.77646 155
58.79657 163
58.81669 156
58.8368 160
58.85691 152
58.87703 165
58.89714 163
58.91726 176
58.93737 175
58.95748 159
58.9776 168
58.99771 146
59.01782 163
59.03794 185
59.05805 176
59.07817 181
59.09828 176
59.11839 158
59.13851 182
59.15862 200
59.17873 197
59.19885 206
59.21896 211
59.23908 220
59.25919 199
59.2793 240
59.29942 220
59.31953 258
59.33964 239
59.35976 250
59.37987 248
59.39998 277
59.4201 247
59.44021 286
59.46033 327
59.48044 326
59.50055 354
59.52067 389
59.54078 391
59.56089 408
59.58101 491
59.60112 513
59.62124 581
59.64135 659
59.66146 721
59.68158 797
59.70169 925
59.7218 1043
59.74192 1161
59.76203 1269
59.78215 1343
59.80226 1526
59.82237 1595
59.84249 1677
59.8626 1619
59.88271 1571
59.90283 1394
59.92294 1289
59.94305 1159
59.96317 1084
59.98328 1019
60.0034 940
60.02351 870
60.04362 753
60.06374 690
60.08385 567
60.10396 512
60.12408 440
60.14419 355
60.16431 273
60.18442 287
60.20453 271
60.22465 254
60.24476 262
60.26487 242
60.28499 215
60.3051 230
60.32522 210
60.34533 186
60.36544 191
60.38556 208
60.40567 206
60.42578 196
60.4459 177
60.46601 176
60.48612 172
60.50624 193
60.52635 176
60.54647 188
60.56658 174
60.58669 178
60.60681 176
60.62692 174
60.64703 137
60.66715 170
60.68726 170
60.70738 157
60.72749 183
60.7476 135
60.76772 168
60.78783 162
60.80794 160
60.82806 180
60.84817 181
60.86828 187
60.8884 169
60.90851 161
60.92863 157
60.94874 186
60.96885 159
60.98897 193
61.00908 164
61.02919 191
61.04931 161
61.06942 183
61.08954 173
61.10965 178
61.12976 143
61.14988 171
61.16999 167
61.1901 173
61.21022 173
61.23033 160
61.25045 169
61.27056 164
61.29067 138
61.31079 154
61.3309 158
61.35101 169
61.37113 144
61.39124 167
61.41135 150
61.43147 153
61.45158 153
61.4717 144
61.49181 139
61.51192 167
61.53204 174
61.55215 169
61.57226 153
61.59238 177
61.61249 152
61.63261 201
61.65272 176
61.67283 156
61.69295 162
61.71306 165
61.73317 178
61.75329 178
61.7734 160
61.79352 169
61.81363 177
61.83374 195
61.85386 160
61.87397 169
61.89408 191
61.9142 167
61.93431 168
61.95442 165
61.97454 192
61.99465 163
62.01477 190
62.03488 185
62.05499 187
62.07511 200
62.09522 176
62.11533 183
62.13545 176
62.15556 165
62.17568 166
62.19579 173
62.2159 198
62.23602 142
62.25613 190
62.27624 162
62.29636 184
62.31647 166
62.33659 154
62.3567 171
62.37681 166
62.39693 166
62.41704 164
62.43715 174
62.45727 173
62.47738 168
62.49749 164
62.51761 154
62.53772 163
62.55784 173
62.57795 178
62.59806 189
62.61818 153
62.63829 157
62.6584 182
62.67852 157
62.69863 163
62.71875 150
62.73886 162
62.75897 196
62.77909 166
62.7992 127
62.81931 156
62.83943 158
62.85954 163
62.87965 148
62.89977 182
62.91988 191
62.94 151
62.96011 165
62.98022 149
63.00034 153
63.02045 172
63.04056 159
63.06068 166
63.08079 172
63.10091 146
63.12102 180
63.14113 173
63.16125 168
63.18136 163
63.20147 178
63.22159 156
63.2417 162
63.26182 160
63.28193 175
63.30204 182
63.32216 176
63.34227 171
63.36238 182
63.3825 170
63.40261 178
63.42272 163
63.44284 181
63.46295 211
63.48307 188
63.50318 206
63.52329 193
63.54341 201
63.56352 221
63.58363 214
63.60375 232
63.62386 210
63.64398 254
63.66409 240
63.6842 246
63.70432 263
63.72443 253
63.74454 272
63.76466 308
63.78477 325
63.80489 314
63.825 358
63.84511 354
63.86523 383
63.88534 452
63.90545 384
63.92557 436
63.94568 393
63.96579 436
63.98591 383
64.00602 350
64.02614 330
64.04625 322
64.06636 299
64.08648 319
64.10659 293
64.1267 283
64.14682 276
64.16693 245
64.18705 193
64.20716 210
64.22727 175
64.24739 176
64.2675 153
64.28761 179
64.30773 163
64.32784 137
64.34796 160
64.36807 150
64.38818 165
64.4083 153
64.42841 157
64.44852 146
64.46864 175
64.48875 166
64.50886 172
64.52898 155
64.54909 151
64.56921 154
64.58932 162
64.60943 161
64.62955 162
64.64966 147
64.66977 155
64.68989 150
64.71 157
64.73012 153
64.75023 162
64.77034 150
64.79046 149
64.81057 164
64.83068 162
64.8508 147
64.87091 141
64.89102 155
64.91114 174
64.93125 149
64.95137 169
64.97148 168
64.99159 159
65.01171 186
65.03182 131
65.05193 162
65.07205 143
65.09216 151
65.11228 181
65.13239 150
65.1525 169
65.17262 167
65.19273 166
65.21284 176
65.23296 164
65.25307 173
65.27319 163
65.2933 173
65.31341 165
65.33353 170
65.35364 169
65.37375 131
65.39387 167
65.41398 165
65.43409 176
65.45421 173
65.47432 192
65.49444 180
65.51455 207
65.53466 184
65.55478 194
65.57489 191
65.595 180
65.61512 227
65.63523 227
65.65535 213
65.67546 221
65.69557 240
65.71569 221
65.7358 197
65.75591 179
65.77603 178
65.79614 181
65.81626 167
65.83637 180
65.85648 201
65.8766 183
65.89671 181
65.91682 174
65.93694 164
65.95705 169
65.97716 173
65.99728 167
66.01739 165
66.03751 174
66.05762 165
66.07773 177
66.09785 156
66.11796 157
66.13807 159
66.15819 140
66.1783 143
66.19842 177
66.21853 153
66.23864 148
66.25876 137
66.27887 149
66.29898 158
66.3191 182
66.33921 161
66.35933 177
66.37944 178
66.39955 172
66.41967 169
66.43978 165
66.45989 153
66.48001 165
66.50012 159
66.52023 152
66.54035 170
66.56046 174
66.58058 171
66.60069 150
66.6208 170
66.64092 168
66.66103 187
66.68114 187
66.70126 157
66.72137 174
66.74149 172
66.7616 196
66.78171 158
66.80183 181
66.82194 186
66.84205 216
66.86217 167
66.88228 181
66.90239 168
66.92251 180
66.94262 204
66.96274 201
66.98285 195
67.00296 228
67.02308 212
67.04319 199
67.0633 200
67.08342 216
67.10353 259
67.12365 223
67.14376 211
67.16387 254
67.18399 263
67.2041 256
67.22421 265
67.24433 300
67.26444 285
67.28456 311
67.30467 310
67.32478 315
67.3449 384
67.36501 400
67.38512 421
67.40524 424
67.42535 514
67.44546 559
67.46558 597
67.48569 730
67.50581 730
67.52592 751
67.54603 902
67.56615 1008
67.58626 1019
67.60637 1103
67.62649 1137
67.6466 1107
67.66672 1086
67.68683 997
67.70694 1010
67.72706 932
67.74717 932
67.76728 902
67.7874 928
67.80751 985
67.82763 1060
67.84774 1084
67.86785 1052
67.88797 1080
67.90808 1135
67.92819 1222
67.94831 1244
67.96842 1269
67.98853 1370
68.00865 1437
68.02876 1509
68.04888 1517
68.06899 1450
68.0891 1473
68.10922 1386
68.12933 1339
68.14944 1322
68.16956 1369
68.18967 1401
68.20979 1331
68.2299 1310
68.25001 1217
68.27013 1053
68.29024 969
68.31035 805
68.33047 767
68.35058 659
68.3707 598
68.39081 584
68.41092 508
68.43104 504
68.45115 473
68.47126 390
68.49138 329
68.51149 312
68.5316 303
68.55172 256
68.57183 231
68.59195 228
68.61206 249
68.63217 213
68.65229 190
68.6724 195
68.69251 216
68.71263 183
68.73274 205
68.75286 182
68.77297 225
68.79308 203
68.8132 176
68.83331 178
68.85342 192
68.87354 168
68.89365 194
68.91376 161
68.93388 173
68.95399 191
68.97411 195
68.99422 178
69.01433 174
69.03445 184
69.05456 191
69.07467 215
69.09479 194
69.1149 189
69.13502 199
69.15513 189
69.17524 169
69.19536 190
69.21547 165
69.23558 175
69.2557 184
69.27581 204
69.29593 169
69.31604 190
69.33615 192
69.35627 162
69.37638 165
69.39649 177
69.41661 191
69.43672 179
69.45683 177
69.47695 170
69.49706 158
69.51718 166
69.53729 165
69.5574 184
69.57752 162
69.59763 169
69.61774 155
69.63786 175
69.65797 180
69.67809 173
69.6982 158
69.71831 151
69.73843 161
69.75854 164
69.77865 164
69.79877 132
69.81888 157
69.839 152
69.85911 138
69.87922 128
69.89934 163
69.91945 139
69.93956 143
69.95968 147
69.97979 150
69.9999 146
70.02002 163
70.04013 143
70.06025 126
70.08036 133
70.10047 157
70.12059 135
70.1407 133
70.16081 138
70.18093 128
70.20104 144
70.22116 130
70.24127 141
70.26138 129
70.2815 166
70.30161 134
70.32172 155
70.34184 156
70.36195 140
70.38207 140
70.40218 155
70.42229 157
70.44241 136
70.46252 171
70.48263 132
70.50275 139
70.52286 147
70.54297 155
70.56309 131
70.5832 157
70.60332 150
70.62343 142
70.64354 137
70.66366 145
70.68377 135
70.70388 135
70.724 173
70.74411 126
70.76423 147
70.78434 139
70.80445 133
70.82457 158
70.84468 138
70.86479 132
70.88491 132
70.90502 147
70.92513 153
70.94525 135
70.96536 141
70.98548 148
71.00559 165
71.0257 161
71.04582 154
71.06593 152
71.08604 150
71.10616 151
71.12627 180
71.14639 163
71.1665 146
71.18661 167
71.20673 158
71.22684 163
71.24695 168
71.26707 144
71.28718 153
71.3073 156
71.32741 175
71.34752 172
71.36764 151
71.38775 135
71.40786 141
71.42798 155
71.44809 154
71.4682 164
71.48832 136
71.50843 141
71.52855 147
71.54866 142
71.56877 145
71.58889 158
71.609 148
71.62911 125
71.64923 149
71.66934 126
71.68946 146
71.70957 129
71.72968 147
71.7498 136
71.76991 142
71.79002 128
71.81014 139
71.83025 130
71.85037 142
71.87048 149
71.89059 147
71.91071 141
71.93082 143
71.95093 156
71.97105 121
71.99116 153
72.01127 134
72.03139 125
72.0515 143
72.07162 133
72.09173 150
72.11184 139
72.13196 134
72.15207 135
72.17218 135
72.1923 143
72.21241 136
72.23253 142
72.25264 152
72.27275 147
72.29287 141
72.31298 129
72.33309 159
72.35321 139
72.37332 155
72.39344 158
72.41355 149
72.43366 135
72.45378 134
72.47389 159
72.494 145
72.51412 142
72.53423 121
72.55434 128
72.57446 150
72.59457 153
72.61469 159
72.6348 152
72.65491 145
72.67503 153
72.69514 143
72.71525 147
72.73537 154
72.75548 164
72.7756 148
72.79571 170
72.81582 180
72.83594 150
72.85605 141
72.87616 153
72.89628 169
72.91639 149
72.9365 173
72.95662 196
72.97673 208
72.99685 160
73.01696 237
73.03707 189
73.05719 216
73.0773 209
73.09741 219
73.11753 230
73.13764 252
73.15776 242
73.17787 284
73.19798 318
73.2181 291
73.23821 332
73.25832 353
73.27844 399
73.29855 437
73.31867 451
73.33878 457
73.35889 462
73.37901 440
73.39912 397
73.41923 380
73.43935 360
73.45946 327
73.47957 291
73.49969 327
73.5198 305
73.53992 333
73.56003 295
73.58014 278
73.60026 283
73.62037 276
73.64048 249
73.6606 211
73.68071 233
73.70083 199
73.72094 171
73.74105 182
73.76117 191
73.78128 151
73.80139 180
73.82151 156
73.84162 181
73.86174 156
73.88185 162
73.90196 153
73.92208 162
73.94219 167
73.9623 125
73.98242 166
74.00253 147
74.02264 159
74.04276 149
74.06287 158
74.08299 159
74.1031 173
74.12321 135
74.14333 129
74.16344 136
74.18355 164
74.20367 162
74.22378 165
74.2439 143
74.26401 149
74.28412 164
74.30424 151
74.32435 156
74.34446 161
74.36458 153
74.38469 154
74.40481 147
74.42492 144
74.44503 160
74.46515 153
74.48526 164
74.50537 177
74.52549 151
74.5456 168
74.56571 156
74.58583 156
74.60594 168
74.62606 150
74.64617 168
74.66628 165
74.6864 144
74.70651 163
74.72662 170
74.74674 176
74.76685 160
74.78697 161
74.80708 154
74.82719 155
74.84731 149
74.86742 154
74.88753 171
74.90765 169
74.92776 186
74.94787 158
74.96799 155
74.9881 165
75.00822 194
