3.00117 18799
3.02128 18378
3.0414 17914
3.06151 17661
3.08162 16836
3.10174 16359
3.12185 16184
3.14197 15278
3.16208 15495
3.18219 14901
3.20231 14082
3.22242 14125
3.24253 13259
3.26265 13170
3.28276 12614
3.30288 12335
3.32299 11954
3.3431 11521
3.36322 11105
3.38333 10611
3.40344 10297
3.42356 10177
3.44367 9738
3.46379 9356
3.4839 9022
3.50401 8672
3.52413 8682
3.54424 8006
3.56435 8015
3.58447 7707
3.60458 7113
3.62469 7109
3.64481 6682
3.66492 6345
3.68504 6317
3.70515 6016
3.72526 5814
3.74538 5297
3.76549 5242
3.7856 5181
3.80572 4782
3.82583 4815
3.84595 4501
3.86606 4324
3.88617 4015
3.90629 3800
3.9264 3775
3.94651 3519
3.96663 3471
3.98674 3094
4.00686 3027
4.02697 3114
4.04708 2764
4.0672 2605
4.08731 2447
4.10742 2602
4.12754 2423
4.14765 2101
4.16776 2160
4.18788 2153
4.20799 1997
4.22811 1976
4.24822 1768
4.26833 1731
4.28845 1782
4.30856 1688
4.32867 1672
4.34879 1536
4.3689 1523
4.38902 1548
4.40913 1478
4.42924 1481
4.44936 1261
4.46947 1274
4.48958 1286
4.5097 1271
4.52981 1270
4.54992 1156
4.57004 1137
4.59015 1084
4.61027 1076
4.63038 1120
4.65049 1029
4.67061 1001
4.69072 1065
4.71083 970
4.73095 978
4.75106 903
4.77118 901
4.79129 944
4.8114 897
4.83152 824
4.85163 800
4.87174 776
4.89186 807
4.91197 811
4.93209 787
4.9522 734
4.97231 678
4.99243 723
5.01254 673
5.03265 711
5.05277 655
5.07288 613
5.09299 605
5.11311 671
5.13322 640
5.15334 523
5.17345 570
5.19356 575
5.21368 529
5.23379 506
5.2539 520
5.27402 520
5.29413 520
5.31425 515
5.33436 449
5.35447 490
5.37459 443
5.3947 467
5.41481 459
5.43493 433
5.45504 453
5.47516 418
5.49527 442
5.51538 378
5.5355 390
5.55561 379
5.57572 414
5.59584 404
5.61595 405
5.63606 368
5.65618 365
5.67629 341
5.69641 366
5.71652 332
5.73663 333
5.75675 359
5.77686 329
5.79697 341
5.81709 320
5.8372 324
5.85732 319
5.87743 314
5.89754 314
5.91766 254
5.93777 311
5.95788 298
5.978 300
5.99811 272
6.01823 291
6.03834 274
6.05845 306
6.07857 288
6.09868 293
6.11879 283
6.13891 277
6.15902 267
6.17913 313
6.19925 257
6.21936 284
6.23948 259
6.25959 260
6.2797 298
6.29982 243
6.31993 264
6.34004 239
6.36016 262
6.38027 238
6.40039 232
6.4205 249
6.44061 251
6.46073 229
6.48084 277
6.50095 219
6.52107 246
6.54118 253
6.56129 232
6.58141 264
6.60152 239
6.62164 220
6.64175 232
6.66186 222
6.68198 199
6.70209 225
6.7222 249
6.74232 258
6.76243 230
6.78255 233
6.80266 249
6.82277 202
6.84289 265
6.863 248
6.88311 247
6.90323 236
6.92334 188
6.94346 243
6.96357 236
6.98368 227
7.0038 233
7.02391 250
7.04402 244
7.06414 235
7.08425 190
7.10436 220
7.12448 195
7.14459 225
7.16471 218
7.18482 217
7.20493 200
7.22505 188
7.24516 197
7.26527 233
7.28539 207
7.3055 195
7.32562 242
7.34573 222
7.36584 207
7.38596 254
7.40607 228
7.42618 213
7.4463 246
7.46641 191
7.48653 240
7.50664 215
7.52675 183
7.54687 225
7.56698 223
7.58709 209
7.60721 238
7.62732 214
7.64743 213
7.66755 188
7.68766 200
7.70778 214
7.72789 191
7.748 220
7.76812 206
7.78823 226
7.80834 226
7.82846 208
7.84857 230
7.86869 244
7.8888 235
7.90891 216
7.92903 196
7.94914 228
7.96925 246
7.98937 211
8.00948 222
8.0296 220
8.04971 207
8.06982 222
8.08994 188
8.11005 211
8.13016 213
8.15028 248
8.17039 210
8.1905 247
8.21062 211
8.23073 247
8.25085 216
8.27096 204
8.29107 238
8.31119 242
8.3313 240
8.35141 245
8.37153 202
8.39164 230
8.41176 222
8.43187 192
8.45198 232
8.4721 207
8.49221 204
8.51232 214
8.53244 238
8.55255 206
8.57266 249
8.59278 230
8.61289 230
8.63301 225
8.65312 206
8.67323 212
8.69335 209
8.71346 199
8.73357 251
8.75369 224
8.7738 226
8.79392 206
8.81403 202
8.83414 224
8.85426 243
8.87437 210
8.89448 217
8.9146 227
8.93471 212
8.95483 222
8.97494 226
8.99505 196
9.01517 211
9.03528 198
9.05539 216
9.07551 210
9.09562 238
9.11573 211
9.13585 189
9.15596 229
9.17608 210
9.19619 222
9.2163 216
9.23642 211
9.25653 207
9.27664 224
9.29676 224
9.31687 205
9.33699 223
9.3571 242
9.37721 227
9.39733 212
9.41744 233
9.43755 196
9.45767 227
9.47778 199
9.4979 237
9.51801 215
9.53812 219
9.55824 232
9.57835 225
9.59846 196
9.61858 229
9.63869 228
9.6588 250
9.67892 220
9.69903 197
9.71915 212
9.73926 189
9.75937 199
9.77949 214
9.7996 219
9.81971 201
9.83983 234
9.85994 226
9.88006 211
9.90017 212
9.92028 240
9.9404 230
9.96051 229
9.98062 196
10.00074 232
10.02085 215
10.04097 189
10.06108 217
10.08119 220
10.10131 200
10.12142 224
10.14153 223
10.16165 232
10.18176 218
10.20187 220
10.22199 179
10.2421 229
10.26222 217
10.28233 218
10.30244 230
10.32256 219
10.34267 243
10.36278 222
10.3829 212
10.40301 218
10.42313 220
10.44324 205
10.46335 209
10.48347 218
10.50358 232
10.52369 245
10.54381 233
10.56392 207
10.58403 193
10.60415 227
10.62426 207
10.64438 236
10.66449 235
10.6846 199
10.70472 207
10.72483 207
10.74494 189
10.76506 199
10.78517 187
10.80529 228
10.8254 208
10.84551 191
10.86563 196
10.88574 209
10.90585 208
10.92597 210
10.94608 209
10.9662 209
10.98631 221
11.00642 202
11.02654 214
11.04665 209
11.06676 210
11.08688 187
11.10699 222
11.1271 202
11.14722 208
11.16733 196
11.18745 205
11.20756 214
11.22767 190
11.24779 223
11.2679 223
11.28801 217
11.30813 238
11.32824 183
11.34836 186
11.36847 209
11.38858 205
11.4087 189
11.42881 186
11.44892 182
11.46904 223
11.48915 173
11.50927 221
11.52938 196
11.54949 213
11.56961 196
11.58972 224
11.60983 209
11.62995 209
11.65006 205
11.67017 236
11.69029 186
11.7104 196
11.73052 199
11.75063 213
11.77074 207
11.79086 210
11.81097 235
11.83108 234
11.8512 192
11.87131 194
11.89143 220
11.91154 167
11.93165 219
11.95177 218
11.97188 192
11.99199 195
12.01211 203
12.03222 194
12.05234 216
12.07245 199
12.09256 216
12.11268 195
12.13279 191
12.1529 189
12.17302 197
12.19313 190
12.21324 183
12.23336 206
12.25347 207
12.27359 217
12.2937 207
12.31381 206
12.33393 211
12.35404 216
12.37415 212
12.39427 219
12.41438 198
12.4345 229
12.45461 195
12.47472 190
12.49484 206
12.51495 212
12.53506 185
12.55518 186
12.57529 188
12.5954 217
12.61552 191
12.63563 195
12.65575 197
12.67586 185
12.69597 197
12.71609 203
12.7362 182
12.75631 176
12.77643 221
12.79654 200
12.81666 206
12.83677 185
12.85688 206
12.877 205
12.89711 197
12.91722 198
12.93734 199
12.95745 205
12.97757 179
12.99768 198
13.01779 192
13.03791 220
13.05802 186
13.07813 213
13.09825 171
13.11836 208
13.13847 205
13.15859 194
13.1787 199
13.19882 191
13.21893 221
13.23904 233
13.25916 219
13.27927 188
13.29938 210
13.3195 171
13.33961 179
13.35973 192
13.37984 227
13.39995 199
13.42007 190
13.44018 194
13.46029 182
13.48041 192
13.50052 178
13.52064 191
13.54075 197
13.56086 205
13.58098 182
13.60109 192
13.6212 202
13.64132 198
13.66143 187
13.68154 205
13.70166 166
13.72177 191
13.74189 207
13.762 207
13.78211 182
13.80223 181
13.82234 184
13.84245 202
13.86257 182
13.88268 182
13.9028 182
13.92291 197
13.94302 195
13.96314 192
13.98325 195
14.00336 198
14.02348 199
14.04359 173
14.06371 172
14.08382 180
14.10393 185
14.12405 171
14.14416 184
14.16427 178
14.18439 205
14.2045 177
14.22461 188
14.24473 190
14.26484 189
14.28496 200
14.30507 193
14.32518 194
14.3453 207
14.36541 166
14.38552 173
14.40564 176
14.42575 192
14.44587 201
14.46598 218
14.48609 190
14.50621 179
14.52632 177
14.54643 188
14.56655 174
14.58666 188
14.60677 193
14.62689 195
14.647 193
14.66712 155
14.68723 174
14.70734 186
14.72746 149
14.74757 172
14.76768 177
14.7878 191
14.80791 182
14.82803 176
14.84814 185
14.86825 173
14.88837 171
14.90848 184
14.92859 158
14.94871 188
14.96882 201
14.98894 166
15.00905 181
15.02916 153
15.04928 149
15.06939 187
15.0895 165
15.10962 180
15.12973 174
15.14984 207
15.16996 160
15.19007 193
15.21019 170
15.2303 183
15.25041 171
15.27053 160
15.29064 184
15.31075 193
15.33087 186
15.35098 161
15.3711 170
15.39121 155
15.41132 148
15.43144 184
15.45155 185
15.47166 152
15.49178 159
15.51189 176
15.53201 177
15.55212 160
15.57223 180
15.59235 156
15.61246 171
15.63257 171
15.65269 183
15.6728 176
15.69291 192
15.71303 160
15.73314 170
15.75326 143
15.77337 192
15.79348 177
15.8136 171
15.83371 177
15.85382 169
15.87394 200
15.89405 168
15.91417 195
15.93428 164
15.95439 181
15.97451 167
15.99462 165
16.01473 157
16.03485 139
16.05496 170
16.07508 173
16.09519 186
16.1153 161
16.13542 173
16.15553 176
16.17564 165
16.19576 156
16.21587 169
16.23598 149
16.2561 141
16.27621 168
16.29633 205
16.31644 167
16.33655 159
16.35667 171
16.37678 199
16.39689 171
16.41701 174
16.43712 175
16.45724 170
16.47735 148
16.49746 160
16.51758 155
16.53769 173
16.5578 176
16.57792 169
16.59803 177
16.61814 160
16.63826 154
16.65837 159
16.67849 190
16.6986 176
16.71871 171
16.73883 161
16.75894 166
16.77905 170
16.79917 151
16.81928 150
16.8394 172
16.85951 177
16.87962 169
16.89974 186
16.91985 171
16.93996 164
16.96008 172
16.98019 160
17.00031 180
17.02042 160
17.04053 181
17.06065 186
17.08076 166
17.10087 155
17.12099 173
17.1411 133
17.16121 155
17.18133 160
17.20144 182
17.22156 165
17.24167 203
17.26178 154
17.2819 172
17.30201 178
17.32212 161
17.34224 175
17.36235 190
17.38247 164
17.40258 177
17.42269 146
17.44281 155
17.46292 165
17.48303 173
17.50315 171
17.52326 186
17.54338 169
17.56349 150
17.5836 157
17.60372 173
17.62383 180
17.64394 169
17.66406 168
17.68417 153
17.70428 138
17.7244 154
17.74451 158
17.76463 174
17.78474 187
17.80485 163
17.82497 164
17.84508 161
17.86519 160
17.88531 173
17.90542 154
17.92554 160
17.94565 181
17.96576 159
17.98588 172
18.00599 191
18.0261 182
18.04622 164
18.06633 165
18.08645 157
18.10656 183
18.12667 193
18.14679 163
18.1669 148
18.18701 161
18.20713 153
18.22724 163
18.24735 173
18.26747 145
18.28758 157
18.3077 133
18.32781 149
18.34792 171
18.36804 149
18.38815 176
18.40826 157
18.42838 151
18.44849 161
18.46861 187
18.48872 169
18.50883 192
18.52895 171
18.54906 179
18.56917 158
18.58929 185
18.6094 173
18.62951 163
18.64963 157
18.66974 148
18.68986 157
18.70997 165
18.73008 174
18.7502 189
18.77031 166
18.79042 191
18.81054 194
18.83065 178
18.85077 179
18.87088 175
18.89099 179
18.91111 164
18.93122 166
18.95133 187
18.97145 174
18.99156 162
19.01168 139
19.03179 180
19.0519 143
19.07202 169
19.09213 161
19.11224 189
19.13236 197
19.15247 164
19.17258 181
19.1927 155
19.21281 165
19.23293 180
19.25304 181
19.27315 162
19.29327 167
19.31338 187
19.33349 196
19.35361 195
19.37372 144
19.39384 161
19.41395 177
19.43406 161
19.45418 170
19.47429 173
19.4944 195
19.51452 212
19.53463 203
19.55475 176
19.57486 213
19.59497 202
19.61509 211
19.6352 197
19.65531 208
19.67543 227
19.69554 207
19.71565 225
19.73577 229
19.75588 193
19.776 246
19.79611 243
19.81622 239
19.83634 237
19.85645 232
19.87656 278
19.89668 231
19.91679 240
19.93691 235
19.95702 224
19.97713 245
19.99725 255
20.01736 212
20.03747 255
20.05759 224
20.0777 243
20.09782 241
20.11793 245
20.13804 251
20.15816 256
20.17827 270
20.19838 271
20.2185 259
20.23861 252
20.25872 311
20.27884 287
20.29895 310
20.31907 273
20.33918 298
20.35929 258
20.37941 319
20.39952 331
20.41963 323
20.43975 295
20.45986 347
20.47998 381
20.50009 384
20.5202 350
20.54032 386
20.56043 448
20.58054 442
20.60066 442
20.62077 497
20.64088 593
20.661 599
20.68111 783
20.70123 999
20.72134 1310
20.74145 1806
20.76157 2543
20.78168 3704
20.80179 5065
20.82191 6767
20.84202 8194
20.86214 9276
20.88225 9272
20.90236 7733
20.92248 5734
20.94259 3908
20.9627 2416
20.98282 1274
21.00293 870
21.02305 667
21.04316 560
21.06327 506
21.08339 452
21.1035 438
21.12361 398
21.14373 366
21.16384 375
21.18395 378
21.20407 339
21.22418 307
21.2443 288
21.26441 296
21.28452 267
21.30464 256
21.32475 265
21.34486 254
21.36498 272
21.38509 278
21.40521 228
21.42532 209
21.44543 257
21.46555 224
21.48566 247
21.50577 246
21.52589 250
21.546 231
21.56612 213
21.58623 280
21.60634 273
21.62646 259
21.64657 237
21.66668 242
21.6868 231
21.70691 205
21.72702 220
21.74714 212
21.76725 220
21.78737 258
21.80748 202
21.82759 241
21.84771 201
21.86782 227
21.88793 202
21.90805 228
21.92816 222
21.94828 193
21.96839 222
21.9885 199
22.00862 225
22.02873 219
22.04884 210
22.06896 222
22.08907 203
22.10919 211
22.1293 212
22.14941 217
22.16953 199
22.18964 210
22.20975 206
22.22987 224
22.24998 235
22.27009 217
22.29021 198
22.31032 227
22.33044 206
22.35055 218
22.37066 191
22.39078 225
22.41089 204
22.431 202
22.45112 202
22.47123 194
22.49135 198
22.51146 208
22.53157 216
22.55169 211
22.5718 190
22.59191 207
22.61203 195
22.63214 206
22.65225 223
22.67237 209
22.69248 194
22.7126 194
22.73271 197
22.75282 219
22.77294 189
22.79305 209
22.81316 189
22.83328 203
22.85339 176
22.87351 214
22.89362 192
22.91373 182
22.93385 219
22.95396 167
22.97407 196
22.99419 226
23.0143 189
23.03442 204
23.05453 226
23.07464 192
23.09476 194
23.11487 177
23.13498 236
23.1551 199
23.17521 177
23.19532 221
23.21544 197
23.23555 213
23.25567 189
23.27578 188
23.29589 193
23.31601 184
23.33612 206
23.35623 214
23.37635 184
23.39646 174
23.41658 202
23.43669 198
23.4568 216
23.47692 183
23.49703 164
23.51714 209
23.53726 201
23.55737 186
23.57749 204
23.5976 194
23.61771 205
23.63783 198
23.65794 193
23.67805 229
23.69817 172
23.71828 179
23.73839 204
23.75851 182
23.77862 197
23.79874 199
23.81885 207
23.83896 252
23.85908 208
23.87919 215
23.8993 209
23.91942 224
23.93953 238
23.95965 233
23.97976 279
23.99987 270
24.01999 299
24.0401 299
24.06021 261
24.08033 240
24.10044 216
24.12056 228
24.14067 227
24.16078 182
24.1809 205
24.20101 192
24.22112 210
24.24124 189
24.26135 178
24.28146 203
24.30158 206
24.32169 201
24.34181 185
24.36192 186
24.38203 186
24.40215 181
24.42226 204
24.44237 189
24.46249 207
24.4826 172
24.50272 211
24.52283 235
24.54294 179
24.56306 218
24.58317 179
24.60328 179
24.6234 219
24.64351 193
24.66362 205
24.68374 216
24.70385 209
24.72397 196
24.74408 195
24.76419 183
24.78431 203
24.80442 202
24.82453 223
24.84465 192
24.86476 214
24.88488 233
24.90499 204
24.9251 185
24.94522 206
24.96533 179
24.98544 206
25.00556 186
25.02567 199
25.04579 202
25.0659 205
25.08601 209
25.10613 192
25.12624 220
25.14635 219
25.16647 206
25.18658 211
25.20669 206
25.22681 234
25.24692 218
25.26704 251
25.28715 235
25.30726 202
25.32738 236
25.34749 230
25.3676 228
25.38772 222
25.40783 183
25.42795 224
25.44806 237
25.46817 214
25.48829 227
25.5084 206
25.52851 271
25.54863 221
25.56874 272
25.58886 290
25.60897 262
25.62908 303
25.6492 294
25.66931 333
25.68942 360
25.70954 383
25.72965 395
25.74976 443
25.76988 441
25.78999 472
25.81011 438
25.83022 453
25.85033 469
25.87045 468
25.89056 482
25.91067 500
25.93079 498
25.9509 485
25.97102 516
25.99113 477
26.01124 528
26.03136 546
26.05147 533
26.07158 568
26.0917 634
26.11181 670
26.13193 710
26.15204 753
26.17215 781
26.19227 799
26.21238 854
26.23249 974
26.25261 1018
26.27272 1150
26.29283 1172
26.31295 1284
26.33306 1291
26.35318 1558
26.37329 1792
26.3934 1931
26.41352 2319
26.43363 2839
26.45374 3512
26.47386 4716
26.49397 6289
26.51409 8844
26.5342 11948
26.55431 16552
26.57443 22811
26.59454 30233
26.61465 37163
26.63477 42838
26.65488 42927
26.67499 37672
26.69511 29025
26.71522 21891
26.73534 16351
26.75545 10210
26.77556 5308
26.79568 3188
26.81579 2462
26.8359 2016
26.85602 1760
26.87613 1640
26.89625 1456
26.91636 1276
26.93647 1166
26.95659 1020
26.9767 938
26.99681 853
27.01693 814
27.03704 729
27.05716 676
27.07727 615
27.09738 592
27.1175 580
27.13761 538
27.15772 523
27.17784 488
27.19795 498
27.21806 510
27.23818 452
27.25829 452
27.27841 418
27.29852 425
27.31863 423
27.33875 398
27.35886 402
27.37897 427
27.39909 416
27.4192 448
27.43932 463
27.45943 420
27.47954 404
27.49966 386
27.51977 380
27.53988 385
27.56 339
27.58011 329
27.60023 406
27.62034 334
27.64045 349
27.66057 329
27.68068 369
27.70079 313
27.72091 326
27.74102 321
27.76113 328
27.78125 311
27.80136 332
27.82148 314
27.84159 270
27.8617 299
27.88182 284
27.90193 320
27.92204 319
27.94216 284
27.96227 321
27.98239 281
28.0025 293
28.02261 285
28.04273 286
28.06284 273
28.08295 293
28.10307 266
28.12318 257
28.1433 268
28.16341 275
28.18352 268
28.20364 257
28.22375 271
28.24386 287
28.26398 278
28.28409 287
28.3042 250
28.32432 270
28.34443 239
28.36455 267
28.38466 255
28.40477 262
28.42489 262
28.445 250
28.46511 245
28.48523 262
28.50534 260
28.52546 240
28.54557 237
28.56568 249
28.5858 257
28.60591 266
28.62602 229
28.64614 246
28.66625 224
28.68636 246
28.70648 222
28.72659 242
28.74671 233
28.76682 248
28.78693 243
28.80705 221
28.82716 240
28.84727 250
28.86739 271
28.8875 247
28.90762 276
28.92773 255
28.94784 222
28.96796 235
28.98807 229
29.00818 235
29.0283 276
29.04841 218
29.06853 227
29.08864 249
29.10875 244
29.12887 216
29.14898 208
29.16909 214
29.18921 229
29.20932 235
29.22943 240
29.24955 235
29.26966 255
29.28978 217
29.30989 197
29.33 211
29.35012 221
29.37023 224
29.39034 220
29.41046 238
29.43057 286
29.45069 209
29.4708 198
29.49091 220
29.51103 208
29.53114 215
29.55125 258
29.57137 223
29.59148 236
29.6116 227
29.63171 255
29.65182 222
29.67194 234
29.69205 192
29.71216 206
29.73228 215
29.75239 207
29.7725 208
29.79262 212
29.81273 222
29.83285 223
29.85296 213
29.87307 215
29.89319 230
29.9133 219
29.93341 201
29.95353 245
29.97364 186
29.99376 175
30.01387 203
30.03398 191
30.0541 228
30.07421 218
30.09432 208
30.11444 203
30.13455 199
30.15467 186
30.17478 212
30.19489 215
30.21501 214
30.23512 238
30.25523 204
30.27535 207
30.29546 199
30.31557 190
30.33569 219
30.3558 220
30.37592 177
30.39603 192
30.41614 201
30.43626 204
30.45637 221
30.47648 231
30.4966 219
30.51671 197
30.53683 207
30.55694 213
30.57705 179
30.59717 193
30.61728 194
30.63739 194
30.65751 173
30.67762 180
30.69773 188
30.71785 201
30.73796 167
30.75808 196
30.77819 183
30.7983 207
30.81842 188
30.83853 205
30.85864 190
30.87876 194
30.89887 188
30.91899 197
30.9391 172
30.95921 188
30.97933 183
30.99944 190
31.01955 171
31.03967 197
31.05978 184
31.0799 208
31.10001 166
31.12012 178
31.14024 168
31.16035 182
31.18046 173
31.20058 185
31.22069 182
31.2408 182
31.26092 158
31.28103 189
31.30115 162
31.32126 156
31.34137 197
31.36149 192
31.3816 188
31.40171 198
31.42183 191
31.44194 166
31.46206 172
31.48217 163
31.50228 168
31.5224 183
31.54251 160
31.56262 169
31.58274 191
31.60285 187
31.62297 159
31.64308 156
31.66319 150
31.68331 165
31.70342 193
31.72353 173
31.74365 190
31.76376 157
31.78387 166
31.80399 180
31.8241 176
31.84422 168
31.86433 152
31.88444 183
31.90456 165
31.92467 165
31.94478 194
31.9649 203
31.98501 157
32.00513 146
32.02524 198
32.04535 156
32.06547 166
32.08558 169
32.10569 144
32.12581 153
32.14592 167
32.16604 184
32.18615 184
32.20626 179
32.22638 167
32.24649 169
32.2666 156
32.28672 166
32.30683 157
32.32694 157
32.34706 173
32.36717 149
32.38729 157
32.4074 149
32.42751 183
32.44763 172
32.46774 167
32.48785 153
32.50797 150
32.52808 161
32.5482 168
32.56831 173
32.58842 153
32.60854 150
32.62865 161
32.64876 143
32.66888 160
32.68899 141
32.7091 159
32.72922 169
32.74933 147
32.76945 149
32.78956 165
32.80967 142
32.82979 132
32.8499 148
32.87001 137
32.89013 126
32.91024 174
32.93036 186
32.95047 128
32.97058 143
32.9907 153
33.01081 155
33.03092 135
33.05104 160
33.07115 158
33.09127 169
33.11138 160
33.13149 175
33.15161 156
33.17172 149
33.19183 152
33.21195 148
33.23206 145
33.25217 146
33.27229 154
33.2924 152
33.31252 133
33.33263 159
33.35274 156
33.37286 142
33.39297 154
33.41308 133
33.4332 139
33.45331 144
33.47343 134
33.49354 160
33.51365 134
33.53377 156
33.55388 132
33.57399 139
33.59411 152
33.61422 135
33.63434 159
33.65445 153
33.67456 152
33.69468 153
33.71479 149
33.7349 140
33.75502 136
33.77513 134
33.79524 131
33.81536 165
33.83547 139
33.85559 166
33.8757 145
33.89581 144
33.91593 137
33.93604 141
33.95615 146
33.97627 153
33.99638 129
34.0165 152
34.03661 162
34.05672 156
34.07684 117
34.09695 165
34.11706 137
34.13718 137
34.15729 153
34.17741 147
34.19752 148
34.21763 134
34.23775 140
34.25786 157
34.27797 132
34.29809 143
34.3182 154
34.33831 160
34.35843 146
34.37854 137
34.39866 159
34.41877 154
34.43888 140
34.459 167
34.47911 141
34.49922 161
34.51934 158
34.53945 151
34.55957 187
34.57968 155
34.59979 159
34.61991 185
34.64002 163
34.66013 193
34.68025 164
34.70036 173
34.72047 174
34.74059 167
34.7607 173
34.78082 149
34.80093 173
34.82104 152
34.84116 171
34.86127 177
34.88138 163
34.9015 193
34.92161 180
34.94173 163
34.96184 171
34.98195 161
35.00207 182
35.02218 178
35.04229 174
35.06241 163
35.08252 167
35.10264 169
35.12275 175
35.14286 158
35.16298 184
35.18309 151
35.2032 179
35.22332 174
35.24343 187
35.26354 189
35.28366 161
35.30377 151
35.32389 151
35.344 191
35.36411 181
35.38423 152
35.40434 174
35.42445 176
35.44457 216
35.46468 177
35.4848 171
35.50491 169
35.52502 174
35.54514 169
35.56525 199
35.58536 216
35.60548 166
35.62559 177
35.64571 193
35.66582 162
35.68593 176
35.70605 183
35.72616 179
35.74627 174
35.76639 167
35.7865 182
35.80661 178
35.82673 163
35.84684 185
35.86696 179
35.88707 175
35.90718 162
35.9273 175
35.94741 183
35.96752 169
35.98764 199
36.00775 184
36.02787 205
36.04798 182
36.06809 193
36.08821 207
36.10832 182
36.12843 198
36.14855 215
36.16866 229
36.18878 220
36.20889 254
36.229 233
36.24912 282
36.26923 322
36.28934 298
36.30946 364
36.32957 376
36.34968 437
36.3698 597
36.38991 683
36.41003 858
36.43014 1078
36.45025 1386
36.47037 1720
36.49048 2150
36.51059 2646
36.53071 2875
36.55082 2858
36.57094 2572
36.59105 2037
36.61116 1736
36.63128 1578
36.65139 1413
36.6715 1008
36.69162 654
36.71173 418
36.73184 347
36.75196 297
36.77207 282
36.79219 258
36.8123 252
36.83241 231
36.85253 232
36.87264 217
36.89275 214
36.91287 184
36.93298 207
36.9531 203
36.97321 187
36.99332 193
37.01344 151
37.03355 176
37.05366 177
37.07378 199
37.09389 166
37.11401 158
37.13412 191
37.15423 158
37.17435 158
37.19446 161
37.21457 173
37.23469 167
37.2548 172
37.27491 157
37.29503 178
37.31514 167
37.33526 161
37.35537 183
37.37548 158
37.3956 186
37.41571 141
37.43582 150
37.45594 151
37.47605 150
37.49617 161
37.51628 167
37.53639 169
37.55651 155
37.57662 158
37.59673 166
37.61685 149
37.63696 154
37.65708 157
37.67719 166
37.6973 143
37.71742 162
37.73753 160
37.75764 156
37.77776 145
37.79787 157
37.81798 154
37.8381 173
37.85821 133
37.87833 155
37.89844 153
37.91855 159
37.93867 164
37.95878 170
37.97889 156
37.99901 155
38.01912 173
38.03924 171
38.05935 144
38.07946 158
38.09958 153
38.11969 183
38.1398 169
38.15992 176
38.18003 160
38.20015 161
38.22026 146
38.24037 167
38.26049 186
38.2806 152
38.30071 165
38.32083 161
38.34094 167
38.36105 140
38.38117 150
38.40128 158
38.4214 168
38.44151 153
38.46162 154
38.48174 163
38.50185 159
38.52196 150
38.54208 154
38.56219 140
38.58231 155
38.60242 149
38.62253 170
38.64265 165
38.66276 163
38.68287 168
38.70299 183
38.7231 162
38.74321 165
38.76333 155
38.78344 170
38.80356 169
38.82367 175
38.84378 153
38.8639 189
38.88401 151
38.90412 185
38.92424 182
38.94435 178
38.96447 169
38.98458 177
39.00469 194
39.02481 182
39.04492 233
39.06503 193
39.08515 183
39.10526 217
39.12538 210
39.14549 263
39.1656 284
39.18572 279
39.20583 361
39.22594 335
39.24606 382
39.26617 444
39.28628 543
39.3064 617
39.32651 773
39.34663 911
39.36674 1177
39.38685 1489
39.40697 1818
39.42708 2269
39.44719 2573
39.46731 2637
39.48742 2492
39.50754 1938
39.52765 1599
39.54776 1404
39.56788 1323
39.58799 1117
39.6081 843
39.62822 532
39.64833 390
39.66845 327
39.68856 284
39.70867 292
39.72879 235
39.7489 247
39.76901 234
39.78913 225
39.80924 227
39.82935 227
39.84947 201
39.86958 203
39.8897 225
39.90981 206
39.92992 194
39.95004 217
39.97015 200
39.99026 216
40.01038 235
40.03049 276
40.05061 279
40.07072 263
40.09083 296
40.11095 337
40.13106 381
40.15117 495
40.17129 561
40.1914 678
40.21152 864
40.23163 1017
40.25174 1204
40.27186 1393
40.29197 1412
40.31208 1229
40.3322 1001
40.35231 844
40.37242 765
40.39254 763
40.41265 620
40.43277 473
40.45288 332
40.47299 290
40.49311 195
40.51322 232
40.53333 194
40.55345 191
40.57356 225
40.59368 179
40.61379 180
40.6339 158
40.65402 195
40.67413 181
40.69424 167
40.71436 173
40.73447 171
40.75458 172
40.7747 153
40.79481 169
40.81493 146
40.83504 117
40.85515 144
40.87527 191
40.89538 178
40.91549 155
40.93561 154
40.95572 163
40.97584 144
40.99595 179
41.01606 169
41.03618 158
41.05629 158
41.0764 162
41.09652 160
41.11663 160
41.13675 144
41.15686 164
41.17697 140
41.19709 180
41.2172 155
41.23731 168
41.25743 140
41.27754 131
41.29765 124
41.31777 150
41.33788 150
41.358 153
41.37811 145
41.39822 147
41.41834 168
41.43845 177
41.45856 165
41.47868 151
41.49879 155
41.51891 147
41.53902 159
41.55913 144
41.57925 153
41.59936 176
41.61947 167
41.63959 151
41.6597 140
41.67982 137
41.69993 166
41.72004 158
41.74016 155
41.76027 162
41.78038 166
41.8005 183
41.82061 185
41.84072 162
41.86084 185
41.88095 170
41.90107 165
41.92118 155
41.94129 181
41.96141 175
41.98152 179
42.00163 185
42.02175 187
42.04186 172
42.06198 183
42.08209 204
42.1022 198
42.12232 252
42.14243 230
42.16254 235
42.18266 269
42.20277 332
42.22289 339
42.243 372
42.26311 430
42.28323 472
42.30334 603
42.32345 720
42.34357 887
42.36368 1096
42.38379 1348
42.40391 1578
42.42402 1830
42.44414 1865
42.46425 1727
42.48436 1504
42.50448 1213
42.52459 1076
42.5447 990
42.56482 938
42.58493 747
42.60505 488
42.62516 375
42.64527 250
42.66539 251
42.6855 258
42.70561 226
42.72573 207
42.74584 209
42.76595 190
42.78607 185
42.80618 175
42.8263 182
42.84641 202
42.86652 170
42.88664 187
42.90675 160
42.92686 145
42.94698 156
42.96709 170
42.98721 171
43.00732 172
43.02743 157
43.04755 170
43.06766 166
43.08777 127
43.10789 157
43.128 166
43.14812 169
43.16823 161
43.18834 161
43.20846 169
43.22857 157
43.24868 149
43.2688 160
43.28891 168
43.30902 157
43.32914 180
43.34925 178
43.36937 154
43.38948 170
43.40959 154
43.42971 162
43.44982 165
43.46993 148
43.49005 155
43.51016 148
43.53028 148
43.55039 143
43.5705 161
43.59062 140
43.61073 150
43.63084 150
43.65096 137
43.67107 159
43.69119 147
43.7113 136
43.73141 139
43.75153 149
43.77164 149
43.79175 135
43.81187 132
43.83198 137
43.85209 134
43.87221 160
43.89232 135
43.91244 147
43.93255 147
43.95266 146
43.97278 152
43.99289 161
44.013 156
44.03312 130
44.05323 158
44.07335 151
44.09346 139
44.11357 170
44.13369 157
44.1538 148
44.17391 124
44.19403 160
44.21414 147
44.23426 156
44.25437 158
44.27448 162
44.2946 159
44.31471 134
44.33482 147
44.35494 153
44.37505 148
44.39516 137
44.41528 143
44.43539 155
44.45551 126
44.47562 134
44.49573 145
44.51585 149
44.53596 158
44.55607 139
44.57619 142
44.5963 155
44.61642 166
44.63653 161
44.65664 120
44.67676 146
44.69687 129
44.71698 125
44.7371 137
44.75721 137
44.77732 143
44.79744 137
44.81755 179
44.83767 145
44.85778 169
44.87789 157
44.89801 123
44.91812 127
44.93823 143
44.95835 158
44.97846 154
44.99858 148
45.01869 160
45.0388 162
45.05892 163
45.07903 149
45.09914 128
45.11926 143
45.13937 137
45.15949 154
45.1796 151
45.19971 150
45.21983 149
45.23994 154
45.26005 137
45.28017 154
45.30028 146
45.32039 179
45.34051 162
45.36062 162
45.38074 190
45.40085 157
45.42096 194
45.44108 184
45.46119 182
45.4813 183
45.50142 219
45.52153 217
45.54165 216
45.56176 267
45.58187 288
45.60199 331
45.6221 393
45.64221 426
45.66233 546
45.68244 656
45.70256 817
45.72267 914
45.74278 1084
45.7629 1204
45.78301 1307
45.80312 1243
45.82324 1043
45.84335 851
45.86346 716
45.88358 707
45.90369 668
45.92381 615
45.94392 504
45.96403 347
45.98415 266
46.00426 225
46.02437 211
46.04449 193
46.0646 164
46.08472 171
46.10483 152
46.12494 146
46.14506 147
46.16517 142
46.18528 139
46.2054 154
46.22551 119
46.24563 153
46.26574 158
46.28585 139
46.30597 139
46.32608 133
46.34619 126
46.36631 133
46.38642 145
46.40653 137
46.42665 149
46.44676 128
46.46688 146
46.48699 140
46.5071 150
46.52722 143
46.54733 129
46.56744 155
46.58756 130
46.60767 118
46.62779 108
46.6479 132
46.66801 147
46.68813 137
46.70824 140
46.72835 124
46.74847 125
46.76858 139
46.78869 146
46.80881 132
46.82892 151
46.84904 129
46.86915 132
46.88926 121
46.90938 132
46.92949 131
46.9496 130
46.96972 132
46.98983 131
47.00995 131
47.03006 115
47.05017 142
47.07029 120
47.0904 141
47.11051 130
47.13063 115
47.15074 120
47.17086 117
47.19097 114
47.21108 109
47.2312 142
47.25131 115
47.27142 152
47.29154 143
47.31165 129
47.33176 140
47.35188 129
47.37199 132
47.39211 143
47.41222 135
47.43233 132
47.45245 117
47.47256 147
47.49267 132
47.51279 115
47.5329 135
47.55302 116
47.57313 130
47.59324 151
47.61336 152
47.63347 136
47.65358 123
47.6737 115
47.69381 131
47.71393 141
47.73404 132
47.75415 140
47.77427 128
47.79438 134
47.81449 132
47.83461 135
47.85472 146
47.87483 128
47.89495 114
47.91506 151
47.93518 141
47.95529 112
47.9754 138
47.99552 138
48.01563 143
48.03574 135
48.05586 132
48.07597 132
48.09609 132
48.1162 125
48.13631 129
48.15643 121
48.17654 141
48.19665 134
48.21677 118
48.23688 117
48.257 148
48.27711 140
48.29722 144
48.31734 146
48.33745 159
48.35756 144
48.37768 135
48.39779 149
48.4179 137
48.43802 148
48.45813 131
48.47825 153
48.49836 121
48.51847 142
48.53859 147
48.5587 152
48.57881 142
48.59893 139
48.61904 149
48.63916 134
48.65927 125
48.67938 150
48.6995 142
48.71961 139
48.73972 147
48.75984 125
48.77995 140
48.80006 145
48.82018 150
48.84029 145
48.86041 168
48.88052 160
48.90063 126
48.92075 173
48.94086 161
48.96097 163
48.98109 155
49.0012 131
49.02132 178
49.04143 145
49.06154 133
49.08166 144
49.10177 155
49.12188 154
49.142 145
49.16211 145
49.18223 163
49.20234 175
49.22245 146
49.24257 153
49.26268 174
49.28279 148
49.30291 132
49.32302 129
49.34313 158
49.36325 166
49.38336 164
49.40348 171
49.42359 156
49.4437 177
49.46382 184
49.48393 167
49.50404 195
49.52416 181
49.54427 196
49.56439 200
49.5845 183
49.60461 221
49.62473 220
49.64484 231
49.66495 210
49.68507 248
49.70518 274
49.7253 238
49.74541 301
49.76552 297
49.78564 334
49.80575 379
49.82586 374
49.84598 467
49.86609 489
49.8862 555
49.90632 603
49.92643 724
49.94655 851
49.96666 1085
49.98677 1305
50.00689 1574
50.027 2002
50.04711 2540
50.06723 2880
50.08734 3771
50.10746 4131
50.12757 4363
50.14768 4144
50.1678 3538
50.18791 2694
50.20802 2227
50.22814 2172
50.24825 2233
50.26837 2124
50.28848 1856
50.30859 1298
50.32871 847
50.34882 563
50.36893 439
50.38905 375
50.40916 328
50.42927 322
50.44939 278
50.4695 296
50.48962 299
50.50973 296
50.52984 268
50.54996 291
50.57007 271
50.59018 284
50.6103 285
50.63041 264
50.65053 255
50.67064 217
50.69075 213
50.71087 228
50.73098 223
50.75109 207
50.77121 198
50.79132 193
50.81143 183
50.83155 181
50.85166 183
50.87178 158
50.89189 145
50.912 136
50.93212 135
50.95223 142
50.97234 146
50.99246 150
51.01257 145
51.03269 123
51.0528 161
51.07291 140
51.09303 155
51.11314 139
51.13325 140
51.15337 137
51.17348 141
51.1936 118
51.21371 133
51.23382 133
51.25394 136
51.27405 136
51.29416 154
51.31428 149
51.33439 133
51.3545 148
51.37462 147
51.39473 157
51.41485 125
51.43496 130
51.45507 142
51.47519 135
51.4953 124
51.51541 121
51.53553 124
51.55564 107
51.57576 129
51.59587 117
51.61598 133
51.6361 115
51.65621 127
51.67632 124
51.69644 130
51.71655 100
51.73667 127
51.75678 161
51.77689 107
51.79701 124
51.81712 127
51.83723 140
51.85735 132
51.87746 129
51.89757 132
51.91769 123
51.9378 122
51.95792 130
51.97803 123
51.99814 121
52.01826 141
52.03837 102
52.05848 137
52.0786 133
52.09871 120
52.11883 126
52.13894 116
52.15905 110
52.17917 131
52.19928 129
52.21939 117
52.23951 129
52.25962 135
52.27974 117
52.29985 135
52.31996 141
52.34008 121
52.36019 130
52.3803 122
52.40042 132
52.42053 115
52.44064 141
52.46076 129
52.48087 126
52.50099 111
52.5211 135
52.54121 113
52.56133 122
52.58144 113
52.60155 138
52.62167 116
52.64178 133
52.6619 122
52.68201 111
52.70212 125
52.72224 126
52.74235 120
52.76246 128
52.78258 113
52.80269 111
52.8228 113
52.84292 133
52.86303 138
52.88315 120
52.90326 133
52.92337 134
52.94349 157
52.9636 104
52.98371 125
53.00383 134
53.02394 112
53.04406 146
53.06417 139
53.08428 127
53.1044 129
53.12451 131
53.14462 123
53.16474 115
53.18485 125
53.20497 145
53.22508 154
53.24519 132
53.26531 108
53.28542 121
53.30553 142
53.32565 126
53.34576 135
53.36587 126
53.38599 135
53.4061 145
53.42622 143
53.44633 129
53.46644 119
53.48656 118
53.50667 128
53.52678 124
53.5469 161
53.56701 136
53.58713 131
53.60724 147
53.62735 129
53.64747 152
53.66758 133
53.68769 154
53.70781 135
53.72792 152
53.74804 140
53.76815 148
53.78826 128
53.80838 153
53.82849 128
53.8486 114
53.86872 107
53.88883 145
53.90894 166
53.92906 138
53.94917 127
53.96929 119
53.9894 147
54.00951 149
54.02963 151
54.04974 122
54.06985 130
54.08997 160
54.11008 145
54.1302 114
54.15031 146
54.17042 121
54.19054 161
54.21065 120
54.23076 152
54.25088 135
54.27099 129
54.29111 140
54.31122 140
54.33133 155
54.35145 169
54.37156 143
54.39167 151
54.41179 156
54.4319 155
54.45201 170
54.47213 202
54.49224 188
54.51236 181
54.53247 222
54.55258 201
54.5727 225
54.59281 244
54.61292 254
54.63304 264
54.65315 323
54.67327 365
54.69338 387
54.71349 519
54.73361 535
54.75372 702
54.77383 831
54.79395 939
54.81406 1069
54.83417 1231
54.85429 1252
54.8744 1234
54.89452 1109
54.91463 861
54.93474 797
54.95486 667
54.97497 683
54.99508 730
55.0152 734
55.03531 650
55.05543 489
55.07554 388
55.09565 351
55.11577 308
55.13588 306
55.15599 327
55.17611 350
55.19622 362
55.21634 396
55.23645 420
55.25656 518
55.27668 578
55.29679 570
55.3169 629
55.33702 594
55.35713 519
55.37724 435
55.39736 384
55.41747 368
55.43759 395
55.4577 343
55.47781 364
55.49793 319
55.51804 276
55.53815 206
55.55827 196
55.57838 171
55.5985 148
55.61861 163
55.63872 143
55.65884 146
55.67895 147
55.69906 165
55.71918 127
55.73929 147
55.75941 130
55.77952 153
55.79963 122
55.81975 123
55.83986 130
55.85997 134
55.88009 148
55.9002 137
55.92031 134
55.94043 122
55.96054 123
55.98066 156
56.00077 121
56.02088 141
56.041 127
56.06111 124
56.08122 125
56.10134 128
56.12145 104
56.14157 121
56.16168 148
56.18179 132
56.20191 137
56.22202 123
56.24213 130
56.26225 114
56.28236 117
56.30248 110
56.32259 136
56.3427 113
56.36282 128
56.38293 150
56.40304 150
56.42316 140
56.44327 119
56.46338 128
56.4835 128
56.50361 111
56.52373 113
56.54384 127
56.56395 118
56.58407 132
56.60418 119
56.62429 136
56.64441 132
56.66452 123
56.68464 136
56.70475 134
56.72486 127
56.74498 132
56.76509 124
56.7852 117
56.80532 150
56.82543 124
56.84554 127
56.86566 123
56.88577 118
56.90589 109
56.926 119
56.94611 135
56.96623 120
56.98634 133
57.00645 142
57.02657 136
57.04668 105
57.0668 139
57.08691 152
57.10702 163
57.12714 161
57.14725 177
57.16736 163
57.18748 193
57.20759 193
57.22771 174
57.24782 141
57.26793 180
57.28805 172
57.30816 137
57.32827 162
57.34839 161
57.3685 133
57.38861 145
57.40873 149
57.42884 149
57.44896 130
57.46907 120
57.48918 129
57.5093 116
57.52941 124
57.54952 110
57.56964 121
57.58975 103
57.60987 120
57.62998 136
57.65009 133
57.67021 130
57.69032 115
57.71043 119
57.73055 129
57.75066 108
57.77078 135
57.79089 134
57.811 126
57.83112 143
57.85123 168
57.87134 117
57.89146 126
57.91157 129
57.93168 117
57.9518 152
57.97191 125
57.99203 137
58.01214 119
58.03225 137
58.05237 127
58.07248 130
58.09259 122
58.11271 128
58.13282 126
58.15294 128
58.17305 146
58.19316 135
58.21328 132
58.23339 131
58.2535 133
58.27362 119
58.29373 111
58.31385 151
58.33396 118
58.35407 127
58.37419 143
58.3943 134
58.41441 142
58.43453 143
58.45464 125
58.47475 134
58.49487 112
58.51498 123
58.5351 139
58.55521 128
58.57532 133
58.59544 133
58.61555 134
58.63566 139
58.65578 133
58.67589 127
58.69601 154
58.71612 115
58.73623 134
58.75635 157
58.77646 134
58.79657 147
58.81669 134
58.8368 167
58.85691 135
58.87703 136
58.89714 135
58.91726 110
58.93737 129
58.95748 137
58.9776 156
58.99771 146
59.01782 132
59.03794 114
59.05805 135
59.07817 121
59.09828 140
59.11839 134
59.13851 157
59.15862 146
59.17873 138
59.19885 140
59.21896 138
59.23908 129
59.25919 137
59.2793 171
59.29942 151
59.31953 161
59.33964 159
59.35976 147
59.37987 178
59.39998 163
59.4201 175
59.44021 199
59.46033 178
59.48044 202
59.50055 200
59.52067 197
59.54078 263
59.56089 253
59.58101 286
59.60112 322
59.62124 304
59.64135 315
59.66146 379
59.68158 391
59.70169 488
59.7218 542
59.74192 612
59.76203 711
59.78215 861
59.80226 1028
59.82237 1218
59.84249 1486
59.8626 1780
59.88271 2127
59.90283 2334
59.92294 2565
59.94305 2540
59.96317 2448
59.98328 2022
60.0034 1520
60.02351 1345
60.04362 1280
60.06374 1333
60.08385 1390
60.10396 1345
60.12408 1169
60.14419 951
60.16431 700
60.18442 480
60.20453 367
60.22465 282
60.24476 261
60.26487 221
60.28499 219
60.3051 193
60.32522 203
60.34533 167
60.36544 177
60.38556 173
60.40567 169
60.42578 190
60.4459 164
60.46601 148
60.48612 165
60.50624 150
60.52635 156
60.54647 147
60.56658 134
60.58669 144
60.60681 152
60.62692 158
60.64703 154
60.66715 153
60.68726 128
60.70738 148
60.72749 112
60.7476 136
60.76772 133
60.78783 152
60.80794 170
60.82806 156
60.84817 136
60.86828 130
60.8884 138
60.90851 132
60.92863 135
60.94874 149
60.96885 128
60.98897 132
61.00908 149
61.02919 136
61.04931 135
61.06942 152
61.08954 124
61.10965 130
61.12976 115
61.14988 147
61.16999 138
61.1901 146
61.21022 144
61.23033 127
61.25045 134
61.27056 108
61.29067 154
61.31079 121
61.3309 131
61.35101 137
61.37113 127
61.39124 136
61.41135 134
61.43147 127
61.45158 127
61.4717 141
61.49181 139
61.51192 123
61.53204 126
61.55215 154
61.57226 126
61.59238 147
61.61249 159
61.63261 133
61.65272 132
61.67283 135
61.69295 150
61.71306 153
61.73317 129
61.75329 114
61.7734 124
61.79352 120
61.81363 135
61.83374 127
61.85386 142
61.87397 135
61.89408 133
61.9142 136
61.93431 132
61.95442 122
61.97454 139
61.99465 143
62.01477 134
62.03488 121
62.05499 133
62.07511 124
62.09522 140
62.11533 126
62.13545 153
62.15556 115
62.17568 110
62.19579 123
62.2159 140
62.23602 133
62.25613 137
62.27624 131
62.29636 123
62.31647 125
62.33659 142
62.3567 126
62.37681 116
62.39693 136
62.41704 107
62.43715 95
62.45727 113
62.47738 134
62.49749 120
62.51761 111
62.53772 128
62.55784 128
62.57795 122
62.59806 121
62.61818 129
62.63829 121
62.6584 131
62.67852 123
62.69863 117
62.71875 108
62.73886 120
62.75897 130
62.77909 127
62.7992 119
62.81931 112
62.83943 120
62.85954 101
62.87965 122
62.89977 126
62.91988 114
62.94 112
62.96011 114
62.98022 125
63.00034 119
63.02045 114
63.04056 124
63.06068 109
63.08079 126
63.10091 94
63.12102 121
63.14113 115
63.16125 121
63.18136 124
63.20147 112
63.22159 134
63.2417 119
63.26182 115
63.28193 128
63.30204 130
63.32216 107
63.34227 114
63.36238 123
63.3825 100
63.40261 131
63.42272 118
63.44284 130
63.46295 127
63.48307 112
63.50318 124
63.52329 123
63.54341 142
63.56352 136
63.58363 123
63.60375 132
63.62386 123
63.64398 152
63.66409 153
63.6842 155
63.70432 178
63.72443 152
63.74454 150
63.76466 173
63.78477 181
63.80489 186
63.825 219
63.84511 254
63.86523 274
63.88534 296
63.90545 354
63.92557 414
63.94568 455
63.96579 491
63.98591 544
64.00602 583
64.02614 554
64.04625 520
64.06636 405
64.08648 343
64.10659 310
64.1267 313
64.14682 313
64.16693 347
64.18705 338
64.20716 361
64.22727 307
64.24739 230
64.2675 187
64.28761 164
64.30773 146
64.32784 138
64.34796 146
64.36807 136
64.38818 147
64.4083 116
64.42841 130
64.44852 130
64.46864 134
64.48875 126
64.50886 133
64.52898 107
64.54909 100
64.56921 106
64.58932 127
64.60943 89
64.62955 128
64.64966 112
64.66977 109
64.68989 119
64.71 129
64.73012 107
64.75023 117
64.77034 124
64.79046 118
64.81057 118
64.83068 123
64.8508 108
64.87091 120
64.89102 108
64.91114 119
64.93125 125
64.95137 112
64.97148 124
64.99159 111
65.01171 107
65.03182 124
65.05193 109
65.07205 106
65.09216 131
65.11228 118
65.13239 117
65.1525 133
65.17262 126
65.19273 121
65.21284 132
65.23296 115
65.25307 115
65.27319 131
65.2933 117
65.31341 129
65.33353 132
65.35364 134
65.37375 133
65.39387 134
65.41398 119
65.43409 123
65.45421 140
65.47432 115
65.49444 120
65.51455 145
65.53466 158
65.55478 130
65.57489 155
65.595 155
65.61512 139
65.63523 165
65.65535 195
65.67546 198
65.69557 219
65.71569 216
65.7358 239
65.75591 231
65.77603 240
65.79614 208
65.81626 209
65.83637 172
65.85648 166
65.8766 178
65.89671 176
65.91682 175
65.93694 192
65.95705 178
65.97716 158
65.99728 158
66.01739 162
66.03751 143
66.05762 136
66.07773 141
66.09785 155
66.11796 123
66.13807 142
66.15819 144
66.1783 123
66.19842 141
66.21853 142
66.23864 128
66.25876 137
66.27887 135
66.29898 119
66.3191 151
66.33921 114
66.35933 122
66.37944 134
66.39955 133
66.41967 137
66.43978 126
66.45989 133
66.48001 129
66.50012 121
66.52023 136
66.54035 132
66.56046 117
66.58058 139
66.60069 128
66.6208 116
66.64092 142
66.66103 137
66.68114 134
66.70126 136
66.72137 147
66.74149 145
66.7616 145
66.78171 150
66.80183 148
66.82194 148
66.84205 153
66.86217 131
66.88228 154
66.90239 135
66.92251 168
66.94262 166
66.96274 134
66.98285 147
67.00296 145
67.02308 165
67.04319 160
67.0633 163
67.08342 153
67.10353 154
67.12365 152
67.14376 168
67.16387 146
67.18399 157
67.2041 200
67.22421 171
67.24433 175
67.26444 209
67.28456 192
67.30467 179
67.32478 216
67.3449 233
67.36501 245
67.38512 218
67.40524 251
67.42535 295
67.44546 320
67.46558 328
67.48569 359
67.50581 419
67.52592 458
67.54603 545
67.56615 617
67.58626 714
67.60637 850
67.62649 1039
67.6466 1091
67.66672 1276
67.68683 1412
67.70694 1568
67.72706 1516
67.74717 1488
67.76728 1302
67.7874 990
67.80751 961
67.82763 907
67.84774 952
67.86785 1024
67.88797 1102
67.90808 1165
67.92819 1180
67.94831 1131
67.96842 1149
67.98853 1109
68.00865 1150
68.02876 1349
68.04888 1522
68.06899 1738
68.0891 1957
68.10922 2134
68.12933 2055
68.14944 2122
68.16956 1842
68.18967 1693
68.20979 1643
68.2299 1694
68.25001 1699
68.27013 1885
68.29024 1929
68.31035 2002
68.33047 1770
68.35058 1426
68.3707 1135
68.39081 873
68.41092 748
68.43104 688
68.45115 725
68.47126 728
68.49138 661
68.51149 650
68.5316 541
68.55172 441
68.57183 341
68.59195 278
68.61206 253
68.63217 231
68.65229 214
68.6724 206
68.69251 203
68.71263 188
68.73274 194
68.75286 164
68.77297 168
68.79308 187
68.8132 160
68.83331 180
68.85342 168
68.87354 128
68.89365 145
68.91376 166
68.93388 167
68.95399 162
68.97411 142
68.99422 175
69.01433 136
69.03445 153
69.05456 148
69.07467 133
69.09479 133
69.1149 155
69.13502 153
69.15513 145
69.17524 152
69.19536 140
69.21547 131
69.23558 124
69.2557 121
69.27581 135
69.29593 149
69.31604 126
69.33615 111
69.35627 119
69.37638 136
69.39649 147
69.41661 133
69.43672 129
69.45683 126
69.47695 138
69.49706 148
69.51718 125
69.53729 113
69.5574 129
69.57752 124
69.59763 150
69.61774 131
69.63786 133
69.65797 116
69.67809 134
69.6982 105
69.71831 112
69.73843 114
69.75854 118
69.77865 135
69.79877 117
69.81888 122
69.839 130
69.85911 137
69.87922 112
69.89934 121
69.91945 127
69.93956 111
69.95968 122
69.97979 127
69.9999 136
70.02002 125
70.04013 128
70.06025 121
70.08036 117
70.10047 134
70.12059 125
70.1407 121
70.16081 113
70.18093 121
70.20104 127
70.22116 123
70.24127 123
70.26138 117
70.2815 114
70.30161 118
70.32172 103
70.34184 122
70.36195 119
70.38207 126
70.40218 133
70.42229 119
70.44241 134
70.46252 108
70.48263 117
70.50275 132
70.52286 113
70.54297 115
70.56309 109
70.5832 132
70.60332 110
70.62343 134
70.64354 100
70.66366 133
70.68377 113
70.70388 112
70.724 101
70.74411 111
70.76423 112
70.78434 130
70.80445 126
70.82457 114
70.84468 117
70.86479 123
70.88491 95
70.90502 120
70.92513 116
70.94525 110
70.96536 128
70.98548 123
71.00559 122
71.0257 119
71.04582 136
71.06593 106
71.08604 132
71.10616 106
71.12627 120
71.14639 121
71.1665 124
71.18661 121
71.20673 116
71.22684 109
71.24695 102
71.26707 106
71.28718 126
71.3073 112
71.32741 110
71.34752 118
71.36764 121
71.38775 106
71.40786 108
71.42798 99
71.44809 123
71.4682 108
71.48832 95
71.50843 103
71.52855 101
71.54866 108
71.56877 122
71.58889 118
71.609 115
71.62911 117
71.64923 108
71.66934 106
71.68946 110
71.70957 125
71.72968 110
71.7498 123
71.76991 115
71.79002 122
71.81014 108
71.83025 134
71.85037 120
71.87048 121
71.89059 115
71.91071 122
71.93082 123
71.95093 115
71.97105 107
71.99116 129
72.01127 110
72.03139 105
72.0515 132
72.07162 119
72.09173 110
72.11184 125
72.13196 115
72.15207 116
72.17218 113
72.1923 125
72.21241 133
72.23253 123
72.25264 101
72.27275 120
72.29287 125
72.31298 123
72.33309 126
72.35321 112
72.37332 107
72.39344 124
72.41355 141
72.43366 125
72.45378 122
72.47389 103
72.494 111
72.51412 120
72.53423 117
72.55434 120
72.57446 104
72.59457 127
72.61469 126
72.6348 99
72.65491 135
72.67503 121
72.69514 109
72.71525 125
72.73537 122
72.75548 105
72.7756 150
72.79571 121
72.81582 121
72.83594 123
72.85605 143
72.87616 132
72.89628 114
72.91639 143
72.9365 122
72.95662 141
72.97673 131
72.99685 123
73.01696 140
73.03707 134
73.05719 128
73.0773 145
73.09741 164
73.11753 163
73.13764 168
73.15776 164
73.17787 182
73.19798 188
73.2181 177
73.23821 227
73.25832 271
73.27844 300
73.29855 285
73.31867 337
73.33878 358
73.35889 407
73.37901 474
73.39912 529
73.41923 544
73.43935 628
73.45946 573
73.47957 540
73.49969 408
73.5198 388
73.53992 336
73.56003 324
73.58014 327
73.60026 375
73.62037 365
73.64048 341
73.6606 361
73.68071 308
73.70083 308
73.72094 254
73.74105 212
73.76117 158
73.78128 150
73.80139 138
73.82151 132
73.84162 138
73.86174 132
73.88185 140
73.90196 131
73.92208 129
73.94219 142
73.9623 128
73.98242 145
74.00253 134
74.02264 104
74.04276 130
74.06287 132
74.08299 113
74.1031 128
74.12321 126
74.14333 114
74.16344 131
74.18355 126
74.20367 108
74.22378 133
74.2439 137
74.26401 115
74.28412 100
74.30424 132
74.32435 122
74.34446 125
74.36458 129
74.38469 120
74.40481 119
74.42492 112
74.44503 109
74.46515 133
74.48526 120
74.50537 124
74.52549 124
74.5456 121
74.56571 112
74.58583 109
74.60594 116
74.62606 120
74.64617 108
74.66628 134
74.6864 129
74.70651 127
74.72662 135
74.74674 128
74.76685 102
74.78697 106
74.80708 123
74.82719 115
74.84731 124
74.86742 128
74.88753 99
74.90765 132
74.92776 105
74.94787 132
74.96799 137
74.9881 117
75.00822 111
