3.00117 20470
3.02128 19771
3.0414 19430
3.06151 18817
3.08162 18179
3.10174 17982
3.12185 17073
3.14197 17084
3.16208 16213
3.18219 16024
3.20231 15509
3.22242 14900
3.24253 14640
3.26265 13998
3.28276 13997
3.30288 13146
3.32299 12804
3.3431 12568
3.36322 11977
3.38333 11720
3.40344 11074
3.42356 10757
3.44367 10494
3.46379 10009
3.4839 9789
3.50401 9611
3.52413 9116
3.54424 8933
3.56435 8397
3.58447 8259
3.60458 7837
3.62469 7497
3.64481 7319
3.66492 6799
3.68504 6821
3.70515 6471
3.72526 6033
3.74538 6072
3.76549 5598
3.7856 5754
3.80572 5461
3.82583 5179
3.84595 4882
3.86606 4667
3.88617 4673
3.90629 4373
3.9264 3958
3.94651 4021
3.96663 3536
3.98674 3672
4.00686 3495
4.02697 3260
4.04708 3169
4.0672 2919
4.08731 2889
4.10742 2950
4.12754 2549
4.14765 2558
4.16776 2308
4.18788 2368
4.20799 2345
4.22811 2134
4.24822 2113
4.26833 1866
4.28845 2096
4.30856 2012
4.32867 1778
4.34879 1792
4.3689 1751
4.38902 1700
4.40913 1804
4.42924 1520
4.44936 1561
4.46947 1505
4.48958 1441
4.5097 1497
4.52981 1339
4.54992 1352
4.57004 1344
4.59015 1276
4.61027 1406
4.63038 1231
4.65049 1156
4.67061 1135
4.69072 1163
4.71083 1154
4.73095 1052
4.75106 1137
4.77118 1016
4.79129 990
4.8114 990
4.83152 913
4.85163 936
4.87174 942
4.89186 917
4.91197 982
4.93209 815
4.9522 902
4.97231 832
4.99243 811
5.01254 870
5.03265 788
5.05277 700
5.07288 790
5.09299 724
5.11311 766
5.13322 684
5.15334 664
5.17345 694
5.19356 653
5.21368 667
5.23379 616
5.2539 621
5.27402 626
5.29413 584
5.31425 596
5.33436 548
5.35447 547
5.37459 605
5.3947 529
5.41481 516
5.43493 476
5.45504 522
5.47516 479
5.49527 479
5.51538 482
5.5355 445
5.55561 452
5.57572 476
5.59584 430
5.61595 423
5.63606 458
5.65618 457
5.67629 421
5.69641 355
5.71652 385
5.73663 422
5.75675 385
5.77686 385
5.79697 382
5.81709 327
5.8372 374
5.85732 365
5.87743 398
5.89754 326
5.91766 365
5.93777 369
5.95788 330
5.978 307
5.99811 329
6.01823 347
6.03834 312
6.05845 347
6.07857 305
6.09868 301
6.11879 359
6.13891 327
6.15902 310
6.17913 307
6.19925 333
6.21936 295
6.23948 326
6.25959 303
6.2797 258
6.29982 323
6.31993 266
6.34004 309
6.36016 292
6.38027 302
6.40039 289
6.4205 319
6.44061 277
6.46073 320
6.48084 302
6.50095 295
6.52107 316
6.54118 274
6.56129 289
6.58141 285
6.60152 286
6.62164 287
6.64175 272
6.66186 306
6.68198 235
6.70209 285
6.7222 270
6.74232 284
6.76243 258
6.78255 288
6.80266 279
6.82277 251
6.84289 267
6.863 275
6.88311 284
6.90323 294
6.92334 279
6.94346 291
6.96357 274
6.98368 263
7.0038 267
7.02391 256
7.04402 244
7.06414 268
7.08425 270
7.10436 224
7.12448 270
7.14459 281
7.16471 268
7.18482 276
7.20493 240
7.22505 280
7.24516 289
7.26527 295
7.28539 314
7.3055 235
7.32562 280
7.34573 289
7.36584 262
7.38596 277
7.40607 285
7.42618 287
7.4463 293
7.46641 232
7.48653 257
7.50664 292
7.52675 250
7.54687 238
7.56698 242
7.58709 240
7.60721 234
7.62732 260
7.64743 268
7.66755 274
7.68766 272
7.70778 278
7.72789 253
7.748 286
7.76812 254
7.78823 270
7.80834 238
7.82846 237
7.84857 274
7.86869 264
7.8888 295
7.90891 286
7.92903 275
7.94914 250
7.96925 251
7.98937 248
8.00948 262
8.0296 252
8.04971 252
8.06982 266
8.08994 249
8.11005 279
8.13016 267
8.15028 277
8.17039 243
8.1905 262
8.21062 279
8.23073 282
8.25085 280
8.27096 259
8.29107 247
8.31119 280
8.3313 252
8.35141 317
8.37153 258
8.39164 277
8.41176 258
8.43187 247
8.45198 260
8.4721 266
8.49221 291
8.51232 280
8.53244 275
8.55255 315
8.57266 255
8.59278 268
8.61289 275
8.63301 281
8.65312 290
8.67323 278
8.69335 291
8.71346 331
8.73357 263
8.75369 303
8.7738 284
8.79392 303
8.81403 281
8.83414 285
8.85426 291
8.87437 286
8.89448 268
8.9146 255
8.93471 259
8.95483 284
8.97494 263
8.99505 251
9.01517 286
9.03528 262
9.05539 265
9.07551 280
9.09562 266
9.11573 237
9.13585 264
9.15596 250
9.17608 248
9.19619 258
9.2163 283
9.23642 265
9.25653 280
9.27664 245
9.29676 257
9.31687 260
9.33699 246
9.3571 312
9.37721 253
9.39733 268
9.41744 260
9.43755 274
9.45767 257
9.47778 272
9.4979 231
9.51801 226
9.53812 234
9.55824 254
9.57835 283
9.59846 262
9.61858 266
9.63869 249
9.6588 235
9.67892 260
9.69903 259
9.71915 277
9.73926 228
9.75937 276
9.77949 238
9.7996 258
9.81971 260
9.83983 246
9.85994 258
9.88006 254
9.90017 247
9.92028 233
9.9404 259
9.96051 219
9.98062 272
10.00074 234
10.02085 270
10.04097 263
10.06108 256
10.08119 277
10.10131 274
10.12142 266
10.14153 267
10.16165 258
10.18176 255
10.20187 245
10.22199 249
10.2421 236
10.26222 277
10.28233 273
10.30244 292
10.32256 260
10.34267 285
10.36278 253
10.3829 258
10.40301 260
10.42313 257
10.44324 259
10.46335 249
10.48347 267
10.50358 246
10.52369 234
10.54381 254
10.56392 236
10.58403 252
10.60415 250
10.62426 261
10.64438 246
10.66449 275
10.6846 258
10.70472 265
10.72483 272
10.74494 236
10.76506 241
10.78517 249
10.80529 265
10.8254 270
10.84551 265
10.86563 227
10.88574 250
10.90585 232
10.92597 225
10.94608 242
10.9662 269
10.98631 280
11.00642 252
11.02654 248
11.04665 253
11.06676 238
11.08688 272
11.10699 256
11.1271 272
11.14722 260
11.16733 257
11.18745 261
11.20756 259
11.22767 239
11.24779 262
11.2679 233
11.28801 291
11.30813 249
11.32824 234
11.34836 263
11.36847 268
11.38858 281
11.4087 264
11.42881 234
11.44892 260
11.46904 253
11.48915 282
11.50927 252
11.52938 288
11.54949 281
11.56961 269
11.58972 285
11.60983 268
11.62995 278
11.65006 277
11.67017 267
11.69029 261
11.7104 272
11.73052 262
11.75063 261
11.77074 248
11.79086 302
11.81097 275
11.83108 289
11.8512 283
11.87131 271
11.89143 257
11.91154 269
11.93165 271
11.95177 272
11.97188 278
11.99199 279
12.01211 306
12.03222 286
12.05234 317
12.07245 320
12.09256 279
12.11268 287
12.13279 295
12.1529 306
12.17302 291
12.19313 300
12.21324 314
12.23336 305
12.25347 307
12.27359 340
12.2937 315
12.31381 303
12.33393 297
12.35404 278
12.37415 287
12.39427 302
12.41438 307
12.4345 263
12.45461 255
12.47472 260
12.49484 282
12.51495 258
12.53506 273
12.55518 286
12.57529 244
12.5954 243
12.61552 274
12.63563 232
12.65575 257
12.67586 249
12.69597 252
12.71609 255
12.7362 244
12.75631 268
12.77643 251
12.79654 242
12.81666 242
12.83677 231
12.85688 216
12.877 222
12.89711 213
12.91722 260
12.93734 239
12.95745 251
12.97757 217
12.99768 231
13.01779 262
13.03791 246
13.05802 252
13.07813 277
13.09825 278
13.11836 268
13.13847 311
13.15859 258
13.1787 275
13.19882 243
13.21893 214
13.23904 249
13.25916 214
13.27927 264
13.29938 242
13.3195 214
13.33961 235
13.35973 261
13.37984 224
13.39995 230
13.42007 249
13.44018 236
13.46029 248
13.48041 256
13.50052 269
13.52064 261
13.54075 284
13.56086 296
13.58098 310
13.60109 344
13.6212 340
13.64132 327
13.66143 334
13.68154 271
13.70166 276
13.72177 288
13.74189 281
13.762 265
13.78211 308
13.80223 261
13.82234 260
13.84245 315
13.86257 289
13.88268 330
13.9028 255
13.92291 277
13.94302 243
13.96314 246
13.98325 245
14.00336 247
14.02348 231
14.04359 230
14.06371 216
14.08382 240
14.10393 239
14.12405 223
14.14416 232
14.16427 202
14.18439 213
14.2045 203
14.22461 207
14.24473 232
14.26484 237
14.28496 199
14.30507 196
14.32518 235
14.3453 189
14.36541 229
14.38552 226
14.40564 203
14.42575 251
14.44587 229
14.46598 231
14.48609 234
14.50621 224
14.52632 220
14.54643 218
14.56655 207
14.58666 214
14.60677 228
14.62689 195
14.647 219
14.66712 206
14.68723 224
14.70734 210
14.72746 216
14.74757 201
14.76768 235
14.7878 224
14.80791 222
14.82803 263
14.84814 242
14.86825 240
14.88837 278
14.90848 277
14.92859 285
14.94871 269
14.96882 266
14.98894 232
15.00905 257
15.02916 252
15.04928 235
15.06939 277
15.0895 228
15.10962 237
15.12973 245
15.14984 224
15.16996 217
15.19007 248
15.21019 222
15.2303 231
15.25041 211
15.27053 226
15.29064 225
15.31075 193
15.33087 227
15.35098 229
15.3711 212
15.39121 199
15.41132 218
15.43144 191
15.45155 233
15.47166 206
15.49178 213
15.51189 201
15.53201 188
15.55212 199
15.57223 227
15.59235 196
15.61246 208
15.63257 191
15.65269 217
15.6728 202
15.69291 205
15.71303 209
15.73314 235
15.75326 222
15.77337 240
15.79348 193
15.8136 222
15.83371 206
15.85382 241
15.87394 209
15.89405 202
15.91417 193
15.93428 191
15.95439 227
15.97451 207
15.99462 233
16.01473 193
16.03485 196
16.05496 190
16.07508 205
16.09519 201
16.1153 214
16.13542 199
16.15553 206
16.17564 183
16.19576 200
16.21587 187
16.23598 198
16.2561 173
16.27621 220
16.29633 181
16.31644 212
16.33655 180
16.35667 179
16.37678 215
16.39689 217
16.41701 199
16.43712 203
16.45724 200
16.47735 200
16.49746 226
16.51758 203
16.53769 217
16.5578 200
16.57792 200
16.59803 207
16.61814 167
16.63826 196
16.65837 209
16.67849 193
16.6986 192
16.71871 189
16.73883 183
16.75894 205
16.77905 198
16.79917 215
16.81928 192
16.8394 194
16.85951 203
16.87962 204
16.89974 205
16.91985 214
16.93996 194
16.96008 196
16.98019 238
17.00031 201
17.02042 188
17.04053 180
17.06065 199
17.08076 198
17.10087 182
17.12099 217
17.1411 199
17.16121 200
17.18133 199
17.20144 170
17.22156 219
17.24167 217
17.26178 186
17.2819 187
17.30201 225
17.32212 182
17.34224 219
17.36235 196
17.38247 209
17.40258 203
17.42269 196
17.44281 210
17.46292 198
17.48303 198
17.50315 166
17.52326 215
17.54338 203
17.56349 208
17.5836 187
17.60372 199
17.62383 208
17.64394 221
17.66406 204
17.68417 205
17.70428 217
17.7244 190
17.74451 203
17.76463 195
17.78474 220
17.80485 194
17.82497 199
17.84508 201
17.86519 206
17.88531 203
17.90542 207
17.92554 205
17.94565 189
17.96576 175
17.98588 189
18.00599 184
18.0261 213
18.04622 192
18.06633 203
18.08645 210
18.10656 206
18.12667 207
18.14679 193
18.1669 176
18.18701 206
18.20713 207
18.22724 209
18.24735 210
18.26747 202
18.28758 195
18.3077 204
18.32781 176
18.34792 208
18.36804 216
18.38815 194
18.40826 176
18.42838 238
18.44849 234
18.46861 192
18.48872 212
18.50883 187
18.52895 191
18.54906 208
18.56917 211
18.58929 192
18.6094 200
18.62951 195
18.64963 200
18.66974 197
18.68986 188
18.70997 187
18.73008 191
18.7502 220
18.77031 219
18.79042 220
18.81054 218
18.83065 215
18.85077 226
18.87088 222
18.89099 228
18.91111 178
18.93122 235
18.95133 220
18.97145 226
18.99156 230
19.01168 203
19.03179 183
19.0519 203
19.07202 228
19.09213 186
19.11224 233
19.13236 226
19.15247 240
19.17258 235
19.1927 223
19.21281 235
19.23293 268
19.25304 259
19.27315 279
19.29327 266
19.31338 248
19.33349 250
19.35361 260
19.37372 226
19.39384 274
19.41395 234
19.43406 264
19.45418 229
19.47429 264
19.4944 277
19.51452 261
19.53463 244
19.55475 267
19.57486 269
19.59497 291
19.61509 321
19.6352 279
19.65531 314
19.67543 324
19.69554 298
19.71565 316
19.73577 378
19.75588 345
19.776 356
19.79611 372
19.81622 417
19.83634 395
19.85645 398
19.87656 399
19.89668 397
19.91679 417
19.93691 391
19.95702 370
19.97713 385
19.99725 428
20.01736 332
20.03747 335
20.05759 383
20.0777 361
20.09782 345
20.11793 352
20.13804 364
20.15816 371
20.17827 362
20.19838 349
20.2185 397
20.23861 381
20.25872 362
20.27884 394
20.29895 374
20.31907 399
20.33918 351
20.35929 369
20.37941 421
20.39952 423
20.41963 386
20.43975 407
20.45986 410
20.47998 442
20.50009 435
20.5202 385
20.54032 438
20.56043 459
20.58054 479
20.60066 492
20.62077 576
20.64088 613
20.661 707
20.68111 918
20.70123 1110
20.72134 1500
20.74145 2016
20.76157 2707
20.78168 3401
20.80179 4261
20.82191 4642
20.84202 4843
20.86214 4265
20.88225 3531
20.90236 2696
20.92248 2064
20.94259 1551
20.9627 1333
20.98282 1200
21.00293 1144
21.02305 1107
21.04316 927
21.06327 804
21.08339 698
21.1035 616
21.12361 496
21.14373 479
21.16384 438
21.18395 398
21.20407 410
21.22418 382
21.2443 375
21.26441 368
21.28452 376
21.30464 374
21.32475 351
21.34486 363
21.36498 346
21.38509 345
21.40521 348
21.42532 326
21.44543 329
21.46555 335
21.48566 333
21.50577 344
21.52589 320
21.546 312
21.56612 344
21.58623 289
21.60634 349
21.62646 318
21.64657 321
21.66668 294
21.6868 311
21.70691 312
21.72702 309
21.74714 323
21.76725 347
21.78737 327
21.80748 351
21.82759 367
21.84771 362
21.86782 441
21.88793 460
21.90805 525
21.92816 605
21.94828 589
21.96839 689
21.9885 705
22.00862 678
22.02873 592
22.04884 518
22.06896 431
22.08907 404
22.10919 349
22.1293 374
22.14941 355
22.16953 362
22.18964 363
22.20975 323
22.22987 342
22.24998 393
22.27009 411
22.29021 395
22.31032 429
22.33044 397
22.35055 372
22.37066 352
22.39078 334
22.41089 364
22.431 327
22.45112 329
22.47123 334
22.49135 339
22.51146 327
22.53157 340
22.55169 353
22.5718 325
22.59191 336
22.61203 306
22.63214 354
22.65225 297
22.67237 337
22.69248 283
22.7126 291
22.73271 334
22.75282 312
22.77294 298
22.79305 298
22.81316 321
22.83328 308
22.85339 333
22.87351 362
22.89362 353
22.91373 374
22.93385 366
22.95396 385
22.97407 397
22.99419 401
23.0143 386
23.03442 402
23.05453 421
23.07464 424
23.09476 462
23.11487 450
23.13498 504
23.1551 580
23.17521 554
23.19532 520
23.21544 546
23.23555 515
23.25567 476
23.27578 428
23.29589 413
23.31601 380
23.33612 383
23.35623 368
23.37635 410
23.39646 370
23.41658 397
23.43669 424
23.4568 401
23.47692 433
23.49703 491
23.51714 461
23.53726 505
23.55737 500
23.57749 478
23.5976 507
23.61771 445
23.63783 465
23.65794 417
23.67805 380
23.69817 379
23.71828 382
23.73839 345
23.75851 392
23.77862 409
23.79874 407
23.81885 437
23.83896 418
23.85908 456
23.87919 495
23.8993 524
23.91942 584
23.93953 667
23.95965 612
23.97976 630
23.99987 665
24.01999 626
24.0401 523
24.06021 468
24.08033 418
24.10044 417
24.12056 402
24.14067 465
24.16078 445
24.1809 425
24.20101 470
24.22112 474
24.24124 475
24.26135 515
24.28146 532
24.30158 490
24.32169 475
24.34181 458
24.36192 470
24.38203 419
24.40215 339
24.42226 343
24.44237 348
24.46249 310
24.4826 318
24.50272 308
24.52283 351
24.54294 356
24.56306 336
24.58317 345
24.60328 374
24.6234 362
24.64351 334
24.66362 397
24.68374 402
24.70385 392
24.72397 388
24.74408 445
24.76419 399
24.78431 383
24.80442 419
24.82453 416
24.84465 403
24.86476 406
24.88488 386
24.90499 314
24.9251 386
24.94522 359
24.96533 383
24.98544 378
25.00556 339
25.02567 346
25.04579 331
25.0659 325
25.08601 291
25.10613 346
25.12624 357
25.14635 366
25.16647 381
25.18658 335
25.20669 327
25.22681 333
25.24692 384
25.26704 366
25.28715 406
25.30726 374
25.32738 414
25.34749 380
25.3676 429
25.38772 467
25.40783 451
25.42795 540
25.44806 569
25.46817 669
25.48829 651
25.5084 742
25.52851 716
25.54863 731
25.56874 734
25.58886 728
25.60897 780
25.62908 735
25.6492 672
25.66931 667
25.68942 593
25.70954 564
25.72965 522
25.74976 504
25.76988 486
25.78999 477
25.81011 486
25.83022 429
25.85033 451
25.87045 434
25.89056 483
25.91067 423
25.93079 434
25.9509 454
25.97102 460
25.99113 446
26.01124 478
26.03136 441
26.05147 488
26.07158 507
26.0917 580
26.11181 557
26.13193 605
26.15204 632
26.17215 626
26.19227 725
26.21238 780
26.23249 767
26.25261 863
26.27272 939
26.29283 1034
26.31295 1148
26.33306 1390
26.35318 1514
26.37329 1754
26.3934 2082
26.41352 2534
26.43363 2984
26.45374 3906
26.47386 5303
26.49397 6528
26.51409 9120
26.5342 11887
26.55431 14979
26.57443 17873
26.59454 20411
26.61465 20645
26.63477 19079
26.65488 15673
26.67499 12067
26.69511 8870
26.71522 6268
26.73534 3866
26.75545 2403
26.77556 1740
26.79568 1330
26.81579 1209
26.8359 1200
26.85602 1073
26.87613 997
26.89625 921
26.91636 978
26.93647 1030
26.95659 1099
26.9767 1078
26.99681 1121
27.01693 1203
27.03704 1265
27.05716 1145
27.07727 1081
27.09738 985
27.1175 910
27.13761 815
27.15772 717
27.17784 669
27.19795 707
27.21806 659
27.23818 720
27.25829 813
27.27841 866
27.29852 977
27.31863 1068
27.33875 1240
27.35886 1330
27.37897 1440
27.39909 1636
27.4192 1728
27.43932 1698
27.45943 1699
27.47954 1484
27.49966 1381
27.51977 1196
27.53988 992
27.56 872
27.58011 706
27.60023 657
27.62034 653
27.64045 656
27.66057 673
27.68068 768
27.70079 829
27.72091 885
27.74102 898
27.76113 891
27.78125 925
27.80136 927
27.82148 965
27.84159 986
27.8617 964
27.88182 1055
27.90193 1098
27.92204 1099
27.94216 1068
27.96227 970
27.98239 879
28.0025 737
28.02261 667
28.04273 575
28.06284 566
28.08295 465
28.10307 459
28.12318 497
28.1433 474
28.16341 503
28.18352 487
28.20364 474
28.22375 497
28.24386 485
28.26398 444
28.28409 421
28.3042 407
28.32432 402
28.34443 347
28.36455 345
28.38466 297
28.40477 311
28.42489 347
28.445 289
28.46511 306
28.48523 291
28.50534 311
28.52546 292
28.54557 277
28.56568 245
28.5858 310
28.60591 297
28.62602 266
28.64614 269
28.66625 283
28.68636 257
28.70648 289
28.72659 288
28.74671 298
28.76682 281
28.78693 281
28.80705 268
28.82716 279
28.84727 274
28.86739 264
28.8875 251
28.90762 292
28.92773 284
28.94784 265
28.96796 274
28.98807 255
29.00818 257
29.0283 262
29.04841 279
29.06853 288
29.08864 263
29.10875 252
29.12887 276
29.14898 269
29.16909 251
29.18921 264
29.20932 271
29.22943 296
29.24955 311
29.26966 315
29.28978 298
29.30989 304
29.33 373
29.35012 358
29.37023 409
29.39034 477
29.41046 407
29.43057 421
29.45069 388
29.4708 425
29.49091 395
29.51103 404
29.53114 372
29.55125 376
29.57137 328
29.59148 375
29.6116 360
29.63171 334
29.65182 367
29.67194 321
29.69205 328
29.71216 335
29.73228 359
29.75239 361
29.7725 390
29.79262 380
29.81273 366
29.83285 380
29.85296 393
29.87307 360
29.89319 388
29.9133 377
29.93341 359
29.95353 383
29.97364 408
29.99376 392
30.01387 375
30.03398 448
30.0541 421
30.07421 413
30.09432 455
30.11444 465
30.13455 531
30.15467 484
30.17478 525
30.19489 472
30.21501 492
30.23512 495
30.25523 494
30.27535 493
30.29546 441
30.31557 435
30.33569 437
30.3558 477
30.37592 434
30.39603 489
30.41614 449
30.43626 441
30.45637 396
30.47648 346
30.4966 376
30.51671 356
30.53683 351
30.55694 346
30.57705 335
30.59717 338
30.61728 369
30.63739 422
30.65751 421
30.67762 493
30.69773 476
30.71785 480
30.73796 502
30.75808 509
30.77819 503
30.7983 431
30.81842 441
30.83853 442
30.85864 454
30.87876 398
30.89887 375
30.91899 333
30.9391 321
30.95921 282
30.97933 285
30.99944 279
31.01955 245
31.03967 231
31.05978 241
31.0799 281
31.10001 253
31.12012 259
31.14024 245
31.16035 256
31.18046 281
31.20058 257
31.22069 247
31.2408 273
31.26092 292
31.28103 302
31.30115 271
31.32126 284
31.34137 281
31.36149 293
31.3816 273
31.40171 253
31.42183 236
31.44194 276
31.46206 255
31.48217 266
31.50228 237
31.5224 232
31.54251 242
31.56262 248
31.58274 256
31.60285 230
31.62297 257
31.64308 233
31.66319 220
31.68331 252
31.70342 235
31.72353 216
31.74365 207
31.76376 200
31.78387 203
31.80399 229
31.8241 224
31.84422 232
31.86433 212
31.88444 214
31.90456 229
31.92467 238
31.94478 232
31.9649 237
31.98501 254
32.00513 273
32.02524 249
32.04535 281
32.06547 269
32.08558 290
32.10569 283
32.12581 330
32.14592 331
32.16604 327
32.18615 306
32.20626 282
32.22638 280
32.24649 282
32.2666 294
32.28672 292
32.30683 271
32.32694 321
32.34706 284
32.36717 319
32.38729 336
32.4074 319
32.42751 318
32.44763 296
32.46774 348
32.48785 269
32.50797 303
32.52808 260
32.5482 247
32.56831 246
32.58842 232
32.60854 221
32.62865 229
32.64876 210
32.66888 210
32.68899 222
32.7091 202
32.72922 214
32.74933 215
32.76945 221
32.78956 183
32.80967 226
32.82979 212
32.8499 221
32.87001 211
32.89013 247
32.91024 198
32.93036 220
32.95047 221
32.97058 217
32.9907 242
33.01081 238
33.03092 213
33.05104 227
33.07115 206
33.09127 187
33.11138 200
33.13149 212
33.15161 192
33.17172 221
33.19183 200
33.21195 205
33.23206 210
33.25217 223
33.27229 217
33.2924 197
33.31252 204
33.33263 205
33.35274 205
33.37286 209
33.39297 194
33.41308 225
33.4332 209
33.45331 202
33.47343 217
33.49354 224
33.51365 246
33.53377 211
33.55388 208
33.57399 239
33.59411 223
33.61422 196
33.63434 222
33.65445 192
33.67456 214
33.69468 240
33.71479 211
33.7349 236
33.75502 213
33.77513 223
33.79524 262
33.81536 265
33.83547 270
33.85559 247
33.8757 253
33.89581 252
33.91593 222
33.93604 261
33.95615 267
33.97627 244
33.99638 270
34.0165 258
34.03661 264
34.05672 289
34.07684 312
34.09695 323
34.11706 352
34.13718 361
34.15729 361
34.17741 387
34.19752 392
34.21763 424
34.23775 378
34.25786 393
34.27797 336
34.29809 370
34.3182 333
34.33831 346
34.35843 318
34.37854 327
34.39866 292
34.41877 330
34.43888 306
34.459 317
34.47911 336
34.49922 280
34.51934 306
34.53945 333
34.55957 330
34.57968 346
34.59979 355
34.61991 341
34.64002 354
34.66013 387
34.68025 361
34.70036 302
34.72047 325
34.74059 355
34.7607 329
34.78082 341
34.80093 360
34.82104 381
34.84116 367
34.86127 378
34.88138 400
34.9015 398
34.92161 382
34.94173 362
34.96184 356
34.98195 387
35.00207 347
35.02218 396
35.04229 414
35.06241 396
35.08252 369
35.10264 421
35.12275 392
35.14286 411
35.16298 412
35.18309 426
35.2032 404
35.22332 375
35.24343 415
35.26354 469
35.28366 430
35.30377 392
35.32389 366
35.344 400
35.36411 419
35.38423 389
35.40434 384
35.42445 436
35.44457 412
35.46468 372
35.4848 417
35.50491 411
35.52502 426
35.54514 416
35.56525 388
35.58536 387
35.60548 415
35.62559 349
35.64571 338
35.66582 349
35.68593 309
35.70605 330
35.72616 328
35.74627 359
35.76639 296
35.7865 311
35.80661 297
35.82673 301
35.84684 292
35.86696 304
35.88707 298
35.90718 295
35.9273 302
35.94741 287
35.96752 263
35.98764 275
36.00775 276
36.02787 289
36.04798 269
36.06809 300
36.08821 312
36.10832 317
36.12843 288
36.14855 309
36.16866 333
36.18878 351
36.20889 346
36.229 354
36.24912 362
36.26923 376
36.28934 440
36.30946 424
36.32957 542
36.34968 568
36.3698 658
36.38991 785
36.41003 925
36.43014 995
36.45025 1289
36.47037 1402
36.49048 1498
36.51059 1562
36.53071 1412
36.55082 1281
36.57094 1074
36.59105 958
36.61116 849
36.63128 751
36.65139 547
36.6715 432
36.69162 402
36.71173 290
36.73184 329
36.75196 355
36.77207 347
36.79219 319
36.8123 310
36.83241 353
36.85253 376
36.87264 377
36.89275 335
36.91287 336
36.93298 353
36.9531 334
36.97321 396
36.99332 357
37.01344 327
37.03355 360
37.05366 304
37.07378 339
37.09389 299
37.11401 300
37.13412 300
37.15423 314
37.17435 298
37.19446 271
37.21457 285
37.23469 269
37.2548 264
37.27491 269
37.29503 291
37.31514 249
37.33526 283
37.35537 278
37.37548 287
37.3956 286
37.41571 268
37.43582 285
37.45594 278
37.47605 274
37.49617 301
37.51628 316
37.53639 288
37.55651 294
37.57662 275
37.59673 283
37.61685 280
37.63696 276
37.65708 282
37.67719 291
37.6973 265
37.71742 284
37.73753 276
37.75764 255
37.77776 238
37.79787 247
37.81798 274
37.8381 259
37.85821 250
37.87833 236
37.89844 218
37.91855 238
37.93867 243
37.95878 246
37.97889 238
37.99901 229
38.01912 264
38.03924 290
38.05935 248
38.07946 266
38.09958 264
38.11969 261
38.1398 288
38.15992 256
38.18003 245
38.20015 261
38.22026 282
38.24037 244
38.26049 246
38.2806 266
38.30071 278
38.32083 294
38.34094 254
38.36105 265
38.38117 272
38.40128 291
38.4214 313
38.44151 312
38.46162 328
38.48174 307
38.50185 341
38.52196 332
38.54208 327
38.56219 325
38.58231 286
38.60242 277
38.62253 327
38.64265 272
38.66276 296
38.68287 229
38.70299 268
38.7231 281
38.74321 267
38.76333 256
38.78344 273
38.80356 258
38.82367 260
38.84378 249
38.8639 265
38.88401 258
38.90412 239
38.92424 285
38.94435 267
38.96447 268
38.98458 251
39.00469 309
39.02481 274
39.04492 277
39.06503 278
39.08515 291
39.10526 253
39.12538 304
39.14549 321
39.1656 297
39.18572 344
39.20583 360
39.22594 412
39.24606 455
39.26617 421
39.28628 587
39.3064 673
39.32651 772
39.34663 937
39.36674 1131
39.38685 1309
39.40697 1340
39.42708 1404
39.44719 1368
39.46731 1260
39.48742 1058
39.50754 888
39.52765 830
39.54776 796
39.56788 624
39.58799 512
39.6081 355
39.62822 325
39.64833 269
39.66845 294
39.68856 290
39.70867 266
39.72879 257
39.7489 246
39.76901 233
39.78913 316
39.80924 267
39.82935 260
39.84947 241
39.86958 233
39.8897 269
39.90981 241
39.92992 246
39.95004 239
39.97015 226
39.99026 300
40.01038 258
40.03049 300
40.05061 311
40.07072 347
40.09083 357
40.11095 400
40.13106 422
40.15117 515
40.17129 604
40.1914 652
40.21152 685
40.23163 767
40.25174 842
40.27186 753
40.29197 702
40.31208 608
40.3322 561
40.35231 568
40.37242 455
40.39254 435
40.41265 345
40.43277 291
40.45288 283
40.47299 238
40.49311 240
40.51322 258
40.53333 229
40.55345 250
40.57356 244
40.59368 249
40.61379 230
40.6339 217
40.65402 218
40.67413 256
40.69424 227
40.71436 216
40.73447 240
40.75458 221
40.7747 249
40.79481 252
40.81493 236
40.83504 232
40.85515 237
40.87527 212
40.89538 244
40.91549 224
40.93561 218
40.95572 239
40.97584 235
40.99595 248
41.01606 218
41.03618 222
41.05629 235
41.0764 262
41.09652 225
41.11663 246
41.13675 226
41.15686 220
41.17697 215
41.19709 264
41.2172 238
41.23731 238
41.25743 247
41.27754 248
41.29765 247
41.31777 241
41.33788 227
41.358 229
41.37811 211
41.39822 227
41.41834 262
41.43845 249
41.45856 259
41.47868 247
41.49879 275
41.51891 236
41.53902 266
41.55913 291
41.57925 298
41.59936 300
41.61947 320
41.63959 382
41.6597 355
41.67982 425
41.69993 400
41.72004 466
41.74016 450
41.76027 444
41.78038 464
41.8005 459
41.82061 423
41.84072 380
41.86084 365
41.88095 347
41.90107 322
41.92118 301
41.94129 280
41.96141 276
41.98152 248
42.00163 270
42.02175 266
42.04186 265
42.06198 260
42.08209 260
42.1022 285
42.12232 283
42.14243 244
42.16254 292
42.18266 326
42.20277 337
42.22289 372
42.243 392
42.26311 420
42.28323 600
42.30334 652
42.32345 768
42.34357 805
42.36368 945
42.38379 1155
42.40391 1075
42.42402 1064
42.44414 954
42.46425 810
42.48436 743
42.50448 674
42.52459 658
42.5447 558
42.56482 496
42.58493 372
42.60505 370
42.62516 330
42.64527 310
42.66539 296
42.6855 309
42.70561 310
42.72573 293
42.74584 296
42.76595 281
42.78607 276
42.80618 280
42.8263 282
42.84641 266
42.86652 242
42.88664 249
42.90675 260
42.92686 236
42.94698 210
42.96709 268
42.98721 222
43.00732 227
43.02743 247
43.04755 230
43.06766 212
43.08777 237
43.10789 263
43.128 265
43.14812 244
43.16823 252
43.18834 235
43.20846 234
43.22857 211
43.24868 203
43.2688 207
43.28891 235
43.30902 201
43.32914 184
43.34925 231
43.36937 208
43.38948 207
43.40959 242
43.42971 215
43.44982 216
43.46993 211
43.49005 224
43.51016 227
43.53028 202
43.55039 218
43.5705 240
43.59062 218
43.61073 219
43.63084 215
43.65096 212
43.67107 229
43.69119 226
43.7113 206
43.73141 198
43.75153 192
43.77164 192
43.79175 206
43.81187 200
43.83198 190
43.85209 213
43.87221 214
43.89232 199
43.91244 187
43.93255 203
43.95266 218
43.97278 214
43.99289 243
44.013 217
44.03312 208
44.05323 208
44.07335 227
44.09346 221
44.11357 230
44.13369 242
44.1538 225
44.17391 243
44.19403 202
44.21414 217
44.23426 217
44.25437 207
44.27448 209
44.2946 218
44.31471 177
44.33482 220
44.35494 184
44.37505 201
44.39516 215
44.41528 206
44.43539 188
44.45551 201
44.47562 186
44.49573 208
44.51585 238
44.53596 216
44.55607 218
44.57619 197
44.5963 223
44.61642 221
44.63653 211
44.65664 212
44.67676 219
44.69687 218
44.71698 226
44.7371 224
44.75721 245
44.77732 229
44.79744 204
44.81755 226
44.83767 214
44.85778 232
44.87789 219
44.89801 196
44.91812 233
44.93823 228
44.95835 213
44.97846 222
44.99858 228
45.01869 208
45.0388 209
45.05892 215
45.07903 226
45.09914 235
45.11926 242
45.13937 225
45.15949 231
45.1796 215
45.19971 224
45.21983 234
45.23994 218
45.26005 232
45.28017 219
45.30028 256
45.32039 260
45.34051 226
45.36062 257
45.38074 244
45.40085 276
45.42096 278
45.44108 303
45.46119 321
45.4813 312
45.50142 327
45.52153 341
45.54165 318
45.56176 380
45.58187 403
45.60199 439
45.6221 481
45.64221 518
45.66233 563
45.68244 691
45.70256 698
45.72267 761
45.74278 835
45.7629 791
45.78301 678
45.80312 642
45.82324 543
45.84335 545
45.86346 543
45.88358 476
45.90369 434
45.92381 378
45.94392 303
45.96403 253
45.98415 265
46.00426 254
46.02437 268
46.04449 255
46.0646 217
46.08472 238
46.10483 224
46.12494 267
46.14506 234
46.16517 230
46.18528 223
46.2054 213
46.22551 254
46.24563 245
46.26574 198
46.28585 228
46.30597 212
46.32608 212
46.34619 207
46.36631 208
46.38642 200
46.40653 208
46.42665 229
46.44676 179
46.46688 183
46.48699 204
46.5071 196
46.52722 173
46.54733 191
46.56744 199
46.58756 198
46.60767 209
46.62779 188
46.6479 212
46.66801 222
46.68813 209
46.70824 185
46.72835 208
46.74847 210
46.76858 198
46.78869 211
46.80881 226
46.82892 192
46.84904 194
46.86915 202
46.88926 231
46.90938 233
46.92949 205
46.9496 229
46.96972 210
46.98983 209
47.00995 230
47.03006 272
47.05017 268
47.07029 271
47.0904 262
47.11051 276
47.13063 249
47.15074 233
47.17086 248
47.19097 224
47.21108 217
47.2312 240
47.25131 240
47.27142 232
47.29154 244
47.31165 247
47.33176 225
47.35188 226
47.37199 235
47.39211 265
47.41222 247
47.43233 240
47.45245 298
47.47256 259
47.49267 222
47.51279 244
47.5329 223
47.55302 233
47.57313 216
47.59324 224
47.61336 194
47.63347 213
47.65358 232
47.6737 212
47.69381 219
47.71393 208
47.73404 210
47.75415 215
47.77427 215
47.79438 190
47.81449 192
47.83461 218
47.85472 182
47.87483 197
47.89495 201
47.91506 200
47.93518 203
47.95529 196
47.9754 181
47.99552 193
48.01563 213
48.03574 190
48.05586 236
48.07597 195
48.09609 226
48.1162 217
48.13631 204
48.15643 179
48.17654 197
48.19665 231
48.21677 222
48.23688 202
48.257 242
48.27711 223
48.29722 236
48.31734 210
48.33745 208
48.35756 222
48.37768 235
48.39779 221
48.4179 197
48.43802 203
48.45813 207
48.47825 189
48.49836 201
48.51847 216
48.53859 191
48.5587 221
48.57881 203
48.59893 193
48.61904 219
48.63916 207
48.65927 209
48.67938 223
48.6995 211
48.71961 212
48.73972 247
48.75984 218
48.77995 231
48.80006 243
48.82018 222
48.84029 265
48.86041 249
48.88052 283
48.90063 252
48.92075 238
48.94086 271
48.96097 244
48.98109 260
49.0012 279
49.02132 249
49.04143 268
49.06154 247
49.08166 268
49.10177 298
49.12188 294
49.142 303
49.16211 296
49.18223 269
49.20234 249
49.22245 275
49.24257 237
49.26268 255
49.28279 246
49.30291 237
49.32302 214
49.34313 234
49.36325 244
49.38336 221
49.40348 243
49.42359 252
49.4437 218
49.46382 220
49.48393 241
49.50404 203
49.52416 234
49.54427 243
49.56439 245
49.5845 255
49.60461 260
49.62473 278
49.64484 273
49.66495 301
49.68507 331
49.70518 320
49.7253 364
49.74541 367
49.76552 376
49.78564 399
49.80575 427
49.82586 471
49.84598 481
49.86609 524
49.8862 573
49.90632 665
49.92643 688
49.94655 829
49.96666 1064
49.98677 1194
50.00689 1418
50.027 1610
50.04711 1925
50.06723 2137
50.08734 2224
50.10746 2173
50.12757 1874
50.14768 1732
50.1678 1503
50.18791 1235
50.20802 1229
50.22814 1157
50.24825 1070
50.26837 892
50.28848 661
50.30859 521
50.32871 459
50.34882 398
50.36893 434
50.38905 447
50.40916 388
50.42927 422
50.44939 474
50.4695 465
50.48962 505
50.50973 489
50.52984 500
50.54996 475
50.57007 443
50.59018 522
50.6103 442
50.63041 464
50.65053 420
50.67064 375
50.69075 414
50.71087 395
50.73098 344
50.75109 344
50.77121 361
50.79132 316
50.81143 313
50.83155 308
50.85166 333
50.87178 299
50.89189 316
50.912 269
50.93212 249
50.95223 237
50.97234 268
50.99246 279
51.01257 272
51.03269 254
51.0528 257
51.07291 259
51.09303 258
51.11314 254
51.13325 260
51.15337 246
51.17348 268
51.1936 268
51.21371 264
51.23382 257
51.25394 260
51.27405 270
51.29416 248
51.31428 247
51.33439 273
51.3545 224
51.37462 235
51.39473 236
51.41485 199
51.43496 228
51.45507 213
51.47519 198
51.4953 193
51.51541 203
51.53553 210
51.55564 170
51.57576 215
51.59587 193
51.61598 207
51.6361 158
51.65621 201
51.67632 183
51.69644 211
51.71655 178
51.73667 190
51.75678 181
51.77689 197
51.79701 185
51.81712 201
51.83723 182
51.85735 183
51.87746 176
51.89757 214
51.91769 185
51.9378 187
51.95792 188
51.97803 179
51.99814 206
52.01826 202
52.03837 195
52.05848 188
52.0786 206
52.09871 214
52.11883 201
52.13894 196
52.15905 190
52.17917 176
52.19928 204
52.21939 193
52.23951 203
52.25962 199
52.27974 173
52.29985 197
52.31996 210
52.34008 213
52.36019 203
52.3803 193
52.40042 202
52.42053 212
52.44064 204
52.46076 207
52.48087 222
52.50099 217
52.5211 204
52.54121 197
52.56133 198
52.58144 207
52.60155 206
52.62167 228
52.64178 241
52.6619 212
52.68201 221
52.70212 231
52.72224 241
52.74235 214
52.76246 212
52.78258 232
52.80269 241
52.8228 234
52.84292 230
52.86303 219
52.88315 210
52.90326 216
52.92337 217
52.94349 236
52.9636 223
52.98371 226
53.00383 215
53.02394 211
53.04406 199
53.06417 194
53.08428 214
53.1044 206
53.12451 212
53.14462 205
53.16474 211
53.18485 229
53.20497 235
53.22508 226
53.24519 197
53.26531 237
53.28542 202
53.30553 242
53.32565 202
53.34576 247
53.36587 247
53.38599 242
53.4061 191
53.42622 229
53.44633 204
53.46644 233
53.48656 221
53.50667 218
53.52678 211
53.5469 218
53.56701 217
53.58713 230
53.60724 227
53.62735 206
53.64747 205
53.66758 235
53.68769 218
53.70781 228
53.72792 209
53.74804 216
53.76815 212
53.78826 203
53.80838 228
53.82849 192
53.8486 215
53.86872 209
53.88883 221
53.90894 190
53.92906 213
53.94917 228
53.96929 241
53.9894 229
54.00951 238
54.02963 217
54.04974 254
54.06985 227
54.08997 214
54.11008 229
54.1302 218
54.15031 247
54.17042 231
54.19054 241
54.21065 225
54.23076 218
54.25088 235
54.27099 273
54.29111 249
54.31122 255
54.33133 240
54.35145 250
54.37156 252
54.39167 280
54.41179 268
54.4319 235
54.45201 267
54.47213 272
54.49224 236
54.51236 261
54.53247 330
54.55258 249
54.5727 276
54.59281 319
54.61292 303
54.63304 365
54.65315 358
54.67327 370
54.69338 428
54.71349 484
54.73361 583
54.75372 626
54.77383 674
54.79395 716
54.81406 735
54.83417 755
54.85429 726
54.8744 649
54.89452 541
54.91463 553
54.93474 505
54.95486 519
54.97497 479
54.99508 479
55.0152 481
55.03531 380
55.05543 344
55.07554 290
55.09565 332
55.11577 310
55.13588 303
55.15599 366
55.17611 377
55.19622 391
55.21634 436
55.23645 453
55.25656 488
55.27668 475
55.29679 474
55.3169 467
55.33702 389
55.35713 375
55.37724 357
55.39736 415
55.41747 394
55.43759 337
55.4577 347
55.47781 296
55.49793 286
55.51804 282
55.53815 249
55.55827 269
55.57838 228
55.5985 226
55.61861 215
55.63872 234
55.65884 234
55.67895 254
55.69906 213
55.71918 231
55.73929 202
55.75941 216
55.77952 215
55.79963 216
55.81975 224
55.83986 216
55.85997 230
55.88009 198
55.9002 197
55.92031 213
55.94043 197
55.96054 215
55.98066 197
56.00077 190
56.02088 197
56.041 211
56.06111 216
56.08122 187
56.10134 212
56.12145 188
56.14157 197
56.16168 228
56.18179 218
56.20191 188
56.22202 206
56.24213 187
56.26225 205
56.28236 211
56.30248 174
56.32259 185
56.3427 195
56.36282 185
56.38293 183
56.40304 196
56.42316 201
56.44327 192
56.46338 185
56.4835 182
56.50361 179
56.52373 193
56.54384 188
56.56395 176
56.58407 197
56.60418 203
56.62429 200
56.64441 214
56.66452 234
56.68464 195
56.70475 222
56.72486 236
56.74498 245
56.76509 215
56.7852 221
56.80532 196
56.82543 222
56.84554 200
56.86566 196
56.88577 199
56.90589 186
56.926 216
56.94611 209
56.96623 200
56.98634 188
57.00645 180
57.02657 213
57.04668 214
57.0668 210
57.08691 220
57.10702 189
57.12714 211
57.14725 222
57.16736 234
57.18748 232
57.20759 251
57.22771 224
57.24782 207
57.26793 218
57.28805 221
57.30816 234
57.32827 242
57.34839 242
57.3685 203
57.38861 228
57.40873 198
57.42884 215
57.44896 205
57.46907 208
57.48918 201
57.5093 198
57.52941 205
57.54952 207
57.56964 202
57.58975 172
57.60987 202
57.62998 197
57.65009 199
57.67021 208
57.69032 212
57.71043 211
57.73055 202
57.75066 186
57.77078 186
57.79089 192
57.811 177
57.83112 197
57.85123 193
57.87134 191
57.89146 212
57.91157 218
57.93168 205
57.9518 184
57.97191 207
57.99203 199
58.01214 207
58.03225 200
58.05237 197
58.07248 180
58.09259 192
58.11271 189
58.13282 199
58.15294 190
58.17305 233
58.19316 201
58.21328 181
58.23339 203
58.2535 221
58.27362 225
58.29373 199
58.31385 194
58.33396 209
58.35407 210
58.37419 212
58.3943 217
58.41441 194
58.43453 237
58.45464 237
58.47475 226
58.49487 245
58.51498 202
58.5351 229
58.55521 239
58.57532 223
58.59544 216
58.61555 250
58.63566 254
58.65578 204
58.67589 258
58.69601 230
58.71612 213
58.73623 221
58.75635 225
58.77646 196
58.79657 204
58.81669 197
58.8368 206
58.85691 202
58.87703 205
58.89714 181
58.91726 213
58.93737 203
58.95748 181
58.9776 216
58.99771 194
59.01782 192
59.03794 201
59.05805 183
59.07817 195
59.09828 213
59.11839 204
59.13851 209
59.15862 211
59.17873 204
59.19885 188
59.21896 207
59.23908 239
59.25919 208
59.2793 207
59.29942 202
59.31953 201
59.33964 229
59.35976 222
59.37987 248
59.39998 219
59.4201 236
59.44021 232
59.46033 261
59.48044 287
59.50055 243
59.52067 245
59.54078 274
59.56089 303
59.58101 294
59.60112 327
59.62124 313
59.64135 370
59.66146 362
59.68158 435
59.70169 474
59.7218 501
59.74192 550
59.76203 673
59.78215 733
59.80226 833
59.82237 1034
59.84249 1179
59.8626 1319
59.88271 1467
59.90283 1448
59.92294 1405
59.94305 1225
59.96317 1091
59.98328 908
60.0034 904
60.02351 892
60.04362 824
60.06374 838
60.08385 803
60.10396 729
60.12408 535
60.14419 472
60.16431 369
60.18442 306
60.20453 279
60.22465 262
60.24476 260
60.26487 238
60.28499 233
60.3051 247
60.32522 290
60.34533 238
60.36544 250
60.38556 233
60.40567 228
60.42578 215
60.4459 243
60.46601 236
60.48612 206
60.50624 226
60.52635 214
60.54647 233
60.56658 204
60.58669 203
60.60681 219
60.62692 208
60.64703 224
60.66715 234
60.68726 193
60.70738 220
60.72749 208
60.7476 236
60.76772 221
60.78783 210
60.80794 203
60.82806 212
60.84817 181
60.86828 220
60.8884 202
60.90851 249
60.92863 220
60.94874 210
60.96885 220
60.98897 203
61.00908 245
61.02919 214
61.04931 252
61.06942 277
61.08954 244
61.10965 295
61.12976 254
61.14988 259
61.16999 251
61.1901 227
61.21022 229
61.23033 241
61.25045 273
61.27056 226
61.29067 272
61.31079 236
61.3309 228
61.35101 236
61.37113 250
61.39124 224
61.41135 229
61.43147 226
61.45158 234
61.4717 199
61.49181 197
61.51192 213
61.53204 205
61.55215 221
61.57226 234
61.59238 218
61.61249 221
61.63261 194
61.65272 229
61.67283 241
61.69295 216
61.71306 223
61.73317 237
61.75329 217
61.7734 259
61.79352 223
61.81363 234
61.83374 202
61.85386 229
61.87397 236
61.89408 237
61.9142 241
61.93431 223
61.95442 249
61.97454 238
61.99465 247
62.01477 233
62.03488 236
62.05499 238
62.07511 241
62.09522 234
62.11533 276
62.13545 251
62.15556 241
62.17568 259
62.19579 250
62.2159 250
62.23602 234
62.25613 232
62.27624 245
62.29636 235
62.31647 251
62.33659 267
62.3567 254
62.37681 225
62.39693 214
62.41704 218
62.43715 204
62.45727 223
62.47738 236
62.49749 234
62.51761 234
62.53772 214
62.55784 229
62.57795 240
62.59806 257
62.61818 219
62.63829 213
62.6584 226
62.67852 235
62.69863 227
62.71875 225
62.73886 202
62.75897 204
62.77909 207
62.7992 200
62.81931 242
62.83943 226
62.85954 226
62.87965 225
62.89977 236
62.91988 216
62.94 250
62.96011 238
62.98022 211
63.00034 240
63.02045 228
63.04056 236
63.06068 253
63.08079 249
63.10091 263
63.12102 222
63.14113 248
63.16125 253
63.18136 252
63.20147 239
63.22159 226
63.2417 211
63.26182 231
63.28193 224
63.30204 204
63.32216 198
63.34227 210
63.36238 232
63.3825 202
63.40261 207
63.42272 245
63.44284 214
63.46295 224
63.48307 211
63.50318 222
63.52329 251
63.54341 220
63.56352 225
63.58363 225
63.60375 225
63.62386 244
63.64398 233
63.66409 251
63.6842 257
63.70432 275
63.72443 305
63.74454 316
63.76466 266
63.78477 334
63.80489 327
63.825 341
63.84511 325
63.86523 349
63.88534 364
63.90545 420
63.92557 419
63.94568 500
63.96579 485
63.98591 465
64.00602 491
64.02614 447
64.04625 438
64.06636 338
64.08648 328
64.10659 346
64.1267 325
64.14682 314
64.16693 294
64.18705 305
64.20716 304
64.22727 266
64.24739 236
64.2675 238
64.28761 177
64.30773 216
64.32784 210
64.34796 224
64.36807 198
64.38818 213
64.4083 206
64.42841 190
64.44852 165
64.46864 193
64.48875 220
64.50886 176
64.52898 207
64.54909 203
64.56921 190
64.58932 185
64.60943 182
64.62955 179
64.64966 183
64.66977 208
64.68989 192
64.71 192
64.73012 195
64.75023 180
64.77034 188
64.79046 193
64.81057 209
64.83068 198
64.8508 178
64.87091 196
64.89102 213
64.91114 193
64.93125 215
64.95137 214
64.97148 200
64.99159 216
65.01171 211
65.03182 254
65.05193 221
65.07205 227
65.09216 199
65.11228 249
65.13239 253
65.1525 239
65.17262 238
65.19273 249
65.21284 264
65.23296 252
65.25307 244
65.27319 256
65.2933 241
65.31341 249
65.33353 249
65.35364 242
65.37375 255
65.39387 235
65.41398 237
65.43409 222
65.45421 232
65.47432 233
65.49444 216
65.51455 232
65.53466 224
65.55478 217
65.57489 215
65.595 204
65.61512 216
65.63523 245
65.65535 215
65.67546 223
65.69557 249
65.71569 263
65.7358 237
65.75591 265
65.77603 224
65.79614 236
65.81626 218
65.83637 227
65.85648 219
65.8766 193
65.89671 211
65.91682 243
65.93694 247
65.95705 218
65.97716 229
65.99728 206
66.01739 206
66.03751 227
66.05762 174
66.07773 235
66.09785 207
66.11796 207
66.13807 199
66.15819 222
66.1783 220
66.19842 210
66.21853 191
66.23864 215
66.25876 205
66.27887 212
66.29898 225
66.3191 228
66.33921 196
66.35933 208
66.37944 227
66.39955 199
66.41967 223
66.43978 259
66.45989 217
66.48001 211
66.50012 192
66.52023 190
66.54035 192
66.56046 213
66.58058 198
66.60069 193
66.6208 197
66.64092 200
66.66103 211
66.68114 201
66.70126 204
66.72137 174
66.74149 212
66.7616 196
66.78171 196
66.80183 204
66.82194 208
66.84205 220
66.86217 206
66.88228 193
66.90239 214
66.92251 196
66.94262 210
66.96274 209
66.98285 218
67.00296 202
67.02308 217
67.04319 213
67.0633 238
67.08342 226
67.10353 243
67.12365 213
67.14376 227
67.16387 243
67.18399 230
67.2041 234
67.22421 208
67.24433 246
67.26444 244
67.28456 217
67.30467 258
67.32478 277
67.3449 271
67.36501 291
67.38512 294
67.40524 268
67.42535 300
67.44546 307
67.46558 365
67.48569 363
67.50581 401
67.52592 477
67.54603 490
67.56615 595
67.58626 639
67.60637 669
67.62649 770
67.6466 860
67.66672 972
67.68683 993
67.70694 966
67.72706 834
67.74717 829
67.76728 665
67.7874 638
67.80751 649
67.82763 683
67.84774 727
67.86785 719
67.88797 731
67.90808 744
67.92819 752
67.94831 720
67.96842 781
67.98853 801
68.00865 923
68.02876 1005
68.04888 1165
68.06899 1194
68.0891 1236
68.10922 1293
68.12933 1193
68.14944 1085
68.16956 1061
68.18967 1014
68.20979 1046
68.2299 1097
68.25001 1146
68.27013 1125
68.29024 1088
68.31035 996
68.33047 868
68.35058 704
68.3707 626
68.39081 567
68.41092 528
68.43104 520
68.45115 501
68.47126 477
68.49138 436
68.51149 356
68.5316 342
68.55172 282
68.57183 245
68.59195 259
68.61206 219
68.63217 233
68.65229 223
68.6724 251
68.69251 249
68.71263 210
68.73274 212
68.75286 223
68.77297 206
68.79308 225
68.8132 226
68.83331 191
68.85342 213
68.87354 189
68.89365 228
68.91376 226
68.93388 235
68.95399 211
68.97411 195
68.99422 203
69.01433 194
69.03445 206
69.05456 212
69.07467 207
69.09479 210
69.1149 192
69.13502 229
69.15513 209
69.17524 224
69.19536 222
69.21547 201
69.23558 213
69.2557 205
69.27581 196
69.29593 208
69.31604 211
69.33615 188
69.35627 208
69.37638 202
69.39649 214
69.41661 216
69.43672 192
69.45683 223
69.47695 187
69.49706 187
69.51718 217
69.53729 215
69.5574 229
69.57752 192
69.59763 197
69.61774 199
69.63786 175
69.65797 185
69.67809 198
69.6982 214
69.71831 208
69.73843 213
69.75854 189
69.77865 204
69.79877 187
69.81888 179
69.839 188
69.85911 192
69.87922 207
69.89934 200
69.91945 172
69.93956 196
69.95968 202
69.97979 184
69.9999 211
70.02002 201
70.04013 203
70.06025 178
70.08036 178
70.10047 194
70.12059 180
70.1407 209
70.16081 208
70.18093 201
70.20104 202
70.22116 173
70.24127 191
70.26138 199
70.2815 198
70.30161 161
70.32172 191
70.34184 174
70.36195 161
70.38207 185
70.40218 184
70.42229 186
70.44241 191
70.46252 192
70.48263 177
70.50275 161
70.52286 190
70.54297 178
70.56309 179
70.5832 187
70.60332 194
70.62343 183
70.64354 175
70.66366 209
70.68377 181
70.70388 181
70.724 195
70.74411 169
70.76423 191
70.78434 217
70.80445 191
70.82457 201
70.84468 184
70.86479 204
70.88491 188
70.90502 184
70.92513 181
70.94525 195
70.96536 207
70.98548 202
71.00559 177
71.0257 170
71.04582 213
71.06593 189
71.08604 188
71.10616 198
71.12627 182
71.14639 181
71.1665 174
71.18661 200
71.20673 183
71.22684 184
71.24695 192
71.26707 181
71.28718 199
71.3073 222
71.32741 180
71.34752 190
71.36764 170
71.38775 207
71.40786 212
71.42798 207
71.44809 203
71.4682 208
71.48832 215
71.50843 208
71.52855 189
71.54866 215
71.56877 215
71.58889 232
71.609 198
71.62911 230
71.64923 199
71.66934 188
71.68946 171
71.70957 201
71.72968 203
71.7498 189
71.76991 168
71.79002 199
71.81014 194
71.83025 184
71.85037 198
71.87048 194
71.89059 207
71.91071 187
71.93082 192
71.95093 212
71.97105 185
71.99116 212
72.01127 208
72.03139 192
72.0515 204
72.07162 218
72.09173 179
72.11184 200
72.13196 223
72.15207 202
72.17218 203
72.1923 233
72.21241 226
72.23253 207
72.25264 209
72.27275 228
72.29287 213
72.31298 194
72.33309 205
72.35321 189
72.37332 202
72.39344 208
72.41355 177
72.43366 227
72.45378 182
72.47389 216
72.494 195
72.51412 184
72.53423 188
72.55434 196
72.57446 175
72.59457 182
72.61469 186
72.6348 199
72.65491 170
72.67503 187
72.69514 182
72.71525 195
72.73537 198
72.75548 190
72.7756 196
72.79571 191
72.81582 194
72.83594 198
72.85605 213
72.87616 204
72.89628 214
72.91639 193
72.9365 206
72.95662 229
72.97673 190
72.99685 219
73.01696 227
73.03707 223
73.05719 226
73.0773 251
73.09741 240
73.11753 243
73.13764 250
73.15776 248
73.17787 249
73.19798 235
73.2181 253
73.23821 279
73.25832 294
73.27844 306
73.29855 353
73.31867 383
73.33878 393
73.35889 407
73.37901 457
73.39912 454
73.41923 485
73.43935 407
73.45946 416
73.47957 375
73.49969 341
73.5198 295
73.53992 300
73.56003 308
73.58014 326
73.60026 357
73.62037 330
73.64048 345
73.6606 316
73.68071 309
73.70083 260
73.72094 254
73.74105 240
73.76117 230
73.78128 230
73.80139 210
73.82151 238
73.84162 181
73.86174 206
73.88185 202
73.90196 202
73.92208 198
73.94219 213
73.9623 234
73.98242 234
74.00253 203
74.02264 184
74.04276 215
74.06287 203
74.08299 221
74.1031 213
74.12321 182
74.14333 200
74.16344 203
74.18355 198
74.20367 184
74.22378 216
74.2439 182
74.26401 203
74.28412 189
74.30424 200
74.32435 198
74.34446 219
74.36458 202
74.38469 214
74.40481 214
74.42492 194
74.44503 182
74.46515 217
74.48526 203
74.50537 207
74.52549 198
74.5456 203
74.56571 205
74.58583 204
74.60594 221
74.62606 206
74.64617 193
74.66628 216
74.6864 227
74.70651 187
74.72662 195
74.74674 181
74.76685 213
74.78697 223
74.80708 201
74.82719 207
74.84731 190
74.86742 209
74.88753 212
74.90765 211
74.92776 200
74.94787 214
74.96799 202
74.9881 236
75.00822 214
