3.00117 21372
3.02128 19973
3.0414 20098
3.06151 19335
3.08162 18709
3.10174 18319
3.12185 17482
3.14197 17233
3.16208 16602
3.18219 16215
3.20231 16013
3.22242 15042
3.24253 14948
3.26265 14337
3.28276 14071
3.30288 13681
3.32299 13167
3.3431 12755
3.36322 12250
3.38333 11729
3.40344 11495
3.42356 10930
3.44367 10726
3.46379 10240
3.4839 9903
3.50401 9617
3.52413 8969
3.54424 9148
3.56435 8591
3.58447 8182
3.60458 8182
3.62469 7575
3.64481 7535
3.66492 7036
3.68504 6703
3.70515 6743
3.72526 6280
3.74538 5898
3.76549 5749
3.7856 5402
3.80572 5352
3.82583 4911
3.84595 4810
3.86606 4759
3.88617 4514
3.90629 4161
3.9264 3994
3.94651 3963
3.96663 3652
3.98674 3514
4.00686 3509
4.02697 3090
4.04708 3131
4.0672 2839
4.08731 2692
4.10742 2812
4.12754 2447
4.14765 2516
4.16776 2369
4.18788 2191
4.20799 2236
4.22811 1930
4.24822 2052
4.26833 1844
4.28845 1907
4.30856 1841
4.32867 1573
4.34879 1558
4.3689 1639
4.38902 1646
4.40913 1581
4.42924 1467
4.44936 1399
4.46947 1343
4.48958 1382
4.5097 1331
4.52981 1178
4.54992 1263
4.57004 1154
4.59015 1244
4.61027 1246
4.63038 1112
4.65049 1039
4.67061 1093
4.69072 1024
4.71083 1014
4.73095 934
4.75106 924
4.77118 895
4.79129 879
4.8114 887
4.83152 819
4.85163 836
4.87174 851
4.89186 804
4.91197 808
4.93209 725
4.9522 743
4.97231 728
4.99243 766
5.01254 683
5.03265 688
5.05277 597
5.07288 634
5.09299 631
5.11311 596
5.13322 584
5.15334 570
5.17345 604
5.19356 586
5.21368 519
5.23379 512
5.2539 519
5.27402 521
5.29413 482
5.31425 441
5.33436 452
5.35447 432
5.37459 447
5.3947 410
5.41481 406
5.43493 390
5.45504 406
5.47516 384
5.49527 384
5.51538 374
5.5355 359
5.55561 368
5.57572 356
5.59584 381
5.61595 300
5.63606 296
5.65618 284
5.67629 297
5.69641 300
5.71652 260
5.73663 275
5.75675 287
5.77686 265
5.79697 270
5.81709 254
5.8372 267
5.85732 243
5.87743 212
5.89754 272
5.91766 238
5.93777 232
5.95788 228
5.978 215
5.99811 248
6.01823 242
6.03834 208
6.05845 219
6.07857 201
6.09868 222
6.11879 235
6.13891 215
6.15902 185
6.17913 191
6.19925 194
6.21936 202
6.23948 207
6.25959 177
6.2797 199
6.29982 204
6.31993 175
6.34004 208
6.36016 185
6.38027 166
6.40039 206
6.4205 168
6.44061 170
6.46073 178
6.48084 171
6.50095 172
6.52107 193
6.54118 182
6.56129 172
6.58141 164
6.60152 169
6.62164 180
6.64175 158
6.66186 182
6.68198 197
6.70209 187
6.7222 196
6.74232 166
6.76243 161
6.78255 184
6.80266 154
6.82277 156
6.84289 151
6.863 187
6.88311 138
6.90323 173
6.92334 191
6.94346 191
6.96357 178
6.98368 185
7.0038 194
7.02391 179
7.04402 186
7.06414 182
7.08425 175
7.10436 174
7.12448 162
7.14459 177
7.16471 193
7.18482 171
7.20493 165
7.22505 177
7.24516 191
7.26527 189
7.28539 183
7.3055 161
7.32562 171
7.34573 170
7.36584 182
7.38596 186
7.40607 181
7.42618 203
7.4463 166
7.46641 179
7.48653 192
7.50664 180
7.52675 178
7.54687 208
7.56698 166
7.58709 205
7.60721 198
7.62732 171
7.64743 206
7.66755 195
7.68766 194
7.70778 196
7.72789 207
7.748 194
7.76812 157
7.78823 200
7.80834 205
7.82846 189
7.84857 184
7.86869 188
7.8888 150
7.90891 197
7.92903 198
7.94914 188
7.96925 199
7.98937 189
8.00948 199
8.0296 205
8.04971 179
8.06982 175
8.08994 177
8.11005 171
8.13016 210
8.15028 190
8.17039 187
8.1905 215
8.21062 203
8.23073 180
8.25085 200
8.27096 175
8.29107 226
8.31119 208
8.3313 193
8.35141 197
8.37153 222
8.39164 197
8.41176 239
8.43187 185
8.45198 192
8.4721 185
8.49221 209
8.51232 204
8.53244 194
8.55255 171
8.57266 213
8.59278 211
8.61289 204
8.63301 170
8.65312 191
8.67323 197
8.69335 206
8.71346 213
8.73357 201
8.75369 216
8.7738 221
8.79392 229
8.81403 178
8.83414 218
8.85426 207
8.87437 227
8.89448 195
8.9146 204
8.93471 208
8.95483 219
8.97494 193
8.99505 210
9.01517 198
9.03528 202
9.05539 213
9.07551 209
9.09562 214
9.11573 213
9.13585 198
9.15596 212
9.17608 205
9.19619 209
9.2163 228
9.23642 205
9.25653 195
9.27664 233
9.29676 211
9.31687 197
9.33699 204
9.3571 201
9.37721 210
9.39733 204
9.41744 235
9.43755 215
9.45767 225
9.47778 217
9.4979 229
9.51801 214
9.53812 221
9.55824 204
9.57835 216
9.59846 208
9.61858 219
9.63869 223
9.6588 201
9.67892 212
9.69903 218
9.71915 229
9.73926 231
9.75937 196
9.77949 194
9.7996 194
9.81971 234
9.83983 218
9.85994 222
9.88006 205
9.90017 225
9.92028 198
9.9404 197
9.96051 210
9.98062 197
10.00074 242
10.02085 218
10.04097 237
10.06108 256
10.08119 216
10.10131 199
10.12142 196
10.14153 194
10.16165 189
10.18176 200
10.20187 223
10.22199 200
10.2421 245
10.26222 233
10.28233 241
10.30244 213
10.32256 229
10.34267 213
10.36278 207
10.3829 207
10.40301 222
10.42313 194
10.44324 206
10.46335 228
10.48347 213
10.50358 228
10.52369 226
10.54381 215
10.56392 233
10.58403 225
10.60415 210
10.62426 222
10.64438 203
10.66449 226
10.6846 224
10.70472 223
10.72483 252
10.74494 217
10.76506 206
10.78517 228
10.80529 222
10.8254 222
10.84551 208
10.86563 199
10.88574 184
10.90585 225
10.92597 173
10.94608 234
10.9662 221
10.98631 236
11.00642 191
11.02654 193
11.04665 216
11.06676 210
11.08688 191
11.10699 249
11.1271 256
11.14722 193
11.16733 222
11.18745 208
11.20756 198
11.22767 224
11.24779 214
11.2679 205
11.28801 214
11.30813 217
11.32824 224
11.34836 244
11.36847 232
11.38858 196
11.4087 227
11.42881 211
11.44892 212
11.46904 215
11.48915 205
11.50927 221
11.52938 222
11.54949 219
11.56961 211
11.58972 185
11.60983 218
11.62995 204
11.65006 236
11.67017 186
11.69029 192
11.7104 213
11.73052 189
11.75063 202
11.77074 193
11.79086 186
11.81097 225
11.83108 223
11.8512 245
11.87131 237
11.89143 212
11.91154 242
11.93165 205
11.95177 232
11.97188 212
11.99199 217
12.01211 220
12.03222 233
12.05234 227
12.07245 240
12.09256 235
12.11268 249
12.13279 275
12.1529 263
12.17302 248
12.19313 264
12.21324 244
12.23336 253
12.25347 273
12.27359 249
12.2937 260
12.31381 254
12.33393 235
12.35404 235
12.37415 241
12.39427 233
12.41438 224
12.4345 193
12.45461 230
12.47472 254
12.49484 220
12.51495 213
12.53506 219
12.55518 249
12.57529 224
12.5954 206
12.61552 230
12.63563 187
12.65575 226
12.67586 214
12.69597 181
12.71609 173
12.7362 232
12.75631 183
12.77643 188
12.79654 221
12.81666 223
12.83677 223
12.85688 215
12.877 215
12.89711 204
12.91722 185
12.93734 195
12.95745 198
12.97757 192
12.99768 193
13.01779 184
13.03791 194
13.05802 202
13.07813 223
13.09825 205
13.11836 197
13.13847 218
13.15859 200
13.1787 178
13.19882 211
13.21893 187
13.23904 225
13.25916 189
13.27927 208
13.29938 168
13.3195 202
13.33961 169
13.35973 206
13.37984 148
13.39995 183
13.42007 205
13.44018 194
13.46029 192
13.48041 208
13.50052 226
13.52064 196
13.54075 178
13.56086 206
13.58098 183
13.60109 215
13.6212 205
13.64132 226
13.66143 230
13.68154 207
13.70166 185
13.72177 182
13.74189 191
13.762 195
13.78211 199
13.80223 199
13.82234 186
13.84245 179
13.86257 207
13.88268 195
13.9028 184
13.92291 193
13.94302 203
13.96314 198
13.98325 198
14.00336 183
14.02348 211
14.04359 198
14.06371 189
14.08382 198
14.10393 210
14.12405 170
14.14416 176
14.16427 194
14.18439 169
14.2045 166
14.22461 168
14.24473 201
14.26484 184
14.28496 162
14.30507 178
14.32518 185
14.3453 183
14.36541 168
14.38552 196
14.40564 182
14.42575 167
14.44587 197
14.46598 162
14.48609 172
14.50621 205
14.52632 176
14.54643 163
14.56655 160
14.58666 189
14.60677 176
14.62689 175
14.647 167
14.66712 161
14.68723 173
14.70734 159
14.72746 163
14.74757 179
14.76768 180
14.7878 177
14.80791 175
14.82803 171
14.84814 170
14.86825 188
14.88837 180
14.90848 173
14.92859 172
14.94871 166
14.96882 183
14.98894 183
15.00905 171
15.02916 178
15.04928 179
15.06939 200
15.0895 172
15.10962 184
15.12973 176
15.14984 192
15.16996 146
15.19007 188
15.21019 156
15.2303 151
15.25041 224
15.27053 189
15.29064 189
15.31075 178
15.33087 167
15.35098 161
15.3711 181
15.39121 157
15.41132 168
15.43144 195
15.45155 172
15.47166 171
15.49178 137
15.51189 136
15.53201 161
15.55212 168
15.57223 162
15.59235 163
15.61246 185
15.63257 181
15.65269 183
15.6728 155
15.69291 182
15.71303 162
15.73314 161
15.75326 188
15.77337 154
15.79348 163
15.8136 181
15.83371 153
15.85382 180
15.87394 203
15.89405 169
15.91417 167
15.93428 186
15.95439 201
15.97451 177
15.99462 170
16.01473 185
16.03485 169
16.05496 150
16.07508 155
16.09519 183
16.1153 173
16.13542 171
16.15553 165
16.17564 188
16.19576 149
16.21587 167
16.23598 156
16.2561 156
16.27621 182
16.29633 189
16.31644 204
16.33655 175
16.35667 194
16.37678 152
16.39689 152
16.41701 144
16.43712 173
16.45724 177
16.47735 177
16.49746 162
16.51758 189
16.53769 173
16.5578 144
16.57792 167
16.59803 180
16.61814 166
16.63826 141
16.65837 162
16.67849 182
16.6986 176
16.71871 158
16.73883 194
16.75894 160
16.77905 166
16.79917 156
16.81928 181
16.8394 167
16.85951 184
16.87962 150
16.89974 146
16.91985 150
16.93996 168
16.96008 141
16.98019 185
17.00031 155
17.02042 170
17.04053 147
17.06065 158
17.08076 157
17.10087 157
17.12099 177
17.1411 167
17.16121 162
17.18133 160
17.20144 145
17.22156 169
17.24167 175
17.26178 158
17.2819 157
17.30201 161
17.32212 153
17.34224 186
17.36235 177
17.38247 138
17.40258 170
17.42269 163
17.44281 168
17.46292 166
17.48303 154
17.50315 176
17.52326 169
17.54338 165
17.56349 162
17.5836 162
17.60372 162
17.62383 183
17.64394 172
17.66406 183
17.68417 139
17.70428 168
17.7244 160
17.74451 154
17.76463 184
17.78474 147
17.80485 141
17.82497 164
17.84508 161
17.86519 150
17.88531 198
17.90542 160
17.92554 162
17.94565 164
17.96576 155
17.98588 167
18.00599 160
18.0261 164
18.04622 190
18.06633 156
18.08645 162
18.10656 187
18.12667 139
18.14679 138
18.1669 139
18.18701 155
18.20713 138
18.22724 130
18.24735 154
18.26747 161
18.28758 167
18.3077 155
18.32781 145
18.34792 186
18.36804 137
18.38815 154
18.40826 168
18.42838 164
18.44849 157
18.46861 189
18.48872 176
18.50883 147
18.52895 157
18.54906 153
18.56917 199
18.58929 180
18.6094 155
18.62951 158
18.64963 161
18.66974 149
18.68986 165
18.70997 186
18.73008 142
18.7502 165
18.77031 162
18.79042 166
18.81054 179
18.83065 164
18.85077 178
18.87088 188
18.89099 163
18.91111 170
18.93122 173
18.95133 195
18.97145 163
18.99156 172
19.01168 169
19.03179 171
19.0519 161
19.07202 150
19.09213 164
19.11224 142
19.13236 188
19.15247 138
19.17258 158
19.1927 169
19.21281 172
19.23293 156
19.25304 169
19.27315 155
19.29327 191
19.31338 166
19.33349 162
19.35361 157
19.37372 191
19.39384 181
19.41395 179
19.43406 157
19.45418 178
19.47429 177
19.4944 174
19.51452 178
19.53463 205
19.55475 216
19.57486 196
19.59497 195
19.61509 240
19.6352 195
19.65531 198
19.67543 207
19.69554 198
19.71565 220
19.73577 209
19.75588 199
19.776 219
19.79611 228
19.81622 235
19.83634 228
19.85645 247
19.87656 214
19.89668 228
19.91679 239
19.93691 241
19.95702 236
19.97713 239
19.99725 247
20.01736 215
20.03747 208
20.05759 206
20.0777 219
20.09782 230
20.11793 254
20.13804 300
20.15816 279
20.17827 301
20.19838 272
20.2185 262
20.23861 320
20.25872 283
20.27884 295
20.29895 291
20.31907 310
20.33918 321
20.35929 308
20.37941 335
20.39952 338
20.41963 387
20.43975 351
20.45986 381
20.47998 401
20.50009 393
20.5202 417
20.54032 415
20.56043 460
20.58054 512
20.60066 574
20.62077 573
20.64088 725
20.661 869
20.68111 1063
20.70123 1348
20.72134 2019
20.74145 2768
20.76157 3847
20.78168 5263
20.80179 6776
20.82191 7922
20.84202 8448
20.86214 7993
20.88225 6781
20.90236 4960
20.92248 3501
20.94259 2176
20.9627 1396
20.98282 932
21.00293 735
21.02305 647
21.04316 577
21.06327 548
21.08339 501
21.1035 410
21.12361 392
21.14373 364
21.16384 383
21.18395 342
21.20407 320
21.22418 298
21.2443 324
21.26441 277
21.28452 264
21.30464 266
21.32475 239
21.34486 250
21.36498 246
21.38509 263
21.40521 243
21.42532 236
21.44543 294
21.46555 261
21.48566 264
21.50577 255
21.52589 264
21.546 235
21.56612 263
21.58623 238
21.60634 247
21.62646 220
21.64657 219
21.66668 238
21.6868 220
21.70691 272
21.72702 233
21.74714 213
21.76725 202
21.78737 232
21.80748 249
21.82759 202
21.84771 255
21.86782 225
21.88793 252
21.90805 228
21.92816 216
21.94828 233
21.96839 225
21.9885 261
22.00862 229
22.02873 223
22.04884 214
22.06896 207
22.08907 228
22.10919 241
22.1293 221
22.14941 216
22.16953 229
22.18964 198
22.20975 252
22.22987 226
22.24998 238
22.27009 212
22.29021 247
22.31032 231
22.33044 232
22.35055 197
22.37066 194
22.39078 271
22.41089 207
22.431 209
22.45112 225
22.47123 233
22.49135 220
22.51146 209
22.53157 244
22.55169 225
22.5718 211
22.59191 221
22.61203 210
22.63214 213
22.65225 205
22.67237 205
22.69248 220
22.7126 177
22.73271 207
22.75282 198
22.77294 190
22.79305 207
22.81316 205
22.83328 197
22.85339 215
22.87351 207
22.89362 210
22.91373 204
22.93385 207
22.95396 205
22.97407 222
22.99419 202
23.0143 217
23.03442 209
23.05453 193
23.07464 212
23.09476 239
23.11487 235
23.13498 247
23.1551 235
23.17521 228
23.19532 293
23.21544 204
23.23555 211
23.25567 215
23.27578 232
23.29589 218
23.31601 200
23.33612 170
23.35623 190
23.37635 197
23.39646 192
23.41658 181
23.43669 233
23.4568 200
23.47692 183
23.49703 197
23.51714 191
23.53726 205
23.55737 222
23.57749 208
23.5976 238
23.61771 176
23.63783 219
23.65794 183
23.67805 193
23.69817 205
23.71828 233
23.73839 202
23.75851 224
23.77862 206
23.79874 214
23.81885 233
23.83896 196
23.85908 225
23.87919 258
23.8993 276
23.91942 322
23.93953 296
23.95965 318
23.97976 362
23.99987 341
24.01999 271
24.0401 302
24.06021 227
24.08033 238
24.10044 206
24.12056 217
24.14067 196
24.16078 184
24.1809 238
24.20101 218
24.22112 193
24.24124 228
24.26135 226
24.28146 221
24.30158 210
24.32169 250
24.34181 222
24.36192 219
24.38203 200
24.40215 238
24.42226 212
24.44237 205
24.46249 204
24.4826 228
24.50272 218
24.52283 199
24.54294 211
24.56306 227
24.58317 220
24.60328 221
24.6234 239
24.64351 235
24.66362 234
24.68374 235
24.70385 225
24.72397 245
24.74408 257
24.76419 228
24.78431 211
24.80442 283
24.82453 216
24.84465 242
24.86476 229
24.88488 242
24.90499 265
24.9251 227
24.94522 259
24.96533 236
24.98544 198
25.00556 257
25.02567 208
25.04579 202
25.0659 209
25.08601 230
25.10613 204
25.12624 204
25.14635 225
25.16647 228
25.18658 228
25.20669 191
25.22681 239
25.24692 231
25.26704 206
25.28715 231
25.30726 242
25.32738 226
25.34749 245
25.3676 240
25.38772 245
25.40783 254
25.42795 282
25.44806 296
25.46817 329
25.48829 311
25.5084 297
25.52851 306
25.54863 294
25.56874 391
25.58886 333
25.60897 378
25.62908 381
25.6492 395
25.66931 380
25.68942 413
25.70954 416
25.72965 437
25.74976 444
25.76988 471
25.78999 451
25.81011 505
25.83022 448
25.85033 471
25.87045 484
25.89056 468
25.91067 515
25.93079 516
25.9509 504
25.97102 565
25.99113 560
26.01124 545
26.03136 573
26.05147 538
26.07158 591
26.0917 654
26.11181 685
26.13193 735
26.15204 804
26.17215 797
26.19227 910
26.21238 979
26.23249 1041
26.25261 1138
26.27272 1175
26.29283 1298
26.31295 1429
26.33306 1599
26.35318 1872
26.37329 2119
26.3934 2510
26.41352 3256
26.43363 4230
26.45374 5404
26.47386 7218
26.49397 9857
26.51409 13626
26.5342 18349
26.55431 24308
26.57443 30514
26.59454 35461
26.61465 37540
26.63477 35911
26.65488 30013
26.67499 23537
26.69511 17923
26.71522 12338
26.73534 7784
26.75545 4669
26.77556 2979
26.79568 2209
26.81579 1898
26.8359 1748
26.85602 1537
26.87613 1313
26.89625 1183
26.91636 1079
26.93647 1020
26.95659 978
26.9767 895
26.99681 800
27.01693 746
27.03704 740
27.05716 732
27.07727 601
27.09738 614
27.1175 585
27.13761 541
27.15772 530
27.17784 528
27.19795 476
27.21806 486
27.23818 511
27.25829 510
27.27841 499
27.29852 516
27.31863 556
27.33875 533
27.35886 564
27.37897 594
27.39909 619
27.4192 639
27.43932 622
27.45943 590
27.47954 543
27.49966 491
27.51977 467
27.53988 437
27.56 430
27.58011 402
27.60023 364
27.62034 364
27.64045 322
27.66057 324
27.68068 318
27.70079 351
27.72091 317
27.74102 309
27.76113 290
27.78125 319
27.80136 297
27.82148 292
27.84159 289
27.8617 300
27.88182 287
27.90193 312
27.92204 282
27.94216 295
27.96227 287
27.98239 284
28.0025 281
28.02261 274
28.04273 258
28.06284 271
28.08295 262
28.10307 279
28.12318 279
28.1433 247
28.16341 254
28.18352 254
28.20364 231
28.22375 260
28.24386 271
28.26398 223
28.28409 246
28.3042 230
28.32432 264
28.34443 211
28.36455 243
28.38466 260
28.40477 204
28.42489 253
28.445 261
28.46511 248
28.48523 231
28.50534 233
28.52546 227
28.54557 239
28.56568 231
28.5858 234
28.60591 263
28.62602 224
28.64614 204
28.66625 235
28.68636 225
28.70648 225
28.72659 234
28.74671 210
28.76682 228
28.78693 239
28.80705 232
28.82716 239
28.84727 258
28.86739 235
28.8875 227
28.90762 242
28.92773 243
28.94784 222
28.96796 206
28.98807 237
29.00818 211
29.0283 187
29.04841 207
29.06853 220
29.08864 226
29.10875 239
29.12887 222
29.14898 224
29.16909 213
29.18921 215
29.20932 220
29.22943 214
29.24955 206
29.26966 230
29.28978 222
29.30989 219
29.33 245
29.35012 243
29.37023 236
29.39034 261
29.41046 245
29.43057 245
29.45069 235
29.4708 230
29.49091 232
29.51103 246
29.53114 234
29.55125 216
29.57137 214
29.59148 205
29.6116 234
29.63171 213
29.65182 203
29.67194 230
29.69205 225
29.71216 208
29.73228 213
29.75239 199
29.7725 203
29.79262 205
29.81273 224
29.83285 193
29.85296 229
29.87307 220
29.89319 205
29.9133 198
29.93341 181
29.95353 212
29.97364 187
29.99376 210
30.01387 245
30.03398 234
30.0541 202
30.07421 226
30.09432 223
30.11444 240
30.13455 217
30.15467 247
30.17478 238
30.19489 278
30.21501 251
30.23512 238
30.25523 218
30.27535 201
30.29546 224
30.31557 220
30.33569 210
30.3558 198
30.37592 203
30.39603 204
30.41614 214
30.43626 184
30.45637 223
30.47648 177
30.4966 210
30.51671 203
30.53683 186
30.55694 200
30.57705 195
30.59717 204
30.61728 236
30.63739 207
30.65751 211
30.67762 198
30.69773 200
30.71785 208
30.73796 240
30.75808 232
30.77819 227
30.7983 218
30.81842 222
30.83853 207
30.85864 218
30.87876 210
30.89887 213
30.91899 210
30.9391 209
30.95921 214
30.97933 203
30.99944 207
31.01955 187
31.03967 165
31.05978 188
31.0799 166
31.10001 186
31.12012 191
31.14024 186
31.16035 155
31.18046 189
31.20058 171
31.22069 178
31.2408 176
31.26092 170
31.28103 175
31.30115 145
31.32126 163
31.34137 141
31.36149 198
31.3816 174
31.40171 157
31.42183 160
31.44194 155
31.46206 133
31.48217 180
31.50228 176
31.5224 168
31.54251 174
31.56262 141
31.58274 153
31.60285 169
31.62297 162
31.64308 154
31.66319 159
31.68331 184
31.70342 174
31.72353 159
31.74365 179
31.76376 152
31.78387 173
31.80399 176
31.8241 167
31.84422 156
31.86433 181
31.88444 153
31.90456 138
31.92467 162
31.94478 168
31.9649 157
31.98501 168
32.00513 166
32.02524 185
32.04535 162
32.06547 171
32.08558 158
32.10569 164
32.12581 178
32.14592 187
32.16604 176
32.18615 174
32.20626 183
32.22638 162
32.24649 213
32.2666 200
32.28672 195
32.30683 176
32.32694 181
32.34706 208
32.36717 182
32.38729 167
32.4074 163
32.42751 197
32.44763 205
32.46774 202
32.48785 182
32.50797 219
32.52808 179
32.5482 157
32.56831 150
32.58842 169
32.60854 149
32.62865 203
32.64876 173
32.66888 189
32.68899 132
32.7091 171
32.72922 149
32.74933 161
32.76945 160
32.78956 161
32.80967 147
32.82979 148
32.8499 167
32.87001 131
32.89013 150
32.91024 178
32.93036 169
32.95047 171
32.97058 152
32.9907 142
33.01081 147
33.03092 149
33.05104 163
33.07115 148
33.09127 141
33.11138 148
33.13149 151
33.15161 136
33.17172 156
33.19183 135
33.21195 146
33.23206 157
33.25217 162
33.27229 154
33.2924 158
33.31252 154
33.33263 148
33.35274 123
33.37286 150
33.39297 142
33.41308 145
33.4332 161
33.45331 148
33.47343 134
33.49354 114
33.51365 143
33.53377 154
33.55388 135
33.57399 142
33.59411 143
33.61422 109
33.63434 141
33.65445 134
33.67456 124
33.69468 117
33.71479 136
33.7349 135
33.75502 129
33.77513 163
33.79524 157
33.81536 129
33.83547 159
33.85559 123
33.8757 128
33.89581 135
33.91593 140
33.93604 123
33.95615 145
33.97627 127
33.99638 149
34.0165 149
34.03661 167
34.05672 161
34.07684 137
34.09695 177
34.11706 171
34.13718 149
34.15729 164
34.17741 165
34.19752 164
34.21763 176
34.23775 152
34.25786 164
34.27797 157
34.29809 149
34.3182 145
34.33831 164
34.35843 138
34.37854 134
34.39866 117
34.41877 140
34.43888 154
34.459 152
34.47911 133
34.49922 149
34.51934 156
34.53945 149
34.55957 167
34.57968 162
34.59979 152
34.61991 154
34.64002 157
34.66013 158
34.68025 175
34.70036 164
34.72047 163
34.74059 167
34.7607 168
34.78082 158
34.80093 158
34.82104 181
34.84116 164
34.86127 216
34.88138 197
34.9015 169
34.92161 168
34.94173 181
34.96184 173
34.98195 189
35.00207 154
35.02218 198
35.04229 178
35.06241 171
35.08252 186
35.10264 173
35.12275 178
35.14286 155
35.16298 157
35.18309 172
35.2032 211
35.22332 217
35.24343 205
35.26354 187
35.28366 190
35.30377 188
35.32389 174
35.344 158
35.36411 201
35.38423 211
35.40434 197
35.42445 186
35.44457 192
35.46468 197
35.4848 224
35.50491 195
35.52502 173
35.54514 188
35.56525 183
35.58536 201
35.60548 189
35.62559 199
35.64571 183
35.66582 212
35.68593 163
35.70605 157
35.72616 192
35.74627 177
35.76639 217
35.7865 167
35.80661 202
35.82673 180
35.84684 184
35.86696 209
35.88707 212
35.90718 186
35.9273 160
35.94741 196
35.96752 205
35.98764 169
36.00775 192
36.02787 205
36.04798 229
36.06809 228
36.08821 222
36.10832 219
36.12843 235
36.14855 224
36.16866 232
36.18878 239
36.20889 264
36.229 271
36.24912 316
36.26923 333
36.28934 328
36.30946 375
36.32957 513
36.34968 569
36.3698 764
36.38991 895
36.41003 1146
36.43014 1464
36.45025 1834
36.47037 2186
36.49048 2416
36.51059 2504
36.53071 2409
36.55082 2106
36.57094 1853
36.59105 1498
36.61116 1261
36.63128 1064
36.65139 720
36.6715 563
36.69162 415
36.71173 346
36.73184 287
36.75196 257
36.77207 248
36.79219 247
36.8123 231
36.83241 206
36.85253 213
36.87264 186
36.89275 206
36.91287 198
36.93298 184
36.9531 176
36.97321 193
36.99332 187
37.01344 168
37.03355 192
37.05366 173
37.07378 175
37.09389 170
37.11401 171
37.13412 160
37.15423 181
37.17435 165
37.19446 174
37.21457 167
37.23469 155
37.2548 171
37.27491 138
37.29503 173
37.31514 174
37.33526 152
37.35537 182
37.37548 150
37.3956 153
37.41571 157
37.43582 167
37.45594 145
37.47605 128
37.49617 162
37.51628 174
37.53639 162
37.55651 159
37.57662 176
37.59673 174
37.61685 162
37.63696 147
37.65708 157
37.67719 155
37.6973 186
37.71742 167
37.73753 161
37.75764 140
37.77776 172
37.79787 150
37.81798 150
37.8381 133
37.85821 166
37.87833 181
37.89844 142
37.91855 143
37.93867 141
37.95878 154
37.97889 156
37.99901 167
38.01912 145
38.03924 158
38.05935 172
38.07946 143
38.09958 180
38.11969 138
38.1398 173
38.15992 169
38.18003 160
38.20015 169
38.22026 180
38.24037 157
38.26049 163
38.2806 160
38.30071 182
38.32083 153
38.34094 157
38.36105 198
38.38117 173
38.40128 143
38.4214 173
38.44151 161
38.46162 194
38.48174 162
38.50185 133
38.52196 179
38.54208 183
38.56219 187
38.58231 184
38.60242 180
38.62253 208
38.64265 175
38.66276 161
38.68287 187
38.70299 170
38.7231 165
38.74321 175
38.76333 160
38.78344 167
38.80356 149
38.82367 187
38.84378 167
38.8639 190
38.88401 180
38.90412 178
38.92424 161
38.94435 191
38.96447 215
38.98458 198
39.00469 192
39.02481 194
39.04492 214
39.06503 183
39.08515 224
39.10526 268
39.12538 240
39.14549 236
39.1656 301
39.18572 309
39.20583 336
39.22594 404
39.24606 441
39.26617 548
39.28628 634
39.3064 823
39.32651 1042
39.34663 1321
39.36674 1649
39.38685 1893
39.40697 2178
39.42708 2308
39.44719 2203
39.46731 2012
39.48742 1670
39.50754 1437
39.52765 1279
39.54776 1172
39.56788 970
39.58799 697
39.6081 471
39.62822 361
39.64833 323
39.66845 293
39.68856 257
39.70867 242
39.72879 230
39.7489 215
39.76901 220
39.78913 223
39.80924 217
39.82935 228
39.84947 228
39.86958 201
39.8897 202
39.90981 217
39.92992 186
39.95004 217
39.97015 240
39.99026 239
40.01038 266
40.03049 295
40.05061 276
40.07072 341
40.09083 344
40.11095 414
40.13106 521
40.15117 629
40.17129 709
40.1914 885
40.21152 1023
40.23163 1128
40.25174 1224
40.27186 1182
40.29197 1046
40.31208 917
40.3322 760
40.35231 696
40.37242 638
40.39254 497
40.41265 390
40.43277 293
40.45288 240
40.47299 235
40.49311 211
40.51322 191
40.53333 189
40.55345 175
40.57356 172
40.59368 181
40.61379 148
40.6339 165
40.65402 152
40.67413 167
40.69424 172
40.71436 177
40.73447 135
40.75458 150
40.7747 160
40.79481 138
40.81493 153
40.83504 151
40.85515 165
40.87527 169
40.89538 150
40.91549 169
40.93561 176
40.95572 154
40.97584 168
40.99595 150
41.01606 165
41.03618 157
41.05629 190
41.0764 178
41.09652 166
41.11663 152
41.13675 145
41.15686 164
41.17697 172
41.19709 171
41.2172 157
41.23731 160
41.25743 155
41.27754 150
41.29765 161
41.31777 185
41.33788 193
41.358 158
41.37811 156
41.39822 176
41.41834 169
41.43845 157
41.45856 166
41.47868 167
41.49879 160
41.51891 181
41.53902 174
41.55913 144
41.57925 154
41.59936 180
41.61947 167
41.63959 184
41.6597 173
41.67982 194
41.69993 195
41.72004 221
41.74016 192
41.76027 195
41.78038 224
41.8005 233
41.82061 201
41.84072 209
41.86084 246
41.88095 167
41.90107 189
41.92118 198
41.94129 176
41.96141 180
41.98152 171
42.00163 207
42.02175 188
42.04186 215
42.06198 214
42.08209 200
42.1022 224
42.12232 250
42.14243 248
42.16254 301
42.18266 299
42.20277 308
42.22289 371
42.243 409
42.26311 525
42.28323 617
42.30334 786
42.32345 926
42.34357 1155
42.36368 1365
42.38379 1559
42.40391 1623
42.42402 1622
42.44414 1532
42.46425 1303
42.48436 1141
42.50448 990
42.52459 888
42.5447 796
42.56482 636
42.58493 506
42.60505 317
42.62516 266
42.64527 236
42.66539 236
42.6855 212
42.70561 187
42.72573 205
42.74584 198
42.76595 166
42.78607 187
42.80618 173
42.8263 160
42.84641 182
42.86652 175
42.88664 152
42.90675 148
42.92686 153
42.94698 167
42.96709 159
42.98721 145
43.00732 155
43.02743 125
43.04755 138
43.06766 144
43.08777 143
43.10789 142
43.128 132
43.14812 139
43.16823 129
43.18834 125
43.20846 144
43.22857 130
43.24868 152
43.2688 173
43.28891 134
43.30902 149
43.32914 151
43.34925 137
43.36937 164
43.38948 144
43.40959 131
43.42971 140
43.44982 168
43.46993 146
43.49005 123
43.51016 142
43.53028 121
43.55039 131
43.5705 146
43.59062 148
43.61073 156
43.63084 143
43.65096 145
43.67107 139
43.69119 141
43.7113 134
43.73141 137
43.75153 142
43.77164 131
43.79175 142
43.81187 136
43.83198 126
43.85209 114
43.87221 125
43.89232 133
43.91244 158
43.93255 126
43.95266 126
43.97278 130
43.99289 148
44.013 139
44.03312 144
44.05323 152
44.07335 153
44.09346 147
44.11357 130
44.13369 144
44.1538 141
44.17391 163
44.19403 125
44.21414 128
44.23426 144
44.25437 126
44.27448 146
44.2946 144
44.31471 135
44.33482 129
44.35494 135
44.37505 129
44.39516 142
44.41528 140
44.43539 142
44.45551 133
44.47562 135
44.49573 142
44.51585 158
44.53596 148
44.55607 148
44.57619 153
44.5963 153
44.61642 136
44.63653 136
44.65664 145
44.67676 155
44.69687 157
44.71698 152
44.7371 121
44.75721 125
44.77732 149
44.79744 136
44.81755 139
44.83767 140
44.85778 158
44.87789 147
44.89801 159
44.91812 140
44.93823 161
44.95835 149
44.97846 153
44.99858 159
45.01869 160
45.0388 138
45.05892 136
45.07903 153
45.09914 144
45.11926 162
45.13937 147
45.15949 175
45.1796 143
45.19971 160
45.21983 158
45.23994 141
45.26005 159
45.28017 165
45.30028 150
45.32039 160
45.34051 177
45.36062 167
45.38074 182
45.40085 159
45.42096 172
45.44108 221
45.46119 223
45.4813 212
45.50142 235
45.52153 271
45.54165 271
45.56176 308
45.58187 335
45.60199 391
45.6221 471
45.64221 578
45.66233 638
45.68244 818
45.70256 930
45.72267 1033
45.74278 1105
45.7629 1073
45.78301 1008
45.80312 890
45.82324 732
45.84335 649
45.86346 616
45.88358 563
45.90369 536
45.92381 439
45.94392 308
45.96403 243
45.98415 199
46.00426 178
46.02437 181
46.04449 158
46.0646 156
46.08472 157
46.10483 151
46.12494 139
46.14506 173
46.16517 159
46.18528 166
46.2054 171
46.22551 152
46.24563 141
46.26574 167
46.28585 147
46.30597 132
46.32608 163
46.34619 153
46.36631 148
46.38642 144
46.40653 138
46.42665 122
46.44676 134
46.46688 125
46.48699 131
46.5071 126
46.52722 120
46.54733 136
46.56744 141
46.58756 140
46.60767 137
46.62779 127
46.6479 113
46.66801 142
46.68813 108
46.70824 140
46.72835 147
46.74847 140
46.76858 134
46.78869 141
46.80881 141
46.82892 138
46.84904 148
46.86915 141
46.88926 142
46.90938 114
46.92949 144
46.9496 126
46.96972 135
46.98983 139
47.00995 140
47.03006 118
47.05017 140
47.07029 131
47.0904 153
47.11051 128
47.13063 150
47.15074 141
47.17086 141
47.19097 128
47.21108 153
47.2312 148
47.25131 123
47.27142 121
47.29154 130
47.31165 120
47.33176 133
47.35188 118
47.37199 137
47.39211 137
47.41222 134
47.43233 143
47.45245 133
47.47256 130
47.49267 154
47.51279 132
47.5329 149
47.55302 130
47.57313 133
47.59324 130
47.61336 113
47.63347 137
47.65358 131
47.6737 131
47.69381 109
47.71393 128
47.73404 130
47.75415 130
47.77427 119
47.79438 135
47.81449 146
47.83461 126
47.85472 129
47.87483 132
47.89495 126
47.91506 133
47.93518 135
47.95529 109
47.9754 135
47.99552 112
48.01563 150
48.03574 129
48.05586 138
48.07597 138
48.09609 117
48.1162 128
48.13631 123
48.15643 109
48.17654 125
48.19665 140
48.21677 128
48.23688 124
48.257 120
48.27711 129
48.29722 146
48.31734 124
48.33745 135
48.35756 138
48.37768 133
48.39779 125
48.4179 153
48.43802 141
48.45813 153
48.47825 159
48.49836 152
48.51847 154
48.53859 140
48.5587 135
48.57881 139
48.59893 144
48.61904 149
48.63916 135
48.65927 154
48.67938 137
48.6995 148
48.71961 147
48.73972 169
48.75984 156
48.77995 151
48.80006 140
48.82018 178
48.84029 173
48.86041 178
48.88052 153
48.90063 155
48.92075 155
48.94086 117
48.96097 161
48.98109 143
49.0012 151
49.02132 147
49.04143 156
49.06154 160
49.08166 169
49.10177 155
49.12188 158
49.142 160
49.16211 153
49.18223 155
49.20234 148
49.22245 149
49.24257 145
49.26268 168
49.28279 163
49.30291 156
49.32302 140
49.34313 142
49.36325 155
49.38336 174
49.40348 167
49.42359 141
49.4437 178
49.46382 168
49.48393 180
49.50404 165
49.52416 186
49.54427 178
49.56439 171
49.5845 213
49.60461 189
49.62473 200
49.64484 242
49.66495 243
49.68507 246
49.70518 274
49.7253 257
49.74541 289
49.76552 341
49.78564 337
49.80575 405
49.82586 427
49.84598 506
49.86609 589
49.8862 671
49.90632 816
49.92643 898
49.94655 1094
49.96666 1365
49.98677 1738
50.00689 2083
50.027 2500
50.04711 3078
50.06723 3236
50.08734 3512
50.10746 3418
50.12757 3204
50.14768 2759
50.1678 2252
50.18791 1997
50.20802 1902
50.22814 1827
50.24825 1650
50.26837 1323
50.28848 997
50.30859 706
50.32871 517
50.34882 379
50.36893 392
50.38905 329
50.40916 355
50.42927 302
50.44939 336
50.4695 334
50.48962 267
50.50973 311
50.52984 311
50.54996 287
50.57007 271
50.59018 274
50.6103 272
50.63041 280
50.65053 231
50.67064 236
50.69075 224
50.71087 185
50.73098 193
50.75109 199
50.77121 178
50.79132 192
50.81143 166
50.83155 185
50.85166 182
50.87178 171
50.89189 133
50.912 172
50.93212 150
50.95223 155
50.97234 146
50.99246 137
51.01257 159
51.03269 146
51.0528 152
51.07291 170
51.09303 143
51.11314 127
51.13325 134
51.15337 152
51.17348 143
51.1936 150
51.21371 140
51.23382 140
51.25394 132
51.27405 134
51.29416 118
51.31428 115
51.33439 122
51.3545 122
51.37462 140
51.39473 125
51.41485 131
51.43496 111
51.45507 143
51.47519 124
51.4953 120
51.51541 117
51.53553 122
51.55564 119
51.57576 110
51.59587 137
51.61598 125
51.6361 128
51.65621 131
51.67632 129
51.69644 117
51.71655 123
51.73667 120
51.75678 110
51.77689 155
51.79701 130
51.81712 124
51.83723 118
51.85735 109
51.87746 122
51.89757 122
51.91769 126
51.9378 132
51.95792 117
51.97803 123
51.99814 147
52.01826 101
52.03837 116
52.05848 116
52.0786 140
52.09871 115
52.11883 119
52.13894 99
52.15905 124
52.17917 132
52.19928 120
52.21939 113
52.23951 100
52.25962 136
52.27974 113
52.29985 112
52.31996 118
52.34008 122
52.36019 120
52.3803 103
52.40042 133
52.42053 114
52.44064 131
52.46076 118
52.48087 133
52.50099 128
52.5211 129
52.54121 129
52.56133 127
52.58144 121
52.60155 124
52.62167 120
52.64178 140
52.6619 119
52.68201 120
52.70212 126
52.72224 124
52.74235 112
52.76246 121
52.78258 127
52.80269 141
52.8228 124
52.84292 112
52.86303 125
52.88315 119
52.90326 147
52.92337 135
52.94349 135
52.9636 125
52.98371 125
53.00383 133
53.02394 128
53.04406 128
53.06417 131
53.08428 134
53.1044 131
53.12451 155
53.14462 132
53.16474 123
53.18485 137
53.20497 152
53.22508 132
53.24519 147
53.26531 132
53.28542 139
53.30553 146
53.32565 123
53.34576 125
53.36587 127
53.38599 129
53.4061 144
53.42622 122
53.44633 137
53.46644 134
53.48656 148
53.50667 131
53.52678 137
53.5469 106
53.56701 132
53.58713 134
53.60724 131
53.62735 103
53.64747 113
53.66758 144
53.68769 123
53.70781 120
53.72792 152
53.74804 122
53.76815 119
53.78826 160
53.80838 120
53.82849 110
53.8486 129
53.86872 123
53.88883 151
53.90894 120
53.92906 125
53.94917 134
53.96929 146
53.9894 143
54.00951 142
54.02963 125
54.04974 127
54.06985 153
54.08997 124
54.11008 130
54.1302 143
54.15031 112
54.17042 145
54.19054 137
54.21065 143
54.23076 153
54.25088 153
54.27099 154
54.29111 135
54.31122 156
54.33133 156
54.35145 176
54.37156 169
54.39167 144
54.41179 157
54.4319 136
54.45201 187
54.47213 178
54.49224 175
54.51236 195
54.53247 203
54.55258 237
54.5727 218
54.59281 276
54.61292 285
54.63304 320
54.65315 383
54.67327 435
54.69338 485
54.71349 609
54.73361 732
54.75372 792
54.77383 941
54.79395 1010
54.81406 1112
54.83417 1054
54.85429 1000
54.8744 845
54.89452 700
54.91463 633
54.93474 702
54.95486 629
54.97497 610
54.99508 588
55.0152 489
55.03531 373
55.05543 323
55.07554 308
55.09565 273
55.11577 292
55.13588 296
55.15599 321
55.17611 381
55.19622 420
55.21634 443
55.23645 528
55.25656 507
55.27668 565
55.29679 520
55.3169 487
55.33702 393
55.35713 346
55.37724 352
55.39736 340
55.41747 346
55.43759 342
55.4577 276
55.47781 265
55.49793 232
55.51804 204
55.53815 187
55.55827 169
55.57838 168
55.5985 143
55.61861 148
55.63872 147
55.65884 132
55.67895 135
55.69906 118
55.71918 134
55.73929 149
55.75941 141
55.77952 135
55.79963 131
55.81975 139
55.83986 127
55.85997 129
55.88009 127
55.9002 122
55.92031 117
55.94043 112
55.96054 130
55.98066 112
56.00077 114
56.02088 116
56.041 117
56.06111 128
56.08122 117
56.10134 119
56.12145 103
56.14157 123
56.16168 106
56.18179 127
56.20191 125
56.22202 121
56.24213 127
56.26225 130
56.28236 107
56.30248 119
56.32259 113
56.3427 126
56.36282 134
56.38293 141
56.40304 129
56.42316 120
56.44327 115
56.46338 118
56.4835 110
56.50361 136
56.52373 124
56.54384 125
56.56395 137
56.58407 130
56.60418 132
56.62429 109
56.64441 111
56.66452 127
56.68464 103
56.70475 125
56.72486 126
56.74498 134
56.76509 120
56.7852 134
56.80532 129
56.82543 140
56.84554 128
56.86566 145
56.88577 118
56.90589 118
56.926 112
56.94611 110
56.96623 127
56.98634 158
57.00645 135
57.02657 118
57.04668 133
57.0668 142
57.08691 139
57.10702 179
57.12714 164
57.14725 170
57.16736 173
57.18748 170
57.20759 162
57.22771 148
57.24782 166
57.26793 147
57.28805 140
57.30816 141
57.32827 154
57.34839 127
57.3685 137
57.38861 134
57.40873 128
57.42884 136
57.44896 112
57.46907 118
57.48918 118
57.5093 128
57.52941 137
57.54952 129
57.56964 143
57.58975 121
57.60987 120
57.62998 131
57.65009 121
57.67021 124
57.69032 120
57.71043 107
57.73055 132
57.75066 122
57.77078 105
57.79089 119
57.811 112
57.83112 105
57.85123 120
57.87134 120
57.89146 143
57.91157 108
57.93168 110
57.9518 128
57.97191 125
57.99203 140
58.01214 117
58.03225 117
58.05237 122
58.07248 122
58.09259 121
58.11271 112
58.13282 124
58.15294 112
58.17305 109
58.19316 151
58.21328 130
58.23339 128
58.2535 113
58.27362 107
58.29373 126
58.31385 130
58.33396 117
58.35407 131
58.37419 129
58.3943 136
58.41441 120
58.43453 112
58.45464 150
58.47475 120
58.49487 111
58.51498 115
58.5351 125
58.55521 121
58.57532 124
58.59544 129
58.61555 126
58.63566 130
58.65578 131
58.67589 129
58.69601 120
58.71612 135
58.73623 134
58.75635 103
58.77646 125
58.79657 133
58.81669 121
58.8368 118
58.85691 119
58.87703 138
58.89714 105
58.91726 129
58.93737 124
58.95748 114
58.9776 136
58.99771 141
59.01782 124
59.03794 125
59.05805 131
59.07817 125
59.09828 132
59.11839 128
59.13851 133
59.15862 160
59.17873 147
59.19885 163
59.21896 137
59.23908 145
59.25919 132
59.2793 151
59.29942 173
59.31953 149
59.33964 146
59.35976 175
59.37987 152
59.39998 190
59.4201 175
59.44021 195
59.46033 213
59.48044 205
59.50055 219
59.52067 221
59.54078 255
59.56089 278
59.58101 277
59.60112 317
59.62124 349
59.64135 361
59.66146 416
59.68158 443
59.70169 513
59.7218 655
59.74192 717
59.76203 855
59.78215 1040
59.80226 1203
59.82237 1493
59.84249 1737
59.8626 1994
59.88271 2166
59.90283 2262
59.92294 2101
59.94305 1776
59.96317 1653
59.98328 1336
60.0034 1212
60.02351 1137
60.04362 1241
60.06374 1136
60.08385 1024
60.10396 903
60.12408 781
60.14419 582
60.16431 415
60.18442 304
60.20453 288
60.22465 241
60.24476 202
60.26487 199
60.28499 193
60.3051 198
60.32522 189
60.34533 183
60.36544 162
60.38556 167
60.40567 157
60.42578 157
60.4459 149
60.46601 149
60.48612 133
60.50624 130
60.52635 134
60.54647 117
60.56658 149
60.58669 138
60.60681 141
60.62692 123
60.64703 122
60.66715 139
60.68726 119
60.70738 143
60.72749 143
60.7476 144
60.76772 119
60.78783 138
60.80794 140
60.82806 120
60.84817 136
60.86828 107
60.8884 128
60.90851 123
60.92863 129
60.94874 125
60.96885 131
60.98897 138
61.00908 131
61.02919 115
61.04931 155
61.06942 135
61.08954 134
61.10965 137
61.12976 130
61.14988 106
61.16999 146
61.1901 118
61.21022 130
61.23033 125
61.25045 132
61.27056 98
61.29067 117
61.31079 128
61.3309 129
61.35101 97
61.37113 128
61.39124 102
61.41135 129
61.43147 125
61.45158 144
61.4717 135
61.49181 117
61.51192 127
61.53204 108
61.55215 124
61.57226 112
61.59238 138
61.61249 121
61.63261 122
61.65272 128
61.67283 119
61.69295 140
61.71306 126
61.73317 124
61.75329 104
61.7734 122
61.79352 138
61.81363 126
61.83374 118
61.85386 125
61.87397 122
61.89408 110
61.9142 117
61.93431 116
61.95442 128
61.97454 101
61.99465 120
62.01477 127
62.03488 155
62.05499 139
62.07511 151
62.09522 125
62.11533 135
62.13545 130
62.15556 114
62.17568 125
62.19579 128
62.2159 132
62.23602 155
62.25613 126
62.27624 135
62.29636 129
62.31647 123
62.33659 122
62.3567 142
62.37681 118
62.39693 126
62.41704 131
62.43715 149
62.45727 121
62.47738 127
62.49749 127
62.51761 115
62.53772 94
62.55784 123
62.57795 117
62.59806 120
62.61818 102
62.63829 119
62.6584 105
62.67852 110
62.69863 124
62.71875 104
62.73886 127
62.75897 116
62.77909 116
62.7992 126
62.81931 114
62.83943 120
62.85954 127
62.87965 109
62.89977 135
62.91988 110
62.94 138
62.96011 127
62.98022 122
63.00034 109
63.02045 135
63.04056 138
63.06068 112
63.08079 125
63.10091 111
63.12102 129
63.14113 130
63.16125 119
63.18136 124
63.20147 118
63.22159 117
63.2417 149
63.26182 128
63.28193 118
63.30204 122
63.32216 108
63.34227 135
63.36238 115
63.3825 102
63.40261 114
63.42272 127
63.44284 126
63.46295 123
63.48307 140
63.50318 126
63.52329 129
63.54341 127
63.56352 129
63.58363 147
63.60375 139
63.62386 141
63.64398 157
63.66409 142
63.6842 134
63.70432 147
63.72443 158
63.74454 185
63.76466 191
63.78477 200
63.80489 196
63.825 247
63.84511 248
63.86523 303
63.88534 337
63.90545 366
63.92557 405
63.94568 468
63.96579 461
63.98591 460
64.00602 431
64.02614 425
64.04625 390
64.06636 307
64.08648 297
64.10659 287
64.1267 266
64.14682 307
64.16693 261
64.18705 268
64.20716 254
64.22727 210
64.24739 178
64.2675 149
64.28761 131
64.30773 127
64.32784 129
64.34796 128
64.36807 136
64.38818 149
64.4083 112
64.42841 116
64.44852 103
64.46864 117
64.48875 100
64.50886 130
64.52898 110
64.54909 119
64.56921 127
64.58932 115
64.60943 106
64.62955 115
64.64966 115
64.66977 104
64.68989 96
64.71 128
64.73012 119
64.75023 96
64.77034 121
64.79046 106
64.81057 109
64.83068 118
64.8508 119
64.87091 116
64.89102 122
64.91114 116
64.93125 115
64.95137 135
64.97148 112
64.99159 91
65.01171 120
65.03182 115
65.05193 113
65.07205 134
65.09216 131
65.11228 116
65.13239 125
65.1525 139
65.17262 106
65.19273 120
65.21284 126
65.23296 107
65.25307 141
65.27319 110
65.2933 113
65.31341 136
65.33353 124
65.35364 116
65.37375 131
65.39387 129
65.41398 132
65.43409 129
65.45421 126
65.47432 136
65.49444 133
65.51455 137
65.53466 119
65.55478 142
65.57489 144
65.595 127
65.61512 156
65.63523 176
65.65535 156
65.67546 198
65.69557 212
65.71569 199
65.7358 183
65.75591 190
65.77603 196
65.79614 165
65.81626 176
65.83637 182
65.85648 140
65.8766 163
65.89671 157
65.91682 168
65.93694 150
65.95705 161
65.97716 135
65.99728 112
66.01739 143
66.03751 121
66.05762 128
66.07773 123
66.09785 121
66.11796 101
66.13807 144
66.15819 121
66.1783 131
66.19842 121
66.21853 122
66.23864 125
66.25876 132
66.27887 114
66.29898 134
66.3191 120
66.33921 120
66.35933 118
66.37944 126
66.39955 117
66.41967 112
66.43978 136
66.45989 124
66.48001 128
66.50012 141
66.52023 118
66.54035 128
66.56046 118
66.58058 122
66.60069 132
66.6208 133
66.64092 114
66.66103 134
66.68114 138
66.70126 124
66.72137 128
66.74149 131
66.7616 113
66.78171 132
66.80183 153
66.82194 134
66.84205 137
66.86217 132
66.88228 130
66.90239 137
66.92251 132
66.94262 147
66.96274 130
66.98285 122
67.00296 141
67.02308 152
67.04319 123
67.0633 165
67.08342 166
67.10353 138
67.12365 152
67.14376 155
67.16387 156
67.18399 161
67.2041 157
67.22421 197
67.24433 183
67.26444 191
67.28456 204
67.30467 205
67.32478 206
67.3449 216
67.36501 243
67.38512 241
67.40524 247
67.42535 347
67.44546 330
67.46558 335
67.48569 389
67.50581 455
67.52592 504
67.54603 606
67.56615 672
67.58626 778
67.60637 872
67.62649 1039
67.6466 1139
67.66672 1273
67.68683 1312
67.70694 1195
67.72706 1134
67.74717 1030
67.76728 948
67.7874 875
67.80751 862
67.82763 837
67.84774 979
67.86785 1017
67.88797 977
67.90808 1028
67.92819 999
67.94831 983
67.96842 1008
67.98853 1144
68.00865 1254
68.02876 1405
68.04888 1568
68.06899 1645
68.0891 1729
68.10922 1721
68.12933 1640
68.14944 1500
68.16956 1387
68.18967 1401
68.20979 1393
68.2299 1522
68.25001 1598
68.27013 1550
68.29024 1469
68.31035 1305
68.33047 1130
68.35058 893
68.3707 691
68.39081 666
68.41092 641
68.43104 587
68.45115 573
68.47126 557
68.49138 483
68.51149 418
68.5316 345
68.55172 290
68.57183 233
68.59195 231
68.61206 196
68.63217 208
68.65229 181
68.6724 182
68.69251 183
68.71263 181
68.73274 157
68.75286 151
68.77297 177
68.79308 158
68.8132 139
68.83331 155
68.85342 168
68.87354 152
68.89365 126
68.91376 149
68.93388 125
68.95399 124
68.97411 147
68.99422 132
69.01433 117
69.03445 141
69.05456 133
69.07467 128
69.09479 147
69.1149 123
69.13502 128
69.15513 124
69.17524 123
69.19536 133
69.21547 114
69.23558 128
69.2557 101
69.27581 116
69.29593 111
69.31604 125
69.33615 109
69.35627 111
69.37638 125
69.39649 101
69.41661 112
69.43672 115
69.45683 127
69.47695 122
69.49706 121
69.51718 108
69.53729 134
69.5574 98
69.57752 114
69.59763 119
69.61774 113
69.63786 117
69.65797 115
69.67809 115
69.6982 98
69.71831 107
69.73843 103
69.75854 112
69.77865 105
69.79877 131
69.81888 110
69.839 114
69.85911 112
69.87922 130
69.89934 136
69.91945 108
69.93956 116
69.95968 110
69.97979 115
69.9999 97
70.02002 103
70.04013 83
70.06025 107
70.08036 111
70.10047 97
70.12059 134
70.1407 105
70.16081 102
70.18093 115
70.20104 107
70.22116 104
70.24127 122
70.26138 105
70.2815 136
70.30161 118
70.32172 119
70.34184 107
70.36195 103
70.38207 96
70.40218 97
70.42229 96
70.44241 99
70.46252 115
70.48263 102
70.50275 101
70.52286 120
70.54297 102
70.56309 103
70.5832 98
70.60332 108
70.62343 103
70.64354 135
70.66366 105
70.68377 107
70.70388 95
70.724 108
70.74411 103
70.76423 102
70.78434 99
70.80445 100
70.82457 109
70.84468 107
70.86479 99
70.88491 115
70.90502 100
70.92513 125
70.94525 124
70.96536 131
70.98548 112
71.00559 110
71.0257 101
71.04582 116
71.06593 102
71.08604 110
71.10616 111
71.12627 95
71.14639 99
71.1665 106
71.18661 91
71.20673 112
71.22684 95
71.24695 113
71.26707 112
71.28718 110
71.3073 125
71.32741 91
71.34752 100
71.36764 109
71.38775 120
71.40786 98
71.42798 112
71.44809 132
71.4682 119
71.48832 108
71.50843 117
71.52855 112
71.54866 109
71.56877 104
71.58889 100
71.609 98
71.62911 109
71.64923 101
71.66934 88
71.68946 112
71.70957 117
71.72968 92
71.7498 99
71.76991 105
71.79002 87
71.81014 103
71.83025 105
71.85037 91
71.87048 118
71.89059 109
71.91071 99
71.93082 85
71.95093 101
71.97105 116
71.99116 122
72.01127 104
72.03139 106
72.0515 140
72.07162 103
72.09173 105
72.11184 103
72.13196 117
72.15207 108
72.17218 104
72.1923 99
72.21241 106
72.23253 103
72.25264 121
72.27275 123
72.29287 115
72.31298 126
72.33309 102
72.35321 117
72.37332 98
72.39344 103
72.41355 104
72.43366 91
72.45378 116
72.47389 114
72.494 97
72.51412 102
72.53423 116
72.55434 108
72.57446 94
72.59457 99
72.61469 104
72.6348 103
72.65491 105
72.67503 109
72.69514 101
72.71525 107
72.73537 105
72.75548 107
72.7756 111
72.79571 103
72.81582 117
72.83594 116
72.85605 125
72.87616 112
72.89628 97
72.91639 111
72.9365 103
72.95662 119
72.97673 104
72.99685 128
73.01696 122
73.03707 124
73.05719 131
73.0773 115
73.09741 148
73.11753 160
73.13764 174
73.15776 146
73.17787 177
73.19798 209
73.2181 201
73.23821 229
73.25832 256
73.27844 269
73.29855 291
73.31867 336
73.33878 397
73.35889 443
73.37901 425
73.39912 478
73.41923 500
73.43935 430
73.45946 402
73.47957 347
73.49969 322
73.5198 299
73.53992 297
73.56003 278
73.58014 287
73.60026 294
73.62037 306
73.64048 269
73.6606 252
73.68071 237
73.70083 181
73.72094 193
73.74105 138
73.76117 136
73.78128 140
73.80139 119
73.82151 119
73.84162 106
73.86174 100
73.88185 112
73.90196 103
73.92208 123
73.94219 122
73.9623 125
73.98242 106
74.00253 118
74.02264 109
74.04276 97
74.06287 112
74.08299 89
74.1031 127
74.12321 104
74.14333 103
74.16344 91
74.18355 103
74.20367 118
74.22378 109
74.2439 130
74.26401 94
74.28412 97
74.30424 87
74.32435 96
74.34446 112
74.36458 96
74.38469 100
74.40481 90
74.42492 117
74.44503 115
74.46515 119
74.48526 93
74.50537 99
74.52549 101
74.5456 119
74.56571 109
74.58583 108
74.60594 90
74.62606 103
74.64617 120
74.66628 112
74.6864 122
74.70651 100
74.72662 95
74.74674 123
74.76685 96
74.78697 106
74.80708 99
74.82719 115
74.84731 111
74.86742 89
74.88753 105
74.90765 102
74.92776 119
74.94787 129
74.96799 123
74.9881 129
75.00822 101
