3.00117 20510
3.02128 19696
3.0414 19419
3.06151 19028
3.08162 18473
3.10174 18048
3.12185 17382
3.14197 17262
3.16208 16520
3.18219 15833
3.20231 15607
3.22242 15198
3.24253 14799
3.26265 14358
3.28276 13714
3.30288 13797
3.32299 12887
3.3431 12924
3.36322 12216
3.38333 11633
3.40344 11669
3.42356 11263
3.44367 11025
3.46379 10302
3.4839 10106
3.50401 9703
3.52413 9132
3.54424 9229
3.56435 8920
3.58447 8263
3.60458 8242
3.62469 7833
3.64481 7638
3.66492 7285
3.68504 7143
3.70515 7007
3.72526 6324
3.74538 6481
3.76549 6154
3.7856 5859
3.80572 5740
3.82583 5399
3.84595 5259
3.86606 5174
3.88617 4740
3.90629 4789
3.9264 4425
3.94651 4410
3.96663 4366
3.98674 3953
4.00686 3829
4.02697 3577
4.04708 3483
4.0672 3628
4.08731 3226
4.10742 3274
4.12754 3053
4.14765 3063
4.16776 3074
4.18788 2653
4.20799 2659
4.22811 2591
4.24822 2593
4.26833 2590
4.28845 2363
4.30856 2374
4.32867 2322
4.34879 2284
4.3689 2403
4.38902 2172
4.40913 2196
4.42924 2125
4.44936 2224
4.46947 2215
4.48958 1966
4.5097 2004
4.52981 2091
4.54992 1981
4.57004 2079
4.59015 1883
4.61027 1998
4.63038 1855
4.65049 1766
4.67061 1895
4.69072 1743
4.71083 1694
4.73095 1831
4.75106 1760
4.77118 1747
4.79129 1615
4.8114 1701
4.83152 1680
4.85163 1659
4.87174 1813
4.89186 1591
4.91197 1618
4.93209 1621
4.9522 1583
4.97231 1773
4.99243 1673
5.01254 1587
5.03265 1575
5.05277 1616
5.07288 1521
5.09299 1592
5.11311 1526
5.13322 1602
5.15334 1677
5.17345 1595
5.19356 1629
5.21368 1630
5.23379 1631
5.2539 1626
5.27402 1646
5.29413 1664
5.31425 1575
5.33436 1729
5.35447 1577
5.37459 1678
5.3947 1713
5.41481 1722
5.43493 1725
5.45504 1737
5.47516 1669
5.49527 1759
5.51538 1718
5.5355 1835
5.55561 1740
5.57572 1856
5.59584 1871
5.61595 1839
5.63606 1893
5.65618 1822
5.67629 1927
5.69641 1983
5.71652 1940
5.73663 1907
5.75675 1923
5.77686 2046
5.79697 1964
5.81709 2008
5.8372 1916
5.85732 1914
5.87743 1885
5.89754 1885
5.91766 1941
5.93777 1891
5.95788 1880
5.978 1885
5.99811 1805
6.01823 1733
6.03834 1782
6.05845 1702
6.07857 1648
6.09868 1628
6.11879 1602
6.13891 1577
6.15902 1536
6.17913 1518
6.19925 1447
6.21936 1456
6.23948 1479
6.25959 1413
6.2797 1336
6.29982 1293
6.31993 1333
6.34004 1286
6.36016 1356
6.38027 1294
6.40039 1160
6.4205 1188
6.44061 1101
6.46073 1173
6.48084 1165
6.50095 1068
6.52107 1068
6.54118 1007
6.56129 932
6.58141 967
6.60152 1070
6.62164 1000
6.64175 1035
6.66186 954
6.68198 974
6.70209 941
6.7222 902
6.74232 922
6.76243 963
6.78255 906
6.80266 908
6.82277 898
6.84289 878
6.863 836
6.88311 852
6.90323 781
6.92334 835
6.94346 826
6.96357 794
6.98368 794
7.0038 821
7.02391 801
7.04402 821
7.06414 772
7.08425 770
7.10436 741
7.12448 729
7.14459 751
7.16471 750
7.18482 745
7.20493 708
7.22505 722
7.24516 733
7.26527 715
7.28539 663
7.3055 636
7.32562 689
7.34573 694
7.36584 738
7.38596 630
7.40607 634
7.42618 704
7.4463 661
7.46641 694
7.48653 648
7.50664 655
7.52675 669
7.54687 668
7.56698 655
7.58709 648
7.60721 623
7.62732 665
7.64743 653
7.66755 682
7.68766 689
7.70778 656
7.72789 626
7.748 585
7.76812 664
7.78823 645
7.80834 623
7.82846 647
7.84857 649
7.86869 641
7.8888 587
7.90891 574
7.92903 607
7.94914 604
7.96925 621
7.98937 598
8.00948 547
8.0296 591
8.04971 585
8.06982 612
8.08994 603
8.11005 609
8.13016 601
8.15028 580
8.17039 586
8.1905 569
8.21062 612
8.23073 532
8.25085 543
8.27096 596
8.29107 613
8.31119 569
8.3313 568
8.35141 602
8.37153 615
8.39164 521
8.41176 548
8.43187 581
8.45198 566
8.4721 538
8.49221 588
8.51232 565
8.53244 568
8.55255 580
8.57266 588
8.59278 522
8.61289 570
8.63301 499
8.65312 570
8.67323 549
8.69335 532
8.71346 561
8.73357 596
8.75369 565
8.7738 564
8.79392 549
8.81403 552
8.83414 526
8.85426 524
8.87437 543
8.89448 556
8.9146 555
8.93471 498
8.95483 517
8.97494 568
8.99505 518
9.01517 549
9.03528 543
9.05539 513
9.07551 536
9.09562 516
9.11573 506
9.13585 563
9.15596 506
9.17608 553
9.19619 596
9.2163 501
9.23642 529
9.25653 610
9.27664 564
9.29676 542
9.31687 608
9.33699 596
9.3571 652
9.37721 699
9.39733 639
9.41744 664
9.43755 694
9.45767 713
9.47778 676
9.4979 604
9.51801 529
9.53812 576
9.55824 544
9.57835 486
9.59846 559
9.61858 518
9.63869 523
9.6588 535
9.67892 506
9.69903 537
9.71915 561
9.73926 517
9.75937 557
9.77949 580
9.7996 551
9.81971 574
9.83983 556
9.85994 558
9.88006 618
9.90017 560
9.92028 600
9.9404 573
9.96051 572
9.98062 567
10.00074 553
10.02085 533
10.04097 560
10.06108 566
10.08119 536
10.10131 529
10.12142 524
10.14153 498
10.16165 495
10.18176 535
10.20187 533
10.22199 490
10.2421 523
10.26222 503
10.28233 479
10.30244 509
10.32256 509
10.34267 550
10.36278 489
10.3829 505
10.40301 527
10.42313 502
10.44324 522
10.46335 550
10.48347 515
10.50358 554
10.52369 494
10.54381 558
10.56392 484
10.58403 517
10.60415 507
10.62426 491
10.64438 488
10.66449 495
10.6846 508
10.70472 519
10.72483 486
10.74494 515
10.76506 497
10.78517 557
10.80529 520
10.8254 501
10.84551 520
10.86563 508
10.88574 472
10.90585 528
10.92597 501
10.94608 526
10.9662 498
10.98631 577
11.00642 540
11.02654 563
11.04665 495
11.06676 535
11.08688 537
11.10699 570
11.1271 569
11.14722 482
11.16733 541
11.18745 539
11.20756 514
11.22767 522
11.24779 473
11.2679 503
11.28801 530
11.30813 526
11.32824 504
11.34836 575
11.36847 512
11.38858 505
11.4087 462
11.42881 517
11.44892 522
11.46904 516
11.48915 591
11.50927 580
11.52938 604
11.54949 555
11.56961 547
11.58972 553
11.60983 542
11.62995 570
11.65006 510
11.67017 525
11.69029 536
11.7104 564
11.73052 581
11.75063 541
11.77074 536
11.79086 570
11.81097 553
11.83108 560
11.8512 527
11.87131 564
11.89143 520
11.91154 551
11.93165 602
11.95177 528
11.97188 538
11.99199 553
12.01211 508
12.03222 547
12.05234 591
12.07245 591
12.09256 638
12.11268 568
12.13279 526
12.1529 532
12.17302 533
12.19313 521
12.21324 554
12.23336 517
12.25347 536
12.27359 524
12.2937 544
12.31381 538
12.33393 526
12.35404 491
12.37415 469
12.39427 531
12.41438 524
12.4345 511
12.45461 499
12.47472 517
12.49484 512
12.51495 471
12.53506 512
12.55518 505
12.57529 499
12.5954 523
12.61552 470
12.63563 474
12.65575 500
12.67586 493
12.69597 497
12.71609 458
12.7362 472
12.75631 486
12.77643 493
12.79654 498
12.81666 492
12.83677 527
12.85688 502
12.877 505
12.89711 527
12.91722 539
12.93734 467
12.95745 490
12.97757 490
12.99768 448
13.01779 466
13.03791 524
13.05802 485
13.07813 453
13.09825 473
13.11836 500
13.13847 459
13.15859 459
13.1787 467
13.19882 493
13.21893 515
13.23904 463
13.25916 471
13.27927 482
13.29938 513
13.3195 483
13.33961 488
13.35973 471
13.37984 479
13.39995 471
13.42007 468
13.44018 470
13.46029 486
13.48041 518
13.50052 460
13.52064 486
13.54075 495
13.56086 508
13.58098 495
13.60109 470
13.6212 519
13.64132 549
13.66143 482
13.68154 528
13.70166 521
13.72177 465
13.74189 494
13.762 450
13.78211 493
13.80223 457
13.82234 523
13.84245 503
13.86257 515
13.88268 462
13.9028 475
13.92291 442
13.94302 476
13.96314 466
13.98325 461
14.00336 419
14.02348 472
14.04359 478
14.06371 467
14.08382 472
14.10393 417
14.12405 440
14.14416 473
14.16427 433
14.18439 468
14.2045 454
14.22461 470
14.24473 402
14.26484 421
14.28496 427
14.30507 427
14.32518 478
14.3453 453
14.36541 435
14.38552 463
14.40564 448
14.42575 463
14.44587 457
14.46598 445
14.48609 462
14.50621 416
14.52632 452
14.54643 455
14.56655 438
14.58666 482
14.60677 441
14.62689 454
14.647 470
14.66712 492
14.68723 456
14.70734 465
14.72746 457
14.74757 457
14.76768 452
14.7878 485
14.80791 431
14.82803 438
14.84814 481
14.86825 453
14.88837 472
14.90848 502
14.92859 451
14.94871 474
14.96882 456
14.98894 485
15.00905 430
15.02916 451
15.04928 468
15.06939 513
15.0895 442
15.10962 450
15.12973 440
15.14984 502
15.16996 469
15.19007 477
15.21019 453
15.2303 501
15.25041 474
15.27053 463
15.29064 484
15.31075 476
15.33087 446
15.35098 479
15.3711 475
15.39121 431
15.41132 445
15.43144 474
15.45155 463
15.47166 478
15.49178 396
15.51189 441
15.53201 473
15.55212 471
15.57223 457
15.59235 414
15.61246 429
15.63257 453
15.65269 441
15.6728 411
15.69291 495
15.71303 469
15.73314 483
15.75326 437
15.77337 472
15.79348 452
15.8136 478
15.83371 468
15.85382 521
15.87394 511
15.89405 485
15.91417 509
15.93428 546
15.95439 499
15.97451 489
15.99462 499
16.01473 490
16.03485 417
16.05496 486
16.07508 474
16.09519 456
16.1153 436
16.13542 442
16.15553 461
16.17564 423
16.19576 488
16.21587 479
16.23598 484
16.2561 432
16.27621 451
16.29633 466
16.31644 454
16.33655 466
16.35667 472
16.37678 466
16.39689 416
16.41701 488
16.43712 472
16.45724 464
16.47735 410
16.49746 483
16.51758 471
16.53769 443
16.5578 444
16.57792 480
16.59803 451
16.61814 435
16.63826 462
16.65837 465
16.67849 432
16.6986 481
16.71871 510
16.73883 429
16.75894 479
16.77905 475
16.79917 463
16.81928 480
16.8394 527
16.85951 440
16.87962 487
16.89974 495
16.91985 485
16.93996 453
16.96008 484
16.98019 476
17.00031 472
17.02042 439
17.04053 501
17.06065 421
17.08076 461
17.10087 509
17.12099 437
17.1411 463
17.16121 466
17.18133 464
17.20144 487
17.22156 471
17.24167 488
17.26178 501
17.2819 528
17.30201 463
17.32212 467
17.34224 478
17.36235 456
17.38247 439
17.40258 494
17.42269 502
17.44281 516
17.46292 503
17.48303 537
17.50315 534
17.52326 518
17.54338 525
17.56349 543
17.5836 555
17.60372 553
17.62383 548
17.64394 549
17.66406 484
17.68417 496
17.70428 488
17.7244 496
17.74451 489
17.76463 493
17.78474 502
17.80485 512
17.82497 528
17.84508 516
17.86519 482
17.88531 502
17.90542 496
17.92554 510
17.94565 468
17.96576 458
17.98588 493
18.00599 504
18.0261 465
18.04622 489
18.06633 477
18.08645 457
18.10656 508
18.12667 445
18.14679 493
18.1669 526
18.18701 513
18.20713 472
18.22724 492
18.24735 505
18.26747 470
18.28758 501
18.3077 525
18.32781 493
18.34792 490
18.36804 456
18.38815 466
18.40826 484
18.42838 531
18.44849 437
18.46861 474
18.48872 496
18.50883 507
18.52895 460
18.54906 463
18.56917 496
18.58929 464
18.6094 455
18.62951 456
18.64963 476
18.66974 513
18.68986 476
18.70997 472
18.73008 466
18.7502 534
18.77031 527
18.79042 472
18.81054 496
18.83065 498
18.85077 508
18.87088 508
18.89099 507
18.91111 523
18.93122 525
18.95133 519
18.97145 527
18.99156 525
19.01168 522
19.03179 564
19.0519 563
19.07202 594
19.09213 544
19.11224 548
19.13236 593
19.15247 588
19.17258 601
19.1927 544
19.21281 576
19.23293 543
19.25304 594
19.27315 615
19.29327 642
19.31338 612
19.33349 617
19.35361 637
19.37372 625
19.39384 647
19.41395 684
19.43406 682
19.45418 729
19.47429 689
19.4944 742
19.51452 731
19.53463 806
19.55475 846
19.57486 856
19.59497 864
19.61509 860
19.6352 886
19.65531 949
19.67543 946
19.69554 1013
19.71565 969
19.73577 1002
19.75588 1040
19.776 1062
19.79611 1038
19.81622 1077
19.83634 1064
19.85645 1081
19.87656 1050
19.89668 1039
19.91679 978
19.93691 1053
19.95702 1021
19.97713 1038
19.99725 989
20.01736 920
20.03747 958
20.05759 982
20.0777 900
20.09782 914
20.11793 924
20.13804 874
20.15816 934
20.17827 885
20.19838 926
20.2185 954
20.23861 928
20.25872 874
20.27884 871
20.29895 865
20.31907 897
20.33918 853
20.35929 858
20.37941 839
20.39952 884
20.41963 886
20.43975 900
20.45986 945
20.47998 970
20.50009 932
20.5202 920
20.54032 876
20.56043 893
20.58054 892
20.60066 863
20.62077 858
20.64088 796
20.661 724
20.68111 778
20.70123 779
20.72134 795
20.74145 795
20.76157 804
20.78168 809
20.80179 845
20.82191 837
20.84202 838
20.86214 773
20.88225 831
20.90236 713
20.92248 813
20.94259 734
20.9627 767
20.98282 729
21.00293 769
21.02305 725
21.04316 775
21.06327 754
21.08339 713
21.1035 759
21.12361 823
21.14373 715
21.16384 758
21.18395 728
21.20407 695
21.22418 680
21.2443 743
21.26441 703
21.28452 743
21.30464 718
21.32475 696
21.34486 708
21.36498 737
21.38509 728
21.40521 716
21.42532 680
21.44543 721
21.46555 721
21.48566 701
21.50577 663
21.52589 679
21.546 693
21.56612 707
21.58623 648
21.60634 696
21.62646 670
21.64657 726
21.66668 659
21.6868 690
21.70691 703
21.72702 684
21.74714 684
21.76725 758
21.78737 758
21.80748 742
21.82759 804
21.84771 780
21.86782 807
21.88793 804
21.90805 899
21.92816 842
21.94828 833
21.96839 837
21.9885 788
22.00862 706
22.02873 711
22.04884 721
22.06896 660
22.08907 682
22.10919 682
22.1293 716
22.14941 648
22.16953 637
22.18964 668
22.20975 667
22.22987 688
22.24998 742
22.27009 717
22.29021 696
22.31032 687
22.33044 717
22.35055 753
22.37066 714
22.39078 661
22.41089 739
22.431 675
22.45112 667
22.47123 726
22.49135 642
22.51146 682
22.53157 590
22.55169 713
22.5718 635
22.59191 627
22.61203 646
22.63214 645
22.65225 692
22.67237 653
22.69248 678
22.7126 676
22.73271 760
22.75282 751
22.77294 680
22.79305 700
22.81316 702
22.83328 742
22.85339 698
22.87351 676
22.89362 727
22.91373 697
22.93385 694
22.95396 682
22.97407 679
22.99419 652
23.0143 631
23.03442 693
23.05453 623
23.07464 659
23.09476 614
23.11487 623
23.13498 604
23.1551 660
23.17521 621
23.19532 600
23.21544 615
23.23555 640
23.25567 647
23.27578 653
23.29589 647
23.31601 651
23.33612 662
23.35623 693
23.37635 636
23.39646 620
23.41658 685
23.43669 688
23.4568 707
23.47692 695
23.49703 695
23.51714 707
23.53726 710
23.55737 804
23.57749 783
23.5976 850
23.61771 852
23.63783 877
23.65794 841
23.67805 784
23.69817 775
23.71828 757
23.73839 724
23.75851 723
23.77862 736
23.79874 701
23.81885 686
23.83896 675
23.85908 665
23.87919 712
23.8993 699
23.91942 690
23.93953 669
23.95965 713
23.97976 667
23.99987 681
24.01999 705
24.0401 686
24.06021 678
24.08033 684
24.10044 688
24.12056 699
24.14067 699
24.16078 689
24.1809 611
24.20101 706
24.22112 672
24.24124 681
24.26135 701
24.28146 681
24.30158 746
24.32169 731
24.34181 771
24.36192 769
24.38203 726
24.40215 757
24.42226 729
24.44237 757
24.46249 755
24.4826 726
24.50272 734
24.52283 720
24.54294 685
24.56306 739
24.58317 721
24.60328 714
24.6234 707
24.64351 671
24.66362 702
24.68374 688
24.70385 711
24.72397 690
24.74408 721
24.76419 651
24.78431 680
24.80442 713
24.82453 673
24.84465 665
24.86476 659
24.88488 675
24.90499 635
24.9251 689
24.94522 661
24.96533 624
24.98544 676
25.00556 681
25.02567 569
25.04579 631
25.0659 662
25.08601 631
25.10613 647
25.12624 624
25.14635 636
25.16647 640
25.18658 634
25.20669 671
25.22681 619
25.24692 609
25.26704 576
25.28715 647
25.30726 651
25.32738 647
25.34749 656
25.3676 645
25.38772 658
25.40783 600
25.42795 642
25.44806 691
25.46817 618
25.48829 624
25.5084 680
25.52851 690
25.54863 681
25.56874 653
25.58886 659
25.60897 690
25.62908 696
25.6492 648
25.66931 594
25.68942 662
25.70954 604
25.72965 679
25.74976 677
25.76988 660
25.78999 674
25.81011 701
25.83022 622
25.85033 659
25.87045 639
25.89056 605
25.91067 661
25.93079 664
25.9509 635
25.97102 672
25.99113 662
26.01124 612
26.03136 623
26.05147 571
26.07158 642
26.0917 617
26.11181 630
26.13193 621
26.15204 674
26.17215 608
26.19227 615
26.21238 618
26.23249 619
26.25261 623
26.27272 638
26.29283 567
26.31295 623
26.33306 636
26.35318 667
26.37329 659
26.3934 706
26.41352 707
26.43363 745
26.45374 704
26.47386 702
26.49397 713
26.51409 712
26.5342 777
26.55431 799
26.57443 830
26.59454 811
26.61465 859
26.63477 847
26.65488 819
26.67499 721
26.69511 719
26.71522 660
26.73534 608
26.75545 631
26.77556 637
26.79568 655
26.81579 598
26.8359 607
26.85602 566
26.87613 594
26.89625 617
26.91636 614
26.93647 598
26.95659 562
26.9767 584
26.99681 618
27.01693 628
27.03704 619
27.05716 625
27.07727 649
27.09738 614
27.1175 593
27.13761 621
27.15772 605
27.17784 632
27.19795 585
27.21806 655
27.23818 631
27.25829 666
27.27841 690
27.29852 632
27.31863 675
27.33875 735
27.35886 739
27.37897 728
27.39909 717
27.4192 764
27.43932 811
27.45943 791
27.47954 865
27.49966 868
27.51977 920
27.53988 883
27.56 859
27.58011 898
27.60023 929
27.62034 965
27.64045 898
27.66057 946
27.68068 984
27.70079 1064
27.72091 991
27.74102 1017
27.76113 1044
27.78125 966
27.80136 943
27.82148 916
27.84159 902
27.8617 881
27.88182 852
27.90193 906
27.92204 876
27.94216 967
27.96227 916
27.98239 943
28.0025 890
28.02261 842
28.04273 805
28.06284 745
28.08295 727
28.10307 644
28.12318 594
28.1433 602
28.16341 589
28.18352 663
28.20364 609
28.22375 575
28.24386 643
28.26398 612
28.28409 614
28.3042 652
28.32432 664
28.34443 637
28.36455 682
28.38466 627
28.40477 633
28.42489 676
28.445 630
28.46511 647
28.48523 592
28.50534 607
28.52546 608
28.54557 617
28.56568 624
28.5858 576
28.60591 582
28.62602 616
28.64614 551
28.66625 603
28.68636 599
28.70648 574
28.72659 560
28.74671 589
28.76682 582
28.78693 561
28.80705 559
28.82716 552
28.84727 609
28.86739 604
28.8875 571
28.90762 560
28.92773 545
28.94784 553
28.96796 598
28.98807 584
29.00818 569
29.0283 561
29.04841 561
29.06853 541
29.08864 567
29.10875 595
29.12887 572
29.14898 561
29.16909 577
29.18921 566
29.20932 601
29.22943 559
29.24955 552
29.26966 588
29.28978 576
29.30989 617
29.33 592
29.35012 612
29.37023 603
29.39034 661
29.41046 639
29.43057 678
29.45069 639
29.4708 665
29.49091 617
29.51103 654
29.53114 653
29.55125 638
29.57137 719
29.59148 694
29.6116 672
29.63171 699
29.65182 766
29.67194 765
29.69205 776
29.71216 788
29.73228 803
29.75239 822
29.7725 835
29.79262 763
29.81273 809
29.83285 707
29.85296 716
29.87307 692
29.89319 627
29.9133 689
29.93341 694
29.95353 668
29.97364 698
29.99376 640
30.01387 719
30.03398 737
30.0541 764
30.07421 711
30.09432 735
30.11444 773
30.13455 787
30.15467 853
30.17478 836
30.19489 849
30.21501 824
30.23512 824
30.25523 833
30.27535 809
30.29546 759
30.31557 780
30.33569 781
30.3558 703
30.37592 768
30.39603 746
30.41614 721
30.43626 824
30.45637 807
30.47648 695
30.4966 780
30.51671 759
30.53683 728
30.55694 710
30.57705 704
30.59717 671
30.61728 611
30.63739 631
30.65751 640
30.67762 661
30.69773 653
30.71785 669
30.73796 630
30.75808 633
30.77819 665
30.7983 656
30.81842 676
30.83853 616
30.85864 579
30.87876 630
30.89887 597
30.91899 609
30.9391 574
30.95921 570
30.97933 552
30.99944 519
31.01955 535
31.03967 563
31.05978 596
31.0799 519
31.10001 532
31.12012 571
31.14024 559
31.16035 513
31.18046 550
31.20058 533
31.22069 522
31.2408 543
31.26092 550
31.28103 547
31.30115 515
31.32126 554
31.34137 567
31.36149 552
31.3816 547
31.40171 567
31.42183 557
31.44194 595
31.46206 583
31.48217 561
31.50228 559
31.5224 536
31.54251 555
31.56262 514
31.58274 516
31.60285 535
31.62297 536
31.64308 501
31.66319 504
31.68331 535
31.70342 548
31.72353 567
31.74365 549
31.76376 585
31.78387 584
31.80399 546
31.8241 579
31.84422 635
31.86433 572
31.88444 604
31.90456 534
31.92467 542
31.94478 509
31.9649 550
31.98501 556
32.00513 515
32.02524 529
32.04535 533
32.06547 547
32.08558 547
32.10569 509
32.12581 528
32.14592 563
32.16604 534
32.18615 567
32.20626 580
32.22638 489
32.24649 498
32.2666 600
32.28672 542
32.30683 522
32.32694 540
32.34706 496
32.36717 533
32.38729 528
32.4074 557
32.42751 589
32.44763 570
32.46774 543
32.48785 527
32.50797 551
32.52808 592
32.5482 552
32.56831 600
32.58842 551
32.60854 573
32.62865 593
32.64876 575
32.66888 591
32.68899 597
32.7091 547
32.72922 587
32.74933 587
32.76945 541
32.78956 548
32.80967 557
32.82979 546
32.8499 568
32.87001 569
32.89013 587
32.91024 566
32.93036 619
32.95047 589
32.97058 604
32.9907 602
33.01081 594
33.03092 592
33.05104 569
33.07115 671
33.09127 639
33.11138 609
33.13149 614
33.15161 668
33.17172 612
33.19183 536
33.21195 550
33.23206 581
33.25217 559
33.27229 551
33.2924 523
33.31252 550
33.33263 561
33.35274 529
33.37286 517
33.39297 501
33.41308 558
33.4332 497
33.45331 531
33.47343 525
33.49354 497
33.51365 524
33.53377 529
33.55388 535
33.57399 509
33.59411 543
33.61422 516
33.63434 493
33.65445 539
33.67456 502
33.69468 538
33.71479 558
33.7349 546
33.75502 491
33.77513 514
33.79524 528
33.81536 531
33.83547 528
33.85559 537
33.8757 533
33.89581 523
33.91593 536
33.93604 526
33.95615 541
33.97627 541
33.99638 563
34.0165 549
34.03661 557
34.05672 499
34.07684 549
34.09695 555
34.11706 607
34.13718 605
34.15729 596
34.17741 578
34.19752 559
34.21763 638
34.23775 600
34.25786 609
34.27797 596
34.29809 607
34.3182 621
34.33831 648
34.35843 693
34.37854 631
34.39866 647
34.41877 618
34.43888 672
34.459 624
34.47911 643
34.49922 664
34.51934 624
34.53945 717
34.55957 718
34.57968 686
34.59979 706
34.61991 722
34.64002 706
34.66013 737
34.68025 738
34.70036 734
34.72047 728
34.74059 778
34.7607 831
34.78082 826
34.80093 831
34.82104 795
34.84116 835
34.86127 777
34.88138 775
34.9015 873
34.92161 814
34.94173 863
34.96184 842
34.98195 822
35.00207 812
35.02218 751
35.04229 858
35.06241 817
35.08252 788
35.10264 818
35.12275 819
35.14286 874
35.16298 851
35.18309 874
35.2032 940
35.22332 912
35.24343 869
35.26354 1001
35.28366 973
35.30377 980
35.32389 1038
35.344 1104
35.36411 1069
35.38423 1118
35.40434 1092
35.42445 1183
35.44457 1179
35.46468 1209
35.4848 1139
35.50491 1257
35.52502 1234
35.54514 1250
35.56525 1250
35.58536 1225
35.60548 1219
35.62559 1218
35.64571 1176
35.66582 1125
35.68593 1078
35.70605 1028
35.72616 1022
35.74627 945
35.76639 889
35.7865 965
35.80661 874
35.82673 832
35.84684 802
35.86696 800
35.88707 769
35.90718 788
35.9273 747
35.94741 763
35.96752 677
35.98764 736
36.00775 709
36.02787 712
36.04798 692
36.06809 685
36.08821 706
36.10832 684
36.12843 632
36.14855 687
36.16866 667
36.18878 673
36.20889 693
36.229 657
36.24912 686
36.26923 698
36.28934 646
36.30946 662
36.32957 664
36.34968 677
36.3698 687
36.38991 660
36.41003 667
36.43014 635
36.45025 624
36.47037 652
36.49048 711
36.51059 633
36.53071 660
36.55082 677
36.57094 658
36.59105 645
36.61116 674
36.63128 644
36.65139 674
36.6715 678
36.69162 670
36.71173 686
36.73184 603
36.75196 667
36.77207 614
36.79219 611
36.8123 626
36.83241 637
36.85253 626
36.87264 634
36.89275 568
36.91287 615
36.93298 655
36.9531 643
36.97321 683
36.99332 665
37.01344 626
37.03355 672
37.05366 641
37.07378 659
37.09389 623
37.11401 654
37.13412 669
37.15423 653
37.17435 584
37.19446 646
37.21457 624
37.23469 612
37.2548 616
37.27491 609
37.29503 579
37.31514 610
37.33526 631
37.35537 629
37.37548 607
37.3956 608
37.41571 587
37.43582 609
37.45594 605
37.47605 594
37.49617 647
37.51628 571
37.53639 632
37.55651 601
37.57662 625
37.59673 591
37.61685 646
37.63696 610
37.65708 623
37.67719 652
37.6973 641
37.71742 592
37.73753 625
37.75764 639
37.77776 633
37.79787 633
37.81798 592
37.8381 669
37.85821 580
37.87833 649
37.89844 557
37.91855 615
37.93867 592
37.95878 579
37.97889 579
37.99901 656
38.01912 587
38.03924 608
38.05935 653
38.07946 636
38.09958 581
38.11969 601
38.1398 642
38.15992 636
38.18003 581
38.20015 632
38.22026 611
38.24037 594
38.26049 616
38.2806 612
38.30071 610
38.32083 616
38.34094 625
38.36105 578
38.38117 624
38.40128 622
38.4214 646
38.44151 637
38.46162 636
38.48174 610
38.50185 629
38.52196 576
38.54208 525
38.56219 615
38.58231 582
38.60242 562
38.62253 607
38.64265 574
38.66276 602
38.68287 577
38.70299 615
38.7231 577
38.74321 618
38.76333 589
38.78344 570
38.80356 564
38.82367 573
38.84378 616
38.8639 615
38.88401 531
38.90412 565
38.92424 630
38.94435 648
38.96447 590
38.98458 564
39.00469 587
39.02481 593
39.04492 609
39.06503 571
39.08515 553
39.10526 564
39.12538 595
39.14549 586
39.1656 602
39.18572 650
39.20583 605
39.22594 586
39.24606 567
39.26617 540
39.28628 603
39.3064 568
39.32651 633
39.34663 606
39.36674 611
39.38685 554
39.40697 598
39.42708 587
39.44719 568
39.46731 584
39.48742 540
39.50754 561
39.52765 611
39.54776 611
39.56788 571
39.58799 593
39.6081 556
39.62822 550
39.64833 572
39.66845 619
39.68856 555
39.70867 542
39.72879 591
39.7489 574
39.76901 594
39.78913 523
39.80924 588
39.82935 598
39.84947 552
39.86958 566
39.8897 512
39.90981 556
39.92992 575
39.95004 606
39.97015 616
39.99026 552
40.01038 610
40.03049 543
40.05061 592
40.07072 530
40.09083 556
40.11095 523
40.13106 580
40.15117 558
40.17129 579
40.1914 573
40.21152 562
40.23163 610
40.25174 574
40.27186 609
40.29197 592
40.31208 557
40.3322 551
40.35231 570
40.37242 565
40.39254 595
40.41265 585
40.43277 560
40.45288 567
40.47299 598
40.49311 615
40.51322 575
40.53333 584
40.55345 585
40.57356 557
40.59368 539
40.61379 588
40.6339 583
40.65402 605
40.67413 606
40.69424 597
40.71436 570
40.73447 595
40.75458 583
40.7747 545
40.79481 545
40.81493 601
40.83504 600
40.85515 573
40.87527 594
40.89538 552
40.91549 570
40.93561 563
40.95572 571
40.97584 559
40.99595 557
41.01606 574
41.03618 538
41.05629 577
41.0764 580
41.09652 524
41.11663 548
41.13675 544
41.15686 525
41.17697 554
41.19709 488
41.2172 514
41.23731 516
41.25743 549
41.27754 568
41.29765 538
41.31777 557
41.33788 508
41.358 486
41.37811 541
41.39822 577
41.41834 523
41.43845 535
41.45856 543
41.47868 546
41.49879 491
41.51891 551
41.53902 522
41.55913 584
41.57925 534
41.59936 519
41.61947 521
41.63959 538
41.6597 533
41.67982 501
41.69993 512
41.72004 553
41.74016 545
41.76027 531
41.78038 575
41.8005 535
41.82061 547
41.84072 546
41.86084 537
41.88095 534
41.90107 496
41.92118 495
41.94129 527
41.96141 534
41.98152 534
42.00163 524
42.02175 506
42.04186 513
42.06198 549
42.08209 551
42.1022 607
42.12232 576
42.14243 522
42.16254 572
42.18266 601
42.20277 562
42.22289 576
42.243 536
42.26311 583
42.28323 578
42.30334 579
42.32345 546
42.34357 557
42.36368 589
42.38379 566
42.40391 547
42.42402 555
42.44414 529
42.46425 580
42.48436 533
42.50448 539
42.52459 547
42.5447 544
42.56482 534
42.58493 531
42.60505 520
42.62516 562
42.64527 547
42.66539 559
42.6855 542
42.70561 535
42.72573 499
42.74584 529
42.76595 537
42.78607 550
42.80618 543
42.8263 559
42.84641 562
42.86652 527
42.88664 535
42.90675 563
42.92686 577
42.94698 552
42.96709 549
42.98721 577
43.00732 547
43.02743 584
43.04755 580
43.06766 522
43.08777 584
43.10789 589
43.128 557
43.14812 571
43.16823 582
43.18834 595
43.20846 564
43.22857 584
43.24868 581
43.2688 542
43.28891 547
43.30902 537
43.32914 574
43.34925 551
43.36937 542
43.38948 521
43.40959 516
43.42971 512
43.44982 529
43.46993 531
43.49005 522
43.51016 519
43.53028 489
43.55039 507
43.5705 515
43.59062 512
43.61073 472
43.63084 527
43.65096 505
43.67107 540
43.69119 488
43.7113 513
43.73141 489
43.75153 490
43.77164 513
43.79175 489
43.81187 488
43.83198 500
43.85209 500
43.87221 483
43.89232 473
43.91244 488
43.93255 451
43.95266 515
43.97278 489
43.99289 463
44.013 512
44.03312 512
44.05323 478
44.07335 527
44.09346 503
44.11357 501
44.13369 483
44.1538 511
44.17391 502
44.19403 492
44.21414 504
44.23426 485
44.25437 524
44.27448 511
44.2946 514
44.31471 527
44.33482 518
44.35494 543
44.37505 473
44.39516 510
44.41528 506
44.43539 527
44.45551 504
44.47562 505
44.49573 518
44.51585 500
44.53596 527
44.55607 527
44.57619 499
44.5963 504
44.61642 522
44.63653 523
44.65664 536
44.67676 506
44.69687 512
44.71698 502
44.7371 523
44.75721 521
44.77732 497
44.79744 516
44.81755 492
44.83767 497
44.85778 525
44.87789 515
44.89801 526
44.91812 550
44.93823 511
44.95835 464
44.97846 501
44.99858 452
45.01869 523
45.0388 507
45.05892 521
45.07903 455
45.09914 484
45.11926 491
45.13937 541
45.15949 552
45.1796 469
45.19971 524
45.21983 515
45.23994 508
45.26005 491
45.28017 526
45.30028 539
45.32039 491
45.34051 494
45.36062 497
45.38074 527
45.40085 468
45.42096 525
45.44108 495
45.46119 514
45.4813 499
45.50142 531
45.52153 473
45.54165 511
45.56176 475
45.58187 500
45.60199 498
45.6221 504
45.64221 509
45.66233 467
45.68244 516
45.70256 486
45.72267 524
45.74278 454
45.7629 501
45.78301 485
45.80312 481
45.82324 505
45.84335 536
45.86346 514
45.88358 489
45.90369 513
45.92381 509
45.94392 506
45.96403 514
45.98415 472
46.00426 488
46.02437 487
46.04449 475
46.0646 483
46.08472 506
46.10483 525
46.12494 462
46.14506 470
46.16517 539
46.18528 512
46.2054 509
46.22551 475
46.24563 488
46.26574 480
46.28585 491
46.30597 498
46.32608 470
46.34619 491
46.36631 446
46.38642 491
46.40653 460
46.42665 492
46.44676 438
46.46688 448
46.48699 480
46.5071 494
46.52722 478
46.54733 449
46.56744 497
46.58756 446
46.60767 505
46.62779 458
46.6479 523
46.66801 483
46.68813 464
46.70824 488
46.72835 475
46.74847 477
46.76858 517
46.78869 497
46.80881 488
46.82892 510
46.84904 475
46.86915 484
46.88926 453
46.90938 476
46.92949 476
46.9496 491
46.96972 467
46.98983 501
47.00995 451
47.03006 501
47.05017 500
47.07029 516
47.0904 487
47.11051 480
47.13063 457
47.15074 467
47.17086 476
47.19097 472
47.21108 457
47.2312 469
47.25131 484
47.27142 467
47.29154 467
47.31165 407
47.33176 457
47.35188 480
47.37199 436
47.39211 459
47.41222 527
47.43233 506
47.45245 466
47.47256 487
47.49267 463
47.51279 492
47.5329 472
47.55302 482
47.57313 460
47.59324 475
47.61336 499
47.63347 471
47.65358 492
47.6737 461
47.69381 461
47.71393 466
47.73404 470
47.75415 457
47.77427 492
47.79438 436
47.81449 449
47.83461 504
47.85472 437
47.87483 483
47.89495 477
47.91506 436
47.93518 468
47.95529 427
47.9754 475
47.99552 455
48.01563 446
48.03574 458
48.05586 462
48.07597 442
48.09609 453
48.1162 455
48.13631 496
48.15643 463
48.17654 458
48.19665 512
48.21677 457
48.23688 474
48.257 481
48.27711 501
48.29722 459
48.31734 494
48.33745 462
48.35756 487
48.37768 451
48.39779 456
48.4179 442
48.43802 482
48.45813 494
48.47825 470
48.49836 461
48.51847 475
48.53859 489
48.5587 503
48.57881 493
48.59893 464
48.61904 463
48.63916 480
48.65927 474
48.67938 478
48.6995 512
48.71961 489
48.73972 505
48.75984 500
48.77995 530
48.80006 486
48.82018 455
48.84029 472
48.86041 535
48.88052 492
48.90063 476
48.92075 468
48.94086 461
48.96097 494
48.98109 493
49.0012 490
49.02132 498
49.04143 445
49.06154 495
49.08166 486
49.10177 502
49.12188 502
49.142 490
49.16211 479
49.18223 478
49.20234 501
49.22245 485
49.24257 478
49.26268 495
49.28279 492
49.30291 537
49.32302 546
49.34313 467
49.36325 483
49.38336 525
49.40348 549
49.42359 506
49.4437 485
49.46382 461
49.48393 440
49.50404 522
49.52416 472
49.54427 475
49.56439 538
49.5845 496
49.60461 485
49.62473 503
49.64484 510
49.66495 507
49.68507 513
49.70518 551
49.7253 499
49.74541 513
49.76552 495
49.78564 466
49.80575 456
49.82586 477
49.84598 467
49.86609 505
49.8862 469
49.90632 501
49.92643 457
49.94655 457
49.96666 477
49.98677 483
50.00689 473
50.027 515
50.04711 474
50.06723 505
50.08734 464
50.10746 514
50.12757 481
50.14768 463
50.1678 475
50.18791 529
50.20802 465
50.22814 454
50.24825 486
50.26837 451
50.28848 441
50.30859 498
50.32871 498
50.34882 458
50.36893 471
50.38905 501
50.40916 479
50.42927 435
50.44939 429
50.4695 455
50.48962 501
50.50973 468
50.52984 477
50.54996 443
50.57007 467
50.59018 501
50.6103 475
50.63041 506
50.65053 468
50.67064 508
50.69075 480
50.71087 479
50.73098 493
50.75109 484
50.77121 478
50.79132 460
50.81143 483
50.83155 497
50.85166 452
50.87178 495
50.89189 471
50.912 497
50.93212 465
50.95223 468
50.97234 448
50.99246 494
51.01257 494
51.03269 467
51.0528 452
51.07291 447
51.09303 474
51.11314 480
51.13325 443
51.15337 522
51.17348 513
51.1936 484
51.21371 464
51.23382 513
51.25394 451
51.27405 474
51.29416 496
51.31428 491
51.33439 465
51.3545 490
51.37462 506
51.39473 479
51.41485 468
51.43496 497
51.45507 503
51.47519 494
51.4953 438
51.51541 501
51.53553 477
51.55564 464
51.57576 471
51.59587 481
51.61598 477
51.6361 480
51.65621 482
51.67632 470
51.69644 459
51.71655 423
51.73667 482
51.75678 454
51.77689 447
51.79701 475
51.81712 491
51.83723 462
51.85735 448
51.87746 468
51.89757 466
51.91769 460
51.9378 464
51.95792 482
51.97803 469
51.99814 431
52.01826 504
52.03837 483
52.05848 472
52.0786 505
52.09871 476
52.11883 445
52.13894 473
52.15905 486
52.17917 508
52.19928 474
52.21939 496
52.23951 459
52.25962 455
52.27974 485
52.29985 466
52.31996 506
52.34008 470
52.36019 478
52.3803 479
52.40042 453
52.42053 429
52.44064 460
52.46076 472
52.48087 462
52.50099 471
52.5211 476
52.54121 493
52.56133 448
52.58144 453
52.60155 473
52.62167 460
52.64178 465
52.6619 482
52.68201 457
52.70212 463
52.72224 476
52.74235 450
52.76246 475
52.78258 497
52.80269 457
52.8228 470
52.84292 476
52.86303 472
52.88315 482
52.90326 511
52.92337 512
52.94349 491
52.9636 529
52.98371 534
53.00383 539
53.02394 516
53.04406 504
53.06417 523
53.08428 514
53.1044 523
53.12451 514
53.14462 547
53.16474 565
53.18485 530
53.20497 526
53.22508 495
53.24519 552
53.26531 513
53.28542 547
53.30553 516
53.32565 530
53.34576 509
53.36587 509
53.38599 531
53.4061 490
53.42622 517
53.44633 554
53.46644 520
53.48656 528
53.50667 568
53.52678 567
53.5469 514
53.56701 523
53.58713 545
53.60724 545
53.62735 528
53.64747 558
53.66758 512
53.68769 551
53.70781 582
53.72792 567
53.74804 530
53.76815 590
53.78826 558
53.80838 581
53.82849 569
53.8486 536
53.86872 621
53.88883 580
53.90894 538
53.92906 568
53.94917 591
53.96929 563
53.9894 574
54.00951 569
54.02963 578
54.04974 551
54.06985 519
54.08997 536
54.11008 533
54.1302 560
54.15031 564
54.17042 561
54.19054 566
54.21065 562
54.23076 518
54.25088 528
54.27099 583
54.29111 516
54.31122 577
54.33133 559
54.35145 574
54.37156 554
54.39167 511
54.41179 498
54.4319 493
54.45201 497
54.47213 493
54.49224 493
54.51236 517
54.53247 530
54.55258 533
54.5727 531
54.59281 515
54.61292 544
54.63304 519
54.65315 513
54.67327 497
54.69338 535
54.71349 490
54.73361 504
54.75372 540
54.77383 513
54.79395 517
54.81406 520
54.83417 494
54.85429 535
54.8744 550
54.89452 548
54.91463 537
54.93474 528
54.95486 502
54.97497 536
54.99508 538
55.0152 538
55.03531 534
55.05543 494
55.07554 503
55.09565 472
55.11577 475
55.13588 503
55.15599 547
55.17611 503
55.19622 514
55.21634 493
55.23645 521
55.25656 510
55.27668 506
55.29679 501
55.3169 499
55.33702 511
55.35713 491
55.37724 498
55.39736 530
55.41747 463
55.43759 485
55.4577 508
55.47781 502
55.49793 508
55.51804 494
55.53815 502
55.55827 482
55.57838 527
55.5985 503
55.61861 492
55.63872 518
55.65884 462
55.67895 503
55.69906 509
55.71918 508
55.73929 472
55.75941 510
55.77952 535
55.79963 539
55.81975 480
55.83986 465
55.85997 467
55.88009 512
55.9002 494
55.92031 499
55.94043 470
55.96054 529
55.98066 451
56.00077 525
56.02088 497
56.041 449
56.06111 472
56.08122 475
56.10134 511
56.12145 484
56.14157 520
56.16168 463
56.18179 473
56.20191 508
56.22202 512
56.24213 494
56.26225 505
56.28236 516
56.30248 504
56.32259 566
56.3427 505
56.36282 505
56.38293 540
56.40304 532
56.42316 535
56.44327 532
56.46338 538
56.4835 546
56.50361 494
56.52373 525
56.54384 536
56.56395 522
56.58407 559
56.60418 529
56.62429 553
56.64441 530
56.66452 516
56.68464 494
56.70475 503
56.72486 495
56.74498 545
56.76509 519
56.7852 524
56.80532 532
56.82543 519
56.84554 527
56.86566 520
56.88577 518
56.90589 519
56.926 517
56.94611 541
56.96623 534
56.98634 546
57.00645 437
57.02657 570
57.04668 531
57.0668 491
57.08691 535
57.10702 523
57.12714 521
57.14725 510
57.16736 536
57.18748 549
57.20759 507
57.22771 540
57.24782 544
57.26793 515
57.28805 516
57.30816 509
57.32827 557
57.34839 488
57.3685 516
57.38861 494
57.40873 496
57.42884 501
57.44896 484
57.46907 495
57.48918 459
57.5093 477
57.52941 494
57.54952 526
57.56964 474
57.58975 435
57.60987 466
57.62998 475
57.65009 468
57.67021 428
57.69032 429
57.71043 575
57.73055 497
57.75066 458
57.77078 459
57.79089 469
57.811 503
57.83112 465
57.85123 431
57.87134 461
57.89146 476
57.91157 429
57.93168 455
57.9518 484
57.97191 460
57.99203 469
58.01214 472
58.03225 458
58.05237 433
58.07248 475
58.09259 507
58.11271 479
58.13282 456
58.15294 479
58.17305 448
58.19316 474
58.21328 443
58.23339 480
58.2535 450
58.27362 442
58.29373 432
58.31385 468
58.33396 452
58.35407 438
58.37419 479
58.3943 483
58.41441 495
58.43453 462
58.45464 486
58.47475 463
58.49487 417
58.51498 458
58.5351 480
58.55521 439
58.57532 484
58.59544 443
58.61555 471
58.63566 460
58.65578 453
58.67589 488
58.69601 459
58.71612 478
58.73623 499
58.75635 437
58.77646 439
58.79657 449
58.81669 461
58.8368 464
58.85691 454
58.87703 448
58.89714 467
58.91726 446
58.93737 462
58.95748 463
58.9776 438
58.99771 474
59.01782 419
59.03794 473
59.05805 449
59.07817 473
59.09828 446
59.11839 485
59.13851 457
59.15862 459
59.17873 460
59.19885 461
59.21896 490
59.23908 429
59.25919 465
59.2793 467
59.29942 470
59.31953 458
59.33964 422
59.35976 450
59.37987 446
59.39998 435
59.4201 451
59.44021 484
59.46033 490
59.48044 455
59.50055 426
59.52067 446
59.54078 497
59.56089 453
59.58101 425
59.60112 458
59.62124 477
59.64135 404
59.66146 451
59.68158 457
59.70169 431
59.7218 452
59.74192 484
59.76203 507
59.78215 469
59.80226 489
59.82237 490
59.84249 468
59.8626 460
59.88271 509
59.90283 458
59.92294 495
59.94305 466
59.96317 462
59.98328 469
60.0034 448
60.02351 439
60.04362 443
60.06374 450
60.08385 508
60.10396 496
60.12408 468
60.14419 485
60.16431 457
60.18442 459
60.20453 466
60.22465 471
60.24476 487
60.26487 490
60.28499 495
60.3051 508
60.32522 486
60.34533 510
60.36544 506
60.38556 493
60.40567 521
60.42578 472
60.4459 518
60.46601 512
60.48612 483
60.50624 480
60.52635 515
60.54647 494
60.56658 517
60.58669 532
60.60681 509
60.62692 508
60.64703 505
60.66715 516
60.68726 494
60.70738 511
60.72749 516
60.7476 507
60.76772 523
60.78783 526
60.80794 486
60.82806 473
60.84817 520
60.86828 522
60.8884 500
60.90851 491
60.92863 502
60.94874 531
60.96885 462
60.98897 479
61.00908 539
61.02919 513
61.04931 527
61.06942 530
61.08954 536
61.10965 517
61.12976 466
61.14988 503
61.16999 539
61.1901 503
61.21022 500
61.23033 562
61.25045 503
61.27056 497
61.29067 540
61.31079 506
61.3309 510
61.35101 546
61.37113 546
61.39124 544
61.41135 581
61.43147 544
61.45158 551
61.4717 551
61.49181 572
61.51192 563
61.53204 623
61.55215 572
61.57226 570
61.59238 595
61.61249 558
61.63261 551
61.65272 574
61.67283 578
61.69295 536
61.71306 554
61.73317 585
61.75329 592
61.7734 561
61.79352 550
61.81363 558
61.83374 585
61.85386 599
61.87397 564
61.89408 563
61.9142 587
61.93431 569
61.95442 562
61.97454 571
61.99465 603
62.01477 603
62.03488 574
62.05499 598
62.07511 591
62.09522 599
62.11533 577
62.13545 572
62.15556 591
62.17568 597
62.19579 603
62.2159 635
62.23602 610
62.25613 594
62.27624 595
62.29636 619
62.31647 594
62.33659 603
62.3567 602
62.37681 616
62.39693 592
62.41704 600
62.43715 608
62.45727 585
62.47738 630
62.49749 621
62.51761 654
62.53772 554
62.55784 570
62.57795 547
62.59806 548
62.61818 615
62.63829 548
62.6584 590
62.67852 563
62.69863 570
62.71875 546
62.73886 555
62.75897 579
62.77909 565
62.7992 591
62.81931 540
62.83943 533
62.85954 562
62.87965 546
62.89977 526
62.91988 553
62.94 506
62.96011 492
62.98022 497
63.00034 551
63.02045 508
63.04056 503
63.06068 522
63.08079 504
63.10091 514
63.12102 484
63.14113 483
63.16125 490
63.18136 494
63.20147 473
63.22159 497
63.2417 471
63.26182 512
63.28193 471
63.30204 477
63.32216 476
63.34227 473
63.36238 438
63.3825 501
63.40261 509
63.42272 475
63.44284 456
63.46295 468
63.48307 477
63.50318 514
63.52329 528
63.54341 475
63.56352 435
63.58363 440
63.60375 487
63.62386 459
63.64398 450
63.66409 508
63.6842 503
63.70432 493
63.72443 498
63.74454 489
63.76466 458
63.78477 520
63.80489 464
63.825 487
63.84511 508
63.86523 478
63.88534 472
63.90545 489
63.92557 516
63.94568 507
63.96579 466
63.98591 490
64.00602 474
64.02614 491
64.04625 488
64.06636 479
64.08648 471
64.10659 473
64.1267 450
64.14682 457
64.16693 443
64.18705 438
64.20716 478
64.22727 410
64.24739 405
64.2675 449
64.28761 456
64.30773 507
64.32784 442
64.34796 466
64.36807 463
64.38818 439
64.4083 438
64.42841 423
64.44852 431
64.46864 457
64.48875 425
64.50886 436
64.52898 449
64.54909 406
64.56921 456
64.58932 439
64.60943 452
64.62955 480
64.64966 465
64.66977 436
64.68989 463
64.71 441
64.73012 457
64.75023 445
64.77034 444
64.79046 438
64.81057 418
64.83068 428
64.8508 462
64.87091 446
64.89102 435
64.91114 401
64.93125 459
64.95137 451
64.97148 435
64.99159 401
65.01171 426
65.03182 469
65.05193 462
65.07205 419
65.09216 418
65.11228 428
65.13239 437
65.1525 400
65.17262 473
65.19273 457
65.21284 437
65.23296 461
65.25307 444
65.27319 439
65.2933 412
65.31341 457
65.33353 473
65.35364 448
65.37375 433
65.39387 434
65.41398 459
65.43409 437
65.45421 417
65.47432 408
65.49444 449
65.51455 465
65.53466 433
65.55478 427
65.57489 419
65.595 408
65.61512 454
65.63523 397
65.65535 463
65.67546 455
65.69557 452
65.71569 480
65.7358 470
65.75591 466
65.77603 458
65.79614 461
65.81626 468
65.83637 433
65.85648 422
65.8766 465
65.89671 475
65.91682 457
65.93694 486
65.95705 468
65.97716 452
65.99728 441
66.01739 428
66.03751 473
66.05762 470
66.07773 453
66.09785 414
66.11796 469
66.13807 393
66.15819 407
66.1783 464
66.19842 453
66.21853 450
66.23864 442
66.25876 464
66.27887 439
66.29898 407
66.3191 420
66.33921 432
66.35933 477
66.37944 448
66.39955 443
66.41967 389
66.43978 446
66.45989 426
66.48001 446
66.50012 427
66.52023 418
66.54035 427
66.56046 436
66.58058 407
66.60069 419
66.6208 429
66.64092 420
66.66103 403
66.68114 410
66.70126 433
66.72137 405
66.74149 432
66.7616 410
66.78171 425
66.80183 430
66.82194 464
66.84205 437
66.86217 430
66.88228 432
66.90239 432
66.92251 419
66.94262 434
66.96274 408
66.98285 448
67.00296 446
67.02308 394
67.04319 432
67.0633 438
67.08342 440
67.10353 421
67.12365 413
67.14376 475
67.16387 462
67.18399 434
67.2041 412
67.22421 441
67.24433 411
67.26444 401
67.28456 410
67.30467 444
67.32478 445
67.3449 412
67.36501 433
67.38512 422
67.40524 408
67.42535 430
67.44546 418
67.46558 434
67.48569 416
67.50581 418
67.52592 415
67.54603 424
67.56615 426
67.58626 450
67.60637 444
67.62649 414
67.6466 432
67.66672 454
67.68683 456
67.70694 469
67.72706 433
67.74717 418
67.76728 416
67.7874 423
67.80751 458
67.82763 396
67.84774 411
67.86785 440
67.88797 424
67.90808 441
67.92819 421
67.94831 440
67.96842 434
67.98853 445
68.00865 408
68.02876 453
68.04888 423
68.06899 431
68.0891 447
68.10922 447
68.12933 417
68.14944 423
68.16956 432
68.18967 446
68.20979 430
68.2299 390
68.25001 429
68.27013 427
68.29024 432
68.31035 482
68.33047 460
68.35058 427
68.3707 440
68.39081 430
68.41092 418
68.43104 474
68.45115 410
68.47126 403
68.49138 442
68.51149 418
68.5316 436
68.55172 418
68.57183 414
68.59195 399
68.61206 417
68.63217 416
68.65229 387
68.6724 417
68.69251 436
68.71263 429
68.73274 450
68.75286 432
68.77297 419
68.79308 420
68.8132 440
68.83331 425
68.85342 422
68.87354 449
68.89365 416
68.91376 432
68.93388 433
68.95399 412
68.97411 412
68.99422 431
69.01433 430
69.03445 408
69.05456 447
69.07467 450
69.09479 412
69.1149 432
69.13502 459
69.15513 453
69.17524 421
69.19536 433
69.21547 418
69.23558 417
69.2557 467
69.27581 442
69.29593 435
69.31604 426
69.33615 451
69.35627 431
69.37638 474
69.39649 448
69.41661 443
69.43672 441
69.45683 422
69.47695 441
69.49706 454
69.51718 443
69.53729 438
69.5574 446
69.57752 432
69.59763 445
69.61774 405
69.63786 428
69.65797 403
69.67809 422
69.6982 410
69.71831 412
69.73843 394
69.75854 409
69.77865 434
69.79877 428
69.81888 432
69.839 447
69.85911 378
69.87922 417
69.89934 451
69.91945 378
69.93956 439
69.95968 410
69.97979 440
69.9999 411
70.02002 431
70.04013 389
70.06025 423
70.08036 406
70.10047 410
70.12059 422
70.1407 443
70.16081 393
70.18093 409
70.20104 390
70.22116 401
70.24127 452
70.26138 400
70.2815 391
70.30161 417
70.32172 418
70.34184 442
70.36195 428
70.38207 438
70.40218 418
70.42229 433
70.44241 395
70.46252 417
70.48263 396
70.50275 428
70.52286 449
70.54297 425
70.56309 430
70.5832 408
70.60332 425
70.62343 418
70.64354 427
70.66366 429
70.68377 455
70.70388 411
70.724 433
70.74411 449
70.76423 449
70.78434 432
70.80445 427
70.82457 434
70.84468 418
70.86479 440
70.88491 443
70.90502 461
70.92513 436
70.94525 420
70.96536 431
70.98548 452
71.00559 450
71.0257 410
71.04582 455
71.06593 445
71.08604 432
71.10616 424
71.12627 463
71.14639 450
71.1665 446
71.18661 453
71.20673 439
71.22684 422
71.24695 464
71.26707 428
71.28718 442
71.3073 432
71.32741 405
71.34752 442
71.36764 420
71.38775 429
71.40786 433
71.42798 448
71.44809 454
71.4682 451
71.48832 442
71.50843 452
71.52855 415
71.54866 394
71.56877 433
71.58889 413
71.609 413
71.62911 474
71.64923 409
71.66934 412
71.68946 400
71.70957 414
71.72968 455
71.7498 438
71.76991 428
71.79002 421
71.81014 454
71.83025 410
71.85037 427
71.87048 420
71.89059 405
71.91071 428
71.93082 444
71.95093 473
71.97105 432
71.99116 439
72.01127 406
72.03139 433
72.0515 430
72.07162 402
72.09173 422
72.11184 429
72.13196 421
72.15207 413
72.17218 428
72.1923 432
72.21241 432
72.23253 421
72.25264 428
72.27275 440
72.29287 432
72.31298 420
72.33309 469
72.35321 408
72.37332 414
72.39344 421
72.41355 420
72.43366 461
72.45378 464
72.47389 417
72.494 457
72.51412 408
72.53423 423
72.55434 418
72.57446 461
72.59457 437
72.61469 434
72.6348 392
72.65491 457
72.67503 449
72.69514 430
72.71525 431
72.73537 463
72.75548 456
72.7756 468
72.79571 448
72.81582 472
72.83594 468
72.85605 437
72.87616 441
72.89628 468
72.91639 447
72.9365 460
72.95662 431
72.97673 455
72.99685 455
73.01696 437
73.03707 437
73.05719 438
73.0773 425
73.09741 436
73.11753 439
73.13764 427
73.15776 468
73.17787 397
73.19798 432
73.2181 413
73.23821 476
73.25832 415
73.27844 441
73.29855 475
73.31867 433
73.33878 426
73.35889 445
73.37901 445
73.39912 421
73.41923 423
73.43935 480
73.45946 409
73.47957 422
73.49969 437
73.5198 447
73.53992 411
73.56003 433
73.58014 407
73.60026 455
73.62037 431
73.64048 433
73.6606 439
73.68071 455
73.70083 428
73.72094 466
73.74105 438
73.76117 456
73.78128 414
73.80139 431
73.82151 442
73.84162 440
73.86174 440
73.88185 435
73.90196 435
73.92208 418
73.94219 455
73.9623 416
73.98242 435
74.00253 449
74.02264 416
74.04276 426
74.06287 423
74.08299 424
74.1031 433
74.12321 463
74.14333 459
74.16344 402
74.18355 433
74.20367 453
74.22378 437
74.2439 426
74.26401 421
74.28412 423
74.30424 422
74.32435 403
74.34446 426
74.36458 421
74.38469 404
74.40481 408
74.42492 414
74.44503 439
74.46515 426
74.48526 465
74.50537 428
74.52549 426
74.5456 429
74.56571 445
74.58583 417
74.60594 446
74.62606 415
74.64617 458
74.66628 411
74.6864 416
74.70651 422
74.72662 423
74.74674 441
74.76685 403
74.78697 397
74.80708 421
74.82719 426
74.84731 442
74.86742 410
74.88753 423
74.90765 378
74.92776 464
74.94787 424
74.96799 455
74.9881 411
75.00822 437
