3.00117 20818
3.02128 20457
3.0414 19622
3.06151 19262
3.08162 18828
3.10174 18176
3.12185 17796
3.14197 17276
3.16208 17050
3.18219 16274
3.20231 15646
3.22242 15438
3.24253 14857
3.26265 14628
3.28276 13805
3.30288 13604
3.32299 13183
3.3431 12499
3.36322 12545
3.38333 11850
3.40344 11441
3.42356 11051
3.44367 10667
3.46379 10367
3.4839 9823
3.50401 9796
3.52413 9430
3.54424 8834
3.56435 8676
3.58447 8411
3.60458 8145
3.62469 7719
3.64481 7214
3.66492 7345
3.68504 6915
3.70515 6569
3.72526 6424
3.74538 6169
3.76549 6087
3.7856 5779
3.80572 5378
3.82583 5116
3.84595 4863
3.86606 4860
3.88617 4627
3.90629 4411
3.9264 4165
3.94651 3936
3.96663 3748
3.98674 3587
4.00686 3404
4.02697 3301
4.04708 3140
4.0672 3072
4.08731 2899
4.10742 2757
4.12754 2639
4.14765 2435
4.16776 2511
4.18788 2349
4.20799 2152
4.22811 2122
4.24822 1988
4.26833 2064
4.28845 1984
4.30856 1822
4.32867 1771
4.34879 1698
4.3689 1751
4.38902 1783
4.40913 1450
4.42924 1507
4.44936 1480
4.46947 1586
4.48958 1528
4.5097 1404
4.52981 1359
4.54992 1297
4.57004 1328
4.59015 1274
4.61027 1193
4.63038 1164
4.65049 1091
4.67061 1166
4.69072 1112
4.71083 1049
4.73095 1095
4.75106 1030
4.77118 1023
4.79129 1110
4.8114 924
4.83152 895
4.85163 890
4.87174 928
4.89186 911
4.91197 864
4.93209 843
4.9522 833
4.97231 809
4.99243 807
5.01254 780
5.03265 793
5.05277 727
5.07288 731
5.09299 725
5.11311 702
5.13322 621
5.15334 693
5.17345 612
5.19356 632
5.21368 597
5.23379 644
5.2539 581
5.27402 588
5.29413 609
5.31425 551
5.33436 589
5.35447 550
5.37459 516
5.3947 535
5.41481 528
5.43493 456
5.45504 493
5.47516 489
5.49527 456
5.51538 482
5.5355 456
5.55561 468
5.57572 448
5.59584 475
5.61595 465
5.63606 439
5.65618 425
5.67629 418
5.69641 418
5.71652 387
5.73663 430
5.75675 382
5.77686 428
5.79697 389
5.81709 362
5.8372 348
5.85732 380
5.87743 408
5.89754 348
5.91766 389
5.93777 366
5.95788 404
5.978 347
5.99811 363
6.01823 362
6.03834 344
6.05845 367
6.07857 353
6.09868 358
6.11879 340
6.13891 337
6.15902 344
6.17913 364
6.19925 348
6.21936 320
6.23948 341
6.25959 294
6.2797 318
6.29982 348
6.31993 353
6.34004 335
6.36016 282
6.38027 322
6.40039 311
6.4205 315
6.44061 319
6.46073 319
6.48084 353
6.50095 290
6.52107 343
6.54118 333
6.56129 295
6.58141 292
6.60152 279
6.62164 303
6.64175 323
6.66186 283
6.68198 268
6.70209 287
6.7222 291
6.74232 296
6.76243 309
6.78255 266
6.80266 287
6.82277 316
6.84289 243
6.863 258
6.88311 282
6.90323 269
6.92334 289
6.94346 312
6.96357 325
6.98368 272
7.0038 287
7.02391 253
7.04402 285
7.06414 270
7.08425 291
7.10436 284
7.12448 296
7.14459 288
7.16471 248
7.18482 259
7.20493 284
7.22505 242
7.24516 273
7.26527 285
7.28539 263
7.3055 240
7.32562 286
7.34573 258
7.36584 257
7.38596 276
7.40607 277
7.42618 265
7.4463 278
7.46641 274
7.48653 293
7.50664 279
7.52675 308
7.54687 251
7.56698 293
7.58709 250
7.60721 277
7.62732 277
7.64743 285
7.66755 257
7.68766 323
7.70778 300
7.72789 312
7.748 222
7.76812 247
7.78823 298
7.80834 271
7.82846 284
7.84857 315
7.86869 247
7.8888 284
7.90891 266
7.92903 290
7.94914 265
7.96925 271
7.98937 307
8.00948 280
8.0296 282
8.04971 277
8.06982 306
8.08994 277
8.11005 250
8.13016 251
8.15028 289
8.17039 293
8.1905 299
8.21062 303
8.23073 284
8.25085 313
8.27096 313
8.29107 301
8.31119 312
8.3313 281
8.35141 277
8.37153 294
8.39164 305
8.41176 253
8.43187 287
8.45198 287
8.4721 280
8.49221 277
8.51232 302
8.53244 295
8.55255 298
8.57266 305
8.59278 269
8.61289 305
8.63301 301
8.65312 280
8.67323 285
8.69335 259
8.71346 298
8.73357 307
8.75369 296
8.7738 297
8.79392 307
8.81403 299
8.83414 312
8.85426 281
8.87437 303
8.89448 317
8.9146 302
8.93471 295
8.95483 310
8.97494 309
8.99505 325
9.01517 301
9.03528 309
9.05539 326
9.07551 302
9.09562 305
9.11573 287
9.13585 322
9.15596 272
9.17608 268
9.19619 283
9.2163 287
9.23642 303
9.25653 280
9.27664 263
9.29676 282
9.31687 293
9.33699 292
9.3571 295
9.37721 298
9.39733 283
9.41744 290
9.43755 278
9.45767 266
9.47778 287
9.4979 307
9.51801 281
9.53812 298
9.55824 280
9.57835 277
9.59846 282
9.61858 258
9.63869 305
9.6588 263
9.67892 282
9.69903 282
9.71915 288
9.73926 303
9.75937 260
9.77949 296
9.7996 273
9.81971 277
9.83983 243
9.85994 275
9.88006 277
9.90017 310
9.92028 326
9.9404 265
9.96051 312
9.98062 269
10.00074 298
10.02085 303
10.04097 301
10.06108 263
10.08119 279
10.10131 281
10.12142 293
10.14153 287
10.16165 283
10.18176 255
10.20187 283
10.22199 254
10.2421 286
10.26222 327
10.28233 271
10.30244 305
10.32256 278
10.34267 256
10.36278 287
10.3829 274
10.40301 276
10.42313 254
10.44324 312
10.46335 271
10.48347 293
10.50358 295
10.52369 274
10.54381 282
10.56392 288
10.58403 266
10.60415 280
10.62426 292
10.64438 272
10.66449 286
10.6846 295
10.70472 308
10.72483 278
10.74494 291
10.76506 270
10.78517 306
10.80529 282
10.8254 268
10.84551 281
10.86563 302
10.88574 293
10.90585 336
10.92597 290
10.94608 305
10.9662 284
10.98631 288
11.00642 292
11.02654 276
11.04665 245
11.06676 260
11.08688 266
11.10699 309
11.1271 262
11.14722 294
11.16733 290
11.18745 292
11.20756 293
11.22767 306
11.24779 298
11.2679 290
11.28801 292
11.30813 318
11.32824 307
11.34836 291
11.36847 308
11.38858 314
11.4087 262
11.42881 297
11.44892 295
11.46904 292
11.48915 317
11.50927 307
11.52938 326
11.54949 247
11.56961 301
11.58972 316
11.60983 333
11.62995 291
11.65006 317
11.67017 301
11.69029 309
11.7104 297
11.73052 288
11.75063 312
11.77074 302
11.79086 342
11.81097 299
11.83108 277
11.8512 319
11.87131 324
11.89143 304
11.91154 309
11.93165 295
11.95177 317
11.97188 316
11.99199 300
12.01211 321
12.03222 326
12.05234 303
12.07245 327
12.09256 335
12.11268 342
12.13279 334
12.1529 340
12.17302 320
12.19313 303
12.21324 338
12.23336 349
12.25347 312
12.27359 355
12.2937 337
12.31381 354
12.33393 320
12.35404 341
12.37415 344
12.39427 319
12.41438 324
12.4345 307
12.45461 302
12.47472 345
12.49484 313
12.51495 288
12.53506 275
12.55518 304
12.57529 318
12.5954 284
12.61552 314
12.63563 263
12.65575 244
12.67586 269
12.69597 251
12.71609 264
12.7362 303
12.75631 236
12.77643 276
12.79654 267
12.81666 243
12.83677 257
12.85688 270
12.877 293
12.89711 279
12.91722 282
12.93734 248
12.95745 258
12.97757 258
12.99768 250
13.01779 238
13.03791 268
13.05802 272
13.07813 275
13.09825 224
13.11836 250
13.13847 234
13.15859 259
13.1787 260
13.19882 241
13.21893 257
13.23904 251
13.25916 250
13.27927 246
13.29938 240
13.3195 250
13.33961 260
13.35973 238
13.37984 242
13.39995 204
13.42007 245
13.44018 256
13.46029 247
13.48041 232
13.50052 244
13.52064 232
13.54075 290
13.56086 251
13.58098 241
13.60109 227
13.6212 230
13.64132 198
13.66143 250
13.68154 219
13.70166 257
13.72177 225
13.74189 268
13.762 246
13.78211 249
13.80223 264
13.82234 229
13.84245 256
13.86257 226
13.88268 237
13.9028 235
13.92291 259
13.94302 250
13.96314 220
13.98325 201
14.00336 241
14.02348 235
14.04359 226
14.06371 226
14.08382 248
14.10393 243
14.12405 212
14.14416 245
14.16427 247
14.18439 235
14.2045 228
14.22461 236
14.24473 241
14.26484 243
14.28496 232
14.30507 210
14.32518 253
14.3453 202
14.36541 234
14.38552 234
14.40564 230
14.42575 205
14.44587 234
14.46598 233
14.48609 210
14.50621 226
14.52632 196
14.54643 207
14.56655 242
14.58666 232
14.60677 233
14.62689 240
14.647 219
14.66712 186
14.68723 191
14.70734 245
14.72746 240
14.74757 214
14.76768 233
14.7878 227
14.80791 204
14.82803 221
14.84814 259
14.86825 208
14.88837 201
14.90848 216
14.92859 240
14.94871 223
14.96882 214
14.98894 199
15.00905 215
15.02916 240
15.04928 238
15.06939 203
15.0895 243
15.10962 211
15.12973 265
15.14984 214
15.16996 195
15.19007 220
15.21019 231
15.2303 220
15.25041 219
15.27053 214
15.29064 215
15.31075 229
15.33087 195
15.35098 220
15.3711 197
15.39121 210
15.41132 222
15.43144 211
15.45155 218
15.47166 205
15.49178 218
15.51189 230
15.53201 219
15.55212 257
15.57223 201
15.59235 219
15.61246 232
15.63257 217
15.65269 211
15.6728 212
15.69291 225
15.71303 200
15.73314 216
15.75326 237
15.77337 224
15.79348 241
15.8136 209
15.83371 214
15.85382 214
15.87394 215
15.89405 198
15.91417 214
15.93428 211
15.95439 223
15.97451 211
15.99462 181
16.01473 205
16.03485 234
16.05496 204
16.07508 221
16.09519 226
16.1153 211
16.13542 213
16.15553 229
16.17564 192
16.19576 200
16.21587 213
16.23598 198
16.2561 215
16.27621 217
16.29633 225
16.31644 197
16.33655 199
16.35667 205
16.37678 225
16.39689 221
16.41701 222
16.43712 195
16.45724 215
16.47735 212
16.49746 199
16.51758 232
16.53769 184
16.5578 207
16.57792 210
16.59803 222
16.61814 193
16.63826 217
16.65837 209
16.67849 203
16.6986 190
16.71871 225
16.73883 190
16.75894 219
16.77905 199
16.79917 212
16.81928 240
16.8394 197
16.85951 200
16.87962 228
16.89974 217
16.91985 209
16.93996 208
16.96008 203
16.98019 224
17.00031 215
17.02042 240
17.04053 216
17.06065 216
17.08076 219
17.10087 232
17.12099 225
17.1411 203
17.16121 205
17.18133 195
17.20144 206
17.22156 219
17.24167 198
17.26178 186
17.2819 234
17.30201 207
17.32212 195
17.34224 237
17.36235 201
17.38247 192
17.40258 218
17.42269 229
17.44281 229
17.46292 226
17.48303 215
17.50315 206
17.52326 224
17.54338 221
17.56349 231
17.5836 229
17.60372 224
17.62383 200
17.64394 221
17.66406 211
17.68417 200
17.70428 228
17.7244 253
17.74451 231
17.76463 218
17.78474 234
17.80485 231
17.82497 226
17.84508 239
17.86519 252
17.88531 223
17.90542 216
17.92554 225
17.94565 239
17.96576 205
17.98588 223
18.00599 215
18.0261 230
18.04622 238
18.06633 205
18.08645 206
18.10656 182
18.12667 213
18.14679 225
18.1669 233
18.18701 232
18.20713 218
18.22724 221
18.24735 228
18.26747 223
18.28758 214
18.3077 233
18.32781 238
18.34792 248
18.36804 215
18.38815 236
18.40826 221
18.42838 215
18.44849 242
18.46861 238
18.48872 211
18.50883 205
18.52895 208
18.54906 206
18.56917 229
18.58929 220
18.6094 214
18.62951 226
18.64963 190
18.66974 237
18.68986 210
18.70997 212
18.73008 229
18.7502 228
18.77031 207
18.79042 236
18.81054 227
18.83065 242
18.85077 240
18.87088 231
18.89099 204
18.91111 244
18.93122 230
18.95133 201
18.97145 195
18.99156 213
19.01168 248
19.03179 213
19.0519 210
19.07202 230
19.09213 207
19.11224 213
19.13236 239
19.15247 212
19.17258 228
19.1927 193
19.21281 226
19.23293 223
19.25304 186
19.27315 212
19.29327 218
19.31338 225
19.33349 209
19.35361 224
19.37372 208
19.39384 233
19.41395 240
19.43406 234
19.45418 250
19.47429 223
19.4944 250
19.51452 241
19.53463 268
19.55475 269
19.57486 249
19.59497 266
19.61509 280
19.6352 298
19.65531 313
19.67543 374
19.69554 337
19.71565 415
19.73577 364
19.75588 429
19.776 437
19.79611 500
19.81622 491
19.83634 472
19.85645 459
19.87656 488
19.89668 478
19.91679 430
19.93691 506
19.95702 451
19.97713 481
19.99725 504
20.01736 492
20.03747 544
20.05759 498
20.0777 466
20.09782 434
20.11793 430
20.13804 432
20.15816 438
20.17827 472
20.19838 455
20.2185 434
20.23861 442
20.25872 416
20.27884 472
20.29895 439
20.31907 452
20.33918 422
20.35929 476
20.37941 472
20.39952 461
20.41963 461
20.43975 471
20.45986 499
20.47998 494
20.50009 528
20.5202 454
20.54032 496
20.56043 515
20.58054 546
20.60066 548
20.62077 558
20.64088 603
20.661 650
20.68111 809
20.70123 952
20.72134 1276
20.74145 1720
20.76157 2420
20.78168 3348
20.80179 4555
20.82191 6091
20.84202 7481
20.86214 8207
20.88225 7627
20.90236 6240
20.92248 4521
20.94259 3036
20.9627 1838
20.98282 1088
21.00293 807
21.02305 666
21.04316 593
21.06327 590
21.08339 571
21.1035 505
21.12361 526
21.14373 491
21.16384 460
21.18395 497
21.20407 447
21.22418 399
21.2443 400
21.26441 423
21.28452 433
21.30464 392
21.32475 439
21.34486 431
21.36498 413
21.38509 392
21.40521 398
21.42532 404
21.44543 430
21.46555 407
21.48566 364
21.50577 387
21.52589 368
21.546 375
21.56612 373
21.58623 336
21.60634 365
21.62646 356
21.64657 364
21.66668 372
21.6868 362
21.70691 366
21.72702 357
21.74714 339
21.76725 336
21.78737 332
21.80748 334
21.82759 341
21.84771 346
21.86782 324
21.88793 343
21.90805 301
21.92816 321
21.94828 318
21.96839 328
21.9885 339
22.00862 306
22.02873 346
22.04884 344
22.06896 310
22.08907 337
22.10919 300
22.1293 338
22.14941 316
22.16953 292
22.18964 327
22.20975 318
22.22987 295
22.24998 299
22.27009 275
22.29021 289
22.31032 285
22.33044 310
22.35055 313
22.37066 340
22.39078 289
22.41089 327
22.431 301
22.45112 304
22.47123 329
22.49135 317
22.51146 299
22.53157 296
22.55169 314
22.5718 290
22.59191 279
22.61203 295
22.63214 273
22.65225 278
22.67237 296
22.69248 329
22.7126 276
22.73271 311
22.75282 298
22.77294 280
22.79305 309
22.81316 306
22.83328 279
22.85339 274
22.87351 295
22.89362 276
22.91373 275
22.93385 323
22.95396 279
22.97407 280
22.99419 278
23.0143 272
23.03442 288
23.05453 289
23.07464 279
23.09476 297
23.11487 297
23.13498 253
23.1551 285
23.17521 246
23.19532 258
23.21544 265
23.23555 275
23.25567 319
23.27578 276
23.29589 303
23.31601 268
23.33612 265
23.35623 278
23.37635 245
23.39646 274
23.41658 265
23.43669 270
23.4568 270
23.47692 316
23.49703 304
23.51714 291
23.53726 284
23.55737 281
23.57749 293
23.5976 299
23.61771 278
23.63783 256
23.65794 271
23.67805 267
23.69817 279
23.71828 304
23.73839 306
23.75851 275
23.77862 281
23.79874 307
23.81885 285
23.83896 289
23.85908 294
23.87919 306
23.8993 313
23.91942 294
23.93953 333
23.95965 367
23.97976 356
23.99987 360
24.01999 381
24.0401 380
24.06021 352
24.08033 347
24.10044 303
24.12056 306
24.14067 300
24.16078 274
24.1809 282
24.20101 306
24.22112 305
24.24124 294
24.26135 284
24.28146 273
24.30158 271
24.32169 277
24.34181 279
24.36192 282
24.38203 300
24.40215 292
24.42226 333
24.44237 279
24.46249 305
24.4826 292
24.50272 300
24.52283 279
24.54294 301
24.56306 296
24.58317 340
24.60328 300
24.6234 306
24.64351 280
24.66362 294
24.68374 309
24.70385 328
24.72397 324
24.74408 321
24.76419 312
24.78431 325
24.80442 324
24.82453 329
24.84465 331
24.86476 313
24.88488 340
24.90499 324
24.9251 362
24.94522 331
24.96533 324
24.98544 317
25.00556 344
25.02567 329
25.04579 309
25.0659 324
25.08601 352
25.10613 325
25.12624 314
25.14635 307
25.16647 322
25.18658 352
25.20669 365
25.22681 341
25.24692 407
25.26704 404
25.28715 386
25.30726 417
25.32738 394
25.34749 356
25.3676 356
25.38772 319
25.40783 332
25.42795 320
25.44806 331
25.46817 376
25.48829 328
25.5084 335
25.52851 356
25.54863 331
25.56874 318
25.58886 326
25.60897 318
25.62908 349
25.6492 370
25.66931 389
25.68942 361
25.70954 440
25.72965 481
25.74976 462
25.76988 492
25.78999 503
25.81011 491
25.83022 474
25.85033 512
25.87045 489
25.89056 468
25.91067 519
25.93079 500
25.9509 479
25.97102 538
25.99113 536
26.01124 517
26.03136 555
26.05147 541
26.07158 566
26.0917 532
26.11181 593
26.13193 636
26.15204 693
26.17215 724
26.19227 771
26.21238 830
26.23249 811
26.25261 865
26.27272 968
26.29283 991
26.31295 1124
26.33306 1155
26.35318 1342
26.37329 1440
26.3934 1612
26.41352 2014
26.43363 2446
26.45374 3116
26.47386 4071
26.49397 5666
26.51409 7600
26.5342 10721
26.55431 15397
26.57443 20721
26.59454 27092
26.61465 33539
26.63477 36614
26.65488 34370
26.67499 27980
26.69511 21750
26.71522 16475
26.73534 11250
26.75545 6279
26.77556 3381
26.79568 2186
26.81579 1750
26.8359 1540
26.85602 1362
26.87613 1208
26.89625 1143
26.91636 1077
26.93647 962
26.95659 920
26.9767 774
26.99681 761
27.01693 679
27.03704 591
27.05716 621
27.07727 532
27.09738 506
27.1175 482
27.13761 535
27.15772 477
27.17784 501
27.19795 484
27.21806 488
27.23818 434
27.25829 446
27.27841 425
27.29852 408
27.31863 426
27.33875 401
27.35886 382
27.37897 416
27.39909 383
27.4192 379
27.43932 404
27.45943 444
27.47954 413
27.49966 375
27.51977 384
27.53988 409
27.56 381
27.58011 374
27.60023 379
27.62034 365
27.64045 369
27.66057 349
27.68068 361
27.70079 375
27.72091 402
27.74102 354
27.76113 350
27.78125 365
27.80136 363
27.82148 328
27.84159 358
27.8617 347
27.88182 356
27.90193 356
27.92204 324
27.94216 324
27.96227 378
27.98239 339
28.0025 324
28.02261 326
28.04273 352
28.06284 360
28.08295 330
28.10307 345
28.12318 314
28.1433 330
28.16341 345
28.18352 318
28.20364 284
28.22375 302
28.24386 288
28.26398 295
28.28409 324
28.3042 270
28.32432 308
28.34443 321
28.36455 306
28.38466 291
28.40477 303
28.42489 311
28.445 308
28.46511 271
28.48523 326
28.50534 303
28.52546 301
28.54557 296
28.56568 296
28.5858 298
28.60591 270
28.62602 301
28.64614 307
28.66625 317
28.68636 328
28.70648 267
28.72659 284
28.74671 298
28.76682 301
28.78693 310
28.80705 285
28.82716 286
28.84727 280
28.86739 261
28.8875 279
28.90762 272
28.92773 289
28.94784 274
28.96796 265
28.98807 267
29.00818 284
29.0283 272
29.04841 274
29.06853 263
29.08864 293
29.10875 303
29.12887 269
29.14898 241
29.16909 286
29.18921 301
29.20932 306
29.22943 267
29.24955 257
29.26966 301
29.28978 270
29.30989 273
29.33 260
29.35012 272
29.37023 252
29.39034 257
29.41046 238
29.43057 249
29.45069 248
29.4708 274
29.49091 262
29.51103 238
29.53114 292
29.55125 253
29.57137 254
29.59148 270
29.6116 249
29.63171 276
29.65182 278
29.67194 266
29.69205 252
29.71216 273
29.73228 287
29.75239 271
29.7725 280
29.79262 280
29.81273 256
29.83285 274
29.85296 289
29.87307 258
29.89319 270
29.9133 244
29.93341 292
29.95353 272
29.97364 258
29.99376 235
30.01387 255
30.03398 248
30.0541 268
30.07421 267
30.09432 255
30.11444 289
30.13455 265
30.15467 251
30.17478 262
30.19489 245
30.21501 264
30.23512 234
30.25523 241
30.27535 273
30.29546 247
30.31557 237
30.33569 250
30.3558 267
30.37592 240
30.39603 246
30.41614 245
30.43626 231
30.45637 251
30.47648 262
30.4966 244
30.51671 254
30.53683 251
30.55694 261
30.57705 247
30.59717 243
30.61728 247
30.63739 217
30.65751 233
30.67762 262
30.69773 243
30.71785 259
30.73796 230
30.75808 251
30.77819 235
30.7983 248
30.81842 247
30.83853 254
30.85864 252
30.87876 239
30.89887 223
30.91899 250
30.9391 250
30.95921 246
30.97933 266
30.99944 244
31.01955 226
31.03967 239
31.05978 236
31.0799 231
31.10001 238
31.12012 243
31.14024 221
31.16035 215
31.18046 240
31.20058 199
31.22069 219
31.2408 244
31.26092 219
31.28103 239
31.30115 211
31.32126 209
31.34137 229
31.36149 252
31.3816 210
31.40171 240
31.42183 215
31.44194 208
31.46206 234
31.48217 222
31.50228 240
31.5224 234
31.54251 241
31.56262 222
31.58274 222
31.60285 225
31.62297 207
31.64308 231
31.66319 216
31.68331 225
31.70342 228
31.72353 216
31.74365 202
31.76376 222
31.78387 215
31.80399 247
31.8241 213
31.84422 226
31.86433 223
31.88444 245
31.90456 236
31.92467 226
31.94478 224
31.9649 224
31.98501 206
32.00513 213
32.02524 219
32.04535 248
32.06547 220
32.08558 228
32.10569 210
32.12581 208
32.14592 239
32.16604 213
32.18615 207
32.20626 229
32.22638 232
32.24649 243
32.2666 217
32.28672 212
32.30683 243
32.32694 236
32.34706 209
32.36717 203
32.38729 223
32.4074 216
32.42751 210
32.44763 244
32.46774 202
32.48785 226
32.50797 237
32.52808 199
32.5482 217
32.56831 225
32.58842 213
32.60854 219
32.62865 221
32.64876 215
32.66888 245
32.68899 222
32.7091 215
32.72922 253
32.74933 225
32.76945 216
32.78956 227
32.80967 230
32.82979 197
32.8499 230
32.87001 227
32.89013 221
32.91024 236
32.93036 206
32.95047 219
32.97058 231
32.9907 218
33.01081 254
33.03092 220
33.05104 246
33.07115 251
33.09127 231
33.11138 256
33.13149 271
33.15161 260
33.17172 229
33.19183 232
33.21195 241
33.23206 265
33.25217 244
33.27229 245
33.2924 244
33.31252 225
33.33263 233
33.35274 254
33.37286 245
33.39297 231
33.41308 201
33.4332 199
33.45331 269
33.47343 233
33.49354 229
33.51365 223
33.53377 230
33.55388 229
33.57399 207
33.59411 225
33.61422 200
33.63434 238
33.65445 205
33.67456 204
33.69468 228
33.71479 235
33.7349 207
33.75502 206
33.77513 226
33.79524 227
33.81536 204
33.83547 212
33.85559 221
33.8757 202
33.89581 222
33.91593 211
33.93604 211
33.95615 178
33.97627 184
33.99638 203
34.0165 222
34.03661 233
34.05672 190
34.07684 219
34.09695 213
34.11706 222
34.13718 207
34.15729 233
34.17741 215
34.19752 210
34.21763 204
34.23775 222
34.25786 198
34.27797 179
34.29809 216
34.3182 222
34.33831 220
34.35843 212
34.37854 196
34.39866 209
34.41877 212
34.43888 254
34.459 240
34.47911 237
34.49922 213
34.51934 248
34.53945 276
34.55957 254
34.57968 275
34.59979 261
34.61991 276
34.64002 267
34.66013 281
34.68025 243
34.70036 328
34.72047 307
34.74059 311
34.7607 311
34.78082 336
34.80093 282
34.82104 309
34.84116 311
34.86127 334
34.88138 355
34.9015 341
34.92161 332
34.94173 356
34.96184 329
34.98195 348
35.00207 341
35.02218 324
35.04229 281
35.06241 307
35.08252 321
35.10264 305
35.12275 337
35.14286 310
35.16298 265
35.18309 279
35.2032 256
35.22332 284
35.24343 278
35.26354 286
35.28366 284
35.30377 272
35.32389 274
35.344 287
35.36411 282
35.38423 295
35.40434 325
35.42445 269
35.44457 276
35.46468 271
35.4848 310
35.50491 315
35.52502 311
35.54514 330
35.56525 343
35.58536 325
35.60548 299
35.62559 298
35.64571 312
35.66582 337
35.68593 323
35.70605 299
35.72616 311
35.74627 300
35.76639 300
35.7865 339
35.80661 304
35.82673 320
35.84684 277
35.86696 298
35.88707 283
35.90718 304
35.9273 303
35.94741 270
35.96752 280
35.98764 273
36.00775 314
36.02787 310
36.04798 303
36.06809 320
36.08821 339
36.10832 323
36.12843 291
36.14855 310
36.16866 347
36.18878 332
36.20889 373
36.229 363
36.24912 363
36.26923 372
36.28934 373
36.30946 454
36.32957 529
36.34968 513
36.3698 598
36.38991 742
36.41003 906
36.43014 1045
36.45025 1336
36.47037 1700
36.49048 2098
36.51059 2454
36.53071 2562
36.55082 2473
36.57094 2131
36.59105 1650
36.61116 1548
36.63128 1364
36.65139 1152
36.6715 802
36.69162 583
36.71173 439
36.73184 373
36.75196 342
36.77207 366
36.79219 331
36.8123 277
36.83241 302
36.85253 291
36.87264 290
36.89275 287
36.91287 316
36.93298 272
36.9531 331
36.97321 262
36.99332 257
37.01344 268
37.03355 268
37.05366 294
37.07378 245
37.09389 239
37.11401 275
37.13412 288
37.15423 281
37.17435 308
37.19446 279
37.21457 268
37.23469 260
37.2548 287
37.27491 264
37.29503 274
37.31514 237
37.33526 276
37.35537 280
37.37548 264
37.3956 243
37.41571 257
37.43582 296
37.45594 260
37.47605 290
37.49617 279
37.51628 283
37.53639 249
37.55651 294
37.57662 271
37.59673 271
37.61685 258
37.63696 274
37.65708 274
37.67719 276
37.6973 291
37.71742 320
37.73753 298
37.75764 253
37.77776 259
37.79787 316
37.81798 263
37.8381 281
37.85821 274
37.87833 283
37.89844 279
37.91855 258
37.93867 266
37.95878 265
37.97889 268
37.99901 275
38.01912 258
38.03924 277
38.05935 264
38.07946 306
38.09958 280
38.11969 236
38.1398 270
38.15992 264
38.18003 287
38.20015 318
38.22026 263
38.24037 270
38.26049 284
38.2806 273
38.30071 281
38.32083 300
38.34094 283
38.36105 315
38.38117 266
38.40128 265
38.4214 266
38.44151 243
38.46162 281
38.48174 300
38.50185 286
38.52196 233
38.54208 309
38.56219 289
38.58231 277
38.60242 247
38.62253 268
38.64265 269
38.66276 270
38.68287 261
38.70299 255
38.7231 260
38.74321 249
38.76333 255
38.78344 283
38.80356 242
38.82367 254
38.84378 250
38.8639 259
38.88401 270
38.90412 248
38.92424 254
38.94435 282
38.96447 277
38.98458 299
39.00469 272
39.02481 263
39.04492 291
39.06503 285
39.08515 284
39.10526 287
39.12538 304
39.14549 313
39.1656 328
39.18572 361
39.20583 366
39.22594 416
39.24606 442
39.26617 438
39.28628 525
39.3064 681
39.32651 819
39.34663 990
39.36674 1158
39.38685 1537
39.40697 1860
39.42708 2147
39.44719 2302
39.46731 2256
39.48742 1950
39.50754 1562
39.52765 1319
39.54776 1214
39.56788 1110
39.58799 943
39.6081 646
39.62822 454
39.64833 344
39.66845 334
39.68856 303
39.70867 293
39.72879 292
39.7489 296
39.76901 266
39.78913 262
39.80924 256
39.82935 241
39.84947 266
39.86958 261
39.8897 249
39.90981 271
39.92992 233
39.95004 274
39.97015 270
39.99026 272
40.01038 259
40.03049 336
40.05061 319
40.07072 393
40.09083 344
40.11095 390
40.13106 445
40.15117 535
40.17129 642
40.1914 728
40.21152 860
40.23163 971
40.25174 1228
40.27186 1285
40.29197 1291
40.31208 1068
40.3322 918
40.35231 786
40.37242 781
40.39254 700
40.41265 595
40.43277 492
40.45288 352
40.47299 318
40.49311 275
40.51322 267
40.53333 264
40.55345 275
40.57356 268
40.59368 241
40.61379 266
40.6339 238
40.65402 241
40.67413 257
40.69424 263
40.71436 247
40.73447 250
40.75458 233
40.7747 247
40.79481 235
40.81493 248
40.83504 250
40.85515 222
40.87527 237
40.89538 242
40.91549 248
40.93561 255
40.95572 264
40.97584 275
40.99595 282
41.01606 226
41.03618 238
41.05629 226
41.0764 225
41.09652 244
41.11663 247
41.13675 227
41.15686 265
41.17697 242
41.19709 252
41.2172 228
41.23731 202
41.25743 219
41.27754 244
41.29765 229
41.31777 239
41.33788 243
41.358 221
41.37811 232
41.39822 237
41.41834 230
41.43845 252
41.45856 230
41.47868 224
41.49879 229
41.51891 222
41.53902 217
41.55913 234
41.57925 232
41.59936 217
41.61947 230
41.63959 214
41.6597 218
41.67982 229
41.69993 230
41.72004 229
41.74016 225
41.76027 243
41.78038 243
41.8005 235
41.82061 220
41.84072 244
41.86084 248
41.88095 262
41.90107 239
41.92118 229
41.94129 215
41.96141 236
41.98152 232
42.00163 256
42.02175 252
42.04186 256
42.06198 254
42.08209 287
42.1022 244
42.12232 285
42.14243 283
42.16254 300
42.18266 333
42.20277 372
42.22289 366
42.243 400
42.26311 445
42.28323 495
42.30334 615
42.32345 729
42.34357 903
42.36368 1189
42.38379 1351
42.40391 1554
42.42402 1686
42.44414 1659
42.46425 1548
42.48436 1254
42.50448 1024
42.52459 971
42.5447 934
42.56482 824
42.58493 649
42.60505 426
42.62516 315
42.64527 288
42.66539 291
42.6855 244
42.70561 240
42.72573 222
42.74584 220
42.76595 255
42.78607 215
42.80618 215
42.8263 208
42.84641 237
42.86652 228
42.88664 207
42.90675 219
42.92686 223
42.94698 203
42.96709 197
42.98721 217
43.00732 229
43.02743 194
43.04755 215
43.06766 198
43.08777 205
43.10789 207
43.128 206
43.14812 184
43.16823 194
43.18834 188
43.20846 211
43.22857 214
43.24868 211
43.2688 193
43.28891 212
43.30902 214
43.32914 209
43.34925 184
43.36937 194
43.38948 209
43.40959 188
43.42971 206
43.44982 189
43.46993 207
43.49005 201
43.51016 223
43.53028 209
43.55039 213
43.5705 194
43.59062 202
43.61073 208
43.63084 205
43.65096 202
43.67107 204
43.69119 206
43.7113 183
43.73141 165
43.75153 197
43.77164 191
43.79175 214
43.81187 204
43.83198 207
43.85209 227
43.87221 185
43.89232 192
43.91244 200
43.93255 206
43.95266 208
43.97278 204
43.99289 197
44.013 194
44.03312 203
44.05323 186
44.07335 198
44.09346 194
44.11357 186
44.13369 188
44.1538 220
44.17391 192
44.19403 195
44.21414 208
44.23426 188
44.25437 221
44.27448 167
44.2946 197
44.31471 205
44.33482 208
44.35494 184
44.37505 192
44.39516 227
44.41528 216
44.43539 171
44.45551 210
44.47562 181
44.49573 192
44.51585 184
44.53596 198
44.55607 194
44.57619 187
44.5963 180
44.61642 187
44.63653 190
44.65664 203
44.67676 192
44.69687 188
44.71698 203
44.7371 204
44.75721 203
44.77732 201
44.79744 196
44.81755 195
44.83767 213
44.85778 234
44.87789 187
44.89801 196
44.91812 198
44.93823 217
44.95835 208
44.97846 203
44.99858 225
45.01869 217
45.0388 190
45.05892 196
45.07903 210
45.09914 210
45.11926 222
45.13937 196
45.15949 195
45.1796 230
45.19971 176
45.21983 220
45.23994 217
45.26005 198
45.28017 229
45.30028 215
45.32039 226
45.34051 215
45.36062 206
45.38074 235
45.40085 244
45.42096 246
45.44108 238
45.46119 244
45.4813 243
45.50142 265
45.52153 269
45.54165 307
45.56176 311
45.58187 322
45.60199 372
45.6221 441
45.64221 473
45.66233 508
45.68244 583
45.70256 791
45.72267 883
45.74278 1055
45.7629 1113
45.78301 1101
45.80312 1075
45.82324 892
45.84335 738
45.86346 666
45.88358 659
45.90369 618
45.92381 569
45.94392 459
45.96403 324
45.98415 261
46.00426 237
46.02437 252
46.04449 209
46.0646 240
46.08472 235
46.10483 226
46.12494 235
46.14506 198
46.16517 229
46.18528 212
46.2054 210
46.22551 200
46.24563 170
46.26574 191
46.28585 214
46.30597 200
46.32608 206
46.34619 197
46.36631 206
46.38642 196
46.40653 189
46.42665 174
46.44676 228
46.46688 223
46.48699 187
46.5071 212
46.52722 181
46.54733 212
46.56744 194
46.58756 174
46.60767 193
46.62779 213
46.6479 205
46.66801 182
46.68813 188
46.70824 190
46.72835 176
46.74847 181
46.76858 180
46.78869 206
46.80881 214
46.82892 204
46.84904 188
46.86915 202
46.88926 193
46.90938 187
46.92949 214
46.9496 187
46.96972 200
46.98983 166
47.00995 175
47.03006 181
47.05017 179
47.07029 189
47.0904 184
47.11051 195
47.13063 189
47.15074 178
47.17086 187
47.19097 192
47.21108 223
47.2312 195
47.25131 189
47.27142 191
47.29154 172
47.31165 183
47.33176 184
47.35188 173
47.37199 172
47.39211 185
47.41222 189
47.43233 187
47.45245 185
47.47256 200
47.49267 173
47.51279 180
47.5329 171
47.55302 175
47.57313 197
47.59324 149
47.61336 159
47.63347 220
47.65358 180
47.6737 213
47.69381 172
47.71393 184
47.73404 177
47.75415 176
47.77427 195
47.79438 191
47.81449 202
47.83461 155
47.85472 170
47.87483 181
47.89495 197
47.91506 194
47.93518 193
47.95529 223
47.9754 188
47.99552 206
48.01563 171
48.03574 204
48.05586 200
48.07597 183
48.09609 166
48.1162 194
48.13631 205
48.15643 187
48.17654 192
48.19665 198
48.21677 176
48.23688 187
48.257 206
48.27711 152
48.29722 229
48.31734 187
48.33745 174
48.35756 198
48.37768 197
48.39779 228
48.4179 216
48.43802 193
48.45813 200
48.47825 208
48.49836 185
48.51847 183
48.53859 186
48.5587 186
48.57881 202
48.59893 198
48.61904 189
48.63916 194
48.65927 199
48.67938 183
48.6995 209
48.71961 205
48.73972 167
48.75984 185
48.77995 209
48.80006 182
48.82018 194
48.84029 211
48.86041 212
48.88052 200
48.90063 210
48.92075 207
48.94086 161
48.96097 195
48.98109 201
49.0012 176
49.02132 190
49.04143 183
49.06154 219
49.08166 185
49.10177 189
49.12188 199
49.142 205
49.16211 224
49.18223 208
49.20234 215
49.22245 199
49.24257 214
49.26268 211
49.28279 182
49.30291 217
49.32302 190
49.34313 202
49.36325 234
49.38336 226
49.40348 198
49.42359 184
49.4437 225
49.46382 215
49.48393 234
49.50404 222
49.52416 230
49.54427 255
49.56439 215
49.5845 260
49.60461 243
49.62473 223
49.64484 241
49.66495 258
49.68507 271
49.70518 279
49.7253 294
49.74541 330
49.76552 312
49.78564 341
49.80575 366
49.82586 382
49.84598 416
49.86609 475
49.8862 553
49.90632 679
49.92643 673
49.94655 824
49.96666 1017
49.98677 1212
50.00689 1499
50.027 1859
50.04711 2377
50.06723 2840
50.08734 3243
50.10746 3541
50.12757 3477
50.14768 3260
50.1678 2556
50.18791 2009
50.20802 1849
50.22814 1942
50.24825 1903
50.26837 1707
50.28848 1302
50.30859 987
50.32871 640
50.34882 481
50.36893 380
50.38905 352
50.40916 313
50.42927 279
50.44939 298
50.4695 287
50.48962 321
50.50973 295
50.52984 285
50.54996 288
50.57007 290
50.59018 305
50.6103 300
50.63041 296
50.65053 276
50.67064 263
50.69075 230
50.71087 225
50.73098 245
50.75109 246
50.77121 234
50.79132 228
50.81143 208
50.83155 214
50.85166 214
50.87178 194
50.89189 202
50.912 208
50.93212 213
50.95223 177
50.97234 181
50.99246 200
51.01257 195
51.03269 190
51.0528 220
51.07291 164
51.09303 200
51.11314 202
51.13325 185
51.15337 192
51.17348 183
51.1936 192
51.21371 187
51.23382 174
51.25394 186
51.27405 204
51.29416 195
51.31428 201
51.33439 189
51.3545 179
51.37462 166
51.39473 177
51.41485 191
51.43496 199
51.45507 185
51.47519 170
51.4953 197
51.51541 170
51.53553 181
51.55564 214
51.57576 202
51.59587 186
51.61598 215
51.6361 196
51.65621 161
51.67632 158
51.69644 171
51.71655 178
51.73667 189
51.75678 186
51.77689 176
51.79701 194
51.81712 180
51.83723 177
51.85735 162
51.87746 165
51.89757 180
51.91769 179
51.9378 164
51.95792 175
51.97803 162
51.99814 178
52.01826 191
52.03837 170
52.05848 150
52.0786 180
52.09871 175
52.11883 165
52.13894 168
52.15905 170
52.17917 160
52.19928 163
52.21939 171
52.23951 167
52.25962 211
52.27974 183
52.29985 183
52.31996 182
52.34008 183
52.36019 158
52.3803 163
52.40042 189
52.42053 176
52.44064 176
52.46076 146
52.48087 167
52.50099 176
52.5211 189
52.54121 215
52.56133 201
52.58144 194
52.60155 183
52.62167 199
52.64178 183
52.6619 166
52.68201 171
52.70212 184
52.72224 175
52.74235 196
52.76246 153
52.78258 173
52.80269 203
52.8228 180
52.84292 158
52.86303 196
52.88315 187
52.90326 207
52.92337 189
52.94349 179
52.9636 158
52.98371 197
53.00383 177
53.02394 167
53.04406 184
53.06417 178
53.08428 198
53.1044 193
53.12451 177
53.14462 187
53.16474 186
53.18485 193
53.20497 160
53.22508 205
53.24519 173
53.26531 178
53.28542 182
53.30553 201
53.32565 181
53.34576 193
53.36587 200
53.38599 213
53.4061 181
53.42622 225
53.44633 192
53.46644 173
53.48656 207
53.50667 183
53.52678 216
53.5469 190
53.56701 201
53.58713 190
53.60724 218
53.62735 200
53.64747 199
53.66758 241
53.68769 246
53.70781 215
53.72792 219
53.74804 227
53.76815 241
53.78826 203
53.80838 213
53.82849 206
53.8486 226
53.86872 217
53.88883 215
53.90894 223
53.92906 262
53.94917 252
53.96929 256
53.9894 257
54.00951 219
54.02963 238
54.04974 248
54.06985 252
54.08997 218
54.11008 264
54.1302 230
54.15031 253
54.17042 228
54.19054 225
54.21065 227
54.23076 253
54.25088 231
54.27099 236
54.29111 254
54.31122 250
54.33133 261
54.35145 253
54.37156 249
54.39167 267
54.41179 250
54.4319 248
54.45201 279
54.47213 242
54.49224 262
54.51236 291
54.53247 296
54.55258 289
54.5727 284
54.59281 306
54.61292 323
54.63304 345
54.65315 399
54.67327 388
54.69338 429
54.71349 539
54.73361 590
54.75372 742
54.77383 799
54.79395 972
54.81406 1038
54.83417 1167
54.85429 1196
54.8744 1094
54.89452 912
54.91463 764
54.93474 701
54.95486 655
54.97497 746
54.99508 743
55.0152 693
55.03531 582
55.05543 471
55.07554 402
55.09565 369
55.11577 365
55.13588 338
55.15599 361
55.17611 380
55.19622 424
55.21634 420
55.23645 491
55.25656 542
55.27668 635
55.29679 674
55.3169 670
55.33702 538
55.35713 465
55.37724 440
55.39736 398
55.41747 391
55.43759 416
55.4577 426
55.47781 392
55.49793 351
55.51804 301
55.53815 242
55.55827 282
55.57838 230
55.5985 242
55.61861 228
55.63872 220
55.65884 206
55.67895 243
55.69906 223
55.71918 231
55.73929 223
55.75941 232
55.77952 184
55.79963 208
55.81975 202
55.83986 204
55.85997 207
55.88009 219
55.9002 200
55.92031 211
55.94043 211
55.96054 206
55.98066 206
56.00077 194
56.02088 191
56.041 196
56.06111 201
56.08122 196
56.10134 214
56.12145 212
56.14157 210
56.16168 219
56.18179 206
56.20191 200
56.22202 207
56.24213 227
56.26225 205
56.28236 222
56.30248 226
56.32259 200
56.3427 210
56.36282 195
56.38293 179
56.40304 194
56.42316 195
56.44327 178
56.46338 186
56.4835 244
56.50361 183
56.52373 191
56.54384 185
56.56395 214
56.58407 197
56.60418 167
56.62429 187
56.64441 211
56.66452 232
56.68464 192
56.70475 183
56.72486 194
56.74498 202
56.76509 182
56.7852 188
56.80532 192
56.82543 205
56.84554 188
56.86566 192
56.88577 188
56.90589 192
56.926 207
56.94611 197
56.96623 191
56.98634 177
57.00645 193
57.02657 212
57.04668 204
57.0668 188
57.08691 202
57.10702 216
57.12714 188
57.14725 232
57.16736 225
57.18748 225
57.20759 238
57.22771 266
57.24782 253
57.26793 244
57.28805 190
57.30816 206
57.32827 187
57.34839 240
57.3685 180
57.38861 198
57.40873 195
57.42884 201
57.44896 188
57.46907 190
57.48918 194
57.5093 174
57.52941 211
57.54952 183
57.56964 193
57.58975 194
57.60987 175
57.62998 186
57.65009 195
57.67021 190
57.69032 165
57.71043 157
57.73055 196
57.75066 202
57.77078 180
57.79089 179
57.811 178
57.83112 209
57.85123 176
57.87134 179
57.89146 178
57.91157 191
57.93168 179
57.9518 185
57.97191 201
57.99203 195
58.01214 188
58.03225 200
58.05237 188
58.07248 189
58.09259 165
58.11271 188
58.13282 178
58.15294 189
58.17305 167
58.19316 166
58.21328 203
58.23339 211
58.2535 191
58.27362 182
58.29373 185
58.31385 186
58.33396 188
58.35407 201
58.37419 180
58.3943 191
58.41441 178
58.43453 194
58.45464 201
58.47475 181
58.49487 192
58.51498 181
58.5351 183
58.55521 189
58.57532 159
58.59544 182
58.61555 196
58.63566 188
58.65578 180
58.67589 184
58.69601 190
58.71612 188
58.73623 181
58.75635 198
58.77646 187
58.79657 188
58.81669 174
58.8368 189
58.85691 195
58.87703 173
58.89714 162
58.91726 214
58.93737 186
58.95748 166
58.9776 196
58.99771 190
59.01782 171
59.03794 207
59.05805 190
59.07817 177
59.09828 194
59.11839 182
59.13851 165
59.15862 194
59.17873 169
59.19885 197
59.21896 204
59.23908 177
59.25919 202
59.2793 200
59.29942 215
59.31953 196
59.33964 207
59.35976 203
59.37987 181
59.39998 211
59.4201 213
59.44021 227
59.46033 255
59.48044 240
59.50055 238
59.52067 270
59.54078 296
59.56089 288
59.58101 289
59.60112 310
59.62124 349
59.64135 387
59.66146 380
59.68158 411
59.70169 476
59.7218 549
59.74192 615
59.76203 717
59.78215 789
59.80226 970
59.82237 1263
59.84249 1391
59.8626 1638
59.88271 1954
59.90283 2235
59.92294 2455
59.94305 2273
59.96317 2142
59.98328 1645
60.0034 1304
60.02351 1277
60.04362 1204
60.06374 1220
60.08385 1311
60.10396 1238
60.12408 1109
60.14419 840
60.16431 582
60.18442 422
60.20453 363
60.22465 326
60.24476 285
60.26487 261
60.28499 222
60.3051 252
60.32522 239
60.34533 244
60.36544 216
60.38556 226
60.40567 223
60.42578 220
60.4459 213
60.46601 211
60.48612 208
60.50624 181
60.52635 194
60.54647 189
60.56658 207
60.58669 194
60.60681 199
60.62692 166
60.64703 168
60.66715 219
60.68726 190
60.70738 187
60.72749 175
60.7476 190
60.76772 193
60.78783 196
60.80794 188
60.82806 198
60.84817 215
60.86828 172
60.8884 185
60.90851 181
60.92863 168
60.94874 204
60.96885 191
60.98897 203
61.00908 153
61.02919 171
61.04931 189
61.06942 174
61.08954 202
61.10965 171
61.12976 203
61.14988 160
61.16999 178
61.1901 178
61.21022 183
61.23033 189
61.25045 172
61.27056 203
61.29067 214
61.31079 170
61.3309 199
61.35101 186
61.37113 175
61.39124 186
61.41135 191
61.43147 214
61.45158 205
61.4717 191
61.49181 192
61.51192 225
61.53204 194
61.55215 215
61.57226 210
61.59238 220
61.61249 218
61.63261 212
61.65272 198
61.67283 230
61.69295 218
61.71306 197
61.73317 224
61.75329 197
61.7734 242
61.79352 228
61.81363 217
61.83374 211
61.85386 213
61.87397 263
61.89408 225
61.9142 211
61.93431 217
61.95442 235
61.97454 206
61.99465 258
62.01477 230
62.03488 234
62.05499 228
62.07511 261
62.09522 230
62.11533 220
62.13545 237
62.15556 260
62.17568 273
62.19579 247
62.2159 231
62.23602 237
62.25613 260
62.27624 251
62.29636 227
62.31647 221
62.33659 252
62.3567 248
62.37681 239
62.39693 238
62.41704 243
62.43715 218
62.45727 225
62.47738 222
62.49749 227
62.51761 235
62.53772 190
62.55784 166
62.57795 199
62.59806 201
62.61818 180
62.63829 213
62.6584 213
62.67852 212
62.69863 181
62.71875 213
62.73886 196
62.75897 213
62.77909 202
62.7992 205
62.81931 176
62.83943 192
62.85954 191
62.87965 194
62.89977 184
62.91988 208
62.94 187
62.96011 170
62.98022 196
63.00034 175
63.02045 206
63.04056 174
63.06068 170
63.08079 183
63.10091 195
63.12102 164
63.14113 188
63.16125 180
63.18136 185
63.20147 169
63.22159 181
63.2417 189
63.26182 191
63.28193 193
63.30204 187
63.32216 193
63.34227 166
63.36238 188
63.3825 187
63.40261 191
63.42272 173
63.44284 187
63.46295 182
63.48307 178
63.50318 185
63.52329 162
63.54341 191
63.56352 199
63.58363 185
63.60375 173
63.62386 196
63.64398 206
63.66409 196
63.6842 228
63.70432 194
63.72443 212
63.74454 219
63.76466 269
63.78477 231
63.80489 256
63.825 275
63.84511 318
63.86523 310
63.88534 332
63.90545 357
63.92557 418
63.94568 426
63.96579 504
63.98591 532
64.00602 544
64.02614 545
64.04625 478
64.06636 400
64.08648 378
64.10659 330
64.1267 345
64.14682 359
64.16693 347
64.18705 321
64.20716 343
64.22727 309
64.24739 272
64.2675 229
64.28761 223
64.30773 229
64.32784 205
64.34796 186
64.36807 211
64.38818 194
64.4083 172
64.42841 197
64.44852 147
64.46864 204
64.48875 190
64.50886 198
64.52898 176
64.54909 179
64.56921 194
64.58932 182
64.60943 163
64.62955 156
64.64966 162
64.66977 170
64.68989 195
64.71 166
64.73012 176
64.75023 176
64.77034 169
64.79046 166
64.81057 177
64.83068 189
64.8508 172
64.87091 165
64.89102 185
64.91114 170
64.93125 162
64.95137 170
64.97148 169
64.99159 179
65.01171 171
65.03182 163
65.05193 160
65.07205 180
65.09216 200
65.11228 176
65.13239 182
65.1525 174
65.17262 169
65.19273 187
65.21284 162
65.23296 160
65.25307 183
65.27319 194
65.2933 176
65.31341 187
65.33353 179
65.35364 190
65.37375 199
65.39387 175
65.41398 184
65.43409 205
65.45421 170
65.47432 183
65.49444 191
65.51455 202
65.53466 206
65.55478 189
65.57489 176
65.595 189
65.61512 212
65.63523 236
65.65535 237
65.67546 248
65.69557 273
65.71569 276
65.7358 271
65.75591 265
65.77603 256
65.79614 248
65.81626 207
65.83637 218
65.85648 216
65.8766 223
65.89671 211
65.91682 219
65.93694 219
65.95705 236
65.97716 217
65.99728 204
66.01739 189
66.03751 179
66.05762 183
66.07773 192
66.09785 171
66.11796 174
66.13807 180
66.15819 200
66.1783 174
66.19842 188
66.21853 168
66.23864 202
66.25876 193
66.27887 166
66.29898 184
66.3191 183
66.33921 180
66.35933 172
66.37944 177
66.39955 177
66.41967 186
66.43978 169
66.45989 182
66.48001 193
66.50012 163
66.52023 166
66.54035 166
66.56046 210
66.58058 198
66.60069 189
66.6208 167
66.64092 186
66.66103 171
66.68114 185
66.70126 200
66.72137 171
66.74149 166
66.7616 203
66.78171 163
66.80183 153
66.82194 186
66.84205 189
66.86217 152
66.88228 194
66.90239 153
66.92251 186
66.94262 176
66.96274 180
66.98285 187
67.00296 179
67.02308 205
67.04319 214
67.0633 196
67.08342 188
67.10353 208
67.12365 214
67.14376 206
67.16387 208
67.18399 199
67.2041 194
67.22421 205
67.24433 225
67.26444 207
67.28456 230
67.30467 245
67.32478 230
67.3449 232
67.36501 287
67.38512 298
67.40524 293
67.42535 306
67.44546 335
67.46558 357
67.48569 390
67.50581 401
67.52592 480
67.54603 586
67.56615 593
67.58626 702
67.60637 833
67.62649 895
67.6466 1069
67.66672 1250
67.68683 1345
67.70694 1383
67.72706 1454
67.74717 1333
67.76728 1139
67.7874 909
67.80751 829
67.82763 836
67.84774 893
67.86785 957
67.88797 1047
67.90808 1045
67.92819 1089
67.94831 998
67.96842 962
67.98853 1038
68.00865 1030
68.02876 1239
68.04888 1355
68.06899 1602
68.0891 1678
68.10922 1917
68.12933 1881
68.14944 1866
68.16956 1573
68.18967 1433
68.20979 1348
68.2299 1432
68.25001 1527
68.27013 1741
68.29024 1833
68.31035 1576
68.33047 1470
68.35058 1087
68.3707 893
68.39081 804
68.41092 695
68.43104 695
68.45115 675
68.47126 667
68.49138 637
68.51149 543
68.5316 445
68.55172 370
68.57183 314
68.59195 291
68.61206 281
68.63217 243
68.65229 259
68.6724 205
68.69251 205
68.71263 228
68.73274 221
68.75286 196
68.77297 212
68.79308 213
68.8132 229
68.83331 205
68.85342 174
68.87354 222
68.89365 185
68.91376 186
68.93388 191
68.95399 198
68.97411 201
68.99422 184
69.01433 199
69.03445 187
69.05456 169
69.07467 181
69.09479 191
69.1149 165
69.13502 166
69.15513 192
69.17524 176
69.19536 175
69.21547 156
69.23558 207
69.2557 184
69.27581 175
69.29593 173
69.31604 162
69.33615 167
69.35627 164
69.37638 182
69.39649 179
69.41661 201
69.43672 179
69.45683 161
69.47695 181
69.49706 182
69.51718 224
69.53729 161
69.5574 186
69.57752 185
69.59763 175
69.61774 177
69.63786 155
69.65797 185
69.67809 177
69.6982 184
69.71831 180
69.73843 175
69.75854 177
69.77865 153
69.79877 184
69.81888 159
69.839 177
69.85911 160
69.87922 174
69.89934 168
69.91945 194
69.93956 195
69.95968 176
69.97979 174
69.9999 176
70.02002 165
70.04013 169
70.06025 153
70.08036 175
70.10047 166
70.12059 187
70.1407 186
70.16081 175
70.18093 175
70.20104 165
70.22116 174
70.24127 176
70.26138 148
70.2815 180
70.30161 155
70.32172 165
70.34184 187
70.36195 162
70.38207 179
70.40218 153
70.42229 152
70.44241 180
70.46252 173
70.48263 168
70.50275 153
70.52286 206
70.54297 155
70.56309 172
70.5832 148
70.60332 167
70.62343 174
70.64354 158
70.66366 158
70.68377 157
70.70388 149
70.724 155
70.74411 162
70.76423 166
70.78434 182
70.80445 174
70.82457 161
70.84468 159
70.86479 190
70.88491 157
70.90502 186
70.92513 169
70.94525 185
70.96536 153
70.98548 155
71.00559 139
71.0257 173
71.04582 160
71.06593 179
71.08604 142
71.10616 168
71.12627 154
71.14639 146
71.1665 186
71.18661 161
71.20673 170
71.22684 166
71.24695 144
71.26707 161
71.28718 190
71.3073 162
71.32741 168
71.34752 158
71.36764 180
71.38775 178
71.40786 189
71.42798 169
71.44809 183
71.4682 151
71.48832 167
71.50843 159
71.52855 166
71.54866 173
71.56877 173
71.58889 188
71.609 157
71.62911 166
71.64923 171
71.66934 182
71.68946 158
71.70957 163
71.72968 166
71.7498 161
71.76991 153
71.79002 171
71.81014 166
71.83025 207
71.85037 149
71.87048 160
71.89059 186
71.91071 156
71.93082 173
71.95093 160
71.97105 153
71.99116 169
72.01127 196
72.03139 172
72.0515 143
72.07162 173
72.09173 146
72.11184 151
72.13196 182
72.15207 161
72.17218 189
72.1923 160
72.21241 174
72.23253 168
72.25264 167
72.27275 179
72.29287 146
72.31298 157
72.33309 162
72.35321 155
72.37332 175
72.39344 177
72.41355 154
72.43366 152
72.45378 179
72.47389 169
72.494 182
72.51412 167
72.53423 201
72.55434 174
72.57446 166
72.59457 167
72.61469 174
72.6348 172
72.65491 191
72.67503 186
72.69514 175
72.71525 187
72.73537 183
72.75548 177
72.7756 164
72.79571 165
72.81582 193
72.83594 195
72.85605 170
72.87616 171
72.89628 164
72.91639 184
72.9365 177
72.95662 189
72.97673 183
72.99685 185
73.01696 205
73.03707 177
73.05719 189
73.0773 198
73.09741 199
73.11753 203
73.13764 236
73.15776 214
73.17787 224
73.19798 247
73.2181 271
73.23821 259
73.25832 314
73.27844 324
73.29855 322
73.31867 376
73.33878 406
73.35889 440
73.37901 510
73.39912 542
73.41923 634
73.43935 583
73.45946 607
73.47957 512
73.49969 473
73.5198 371
73.53992 327
73.56003 329
73.58014 321
73.60026 361
73.62037 409
73.64048 413
73.6606 412
73.68071 344
73.70083 334
73.72094 269
73.74105 253
73.76117 205
73.78128 211
73.80139 186
73.82151 178
73.84162 195
73.86174 188
73.88185 172
73.90196 166
73.92208 184
73.94219 161
73.9623 180
73.98242 167
74.00253 174
74.02264 197
74.04276 176
74.06287 172
74.08299 173
74.1031 153
74.12321 183
74.14333 185
74.16344 171
74.18355 171
74.20367 166
74.22378 172
74.2439 168
74.26401 166
74.28412 154
74.30424 178
74.32435 161
74.34446 166
74.36458 149
74.38469 155
74.40481 165
74.42492 168
74.44503 154
74.46515 172
74.48526 156
74.50537 140
74.52549 156
74.5456 171
74.56571 163
74.58583 159
74.60594 209
74.62606 174
74.64617 167
74.66628 153
74.6864 137
74.70651 168
74.72662 164
74.74674 180
74.76685 180
74.78697 170
74.80708 186
74.82719 178
74.84731 180
74.86742 156
74.88753 165
74.90765 176
74.92776 183
74.94787 156
74.96799 199
74.9881 176
75.00822 183
