3.00117 20332
3.02128 19503
3.0414 19016
3.06151 18533
3.08162 17495
3.10174 17669
3.12185 17242
3.14197 16437
3.16208 16018
3.18219 15527
3.20231 15103
3.22242 14524
3.24253 14226
3.26265 13954
3.28276 12993
3.30288 13079
3.32299 12569
3.3431 12382
3.36322 11867
3.38333 11175
3.40344 10938
3.42356 10323
3.44367 10366
3.46379 9898
3.4839 9336
3.50401 9397
3.52413 8844
3.54424 8574
3.56435 8453
3.58447 7772
3.60458 7675
3.62469 7438
3.64481 7109
3.66492 6852
3.68504 6356
3.70515 6172
3.72526 5838
3.74538 5911
3.76549 5524
3.7856 5233
3.80572 5155
3.82583 4703
3.84595 4667
3.86606 4506
3.88617 4121
3.90629 4045
3.9264 3797
3.94651 3700
3.96663 3700
3.98674 3277
4.00686 3333
4.02697 3091
4.04708 3093
4.0672 2885
4.08731 2521
4.10742 2534
4.12754 2369
4.14765 2353
4.16776 2362
4.18788 2078
4.20799 2075
4.22811 2035
4.24822 1996
4.26833 2051
4.28845 1676
4.30856 1778
4.32867 1741
4.34879 1656
4.3689 1703
4.38902 1489
4.40913 1489
4.42924 1507
4.44936 1455
4.46947 1469
4.48958 1259
4.5097 1328
4.52981 1305
4.54992 1242
4.57004 1288
4.59015 1078
4.61027 1085
4.63038 1165
4.65049 1087
4.67061 1108
4.69072 1016
4.71083 992
4.73095 987
4.75106 955
4.77118 962
4.79129 898
4.8114 873
4.83152 861
4.85163 836
4.87174 855
4.89186 781
4.91197 771
4.93209 812
4.9522 810
4.97231 753
4.99243 698
5.01254 748
5.03265 700
5.05277 657
5.07288 649
5.09299 634
5.11311 602
5.13322 596
5.15334 563
5.17345 561
5.19356 537
5.21368 545
5.23379 574
5.2539 545
5.27402 542
5.29413 540
5.31425 490
5.33436 518
5.35447 470
5.37459 478
5.3947 426
5.41481 418
5.43493 469
5.45504 436
5.47516 391
5.49527 461
5.51538 389
5.5355 397
5.55561 378
5.57572 343
5.59584 362
5.61595 351
5.63606 355
5.65618 350
5.67629 354
5.69641 369
5.71652 327
5.73663 370
5.75675 310
5.77686 264
5.79697 326
5.81709 303
5.8372 304
5.85732 308
5.87743 270
5.89754 261
5.91766 293
5.93777 266
5.95788 305
5.978 275
5.99811 283
6.01823 281
6.03834 268
6.05845 261
6.07857 270
6.09868 253
6.11879 271
6.13891 258
6.15902 263
6.17913 255
6.19925 256
6.21936 252
6.23948 269
6.25959 265
6.2797 263
6.29982 244
6.31993 284
6.34004 263
6.36016 231
6.38027 258
6.40039 251
6.4205 235
6.44061 214
6.46073 245
6.48084 247
6.50095 220
6.52107 196
6.54118 234
6.56129 253
6.58141 223
6.60152 262
6.62164 231
6.64175 226
6.66186 235
6.68198 230
6.70209 254
6.7222 229
6.74232 220
6.76243 234
6.78255 214
6.80266 224
6.82277 213
6.84289 203
6.863 240
6.88311 243
6.90323 227
6.92334 215
6.94346 246
6.96357 234
6.98368 217
7.0038 196
7.02391 227
7.04402 191
7.06414 234
7.08425 225
7.10436 206
7.12448 253
7.14459 230
7.16471 211
7.18482 219
7.20493 218
7.22505 246
7.24516 252
7.26527 227
7.28539 198
7.3055 249
7.32562 239
7.34573 238
7.36584 213
7.38596 236
7.40607 232
7.42618 225
7.4463 236
7.46641 200
7.48653 240
7.50664 222
7.52675 223
7.54687 237
7.56698 261
7.58709 246
7.60721 248
7.62732 245
7.64743 222
7.66755 233
7.68766 213
7.70778 251
7.72789 249
7.748 250
7.76812 228
7.78823 272
7.80834 248
7.82846 224
7.84857 259
7.86869 246
7.8888 230
7.90891 248
7.92903 252
7.94914 247
7.96925 237
7.98937 203
8.00948 222
8.0296 242
8.04971 228
8.06982 243
8.08994 223
8.11005 238
8.13016 255
8.15028 243
8.17039 216
8.1905 240
8.21062 235
8.23073 262
8.25085 225
8.27096 226
8.29107 259
8.31119 216
8.3313 233
8.35141 200
8.37153 256
8.39164 231
8.41176 239
8.43187 208
8.45198 257
8.4721 250
8.49221 212
8.51232 243
8.53244 234
8.55255 223
8.57266 257
8.59278 246
8.61289 228
8.63301 246
8.65312 203
8.67323 221
8.69335 272
8.71346 232
8.73357 250
8.75369 226
8.7738 250
8.79392 263
8.81403 231
8.83414 246
8.85426 257
8.87437 237
8.89448 251
8.9146 236
8.93471 235
8.95483 230
8.97494 250
8.99505 286
9.01517 263
9.03528 243
9.05539 263
9.07551 237
9.09562 240
9.11573 237
9.13585 232
9.15596 233
9.17608 228
9.19619 225
9.2163 245
9.23642 235
9.25653 253
9.27664 248
9.29676 213
9.31687 238
9.33699 250
9.3571 265
9.37721 228
9.39733 263
9.41744 283
9.43755 283
9.45767 256
9.47778 228
9.4979 220
9.51801 244
9.53812 238
9.55824 255
9.57835 263
9.59846 237
9.61858 243
9.63869 260
9.6588 245
9.67892 259
9.69903 241
9.71915 260
9.73926 245
9.75937 260
9.77949 244
9.7996 284
9.81971 227
9.83983 237
9.85994 252
9.88006 258
9.90017 261
9.92028 259
9.9404 248
9.96051 225
9.98062 229
10.00074 250
10.02085 245
10.04097 261
10.06108 257
10.08119 240
10.10131 246
10.12142 245
10.14153 251
10.16165 251
10.18176 264
10.20187 290
10.22199 245
10.2421 233
10.26222 232
10.28233 212
10.30244 290
10.32256 229
10.34267 270
10.36278 287
10.3829 270
10.40301 235
10.42313 247
10.44324 230
10.46335 225
10.48347 225
10.50358 259
10.52369 232
10.54381 229
10.56392 248
10.58403 233
10.60415 220
10.62426 255
10.64438 236
10.66449 249
10.6846 246
10.70472 287
10.72483 212
10.74494 231
10.76506 250
10.78517 227
10.80529 231
10.8254 269
10.84551 270
10.86563 229
10.88574 253
10.90585 247
10.92597 254
10.94608 242
10.9662 242
10.98631 263
11.00642 306
11.02654 242
11.04665 263
11.06676 224
11.08688 209
11.10699 214
11.1271 244
11.14722 231
11.16733 241
11.18745 236
11.20756 249
11.22767 240
11.24779 246
11.2679 228
11.28801 252
11.30813 232
11.32824 270
11.34836 252
11.36847 282
11.38858 262
11.4087 245
11.42881 228
11.44892 254
11.46904 248
11.48915 269
11.50927 222
11.52938 252
11.54949 251
11.56961 269
11.58972 253
11.60983 247
11.62995 259
11.65006 242
11.67017 315
11.69029 252
11.7104 219
11.73052 258
11.75063 252
11.77074 240
11.79086 263
11.81097 264
11.83108 242
11.8512 217
11.87131 252
11.89143 303
11.91154 282
11.93165 296
11.95177 250
11.97188 258
11.99199 281
12.01211 247
12.03222 263
12.05234 239
12.07245 266
12.09256 285
12.11268 268
12.13279 281
12.1529 300
12.17302 243
12.19313 280
12.21324 267
12.23336 269
12.25347 301
12.27359 303
12.2937 268
12.31381 291
12.33393 279
12.35404 287
12.37415 276
12.39427 271
12.41438 296
12.4345 300
12.45461 267
12.47472 243
12.49484 276
12.51495 278
12.53506 240
12.55518 261
12.57529 240
12.5954 228
12.61552 240
12.63563 250
12.65575 242
12.67586 210
12.69597 221
12.71609 249
12.7362 247
12.75631 217
12.77643 258
12.79654 234
12.81666 239
12.83677 217
12.85688 222
12.877 208
12.89711 245
12.91722 222
12.93734 240
12.95745 213
12.97757 219
12.99768 236
13.01779 240
13.03791 224
13.05802 225
13.07813 212
13.09825 232
13.11836 216
13.13847 253
13.15859 220
13.1787 192
13.19882 231
13.21893 225
13.23904 204
13.25916 234
13.27927 241
13.29938 212
13.3195 224
13.33961 227
13.35973 208
13.37984 208
13.39995 222
13.42007 240
13.44018 227
13.46029 199
13.48041 200
13.50052 228
13.52064 238
13.54075 226
13.56086 195
13.58098 203
13.60109 207
13.6212 237
13.64132 223
13.66143 201
13.68154 183
13.70166 221
13.72177 203
13.74189 196
13.762 212
13.78211 181
13.80223 210
13.82234 227
13.84245 218
13.86257 213
13.88268 209
13.9028 215
13.92291 195
13.94302 213
13.96314 208
13.98325 191
14.00336 204
14.02348 207
14.04359 214
14.06371 216
14.08382 205
14.10393 237
14.12405 216
14.14416 190
14.16427 230
14.18439 195
14.2045 196
14.22461 177
14.24473 212
14.26484 209
14.28496 188
14.30507 224
14.32518 202
14.3453 195
14.36541 203
14.38552 190
14.40564 208
14.42575 217
14.44587 200
14.46598 188
14.48609 220
14.50621 213
14.52632 179
14.54643 201
14.56655 196
14.58666 196
14.60677 228
14.62689 197
14.647 203
14.66712 191
14.68723 204
14.70734 193
14.72746 213
14.74757 206
14.76768 208
14.7878 199
14.80791 225
14.82803 204
14.84814 177
14.86825 166
14.88837 209
14.90848 209
14.92859 180
14.94871 187
14.96882 210
14.98894 185
15.00905 190
15.02916 177
15.04928 187
15.06939 156
15.0895 184
15.10962 201
15.12973 182
15.14984 174
15.16996 199
15.19007 175
15.21019 199
15.2303 183
15.25041 216
15.27053 204
15.29064 189
15.31075 168
15.33087 186
15.35098 194
15.3711 190
15.39121 181
15.41132 182
15.43144 183
15.45155 199
15.47166 213
15.49178 179
15.51189 183
15.53201 184
15.55212 187
15.57223 196
15.59235 187
15.61246 176
15.63257 204
15.65269 188
15.6728 190
15.69291 200
15.71303 197
15.73314 159
15.75326 182
15.77337 181
15.79348 200
15.8136 167
15.83371 172
15.85382 192
15.87394 203
15.89405 184
15.91417 213
15.93428 184
15.95439 192
15.97451 191
15.99462 191
16.01473 191
16.03485 204
16.05496 194
16.07508 194
16.09519 165
16.1153 199
16.13542 199
16.15553 195
16.17564 200
16.19576 218
16.21587 187
16.23598 186
16.2561 194
16.27621 194
16.29633 198
16.31644 185
16.33655 209
16.35667 217
16.37678 205
16.39689 184
16.41701 175
16.43712 192
16.45724 193
16.47735 168
16.49746 199
16.51758 185
16.53769 182
16.5578 184
16.57792 189
16.59803 189
16.61814 188
16.63826 176
16.65837 195
16.67849 197
16.6986 184
16.71871 197
16.73883 190
16.75894 191
16.77905 172
16.79917 201
16.81928 168
16.8394 170
16.85951 183
16.87962 196
16.89974 212
16.91985 183
16.93996 178
16.96008 165
16.98019 205
17.00031 214
17.02042 215
17.04053 181
17.06065 191
17.08076 201
17.10087 199
17.12099 192
17.1411 173
17.16121 199
17.18133 211
17.20144 179
17.22156 183
17.24167 190
17.26178 181
17.2819 202
17.30201 198
17.32212 195
17.34224 203
17.36235 188
17.38247 215
17.40258 202
17.42269 174
17.44281 197
17.46292 195
17.48303 182
17.50315 190
17.52326 175
17.54338 172
17.56349 179
17.5836 187
17.60372 175
17.62383 182
17.64394 192
17.66406 161
17.68417 196
17.70428 225
17.7244 190
17.74451 196
17.76463 197
17.78474 201
17.80485 198
17.82497 171
17.84508 171
17.86519 200
17.88531 202
17.90542 212
17.92554 178
17.94565 200
17.96576 186
17.98588 195
18.00599 184
18.0261 184
18.04622 197
18.06633 201
18.08645 204
18.10656 200
18.12667 204
18.14679 170
18.1669 203
18.18701 204
18.20713 192
18.22724 185
18.24735 211
18.26747 200
18.28758 202
18.3077 193
18.32781 183
18.34792 190
18.36804 210
18.38815 200
18.40826 181
18.42838 175
18.44849 225
18.46861 198
18.48872 193
18.50883 182
18.52895 206
18.54906 205
18.56917 190
18.58929 204
18.6094 167
18.62951 183
18.64963 193
18.66974 200
18.68986 195
18.70997 186
18.73008 223
18.7502 201
18.77031 212
18.79042 231
18.81054 196
18.83065 229
18.85077 202
18.87088 242
18.89099 208
18.91111 186
18.93122 202
18.95133 177
18.97145 169
18.99156 191
19.01168 225
19.03179 205
19.0519 181
19.07202 206
19.09213 186
19.11224 187
19.13236 173
19.15247 175
19.17258 191
19.1927 218
19.21281 196
19.23293 194
19.25304 191
19.27315 182
19.29327 186
19.31338 182
19.33349 184
19.35361 241
19.37372 198
19.39384 207
19.41395 185
19.43406 213
19.45418 219
19.47429 208
19.4944 206
19.51452 209
19.53463 198
19.55475 233
19.57486 252
19.59497 188
19.61509 233
19.6352 242
19.65531 244
19.67543 256
19.69554 258
19.71565 246
19.73577 260
19.75588 262
19.776 309
19.79611 281
19.81622 322
19.83634 262
19.85645 315
19.87656 316
19.89668 335
19.91679 352
19.93691 317
19.95702 328
19.97713 294
19.99725 333
20.01736 327
20.03747 312
20.05759 321
20.0777 350
20.09782 312
20.11793 293
20.13804 361
20.15816 361
20.17827 368
20.19838 348
20.2185 316
20.23861 365
20.25872 364
20.27884 395
20.29895 334
20.31907 334
20.33918 371
20.35929 382
20.37941 356
20.39952 382
20.41963 413
20.43975 400
20.45986 398
20.47998 423
20.50009 449
20.5202 462
20.54032 412
20.56043 517
20.58054 489
20.60066 504
20.62077 555
20.64088 570
20.661 665
20.68111 909
20.70123 982
20.72134 1514
20.74145 2092
20.76157 2979
20.78168 4307
20.80179 6296
20.82191 8166
20.84202 9939
20.86214 9975
20.88225 8789
20.90236 6533
20.92248 4492
20.94259 2702
20.9627 1394
20.98282 871
21.00293 695
21.02305 583
21.04316 544
21.06327 498
21.08339 502
21.1035 481
21.12361 409
21.14373 413
21.16384 374
21.18395 396
21.20407 377
21.22418 363
21.2443 340
21.26441 346
21.28452 334
21.30464 314
21.32475 324
21.34486 299
21.36498 272
21.38509 323
21.40521 343
21.42532 305
21.44543 315
21.46555 287
21.48566 318
21.50577 286
21.52589 290
21.546 300
21.56612 253
21.58623 289
21.60634 252
21.62646 262
21.64657 318
21.66668 285
21.6868 239
21.70691 269
21.72702 285
21.74714 266
21.76725 289
21.78737 240
21.80748 254
21.82759 248
21.84771 287
21.86782 295
21.88793 249
21.90805 271
21.92816 298
21.94828 262
21.96839 275
21.9885 256
22.00862 249
22.02873 252
22.04884 287
22.06896 250
22.08907 263
22.10919 262
22.1293 247
22.14941 235
22.16953 226
22.18964 254
22.20975 261
22.22987 259
22.24998 274
22.27009 299
22.29021 234
22.31032 248
22.33044 250
22.35055 255
22.37066 263
22.39078 283
22.41089 213
22.431 215
22.45112 265
22.47123 246
22.49135 222
22.51146 261
22.53157 238
22.55169 223
22.5718 258
22.59191 248
22.61203 233
22.63214 268
22.65225 255
22.67237 215
22.69248 276
22.7126 254
22.73271 244
22.75282 251
22.77294 246
22.79305 245
22.81316 223
22.83328 215
22.85339 234
22.87351 202
22.89362 226
22.91373 239
22.93385 215
22.95396 214
22.97407 259
22.99419 265
23.0143 229
23.03442 254
23.05453 228
23.07464 279
23.09476 251
23.11487 253
23.13498 227
23.1551 255
23.17521 243
23.19532 232
23.21544 210
23.23555 227
23.25567 255
23.27578 253
23.29589 227
23.31601 268
23.33612 219
23.35623 244
23.37635 237
23.39646 225
23.41658 206
23.43669 236
23.4568 236
23.47692 218
23.49703 232
23.51714 232
23.53726 227
23.55737 245
23.57749 234
23.5976 230
23.61771 221
23.63783 255
23.65794 264
23.67805 212
23.69817 255
23.71828 230
23.73839 242
23.75851 226
23.77862 256
23.79874 231
23.81885 235
23.83896 241
23.85908 258
23.87919 262
23.8993 253
23.91942 249
23.93953 284
23.95965 254
23.97976 341
23.99987 313
24.01999 349
24.0401 292
24.06021 302
24.08033 234
24.10044 257
24.12056 250
24.14067 241
24.16078 237
24.1809 240
24.20101 232
24.22112 210
24.24124 240
24.26135 232
24.28146 229
24.30158 242
24.32169 238
24.34181 271
24.36192 232
24.38203 244
24.40215 251
24.42226 262
24.44237 242
24.46249 220
24.4826 262
24.50272 258
24.52283 267
24.54294 263
24.56306 253
24.58317 228
24.60328 231
24.6234 246
24.64351 225
24.66362 248
24.68374 229
24.70385 243
24.72397 265
24.74408 245
24.76419 298
24.78431 270
24.80442 267
24.82453 253
24.84465 245
24.86476 275
24.88488 251
24.90499 284
24.9251 275
24.94522 258
24.96533 259
24.98544 264
25.00556 275
25.02567 263
25.04579 260
25.0659 282
25.08601 279
25.10613 250
25.12624 252
25.14635 276
25.16647 267
25.18658 271
25.20669 268
25.22681 279
25.24692 273
25.26704 315
25.28715 255
25.30726 268
25.32738 288
25.34749 329
25.3676 275
25.38772 281
25.40783 272
25.42795 277
25.44806 260
25.46817 255
25.48829 279
25.5084 266
25.52851 287
25.54863 283
25.56874 267
25.58886 305
25.60897 271
25.62908 311
25.6492 296
25.66931 326
25.68942 372
25.70954 410
25.72965 461
25.74976 492
25.76988 478
25.78999 475
25.81011 479
25.83022 440
25.85033 503
25.87045 461
25.89056 482
25.91067 492
25.93079 503
25.9509 468
25.97102 483
25.99113 559
26.01124 528
26.03136 509
26.05147 585
26.07158 567
26.0917 568
26.11181 657
26.13193 678
26.15204 696
26.17215 703
26.19227 782
26.21238 847
26.23249 953
26.25261 945
26.27272 1055
26.29283 1061
26.31295 1186
26.33306 1278
26.35318 1354
26.37329 1600
26.3934 1783
26.41352 2223
26.43363 2747
26.45374 3307
26.47386 4696
26.49397 6472
26.51409 9255
26.5342 13252
26.55431 18947
26.57443 27001
26.59454 36222
26.61465 44670
26.63477 46281
26.65488 40161
26.67499 31440
26.69511 24680
26.71522 17874
26.73534 10553
26.75545 5556
26.77556 3128
26.79568 2249
26.81579 1818
26.8359 1560
26.85602 1418
26.87613 1345
26.89625 1177
26.91636 1058
26.93647 1002
26.95659 908
26.9767 848
26.99681 709
27.01693 661
27.03704 634
27.05716 555
27.07727 592
27.09738 529
27.1175 526
27.13761 505
27.15772 512
27.17784 450
27.19795 463
27.21806 472
27.23818 463
27.25829 436
27.27841 432
27.29852 445
27.31863 423
27.33875 416
27.35886 433
27.37897 409
27.39909 421
27.4192 411
27.43932 441
27.45943 401
27.47954 393
27.49966 395
27.51977 363
27.53988 373
27.56 358
27.58011 335
27.60023 345
27.62034 332
27.64045 362
27.66057 366
27.68068 318
27.70079 336
27.72091 311
27.74102 374
27.76113 349
27.78125 285
27.80136 311
27.82148 317
27.84159 291
27.8617 274
27.88182 310
27.90193 300
27.92204 268
27.94216 295
27.96227 334
27.98239 306
28.0025 287
28.02261 283
28.04273 290
28.06284 290
28.08295 291
28.10307 259
28.12318 250
28.1433 266
28.16341 309
28.18352 255
28.20364 275
28.22375 275
28.24386 301
28.26398 272
28.28409 258
28.3042 268
28.32432 245
28.34443 300
28.36455 259
28.38466 287
28.40477 275
28.42489 272
28.445 278
28.46511 257
28.48523 281
28.50534 251
28.52546 239
28.54557 301
28.56568 276
28.5858 257
28.60591 257
28.62602 243
28.64614 228
28.66625 261
28.68636 257
28.70648 244
28.72659 250
28.74671 270
28.76682 271
28.78693 268
28.80705 246
28.82716 264
28.84727 249
28.86739 251
28.8875 253
28.90762 261
28.92773 265
28.94784 271
28.96796 264
28.98807 243
29.00818 263
29.0283 233
29.04841 275
29.06853 212
29.08864 241
29.10875 233
29.12887 242
29.14898 245
29.16909 263
29.18921 242
29.20932 238
29.22943 235
29.24955 247
29.26966 250
29.28978 228
29.30989 233
29.33 230
29.35012 263
29.37023 221
29.39034 250
29.41046 229
29.43057 247
29.45069 244
29.4708 232
29.49091 208
29.51103 237
29.53114 263
29.55125 223
29.57137 234
29.59148 229
29.6116 207
29.63171 200
29.65182 203
29.67194 186
29.69205 237
29.71216 230
29.73228 225
29.75239 220
29.7725 186
29.79262 212
29.81273 232
29.83285 195
29.85296 218
29.87307 238
29.89319 222
29.9133 231
29.93341 230
29.95353 235
29.97364 214
29.99376 230
30.01387 220
30.03398 210
30.0541 209
30.07421 232
30.09432 197
30.11444 211
30.13455 236
30.15467 219
30.17478 228
30.19489 227
30.21501 194
30.23512 229
30.25523 197
30.27535 209
30.29546 210
30.31557 188
30.33569 235
30.3558 214
30.37592 182
30.39603 239
30.41614 210
30.43626 213
30.45637 220
30.47648 218
30.4966 188
30.51671 197
30.53683 229
30.55694 197
30.57705 244
30.59717 226
30.61728 201
30.63739 199
30.65751 211
30.67762 196
30.69773 208
30.71785 220
30.73796 202
30.75808 223
30.77819 182
30.7983 205
30.81842 217
30.83853 221
30.85864 200
30.87876 211
30.89887 199
30.91899 214
30.9391 225
30.95921 201
30.97933 204
30.99944 176
31.01955 217
31.03967 211
31.05978 187
31.0799 212
31.10001 211
31.12012 195
31.14024 232
31.16035 180
31.18046 192
31.20058 171
31.22069 210
31.2408 182
31.26092 184
31.28103 200
31.30115 202
31.32126 181
31.34137 199
31.36149 179
31.3816 188
31.40171 172
31.42183 176
31.44194 163
31.46206 190
31.48217 193
31.50228 166
31.5224 166
31.54251 187
31.56262 149
31.58274 160
31.60285 197
31.62297 159
31.64308 195
31.66319 165
31.68331 205
31.70342 186
31.72353 171
31.74365 187
31.76376 184
31.78387 184
31.80399 205
31.8241 178
31.84422 200
31.86433 185
31.88444 183
31.90456 173
31.92467 171
31.94478 185
31.9649 190
31.98501 179
32.00513 161
32.02524 173
32.04535 175
32.06547 165
32.08558 180
32.10569 207
32.12581 207
32.14592 184
32.16604 187
32.18615 185
32.20626 186
32.22638 191
32.24649 189
32.2666 193
32.28672 170
32.30683 176
32.32694 183
32.34706 172
32.36717 182
32.38729 161
32.4074 188
32.42751 189
32.44763 164
32.46774 183
32.48785 179
32.50797 166
32.52808 172
32.5482 167
32.56831 164
32.58842 178
32.60854 169
32.62865 172
32.64876 188
32.66888 164
32.68899 175
32.7091 180
32.72922 173
32.74933 152
32.76945 187
32.78956 144
32.80967 179
32.82979 165
32.8499 179
32.87001 176
32.89013 182
32.91024 168
32.93036 207
32.95047 161
32.97058 193
32.9907 155
33.01081 181
33.03092 150
33.05104 176
33.07115 170
33.09127 156
33.11138 184
33.13149 179
33.15161 208
33.17172 196
33.19183 172
33.21195 165
33.23206 163
33.25217 158
33.27229 165
33.2924 186
33.31252 140
33.33263 156
33.35274 177
33.37286 142
33.39297 160
33.41308 196
33.4332 150
33.45331 149
33.47343 157
33.49354 167
33.51365 176
33.53377 184
33.55388 168
33.57399 161
33.59411 158
33.61422 153
33.63434 151
33.65445 189
33.67456 168
33.69468 164
33.71479 166
33.7349 180
33.75502 166
33.77513 144
33.79524 171
33.81536 164
33.83547 171
33.85559 167
33.8757 180
33.89581 169
33.91593 148
33.93604 192
33.95615 140
33.97627 174
33.99638 150
34.0165 160
34.03661 154
34.05672 168
34.07684 202
34.09695 152
34.11706 174
34.13718 172
34.15729 153
34.17741 160
34.19752 167
34.21763 184
34.23775 158
34.25786 160
34.27797 151
34.29809 160
34.3182 170
34.33831 145
34.35843 145
34.37854 165
34.39866 154
34.41877 157
34.43888 180
34.459 192
34.47911 167
34.49922 174
34.51934 167
34.53945 164
34.55957 150
34.57968 169
34.59979 186
34.61991 193
34.64002 164
34.66013 160
34.68025 192
34.70036 163
34.72047 179
34.74059 188
34.7607 194
34.78082 205
34.80093 167
34.82104 205
34.84116 197
34.86127 216
34.88138 215
34.9015 219
34.92161 214
34.94173 197
34.96184 221
34.98195 209
35.00207 215
35.02218 205
35.04229 218
35.06241 207
35.08252 205
35.10264 201
35.12275 210
35.14286 194
35.16298 188
35.18309 200
35.2032 191
35.22332 193
35.24343 182
35.26354 202
35.28366 209
35.30377 218
35.32389 215
35.344 204
35.36411 201
35.38423 211
35.40434 229
35.42445 218
35.44457 192
35.46468 225
35.4848 218
35.50491 243
35.52502 232
35.54514 219
35.56525 213
35.58536 228
35.60548 219
35.62559 215
35.64571 221
35.66582 209
35.68593 191
35.70605 229
35.72616 207
35.74627 223
35.76639 189
35.7865 204
35.80661 202
35.82673 229
35.84684 224
35.86696 197
35.88707 218
35.90718 224
35.9273 190
35.94741 197
35.96752 219
35.98764 210
36.00775 210
36.02787 208
36.04798 224
36.06809 237
36.08821 230
36.10832 254
36.12843 248
36.14855 240
36.16866 250
36.18878 255
36.20889 271
36.229 266
36.24912 246
36.26923 293
36.28934 359
36.30946 338
36.32957 442
36.34968 494
36.3698 646
36.38991 739
36.41003 944
36.43014 1196
36.45025 1629
36.47037 1968
36.49048 2518
36.51059 2994
36.53071 3001
36.55082 2655
36.57094 2182
36.59105 1761
36.61116 1671
36.63128 1535
36.65139 1127
36.6715 706
36.69162 429
36.71173 370
36.73184 285
36.75196 246
36.77207 269
36.79219 265
36.8123 231
36.83241 229
36.85253 245
36.87264 248
36.89275 220
36.91287 233
36.93298 218
36.9531 208
36.97321 194
36.99332 195
37.01344 216
37.03355 203
37.05366 210
37.07378 185
37.09389 197
37.11401 200
37.13412 216
37.15423 189
37.17435 193
37.19446 175
37.21457 210
37.23469 172
37.2548 208
37.27491 195
37.29503 205
37.31514 190
37.33526 171
37.35537 183
37.37548 205
37.3956 196
37.41571 171
37.43582 193
37.45594 216
37.47605 180
37.49617 160
37.51628 182
37.53639 166
37.55651 185
37.57662 168
37.59673 208
37.61685 181
37.63696 169
37.65708 186
37.67719 178
37.6973 191
37.71742 201
37.73753 220
37.75764 201
37.77776 196
37.79787 186
37.81798 173
37.8381 193
37.85821 186
37.87833 183
37.89844 181
37.91855 196
37.93867 163
37.95878 181
37.97889 188
37.99901 183
38.01912 205
38.03924 194
38.05935 177
38.07946 202
38.09958 218
38.11969 178
38.1398 190
38.15992 189
38.18003 196
38.20015 202
38.22026 199
38.24037 212
38.26049 212
38.2806 204
38.30071 205
38.32083 204
38.34094 186
38.36105 216
38.38117 193
38.40128 202
38.4214 224
38.44151 223
38.46162 223
38.48174 193
38.50185 231
38.52196 212
38.54208 228
38.56219 190
38.58231 207
38.60242 215
38.62253 197
38.64265 223
38.66276 204
38.68287 225
38.70299 198
38.7231 201
38.74321 192
38.76333 194
38.78344 190
38.80356 211
38.82367 200
38.84378 193
38.8639 201
38.88401 184
38.90412 192
38.92424 211
38.94435 213
38.96447 223
38.98458 219
39.00469 240
39.02481 235
39.04492 257
39.06503 214
39.08515 235
39.10526 254
39.12538 268
39.14549 260
39.1656 293
39.18572 288
39.20583 312
39.22594 351
39.24606 419
39.26617 462
39.28628 545
39.3064 695
39.32651 846
39.34663 1063
39.36674 1294
39.38685 1730
39.40697 2083
39.42708 2651
39.44719 2755
39.46731 2678
39.48742 2041
39.50754 1615
39.52765 1505
39.54776 1456
39.56788 1304
39.58799 897
39.6081 591
39.62822 406
39.64833 339
39.66845 293
39.68856 267
39.70867 233
39.72879 244
39.7489 217
39.76901 239
39.78913 243
39.80924 264
39.82935 248
39.84947 211
39.86958 237
39.8897 214
39.90981 197
39.92992 233
39.95004 202
39.97015 219
39.99026 220
40.01038 240
40.03049 277
40.05061 282
40.07072 303
40.09083 353
40.11095 348
40.13106 458
40.15117 503
40.17129 641
40.1914 792
40.21152 983
40.23163 1181
40.25174 1328
40.27186 1435
40.29197 1337
40.31208 1055
40.3322 905
40.35231 798
40.37242 786
40.39254 703
40.41265 518
40.43277 365
40.45288 291
40.47299 269
40.49311 207
40.51322 219
40.53333 223
40.55345 210
40.57356 200
40.59368 191
40.61379 182
40.6339 202
40.65402 171
40.67413 195
40.69424 171
40.71436 183
40.73447 195
40.75458 180
40.7747 164
40.79481 193
40.81493 193
40.83504 173
40.85515 186
40.87527 168
40.89538 179
40.91549 198
40.93561 187
40.95572 174
40.97584 167
40.99595 175
41.01606 197
41.03618 165
41.05629 183
41.0764 217
41.09652 167
41.11663 175
41.13675 175
41.15686 173
41.17697 183
41.19709 177
41.2172 181
41.23731 165
41.25743 203
41.27754 170
41.29765 168
41.31777 161
41.33788 172
41.358 171
41.37811 177
41.39822 143
41.41834 174
41.43845 149
41.45856 182
41.47868 171
41.49879 202
41.51891 165
41.53902 177
41.55913 175
41.57925 166
41.59936 173
41.61947 163
41.63959 177
41.6597 172
41.67982 210
41.69993 169
41.72004 183
41.74016 182
41.76027 193
41.78038 182
41.8005 171
41.82061 198
41.84072 182
41.86084 196
41.88095 195
41.90107 185
41.92118 163
41.94129 196
41.96141 168
41.98152 165
42.00163 187
42.02175 198
42.04186 212
42.06198 209
42.08209 188
42.1022 210
42.12232 234
42.14243 258
42.16254 256
42.18266 283
42.20277 330
42.22289 357
42.243 395
42.26311 454
42.28323 542
42.30334 678
42.32345 805
42.34357 974
42.36368 1271
42.38379 1519
42.40391 1880
42.42402 2025
42.44414 2062
42.46425 1697
42.48436 1285
42.50448 1064
42.52459 1059
42.5447 1021
42.56482 883
42.58493 651
42.60505 443
42.62516 306
42.64527 264
42.66539 266
42.6855 234
42.70561 203
42.72573 212
42.74584 195
42.76595 183
42.78607 191
42.80618 189
42.8263 192
42.84641 157
42.86652 162
42.88664 183
42.90675 203
42.92686 185
42.94698 164
42.96709 169
42.98721 194
43.00732 166
43.02743 152
43.04755 149
43.06766 184
43.08777 174
43.10789 148
43.128 167
43.14812 173
43.16823 166
43.18834 135
43.20846 175
43.22857 155
43.24868 181
43.2688 176
43.28891 170
43.30902 171
43.32914 173
43.34925 178
43.36937 160
43.38948 160
43.40959 169
43.42971 176
43.44982 156
43.46993 161
43.49005 186
43.51016 147
43.53028 148
43.55039 171
43.5705 153
43.59062 161
43.61073 148
43.63084 161
43.65096 139
43.67107 139
43.69119 150
43.7113 174
43.73141 164
43.75153 147
43.77164 143
43.79175 156
43.81187 167
43.83198 134
43.85209 160
43.87221 138
43.89232 148
43.91244 147
43.93255 153
43.95266 147
43.97278 154
43.99289 148
44.013 158
44.03312 167
44.05323 160
44.07335 169
44.09346 149
44.11357 160
44.13369 181
44.1538 164
44.17391 160
44.19403 169
44.21414 159
44.23426 187
44.25437 168
44.27448 160
44.2946 165
44.31471 164
44.33482 161
44.35494 178
44.37505 165
44.39516 159
44.41528 153
44.43539 170
44.45551 164
44.47562 176
44.49573 167
44.51585 162
44.53596 159
44.55607 153
44.57619 139
44.5963 154
44.61642 149
44.63653 158
44.65664 175
44.67676 159
44.69687 170
44.71698 149
44.7371 172
44.75721 169
44.77732 180
44.79744 162
44.81755 175
44.83767 167
44.85778 175
44.87789 155
44.89801 171
44.91812 161
44.93823 168
44.95835 162
44.97846 163
44.99858 150
45.01869 153
45.0388 180
45.05892 166
45.07903 165
45.09914 153
45.11926 169
45.13937 164
45.15949 172
45.1796 134
45.19971 154
45.21983 144
45.23994 169
45.26005 164
45.28017 196
45.30028 147
45.32039 162
45.34051 177
45.36062 193
45.38074 187
45.40085 194
45.42096 193
45.44108 188
45.46119 211
45.4813 211
45.50142 212
45.52153 228
45.54165 278
45.56176 257
45.58187 305
45.60199 331
45.6221 391
45.64221 454
45.66233 569
45.68244 719
45.70256 870
45.72267 1051
45.74278 1202
45.7629 1300
45.78301 1302
45.80312 1123
45.82324 828
45.84335 748
45.86346 751
45.88358 752
45.90369 734
45.92381 526
45.94392 394
45.96403 283
45.98415 218
46.00426 213
46.02437 205
46.04449 166
46.0646 179
46.08472 169
46.10483 188
46.12494 179
46.14506 201
46.16517 163
46.18528 172
46.2054 166
46.22551 176
46.24563 177
46.26574 133
46.28585 155
46.30597 149
46.32608 174
46.34619 160
46.36631 163
46.38642 171
46.40653 158
46.42665 166
46.44676 169
46.46688 134
46.48699 150
46.5071 138
46.52722 146
46.54733 149
46.56744 154
46.58756 164
46.60767 160
46.62779 141
46.6479 149
46.66801 140
46.68813 151
46.70824 132
46.72835 138
46.74847 165
46.76858 143
46.78869 157
46.80881 131
46.82892 145
46.84904 145
46.86915 132
46.88926 150
46.90938 152
46.92949 147
46.9496 145
46.96972 138
46.98983 149
47.00995 128
47.03006 160
47.05017 163
47.07029 163
47.0904 146
47.11051 152
47.13063 138
47.15074 164
47.17086 150
47.19097 142
47.21108 153
47.2312 157
47.25131 152
47.27142 139
47.29154 155
47.31165 133
47.33176 147
47.35188 153
47.37199 155
47.39211 134
47.41222 134
47.43233 163
47.45245 145
47.47256 176
47.49267 142
47.51279 153
47.5329 156
47.55302 127
47.57313 138
47.59324 133
47.61336 154
47.63347 145
47.65358 134
47.6737 133
47.69381 142
47.71393 133
47.73404 132
47.75415 133
47.77427 142
47.79438 146
47.81449 142
47.83461 150
47.85472 151
47.87483 141
47.89495 143
47.91506 154
47.93518 139
47.95529 165
47.9754 133
47.99552 126
48.01563 140
48.03574 125
48.05586 150
48.07597 154
48.09609 157
48.1162 146
48.13631 132
48.15643 136
48.17654 159
48.19665 139
48.21677 141
48.23688 147
48.257 140
48.27711 150
48.29722 160
48.31734 146
48.33745 157
48.35756 140
48.37768 153
48.39779 135
48.4179 160
48.43802 157
48.45813 163
48.47825 147
48.49836 155
48.51847 168
48.53859 158
48.5587 148
48.57881 166
48.59893 150
48.61904 154
48.63916 140
48.65927 133
48.67938 151
48.6995 180
48.71961 144
48.73972 163
48.75984 150
48.77995 169
48.80006 175
48.82018 169
48.84029 169
48.86041 151
48.88052 162
48.90063 136
48.92075 152
48.94086 127
48.96097 159
48.98109 136
49.0012 154
49.02132 152
49.04143 157
49.06154 172
49.08166 151
49.10177 164
49.12188 178
49.142 154
49.16211 178
49.18223 167
49.20234 169
49.22245 145
49.24257 158
49.26268 173
49.28279 178
49.30291 169
49.32302 175
49.34313 168
49.36325 148
49.38336 168
49.40348 172
49.42359 164
49.4437 162
49.46382 188
49.48393 165
49.50404 174
49.52416 191
49.54427 162
49.56439 212
49.5845 218
49.60461 191
49.62473 213
49.64484 227
49.66495 233
49.68507 209
49.70518 232
49.7253 260
49.74541 283
49.76552 281
49.78564 302
49.80575 325
49.82586 418
49.84598 439
49.86609 514
49.8862 573
49.90632 644
49.92643 781
49.94655 915
49.96666 1100
49.98677 1363
50.00689 1704
50.027 2104
50.04711 2760
50.06723 3312
50.08734 4019
50.10746 4365
50.12757 4325
50.14768 3798
50.1678 2674
50.18791 2176
50.20802 2149
50.22814 2270
50.24825 2298
50.26837 2007
50.28848 1412
50.30859 930
50.32871 587
50.34882 464
50.36893 360
50.38905 339
50.40916 324
50.42927 285
50.44939 279
50.4695 282
50.48962 268
50.50973 272
50.52984 283
50.54996 220
50.57007 297
50.59018 273
50.6103 283
50.63041 282
50.65053 212
50.67064 207
50.69075 233
50.71087 193
50.73098 224
50.75109 219
50.77121 209
50.79132 166
50.81143 176
50.83155 149
50.85166 153
50.87178 154
50.89189 182
50.912 159
50.93212 189
50.95223 166
50.97234 157
50.99246 161
51.01257 163
51.03269 155
51.0528 146
51.07291 148
51.09303 147
51.11314 161
51.13325 144
51.15337 150
51.17348 129
51.1936 164
51.21371 139
51.23382 159
51.25394 150
51.27405 146
51.29416 153
51.31428 148
51.33439 134
51.3545 147
51.37462 130
51.39473 137
51.41485 118
51.43496 138
51.45507 128
51.47519 147
51.4953 163
51.51541 134
51.53553 141
51.55564 155
51.57576 123
51.59587 129
51.61598 140
51.6361 156
51.65621 157
51.67632 161
51.69644 142
51.71655 143
51.73667 139
51.75678 119
51.77689 128
51.79701 135
51.81712 146
51.83723 140
51.85735 135
51.87746 133
51.89757 125
51.91769 143
51.9378 121
51.95792 113
51.97803 141
51.99814 131
52.01826 141
52.03837 129
52.05848 143
52.0786 136
52.09871 132
52.11883 128
52.13894 132
52.15905 157
52.17917 141
52.19928 147
52.21939 142
52.23951 102
52.25962 146
52.27974 139
52.29985 144
52.31996 155
52.34008 141
52.36019 137
52.3803 143
52.40042 150
52.42053 115
52.44064 133
52.46076 151
52.48087 141
52.50099 142
52.5211 137
52.54121 124
52.56133 129
52.58144 144
52.60155 143
52.62167 131
52.64178 147
52.6619 149
52.68201 144
52.70212 141
52.72224 146
52.74235 133
52.76246 143
52.78258 161
52.80269 136
52.8228 150
52.84292 139
52.86303 121
52.88315 139
52.90326 125
52.92337 144
52.94349 149
52.9636 135
52.98371 138
53.00383 147
53.02394 146
53.04406 131
53.06417 150
53.08428 137
53.1044 150
53.12451 144
53.14462 129
53.16474 165
53.18485 143
53.20497 148
53.22508 125
53.24519 148
53.26531 129
53.28542 134
53.30553 132
53.32565 156
53.34576 139
53.36587 130
53.38599 148
53.4061 150
53.42622 153
53.44633 143
53.46644 152
53.48656 157
53.50667 146
53.52678 143
53.5469 157
53.56701 162
53.58713 144
53.60724 166
53.62735 157
53.64747 153
53.66758 144
53.68769 157
53.70781 139
53.72792 141
53.74804 140
53.76815 172
53.78826 145
53.80838 163
53.82849 172
53.8486 153
53.86872 160
53.88883 171
53.90894 135
53.92906 171
53.94917 150
53.96929 139
53.9894 158
54.00951 173
54.02963 161
54.04974 174
54.06985 172
54.08997 165
54.11008 168
54.1302 141
54.15031 147
54.17042 160
54.19054 177
54.21065 174
54.23076 160
54.25088 172
54.27099 168
54.29111 168
54.31122 162
54.33133 184
54.35145 174
54.37156 169
54.39167 196
54.41179 204
54.4319 173
54.45201 195
54.47213 196
54.49224 227
54.51236 214
54.53247 209
54.55258 251
54.5727 263
54.59281 262
54.61292 268
54.63304 328
54.65315 325
54.67327 395
54.69338 452
54.71349 493
54.73361 621
54.75372 730
54.77383 895
54.79395 1049
54.81406 1225
54.83417 1321
54.85429 1380
54.8744 1255
54.89452 942
54.91463 737
54.93474 649
54.95486 731
54.97497 776
54.99508 773
55.0152 733
55.03531 604
55.05543 427
55.07554 372
55.09565 325
55.11577 329
55.13588 275
55.15599 300
55.17611 343
55.19622 361
55.21634 428
55.23645 507
55.25656 597
55.27668 644
55.29679 659
55.3169 698
55.33702 533
55.35713 422
55.37724 366
55.39736 396
55.41747 400
55.43759 394
55.4577 368
55.47781 335
55.49793 297
55.51804 210
55.53815 214
55.55827 186
55.57838 201
55.5985 175
55.61861 156
55.63872 153
55.65884 164
55.67895 144
55.69906 170
55.71918 173
55.73929 163
55.75941 190
55.77952 170
55.79963 140
55.81975 160
55.83986 169
55.85997 130
55.88009 155
55.9002 153
55.92031 149
55.94043 137
55.96054 155
55.98066 163
56.00077 160
56.02088 155
56.041 164
56.06111 134
56.08122 139
56.10134 163
56.12145 142
56.14157 153
56.16168 115
56.18179 133
56.20191 144
56.22202 134
56.24213 143
56.26225 149
56.28236 129
56.30248 127
56.32259 150
56.3427 139
56.36282 127
56.38293 146
56.40304 138
56.42316 150
56.44327 153
56.46338 161
56.4835 154
56.50361 129
56.52373 149
56.54384 142
56.56395 140
56.58407 155
56.60418 139
56.62429 131
56.64441 134
56.66452 158
56.68464 134
56.70475 116
56.72486 140
56.74498 130
56.76509 154
56.7852 151
56.80532 123
56.82543 155
56.84554 148
56.86566 175
56.88577 147
56.90589 148
56.926 120
56.94611 162
56.96623 164
56.98634 164
57.00645 142
57.02657 168
57.04668 139
57.0668 163
57.08691 170
57.10702 195
57.12714 189
57.14725 182
57.16736 223
57.18748 218
57.20759 200
57.22771 194
57.24782 166
57.26793 169
57.28805 161
57.30816 188
57.32827 172
57.34839 157
57.3685 164
57.38861 181
57.40873 141
57.42884 147
57.44896 143
57.46907 135
57.48918 136
57.5093 122
57.52941 129
57.54952 132
57.56964 114
57.58975 132
57.60987 157
57.62998 148
57.65009 126
57.67021 131
57.69032 136
57.71043 145
57.73055 135
57.75066 135
57.77078 135
57.79089 133
57.811 151
57.83112 138
57.85123 129
57.87134 140
57.89146 155
57.91157 135
57.93168 149
57.9518 134
57.97191 139
57.99203 143
58.01214 142
58.03225 135
58.05237 138
58.07248 168
58.09259 131
58.11271 157
58.13282 134
58.15294 135
58.17305 120
58.19316 148
58.21328 134
58.23339 117
58.2535 151
58.27362 136
58.29373 116
58.31385 148
58.33396 141
58.35407 153
58.37419 121
58.3943 149
58.41441 126
58.43453 145
58.45464 126
58.47475 145
58.49487 139
58.51498 131
58.5351 149
58.55521 132
58.57532 122
58.59544 142
58.61555 163
58.63566 123
58.65578 166
58.67589 141
58.69601 119
58.71612 156
58.73623 145
58.75635 137
58.77646 141
58.79657 134
58.81669 158
58.8368 154
58.85691 165
58.87703 133
58.89714 133
58.91726 148
58.93737 161
58.95748 140
58.9776 148
58.99771 142
59.01782 129
59.03794 147
59.05805 155
59.07817 161
59.09828 160
59.11839 151
59.13851 155
59.15862 171
59.17873 149
59.19885 168
59.21896 180
59.23908 153
59.25919 164
59.2793 148
59.29942 169
59.31953 149
59.33964 167
59.35976 166
59.37987 190
59.39998 197
59.4201 205
59.44021 200
59.46033 184
59.48044 209
59.50055 172
59.52067 217
59.54078 265
59.56089 258
59.58101 241
59.60112 274
59.62124 314
59.64135 339
59.66146 373
59.68158 439
59.70169 477
59.7218 529
59.74192 686
59.76203 732
59.78215 893
59.80226 1055
59.82237 1323
59.84249 1553
59.8626 1940
59.88271 2260
59.90283 2658
59.92294 2845
59.94305 2825
59.96317 2327
59.98328 1716
60.0034 1354
60.02351 1224
60.04362 1356
60.06374 1403
60.08385 1499
60.10396 1385
60.12408 1131
60.14419 901
60.16431 553
60.18442 384
60.20453 312
60.22465 249
60.24476 255
60.26487 222
60.28499 221
60.3051 240
60.32522 209
60.34533 184
60.36544 216
60.38556 186
60.40567 166
60.42578 163
60.4459 192
60.46601 175
60.48612 162
60.50624 170
60.52635 173
60.54647 147
60.56658 169
60.58669 149
60.60681 173
60.62692 156
60.64703 166
60.66715 153
60.68726 153
60.70738 157
60.72749 163
60.7476 143
60.76772 164
60.78783 135
60.80794 175
60.82806 143
60.84817 158
60.86828 145
60.8884 133
60.90851 165
60.92863 150
60.94874 153
60.96885 160
60.98897 153
61.00908 136
61.02919 154
61.04931 149
61.06942 136
61.08954 130
61.10965 137
61.12976 156
61.14988 142
61.16999 164
61.1901 129
61.21022 156
61.23033 140
61.25045 135
61.27056 113
61.29067 153
61.31079 153
61.3309 155
61.35101 114
61.37113 135
61.39124 160
61.41135 151
61.43147 144
61.45158 140
61.4717 153
61.49181 156
61.51192 154
61.53204 138
61.55215 153
61.57226 138
61.59238 145
61.61249 147
61.63261 139
61.65272 150
61.67283 163
61.69295 157
61.71306 144
61.73317 155
61.75329 179
61.7734 148
61.79352 161
61.81363 165
61.83374 164
61.85386 156
61.87397 169
61.89408 167
61.9142 157
61.93431 157
61.95442 144
61.97454 152
61.99465 149
62.01477 147
62.03488 149
62.05499 148
62.07511 147
62.09522 153
62.11533 158
62.13545 177
62.15556 179
62.17568 163
62.19579 176
62.2159 160
62.23602 158
62.25613 162
62.27624 153
62.29636 178
62.31647 151
62.33659 156
62.3567 165
62.37681 166
62.39693 174
62.41704 169
62.43715 170
62.45727 152
62.47738 159
62.49749 154
62.51761 158
62.53772 139
62.55784 140
62.57795 150
62.59806 144
62.61818 149
62.63829 152
62.6584 130
62.67852 159
62.69863 145
62.71875 128
62.73886 142
62.75897 140
62.77909 146
62.7992 118
62.81931 152
62.83943 153
62.85954 154
62.87965 169
62.89977 120
62.91988 136
62.94 159
62.96011 138
62.98022 146
63.00034 135
63.02045 139
63.04056 137
63.06068 121
63.08079 139
63.10091 138
63.12102 140
63.14113 149
63.16125 133
63.18136 127
63.20147 162
63.22159 137
63.2417 135
63.26182 116
63.28193 124
63.30204 129
63.32216 155
63.34227 140
63.36238 138
63.3825 147
63.40261 133
63.42272 142
63.44284 165
63.46295 161
63.48307 131
63.50318 152
63.52329 134
63.54341 133
63.56352 139
63.58363 161
63.60375 151
63.62386 155
63.64398 141
63.66409 142
63.6842 156
63.70432 157
63.72443 161
63.74454 191
63.76466 183
63.78477 177
63.80489 208
63.825 231
63.84511 241
63.86523 292
63.88534 301
63.90545 360
63.92557 382
63.94568 433
63.96579 537
63.98591 617
64.00602 629
64.02614 584
64.04625 490
64.06636 408
64.08648 320
64.10659 283
64.1267 337
64.14682 359
64.16693 379
64.18705 342
64.20716 345
64.22727 307
64.24739 206
64.2675 183
64.28761 163
64.30773 165
64.32784 149
64.34796 141
64.36807 157
64.38818 137
64.4083 138
64.42841 144
64.44852 136
64.46864 119
64.48875 134
64.50886 131
64.52898 130
64.54909 132
64.56921 128
64.58932 102
64.60943 136
64.62955 127
64.64966 140
64.66977 149
64.68989 123
64.71 122
64.73012 138
64.75023 155
64.77034 134
64.79046 121
64.81057 132
64.83068 131
64.8508 148
64.87091 124
64.89102 124
64.91114 121
64.93125 111
64.95137 136
64.97148 124
64.99159 122
65.01171 147
65.03182 131
65.05193 133
65.07205 117
65.09216 132
65.11228 132
65.13239 128
65.1525 147
65.17262 157
65.19273 124
65.21284 124
65.23296 121
65.25307 117
65.27319 133
65.2933 137
65.31341 130
65.33353 142
65.35364 155
65.37375 144
65.39387 133
65.41398 167
65.43409 142
65.45421 146
65.47432 133
65.49444 136
65.51455 150
65.53466 147
65.55478 154
65.57489 162
65.595 162
65.61512 178
65.63523 166
65.65535 176
65.67546 219
65.69557 195
65.71569 245
65.7358 275
65.75591 259
65.77603 249
65.79614 224
65.81626 193
65.83637 184
65.85648 171
65.8766 175
65.89671 191
65.91682 196
65.93694 192
65.95705 202
65.97716 177
65.99728 158
66.01739 161
66.03751 127
66.05762 144
66.07773 152
66.09785 145
66.11796 136
66.13807 146
66.15819 149
66.1783 156
66.19842 155
66.21853 148
66.23864 152
66.25876 141
66.27887 135
66.29898 136
66.3191 133
66.33921 161
66.35933 123
66.37944 117
66.39955 156
66.41967 132
66.43978 122
66.45989 146
66.48001 128
66.50012 139
66.52023 137
66.54035 163
66.56046 155
66.58058 141
66.60069 168
66.6208 138
66.64092 144
66.66103 154
66.68114 152
66.70126 146
66.72137 148
66.74149 153
66.7616 154
66.78171 142
66.80183 126
66.82194 162
66.84205 125
66.86217 153
66.88228 177
66.90239 161
66.92251 164
66.94262 165
66.96274 168
66.98285 149
67.00296 159
67.02308 164
67.04319 150
67.0633 155
67.08342 162
67.10353 134
67.12365 159
67.14376 167
67.16387 175
67.18399 190
67.2041 168
67.22421 171
67.24433 176
67.26444 196
67.28456 217
67.30467 193
67.32478 219
67.3449 254
67.36501 248
67.38512 250
67.40524 279
67.42535 274
67.44546 319
67.46558 336
67.48569 367
67.50581 432
67.52592 484
67.54603 520
67.56615 644
67.58626 734
67.60637 903
67.62649 1059
67.6466 1223
67.66672 1369
67.68683 1588
67.70694 1685
67.72706 1680
67.74717 1407
67.76728 1142
67.7874 928
67.80751 893
67.82763 915
67.84774 950
67.86785 1119
67.88797 1142
67.90808 1131
67.92819 1244
67.94831 1088
67.96842 1070
67.98853 1100
68.00865 1229
68.02876 1404
68.04888 1631
68.06899 1804
68.0891 2152
68.10922 2304
68.12933 2366
68.14944 2041
68.16956 1735
68.18967 1609
68.20979 1601
68.2299 1715
68.25001 1928
68.27013 2069
68.29024 2104
68.31035 1988
68.33047 1682
68.35058 1248
68.3707 952
68.39081 816
68.41092 773
68.43104 780
68.45115 725
68.47126 703
68.49138 687
68.51149 558
68.5316 483
68.55172 372
68.57183 295
68.59195 233
68.61206 221
68.63217 214
68.65229 194
68.6724 174
68.69251 178
68.71263 216
68.73274 165
68.75286 186
68.77297 166
68.79308 147
68.8132 153
68.83331 154
68.85342 162
68.87354 178
68.89365 159
68.91376 149
68.93388 170
68.95399 160
68.97411 155
68.99422 133
69.01433 150
69.03445 141
69.05456 157
69.07467 158
69.09479 130
69.1149 132
69.13502 137
69.15513 134
69.17524 157
69.19536 136
69.21547 121
69.23558 134
69.2557 150
69.27581 104
69.29593 148
69.31604 126
69.33615 143
69.35627 146
69.37638 146
69.39649 140
69.41661 133
69.43672 133
69.45683 139
69.47695 128
69.49706 141
69.51718 141
69.53729 143
69.5574 128
69.57752 147
69.59763 125
69.61774 135
69.63786 137
69.65797 135
69.67809 132
69.6982 143
69.71831 136
69.73843 137
69.75854 142
69.77865 143
69.79877 138
69.81888 121
69.839 142
69.85911 137
69.87922 127
69.89934 149
69.91945 137
69.93956 121
69.95968 147
69.97979 121
69.9999 136
70.02002 117
70.04013 140
70.06025 109
70.08036 122
70.10047 146
70.12059 146
70.1407 144
70.16081 126
70.18093 130
70.20104 116
70.22116 155
70.24127 129
70.26138 130
70.2815 143
70.30161 117
70.32172 151
70.34184 127
70.36195 121
70.38207 135
70.40218 139
70.42229 124
70.44241 134
70.46252 119
70.48263 125
70.50275 107
70.52286 135
70.54297 149
70.56309 98
70.5832 119
70.60332 126
70.62343 147
70.64354 135
70.66366 140
70.68377 128
70.70388 122
70.724 126
70.74411 107
70.76423 124
70.78434 134
70.80445 118
70.82457 120
70.84468 138
70.86479 142
70.88491 141
70.90502 132
70.92513 127
70.94525 135
70.96536 162
70.98548 134
71.00559 143
71.0257 117
71.04582 127
71.06593 136
71.08604 134
71.10616 139
71.12627 141
71.14639 100
71.1665 119
71.18661 123
71.20673 114
71.22684 141
71.24695 124
71.26707 128
71.28718 110
71.3073 116
71.32741 148
71.34752 106
71.36764 125
71.38775 121
71.40786 124
71.42798 140
71.44809 127
71.4682 125
71.48832 103
71.50843 130
71.52855 126
71.54866 119
71.56877 121
71.58889 92
71.609 117
71.62911 121
71.64923 129
71.66934 124
71.68946 145
71.70957 129
71.72968 129
71.7498 140
71.76991 151
71.79002 115
71.81014 119
71.83025 116
71.85037 122
71.87048 126
71.89059 115
71.91071 117
71.93082 129
71.95093 120
71.97105 134
71.99116 122
72.01127 122
72.03139 121
72.0515 119
72.07162 141
72.09173 143
72.11184 140
72.13196 134
72.15207 119
72.17218 128
72.1923 128
72.21241 134
72.23253 130
72.25264 141
72.27275 116
72.29287 126
72.31298 134
72.33309 111
72.35321 129
72.37332 135
72.39344 132
72.41355 122
72.43366 122
72.45378 116
72.47389 87
72.494 124
72.51412 135
72.53423 137
72.55434 138
72.57446 124
72.59457 129
72.61469 102
72.6348 145
72.65491 139
72.67503 124
72.69514 126
72.71525 129
72.73537 142
72.75548 149
72.7756 141
72.79571 147
72.81582 123
72.83594 120
72.85605 128
72.87616 133
72.89628 144
72.91639 133
72.9365 122
72.95662 126
72.97673 143
72.99685 141
73.01696 145
73.03707 140
73.05719 168
73.0773 147
73.09741 180
73.11753 179
73.13764 152
73.15776 176
73.17787 146
73.19798 199
73.2181 196
73.23821 227
73.25832 265
73.27844 277
73.29855 310
73.31867 338
73.33878 430
73.35889 475
73.37901 538
73.39912 602
73.41923 651
73.43935 636
73.45946 648
73.47957 547
73.49969 420
73.5198 355
73.53992 265
73.56003 318
73.58014 324
73.60026 360
73.62037 376
73.64048 376
73.6606 390
73.68071 308
73.70083 298
73.72094 212
73.74105 208
73.76117 154
73.78128 155
73.80139 144
73.82151 165
73.84162 132
73.86174 121
73.88185 149
73.90196 133
73.92208 141
73.94219 133
73.9623 133
73.98242 110
74.00253 146
74.02264 148
74.04276 125
74.06287 133
74.08299 119
74.1031 124
74.12321 135
74.14333 138
74.16344 129
74.18355 132
74.20367 138
74.22378 132
74.2439 136
74.26401 149
74.28412 161
74.30424 120
74.32435 120
74.34446 127
74.36458 124
74.38469 139
74.40481 141
74.42492 110
74.44503 102
74.46515 122
74.48526 127
74.50537 144
74.52549 115
74.5456 111
74.56571 132
74.58583 117
74.60594 135
74.62606 121
74.64617 115
74.66628 119
74.6864 116
74.70651 123
74.72662 126
74.74674 145
74.76685 137
74.78697 119
74.80708 118
74.82719 122
74.84731 131
74.86742 121
74.88753 136
74.90765 122
74.92776 135
74.94787 128
74.96799 123
74.9881 118
75.00822 125
