3.00117 19296
3.02128 18425
3.0414 18459
3.06151 17620
3.08162 17229
3.10174 16643
3.12185 16133
3.14197 15906
3.16208 15269
3.18219 15005
3.20231 14497
3.22242 13947
3.24253 13879
3.26265 13174
3.28276 12796
3.30288 12336
3.32299 11912
3.3431 11830
3.36322 11145
3.38333 11044
3.40344 10639
3.42356 10127
3.44367 10261
3.46379 9695
3.4839 9182
3.50401 9085
3.52413 8648
3.54424 8555
3.56435 7990
3.58447 7812
3.60458 7347
3.62469 7311
3.64481 7115
3.66492 6436
3.68504 6326
3.70515 6249
3.72526 5742
3.74538 5879
3.76549 5415
3.7856 5259
3.80572 5140
3.82583 4760
3.84595 4724
3.86606 4340
3.88617 4196
3.90629 4156
3.9264 3998
3.94651 3788
3.96663 3519
3.98674 3527
4.00686 3380
4.02697 3150
4.04708 3168
4.0672 2813
4.08731 2812
4.10742 2715
4.12754 2627
4.14765 2623
4.16776 2334
4.18788 2375
4.20799 2352
4.22811 2165
4.24822 2173
4.26833 1950
4.28845 1941
4.30856 1857
4.32867 1850
4.34879 1836
4.3689 1688
4.38902 1700
4.40913 1771
4.42924 1580
4.44936 1697
4.46947 1547
4.48958 1509
4.5097 1466
4.52981 1480
4.54992 1447
4.57004 1445
4.59015 1325
4.61027 1421
4.63038 1370
4.65049 1329
4.67061 1265
4.69072 1284
4.71083 1294
4.73095 1230
4.75106 1217
4.77118 1131
4.79129 1091
4.8114 1078
4.83152 1134
4.85163 1102
4.87174 1031
4.89186 1035
4.91197 1018
4.93209 964
4.9522 921
4.97231 995
4.99243 923
5.01254 996
5.03265 897
5.05277 941
5.07288 830
5.09299 845
5.11311 858
5.13322 819
5.15334 808
5.17345 805
5.19356 795
5.21368 774
5.23379 795
5.2539 733
5.27402 793
5.29413 683
5.31425 701
5.33436 746
5.35447 691
5.37459 694
5.3947 665
5.41481 710
5.43493 644
5.45504 672
5.47516 639
5.49527 669
5.51538 668
5.5355 620
5.55561 654
5.57572 531
5.59584 594
5.61595 583
5.63606 623
5.65618 598
5.67629 547
5.69641 621
5.71652 590
5.73663 542
5.75675 554
5.77686 597
5.79697 542
5.81709 578
5.8372 543
5.85732 540
5.87743 526
5.89754 526
5.91766 522
5.93777 509
5.95788 498
5.978 517
5.99811 553
6.01823 542
6.03834 485
6.05845 492
6.07857 437
6.09868 538
6.11879 518
6.13891 530
6.15902 497
6.17913 562
6.19925 494
6.21936 498
6.23948 509
6.25959 518
6.2797 525
6.29982 477
6.31993 476
6.34004 482
6.36016 497
6.38027 496
6.40039 512
6.4205 498
6.44061 466
6.46073 466
6.48084 513
6.50095 470
6.52107 511
6.54118 433
6.56129 481
6.58141 496
6.60152 450
6.62164 434
6.64175 455
6.66186 462
6.68198 479
6.70209 475
6.7222 477
6.74232 482
6.76243 498
6.78255 490
6.80266 465
6.82277 487
6.84289 501
6.863 468
6.88311 501
6.90323 506
6.92334 486
6.94346 504
6.96357 511
6.98368 460
7.0038 507
7.02391 491
7.04402 466
7.06414 482
7.08425 462
7.10436 453
7.12448 492
7.14459 467
7.16471 464
7.18482 502
7.20493 491
7.22505 459
7.24516 467
7.26527 477
7.28539 436
7.3055 527
7.32562 479
7.34573 457
7.36584 491
7.38596 487
7.40607 492
7.42618 486
7.4463 480
7.46641 470
7.48653 476
7.50664 440
7.52675 469
7.54687 472
7.56698 476
7.58709 453
7.60721 464
7.62732 478
7.64743 501
7.66755 463
7.68766 425
7.70778 447
7.72789 478
7.748 490
7.76812 459
7.78823 495
7.80834 484
7.82846 447
7.84857 493
7.86869 457
7.8888 448
7.90891 478
7.92903 450
7.94914 457
7.96925 460
7.98937 442
8.00948 461
8.0296 459
8.04971 476
8.06982 463
8.08994 478
8.11005 463
8.13016 475
8.15028 481
8.17039 460
8.1905 475
8.21062 473
8.23073 496
8.25085 520
8.27096 425
8.29107 441
8.31119 474
8.3313 537
8.35141 458
8.37153 458
8.39164 472
8.41176 446
8.43187 475
8.45198 471
8.4721 544
8.49221 458
8.51232 422
8.53244 471
8.55255 476
8.57266 456
8.59278 472
8.61289 500
8.63301 497
8.65312 490
8.67323 483
8.69335 491
8.71346 495
8.73357 456
8.75369 513
8.7738 438
8.79392 456
8.81403 482
8.83414 459
8.85426 496
8.87437 460
8.89448 463
8.9146 492
8.93471 465
8.95483 443
8.97494 470
8.99505 496
9.01517 514
9.03528 492
9.05539 510
9.07551 490
9.09562 503
9.11573 497
9.13585 468
9.15596 494
9.17608 484
9.19619 491
9.2163 480
9.23642 488
9.25653 470
9.27664 467
9.29676 455
9.31687 438
9.33699 504
9.3571 481
9.37721 477
9.39733 468
9.41744 472
9.43755 453
9.45767 459
9.47778 473
9.4979 489
9.51801 483
9.53812 482
9.55824 483
9.57835 505
9.59846 476
9.61858 444
9.63869 487
9.6588 478
9.67892 481
9.69903 520
9.71915 449
9.73926 433
9.75937 480
9.77949 449
9.7996 444
9.81971 523
9.83983 461
9.85994 507
9.88006 419
9.90017 551
9.92028 443
9.9404 508
9.96051 473
9.98062 463
10.00074 489
10.02085 421
10.04097 488
10.06108 477
10.08119 468
10.10131 470
10.12142 474
10.14153 472
10.16165 468
10.18176 513
10.20187 467
10.22199 436
10.2421 480
10.26222 520
10.28233 474
10.30244 482
10.32256 492
10.34267 472
10.36278 464
10.3829 453
10.40301 491
10.42313 440
10.44324 453
10.46335 462
10.48347 477
10.50358 502
10.52369 440
10.54381 438
10.56392 468
10.58403 497
10.60415 507
10.62426 506
10.64438 494
10.66449 484
10.6846 516
10.70472 491
10.72483 499
10.74494 487
10.76506 426
10.78517 498
10.80529 481
10.8254 475
10.84551 515
10.86563 457
10.88574 498
10.90585 465
10.92597 462
10.94608 497
10.9662 483
10.98631 552
11.00642 493
11.02654 472
11.04665 472
11.06676 458
11.08688 441
11.10699 506
11.1271 469
11.14722 469
11.16733 470
11.18745 506
11.20756 531
11.22767 461
11.24779 527
11.2679 493
11.28801 509
11.30813 484
11.32824 521
11.34836 468
11.36847 483
11.38858 518
11.4087 484
11.42881 469
11.44892 502
11.46904 519
11.48915 511
11.50927 537
11.52938 522
11.54949 489
11.56961 508
11.58972 522
11.60983 553
11.62995 521
11.65006 505
11.67017 523
11.69029 494
11.7104 560
11.73052 555
11.75063 540
11.77074 525
11.79086 605
11.81097 560
11.83108 567
11.8512 588
11.87131 598
11.89143 593
11.91154 599
11.93165 616
11.95177 634
11.97188 641
11.99199 629
12.01211 686
12.03222 655
12.05234 699
12.07245 703
12.09256 753
12.11268 751
12.13279 815
12.1529 751
12.17302 804
12.19313 844
12.21324 816
12.23336 892
12.25347 894
12.27359 958
12.2937 972
12.31381 919
12.33393 941
12.35404 956
12.37415 948
12.39427 897
12.41438 854
12.4345 835
12.45461 874
12.47472 759
12.49484 801
12.51495 759
12.53506 671
12.55518 676
12.57529 661
12.5954 596
12.61552 622
12.63563 600
12.65575 583
12.67586 603
12.69597 574
12.71609 563
12.7362 548
12.75631 527
12.77643 491
12.79654 470
12.81666 512
12.83677 497
12.85688 491
12.877 479
12.89711 493
12.91722 503
12.93734 498
12.95745 506
12.97757 493
12.99768 534
13.01779 476
13.03791 452
13.05802 448
13.07813 516
13.09825 496
13.11836 483
13.13847 502
13.15859 480
13.1787 460
13.19882 513
13.21893 474
13.23904 566
13.25916 462
13.27927 488
13.29938 471
13.3195 464
13.33961 505
13.35973 462
13.37984 497
13.39995 487
13.42007 453
13.44018 470
13.46029 419
13.48041 485
13.50052 472
13.52064 478
13.54075 432
13.56086 444
13.58098 419
13.60109 461
13.6212 469
13.64132 461
13.66143 492
13.68154 479
13.70166 446
13.72177 465
13.74189 471
13.762 426
13.78211 455
13.80223 447
13.82234 482
13.84245 466
13.86257 466
13.88268 461
13.9028 452
13.92291 442
13.94302 475
13.96314 489
13.98325 455
14.00336 433
14.02348 467
14.04359 459
14.06371 441
14.08382 466
14.10393 424
14.12405 450
14.14416 438
14.16427 444
14.18439 452
14.2045 410
14.22461 417
14.24473 462
14.26484 457
14.28496 458
14.30507 406
14.32518 475
14.3453 457
14.36541 492
14.38552 465
14.40564 481
14.42575 485
14.44587 437
14.46598 449
14.48609 449
14.50621 439
14.52632 431
14.54643 469
14.56655 469
14.58666 420
14.60677 462
14.62689 461
14.647 449
14.66712 450
14.68723 436
14.70734 468
14.72746 470
14.74757 456
14.76768 483
14.7878 427
14.80791 436
14.82803 419
14.84814 423
14.86825 483
14.88837 451
14.90848 449
14.92859 444
14.94871 427
14.96882 432
14.98894 472
15.00905 409
15.02916 479
15.04928 422
15.06939 456
15.0895 467
15.10962 474
15.12973 419
15.14984 471
15.16996 445
15.19007 453
15.21019 409
15.2303 486
15.25041 460
15.27053 445
15.29064 422
15.31075 434
15.33087 446
15.35098 496
15.3711 451
15.39121 432
15.41132 466
15.43144 470
15.45155 415
15.47166 451
15.49178 434
15.51189 434
15.53201 467
15.55212 463
15.57223 432
15.59235 429
15.61246 433
15.63257 466
15.65269 434
15.6728 424
15.69291 419
15.71303 443
15.73314 409
15.75326 437
15.77337 473
15.79348 457
15.8136 418
15.83371 415
15.85382 459
15.87394 494
15.89405 472
15.91417 431
15.93428 414
15.95439 430
15.97451 438
15.99462 452
16.01473 443
16.03485 476
16.05496 425
16.07508 425
16.09519 450
16.1153 430
16.13542 445
16.15553 412
16.17564 434
16.19576 446
16.21587 394
16.23598 431
16.2561 405
16.27621 420
16.29633 487
16.31644 430
16.33655 394
16.35667 452
16.37678 442
16.39689 427
16.41701 423
16.43712 435
16.45724 475
16.47735 472
16.49746 432
16.51758 404
16.53769 485
16.5578 440
16.57792 476
16.59803 452
16.61814 434
16.63826 409
16.65837 500
16.67849 452
16.6986 429
16.71871 425
16.73883 409
16.75894 452
16.77905 435
16.79917 424
16.81928 483
16.8394 465
16.85951 444
16.87962 388
16.89974 437
16.91985 496
16.93996 463
16.96008 452
16.98019 434
17.00031 465
17.02042 422
17.04053 441
17.06065 452
17.08076 465
17.10087 417
17.12099 427
17.1411 475
17.16121 430
17.18133 459
17.20144 420
17.22156 472
17.24167 447
17.26178 424
17.2819 423
17.30201 450
17.32212 473
17.34224 428
17.36235 453
17.38247 452
17.40258 459
17.42269 429
17.44281 479
17.46292 438
17.48303 430
17.50315 454
17.52326 430
17.54338 459
17.56349 427
17.5836 469
17.60372 453
17.62383 426
17.64394 414
17.66406 456
17.68417 427
17.70428 432
17.7244 430
17.74451 492
17.76463 435
17.78474 443
17.80485 455
17.82497 474
17.84508 483
17.86519 477
17.88531 454
17.90542 470
17.92554 415
17.94565 439
17.96576 435
17.98588 476
18.00599 480
18.0261 486
18.04622 502
18.06633 509
18.08645 487
18.10656 455
18.12667 454
18.14679 426
18.1669 501
18.18701 512
18.20713 563
18.22724 583
18.24735 600
18.26747 566
18.28758 646
18.3077 569
18.32781 597
18.34792 541
18.36804 505
18.38815 492
18.40826 496
18.42838 484
18.44849 496
18.46861 447
18.48872 455
18.50883 441
18.52895 473
18.54906 467
18.56917 455
18.58929 450
18.6094 460
18.62951 456
18.64963 423
18.66974 456
18.68986 447
18.70997 465
18.73008 448
18.7502 476
18.77031 467
18.79042 469
18.81054 463
18.83065 486
18.85077 441
18.87088 452
18.89099 472
18.91111 455
18.93122 421
18.95133 436
18.97145 461
18.99156 473
19.01168 461
19.03179 492
19.0519 421
19.07202 412
19.09213 455
19.11224 466
19.13236 473
19.15247 440
19.17258 466
19.1927 434
19.21281 466
19.23293 487
19.25304 472
19.27315 450
19.29327 497
19.31338 455
19.33349 475
19.35361 478
19.37372 476
19.39384 513
19.41395 504
19.43406 493
19.45418 480
19.47429 471
19.4944 515
19.51452 534
19.53463 508
19.55475 503
19.57486 482
19.59497 511
19.61509 537
19.6352 546
19.65531 589
19.67543 543
19.69554 622
19.71565 612
19.73577 637
19.75588 655
19.776 679
19.79611 854
19.81622 819
19.83634 780
19.85645 779
19.87656 793
19.89668 793
19.91679 884
19.93691 849
19.95702 848
19.97713 815
19.99725 771
20.01736 783
20.03747 762
20.05759 743
20.0777 796
20.09782 858
20.11793 772
20.13804 813
20.15816 765
20.17827 825
20.19838 772
20.2185 821
20.23861 829
20.25872 890
20.27884 800
20.29895 813
20.31907 840
20.33918 789
20.35929 809
20.37941 807
20.39952 740
20.41963 801
20.43975 798
20.45986 831
20.47998 787
20.50009 804
20.5202 768
20.54032 862
20.56043 785
20.58054 794
20.60066 853
20.62077 867
20.64088 855
20.661 954
20.68111 996
20.70123 1197
20.72134 1440
20.74145 1581
20.76157 1895
20.78168 2412
20.80179 2529
20.82191 2632
20.84202 2622
20.86214 2399
20.88225 2021
20.90236 1754
20.92248 1358
20.94259 1178
20.9627 999
20.98282 859
21.00293 828
21.02305 836
21.04316 730
21.06327 746
21.08339 768
21.1035 731
21.12361 722
21.14373 739
21.16384 721
21.18395 698
21.20407 710
21.22418 759
21.2443 701
21.26441 659
21.28452 716
21.30464 670
21.32475 689
21.34486 691
21.36498 708
21.38509 653
21.40521 718
21.42532 703
21.44543 662
21.46555 681
21.48566 682
21.50577 646
21.52589 733
21.546 712
21.56612 657
21.58623 644
21.60634 622
21.62646 594
21.64657 639
21.66668 687
21.6868 641
21.70691 639
21.72702 607
21.74714 608
21.76725 609
21.78737 606
21.80748 632
21.82759 607
21.84771 632
21.86782 607
21.88793 590
21.90805 608
21.92816 604
21.94828 601
21.96839 598
21.9885 625
22.00862 630
22.02873 583
22.04884 576
22.06896 603
22.08907 628
22.10919 646
22.1293 628
22.14941 584
22.16953 569
22.18964 583
22.20975 531
22.22987 591
22.24998 537
22.27009 590
22.29021 601
22.31032 544
22.33044 574
22.35055 605
22.37066 533
22.39078 578
22.41089 579
22.431 585
22.45112 632
22.47123 582
22.49135 553
22.51146 571
22.53157 645
22.55169 572
22.5718 569
22.59191 537
22.61203 553
22.63214 566
22.65225 554
22.67237 590
22.69248 533
22.7126 527
22.73271 581
22.75282 563
22.77294 549
22.79305 545
22.81316 589
22.83328 544
22.85339 594
22.87351 555
22.89362 555
22.91373 497
22.93385 588
22.95396 530
22.97407 547
22.99419 551
23.0143 602
23.03442 557
23.05453 578
23.07464 575
23.09476 590
23.11487 546
23.13498 547
23.1551 522
23.17521 585
23.19532 562
23.21544 571
23.23555 575
23.25567 527
23.27578 559
23.29589 600
23.31601 537
23.33612 546
23.35623 547
23.37635 552
23.39646 501
23.41658 552
23.43669 523
23.4568 577
23.47692 590
23.49703 548
23.51714 611
23.53726 559
23.55737 551
23.57749 571
23.5976 573
23.61771 565
23.63783 566
23.65794 578
23.67805 634
23.69817 579
23.71828 638
23.73839 641
23.75851 670
23.77862 664
23.79874 694
23.81885 666
23.83896 616
23.85908 670
23.87919 700
23.8993 657
23.91942 713
23.93953 668
23.95965 694
23.97976 656
23.99987 678
24.01999 661
24.0401 699
24.06021 684
24.08033 681
24.10044 722
24.12056 716
24.14067 678
24.16078 691
24.1809 688
24.20101 735
24.22112 702
24.24124 676
24.26135 718
24.28146 669
24.30158 700
24.32169 655
24.34181 666
24.36192 651
24.38203 672
24.40215 687
24.42226 668
24.44237 687
24.46249 697
24.4826 677
24.50272 707
24.52283 670
24.54294 718
24.56306 717
24.58317 668
24.60328 754
24.6234 687
24.64351 745
24.66362 786
24.68374 757
24.70385 781
24.72397 832
24.74408 828
24.76419 823
24.78431 868
24.80442 897
24.82453 885
24.84465 899
24.86476 927
24.88488 899
24.90499 856
24.9251 816
24.94522 842
24.96533 813
24.98544 763
25.00556 775
25.02567 732
25.04579 767
25.0659 767
25.08601 720
25.10613 707
25.12624 739
25.14635 685
25.16647 685
25.18658 645
25.20669 637
25.22681 571
25.24692 677
25.26704 658
25.28715 656
25.30726 623
25.32738 640
25.34749 626
25.3676 622
25.38772 597
25.40783 569
25.42795 609
25.44806 556
25.46817 564
25.48829 616
25.5084 602
25.52851 585
25.54863 574
25.56874 585
25.58886 609
25.60897 599
25.62908 585
25.6492 592
25.66931 557
25.68942 590
25.70954 640
25.72965 585
25.74976 582
25.76988 560
25.78999 604
25.81011 615
25.83022 611
25.85033 623
25.87045 623
25.89056 604
25.91067 622
25.93079 637
25.9509 654
25.97102 662
25.99113 620
26.01124 636
26.03136 645
26.05147 677
26.07158 696
26.0917 656
26.11181 660
26.13193 691
26.15204 698
26.17215 745
26.19227 831
26.21238 743
26.23249 727
26.25261 793
26.27272 816
26.29283 918
26.31295 898
26.33306 970
26.35318 1057
26.37329 1142
26.3934 1279
26.41352 1527
26.43363 1841
26.45374 2353
26.47386 2938
26.49397 3825
26.51409 5274
26.5342 6782
26.55431 8204
26.57443 9575
26.59454 10168
26.61465 9863
26.63477 8888
26.65488 7694
26.67499 6039
26.69511 4718
26.71522 3447
26.73534 2435
26.75545 1898
26.77556 1462
26.79568 1253
26.81579 1023
26.8359 935
26.85602 901
26.87613 901
26.89625 893
26.91636 803
26.93647 819
26.95659 770
26.9767 699
26.99681 695
27.01693 611
27.03704 663
27.05716 658
27.07727 673
27.09738 639
27.1175 625
27.13761 557
27.15772 623
27.17784 589
27.19795 594
27.21806 583
27.23818 531
27.25829 599
27.27841 581
27.29852 560
27.31863 566
27.33875 590
27.35886 567
27.37897 531
27.39909 548
27.4192 556
27.43932 587
27.45943 638
27.47954 542
27.49966 548
27.51977 549
27.53988 533
27.56 542
27.58011 550
27.60023 556
27.62034 519
27.64045 566
27.66057 563
27.68068 512
27.70079 540
27.72091 519
27.74102 537
27.76113 507
27.78125 502
27.80136 537
27.82148 520
27.84159 519
27.8617 553
27.88182 552
27.90193 509
27.92204 539
27.94216 515
27.96227 578
27.98239 548
28.0025 481
28.02261 515
28.04273 478
28.06284 528
28.08295 511
28.10307 523
28.12318 518
28.1433 511
28.16341 491
28.18352 482
28.20364 523
28.22375 551
28.24386 484
28.26398 511
28.28409 507
28.3042 501
28.32432 528
28.34443 538
28.36455 570
28.38466 504
28.40477 477
28.42489 514
28.445 474
28.46511 426
28.48523 480
28.50534 511
28.52546 495
28.54557 470
28.56568 469
28.5858 500
28.60591 482
28.62602 527
28.64614 502
28.66625 504
28.68636 513
28.70648 492
28.72659 470
28.74671 482
28.76682 477
28.78693 443
28.80705 507
28.82716 551
28.84727 487
28.86739 506
28.8875 520
28.90762 514
28.92773 481
28.94784 459
28.96796 490
28.98807 494
29.00818 532
29.0283 480
29.04841 508
29.06853 486
29.08864 489
29.10875 491
29.12887 461
29.14898 477
29.16909 489
29.18921 443
29.20932 478
29.22943 461
29.24955 486
29.26966 510
29.28978 502
29.30989 507
29.33 506
29.35012 532
29.37023 503
29.39034 547
29.41046 465
29.43057 484
29.45069 507
29.4708 511
29.49091 501
29.51103 497
29.53114 487
29.55125 516
29.57137 489
29.59148 477
29.6116 509
29.63171 454
29.65182 455
29.67194 520
29.69205 501
29.71216 479
29.73228 541
29.75239 477
29.7725 488
29.79262 491
29.81273 524
29.83285 502
29.85296 457
29.87307 497
29.89319 515
29.9133 487
29.93341 518
29.95353 493
29.97364 496
29.99376 521
30.01387 491
30.03398 506
30.0541 504
30.07421 459
30.09432 496
30.11444 481
30.13455 493
30.15467 490
30.17478 506
30.19489 564
30.21501 512
30.23512 512
30.25523 510
30.27535 499
30.29546 533
30.31557 529
30.33569 526
30.3558 518
30.37592 543
30.39603 466
30.41614 516
30.43626 529
30.45637 485
30.47648 533
30.4966 527
30.51671 480
30.53683 473
30.55694 457
30.57705 524
30.59717 511
30.61728 488
30.63739 495
30.65751 445
30.67762 517
30.69773 466
30.71785 525
30.73796 531
30.75808 481
30.77819 501
30.7983 493
30.81842 456
30.83853 453
30.85864 523
30.87876 502
30.89887 502
30.91899 533
30.9391 468
30.95921 466
30.97933 495
30.99944 460
31.01955 430
31.03967 481
31.05978 464
31.0799 451
31.10001 473
31.12012 454
31.14024 481
31.16035 480
31.18046 500
31.20058 457
31.22069 449
31.2408 482
31.26092 481
31.28103 453
31.30115 465
31.32126 490
31.34137 507
31.36149 452
31.3816 433
31.40171 485
31.42183 460
31.44194 456
31.46206 512
31.48217 468
31.50228 514
31.5224 482
31.54251 460
31.56262 482
31.58274 477
31.60285 440
31.62297 511
31.64308 488
31.66319 508
31.68331 493
31.70342 407
31.72353 493
31.74365 513
31.76376 485
31.78387 468
31.80399 522
31.8241 506
31.84422 527
31.86433 496
31.88444 501
31.90456 474
31.92467 512
31.94478 486
31.9649 480
31.98501 459
32.00513 477
32.02524 512
32.04535 469
32.06547 487
32.08558 498
32.10569 485
32.12581 514
32.14592 513
32.16604 489
32.18615 554
32.20626 533
32.22638 547
32.24649 525
32.2666 516
32.28672 555
32.30683 588
32.32694 601
32.34706 642
32.36717 598
32.38729 615
32.4074 680
32.42751 678
32.44763 689
32.46774 733
32.48785 737
32.50797 737
32.52808 692
32.5482 730
32.56831 704
32.58842 720
32.60854 686
32.62865 693
32.64876 670
32.66888 698
32.68899 671
32.7091 582
32.72922 622
32.74933 688
32.76945 609
32.78956 644
32.80967 636
32.82979 630
32.8499 618
32.87001 693
32.89013 682
32.91024 682
32.93036 713
32.95047 743
32.97058 682
32.9907 774
33.01081 836
33.03092 784
33.05104 827
33.07115 810
33.09127 891
33.11138 924
33.13149 908
33.15161 827
33.17172 888
33.19183 855
33.21195 833
33.23206 858
33.25217 797
33.27229 729
33.2924 788
33.31252 707
33.33263 713
33.35274 717
33.37286 617
33.39297 692
33.41308 648
33.4332 656
33.45331 624
33.47343 598
33.49354 589
33.51365 586
33.53377 563
33.55388 557
33.57399 587
33.59411 584
33.61422 554
33.63434 583
33.65445 525
33.67456 531
33.69468 545
33.71479 534
33.7349 545
33.75502 467
33.77513 481
33.79524 498
33.81536 522
33.83547 514
33.85559 530
33.8757 450
33.89581 509
33.91593 492
33.93604 512
33.95615 528
33.97627 479
33.99638 570
34.0165 517
34.03661 501
34.05672 505
34.07684 460
34.09695 498
34.11706 477
34.13718 480
34.15729 503
34.17741 506
34.19752 442
34.21763 467
34.23775 510
34.25786 482
34.27797 485
34.29809 499
34.3182 489
34.33831 461
34.35843 454
34.37854 527
34.39866 495
34.41877 527
34.43888 462
34.459 518
34.47911 514
34.49922 529
34.51934 500
34.53945 540
34.55957 526
34.57968 527
34.59979 537
34.61991 534
34.64002 534
34.66013 532
34.68025 528
34.70036 556
34.72047 570
34.74059 547
34.7607 593
34.78082 626
34.80093 607
34.82104 592
34.84116 637
34.86127 625
34.88138 623
34.9015 670
34.92161 701
34.94173 713
34.96184 606
34.98195 674
35.00207 639
35.02218 681
35.04229 683
35.06241 709
35.08252 706
35.10264 672
35.12275 740
35.14286 712
35.16298 727
35.18309 798
35.2032 736
35.22332 815
35.24343 841
35.26354 794
35.28366 828
35.30377 753
35.32389 794
35.344 839
35.36411 811
35.38423 781
35.40434 872
35.42445 832
35.44457 818
35.46468 791
35.4848 838
35.50491 857
35.52502 913
35.54514 964
35.56525 965
35.58536 961
35.60548 1035
35.62559 1069
35.64571 1092
35.66582 1004
35.68593 1027
35.70605 1060
35.72616 1070
35.74627 1027
35.76639 986
35.7865 964
35.80661 935
35.82673 905
35.84684 832
35.86696 846
35.88707 810
35.90718 819
35.9273 807
35.94741 727
35.96752 741
35.98764 717
36.00775 723
36.02787 685
36.04798 656
36.06809 724
36.08821 655
36.10832 628
36.12843 644
36.14855 617
36.16866 620
36.18878 592
36.20889 575
36.229 645
36.24912 635
36.26923 650
36.28934 623
36.30946 648
36.32957 682
36.34968 725
36.3698 787
36.38991 879
36.41003 917
36.43014 936
36.45025 1092
36.47037 1178
36.49048 1160
36.51059 1134
36.53071 1085
36.55082 1011
36.57094 973
36.59105 928
36.61116 820
36.63128 756
36.65139 727
36.6715 627
36.69162 604
36.71173 561
36.73184 560
36.75196 602
36.77207 600
36.79219 595
36.8123 596
36.83241 569
36.85253 591
36.87264 555
36.89275 527
36.91287 544
36.93298 601
36.9531 542
36.97321 527
36.99332 551
37.01344 577
37.03355 542
37.05366 535
37.07378 556
37.09389 545
37.11401 566
37.13412 493
37.15423 476
37.17435 584
37.19446 532
37.21457 544
37.23469 528
37.2548 588
37.27491 545
37.29503 530
37.31514 533
37.33526 569
37.35537 568
37.37548 549
37.3956 586
37.41571 535
37.43582 508
37.45594 537
37.47605 557
37.49617 577
37.51628 600
37.53639 575
37.55651 588
37.57662 571
37.59673 562
37.61685 582
37.63696 588
37.65708 570
37.67719 594
37.6973 577
37.71742 567
37.73753 569
37.75764 562
37.77776 610
37.79787 623
37.81798 618
37.8381 553
37.85821 547
37.87833 563
37.89844 567
37.91855 558
37.93867 552
37.95878 605
37.97889 572
37.99901 584
38.01912 559
38.03924 596
38.05935 572
38.07946 604
38.09958 611
38.11969 601
38.1398 639
38.15992 613
38.18003 614
38.20015 555
38.22026 617
38.24037 696
38.26049 610
38.2806 609
38.30071 638
38.32083 637
38.34094 628
38.36105 626
38.38117 676
38.40128 638
38.4214 647
38.44151 642
38.46162 674
38.48174 618
38.50185 660
38.52196 653
38.54208 627
38.56219 612
38.58231 628
38.60242 603
38.62253 606
38.64265 617
38.66276 620
38.68287 586
38.70299 572
38.7231 542
38.74321 618
38.76333 619
38.78344 613
38.80356 570
38.82367 568
38.84378 575
38.8639 538
38.88401 536
38.90412 581
38.92424 567
38.94435 588
38.96447 593
38.98458 550
39.00469 577
39.02481 577
39.04492 588
39.06503 586
39.08515 572
39.10526 570
39.12538 587
39.14549 644
39.1656 566
39.18572 607
39.20583 608
39.22594 611
39.24606 675
39.26617 656
39.28628 735
39.3064 822
39.32651 859
39.34663 913
39.36674 1006
39.38685 1099
39.40697 1113
39.42708 1070
39.44719 1076
39.46731 1005
39.48742 891
39.50754 846
39.52765 827
39.54776 691
39.56788 732
39.58799 669
39.6081 599
39.62822 599
39.64833 537
39.66845 539
39.68856 495
39.70867 539
39.72879 535
39.7489 537
39.76901 564
39.78913 497
39.80924 478
39.82935 483
39.84947 562
39.86958 515
39.8897 535
39.90981 523
39.92992 504
39.95004 587
39.97015 577
39.99026 540
40.01038 534
40.03049 608
40.05061 548
40.07072 603
40.09083 597
40.11095 609
40.13106 650
40.15117 709
40.17129 720
40.1914 812
40.21152 814
40.23163 803
40.25174 839
40.27186 757
40.29197 798
40.31208 753
40.3322 722
40.35231 694
40.37242 661
40.39254 623
40.41265 562
40.43277 565
40.45288 577
40.47299 525
40.49311 561
40.51322 534
40.53333 557
40.55345 571
40.57356 574
40.59368 548
40.61379 544
40.6339 566
40.65402 561
40.67413 578
40.69424 541
40.71436 634
40.73447 537
40.75458 596
40.7747 615
40.79481 586
40.81493 597
40.83504 583
40.85515 658
40.87527 548
40.89538 615
40.91549 628
40.93561 642
40.95572 571
40.97584 598
40.99595 612
41.01606 560
41.03618 546
41.05629 583
41.0764 570
41.09652 546
41.11663 595
41.13675 525
41.15686 583
41.17697 545
41.19709 507
41.2172 518
41.23731 533
41.25743 514
41.27754 508
41.29765 504
41.31777 527
41.33788 517
41.358 489
41.37811 503
41.39822 532
41.41834 510
41.43845 510
41.45856 481
41.47868 482
41.49879 478
41.51891 507
41.53902 492
41.55913 512
41.57925 469
41.59936 467
41.61947 516
41.63959 503
41.6597 497
41.67982 522
41.69993 476
41.72004 459
41.74016 464
41.76027 466
41.78038 464
41.8005 480
41.82061 468
41.84072 482
41.86084 484
41.88095 525
41.90107 491
41.92118 486
41.94129 513
41.96141 485
41.98152 456
42.00163 490
42.02175 497
42.04186 465
42.06198 500
42.08209 498
42.1022 469
42.12232 483
42.14243 528
42.16254 504
42.18266 515
42.20277 517
42.22289 495
42.243 545
42.26311 582
42.28323 628
42.30334 678
42.32345 750
42.34357 760
42.36368 820
42.38379 856
42.40391 882
42.42402 826
42.44414 786
42.46425 723
42.48436 749
42.50448 651
42.52459 656
42.5447 643
42.56482 571
42.58493 584
42.60505 507
42.62516 533
42.64527 474
42.66539 511
42.6855 507
42.70561 498
42.72573 475
42.74584 473
42.76595 455
42.78607 477
42.80618 477
42.8263 489
42.84641 452
42.86652 463
42.88664 466
42.90675 432
42.92686 459
42.94698 486
42.96709 502
42.98721 488
43.00732 507
43.02743 466
43.04755 490
43.06766 460
43.08777 460
43.10789 501
43.128 504
43.14812 457
43.16823 472
43.18834 474
43.20846 453
43.22857 442
43.24868 432
43.2688 485
43.28891 471
43.30902 470
43.32914 474
43.34925 438
43.36937 485
43.38948 519
43.40959 513
43.42971 458
43.44982 452
43.46993 472
43.49005 435
43.51016 437
43.53028 513
43.55039 468
43.5705 433
43.59062 461
43.61073 466
43.63084 475
43.65096 474
43.67107 477
43.69119 454
43.7113 505
43.73141 421
43.75153 472
43.77164 464
43.79175 473
43.81187 474
43.83198 479
43.85209 459
43.87221 469
43.89232 442
43.91244 466
43.93255 484
43.95266 481
43.97278 422
43.99289 477
44.013 500
44.03312 435
44.05323 474
44.07335 478
44.09346 482
44.11357 472
44.13369 482
44.1538 494
44.17391 452
44.19403 502
44.21414 479
44.23426 478
44.25437 461
44.27448 471
44.2946 465
44.31471 432
44.33482 500
44.35494 481
44.37505 479
44.39516 389
44.41528 487
44.43539 440
44.45551 483
44.47562 478
44.49573 474
44.51585 486
44.53596 478
44.55607 438
44.57619 489
44.5963 458
44.61642 465
44.63653 462
44.65664 456
44.67676 439
44.69687 475
44.71698 428
44.7371 441
44.75721 491
44.77732 444
44.79744 466
44.81755 492
44.83767 473
44.85778 467
44.87789 469
44.89801 467
44.91812 448
44.93823 471
44.95835 458
44.97846 457
44.99858 503
45.01869 473
45.0388 443
45.05892 486
45.07903 473
45.09914 484
45.11926 473
45.13937 505
45.15949 476
45.1796 463
45.19971 485
45.21983 469
45.23994 492
45.26005 496
45.28017 512
45.30028 500
45.32039 511
45.34051 531
45.36062 534
45.38074 511
45.40085 484
45.42096 483
45.44108 553
45.46119 533
45.4813 565
45.50142 512
45.52153 541
45.54165 525
45.56176 524
45.58187 523
45.60199 556
45.6221 611
45.64221 617
45.66233 691
45.68244 707
45.70256 734
45.72267 771
45.74278 802
45.7629 704
45.78301 702
45.80312 654
45.82324 649
45.84335 632
45.86346 610
45.88358 605
45.90369 588
45.92381 520
45.94392 566
45.96403 526
45.98415 463
46.00426 540
46.02437 485
46.04449 462
46.0646 498
46.08472 482
46.10483 468
46.12494 471
46.14506 483
46.16517 460
46.18528 489
46.2054 476
46.22551 504
46.24563 464
46.26574 486
46.28585 470
46.30597 484
46.32608 477
46.34619 450
46.36631 463
46.38642 476
46.40653 482
46.42665 466
46.44676 472
46.46688 482
46.48699 479
46.5071 457
46.52722 477
46.54733 482
46.56744 492
46.58756 480
46.60767 433
46.62779 474
46.6479 497
46.66801 462
46.68813 494
46.70824 480
46.72835 479
46.74847 432
46.76858 465
46.78869 470
46.80881 470
46.82892 476
46.84904 468
46.86915 483
46.88926 469
46.90938 462
46.92949 498
46.9496 458
46.96972 486
46.98983 474
47.00995 462
47.03006 470
47.05017 467
47.07029 469
47.0904 474
47.11051 446
47.13063 485
47.15074 441
47.17086 461
47.19097 476
47.21108 481
47.2312 480
47.25131 447
47.27142 480
47.29154 470
47.31165 483
47.33176 469
47.35188 466
47.37199 499
47.39211 474
47.41222 461
47.43233 463
47.45245 460
47.47256 493
47.49267 493
47.51279 497
47.5329 472
47.55302 494
47.57313 520
47.59324 511
47.61336 470
47.63347 476
47.65358 491
47.6737 435
47.69381 473
47.71393 472
47.73404 486
47.75415 448
47.77427 489
47.79438 418
47.81449 428
47.83461 464
47.85472 447
47.87483 438
47.89495 473
47.91506 448
47.93518 471
47.95529 472
47.9754 454
47.99552 519
48.01563 475
48.03574 467
48.05586 515
48.07597 493
48.09609 479
48.1162 477
48.13631 480
48.15643 476
48.17654 485
48.19665 474
48.21677 486
48.23688 487
48.257 487
48.27711 460
48.29722 490
48.31734 463
48.33745 472
48.35756 449
48.37768 449
48.39779 469
48.4179 482
48.43802 482
48.45813 488
48.47825 515
48.49836 497
48.51847 478
48.53859 504
48.5587 535
48.57881 511
48.59893 518
48.61904 542
48.63916 538
48.65927 511
48.67938 551
48.6995 501
48.71961 527
48.73972 531
48.75984 550
48.77995 498
48.80006 569
48.82018 563
48.84029 540
48.86041 515
48.88052 520
48.90063 507
48.92075 544
48.94086 490
48.96097 491
48.98109 513
49.0012 544
49.02132 527
49.04143 489
49.06154 523
49.08166 513
49.10177 531
49.12188 510
49.142 483
49.16211 513
49.18223 522
49.20234 528
49.22245 536
49.24257 564
49.26268 489
49.28279 571
49.30291 585
49.32302 574
49.34313 539
49.36325 572
49.38336 558
49.40348 575
49.42359 576
49.4437 598
49.46382 598
49.48393 599
49.50404 604
49.52416 616
49.54427 560
49.56439 585
49.5845 565
49.60461 594
49.62473 544
49.64484 565
49.66495 569
49.68507 534
49.70518 558
49.7253 582
49.74541 576
49.76552 579
49.78564 569
49.80575 577
49.82586 581
49.84598 618
49.86609 628
49.8862 654
49.90632 653
49.92643 710
49.94655 796
49.96666 887
49.98677 959
50.00689 1099
50.027 1216
50.04711 1424
50.06723 1436
50.08734 1393
50.10746 1359
50.12757 1215
50.14768 1139
50.1678 1138
50.18791 1022
50.20802 1032
50.22814 897
50.24825 825
50.26837 737
50.28848 612
50.30859 661
50.32871 575
50.34882 555
50.36893 503
50.38905 510
50.40916 512
50.42927 467
50.44939 542
50.4695 510
50.48962 476
50.50973 543
50.52984 526
50.54996 522
50.57007 480
50.59018 477
50.6103 466
50.63041 472
50.65053 467
50.67064 463
50.69075 462
50.71087 447
50.73098 485
50.75109 446
50.77121 456
50.79132 496
50.81143 480
50.83155 474
50.85166 477
50.87178 463
50.89189 446
50.912 439
50.93212 474
50.95223 492
50.97234 448
50.99246 471
51.01257 473
51.03269 452
51.0528 447
51.07291 436
51.09303 460
51.11314 447
51.13325 434
51.15337 456
51.17348 441
51.1936 439
51.21371 451
51.23382 427
51.25394 454
51.27405 461
51.29416 459
51.31428 433
51.33439 438
51.3545 463
51.37462 459
51.39473 432
51.41485 456
51.43496 428
51.45507 477
51.47519 449
51.4953 440
51.51541 456
51.53553 457
51.55564 422
51.57576 470
51.59587 453
51.61598 471
51.6361 437
51.65621 451
51.67632 439
51.69644 438
51.71655 361
51.73667 442
51.75678 428
51.77689 458
51.79701 429
51.81712 437
51.83723 449
51.85735 488
51.87746 449
51.89757 434
51.91769 418
51.9378 455
51.95792 445
51.97803 427
51.99814 456
52.01826 447
52.03837 436
52.05848 426
52.0786 463
52.09871 492
52.11883 489
52.13894 476
52.15905 453
52.17917 492
52.19928 449
52.21939 474
52.23951 447
52.25962 486
52.27974 437
52.29985 443
52.31996 476
52.34008 459
52.36019 463
52.3803 439
52.40042 444
52.42053 470
52.44064 430
52.46076 464
52.48087 474
52.50099 432
52.5211 434
52.54121 397
52.56133 460
52.58144 470
52.60155 469
52.62167 466
52.64178 442
52.6619 481
52.68201 498
52.70212 455
52.72224 480
52.74235 498
52.76246 448
52.78258 475
52.80269 474
52.8228 471
52.84292 489
52.86303 487
52.88315 493
52.90326 486
52.92337 519
52.94349 483
52.9636 502
52.98371 499
53.00383 493
53.02394 536
53.04406 538
53.06417 545
53.08428 551
53.1044 556
53.12451 520
53.14462 524
53.16474 557
53.18485 510
53.20497 538
53.22508 493
53.24519 530
53.26531 546
53.28542 530
53.30553 498
53.32565 480
53.34576 512
53.36587 494
53.38599 520
53.4061 465
53.42622 490
53.44633 543
53.46644 497
53.48656 493
53.50667 523
53.52678 496
53.5469 510
53.56701 531
53.58713 547
53.60724 515
53.62735 500
53.64747 484
53.66758 539
53.68769 534
53.70781 512
53.72792 518
53.74804 532
53.76815 566
53.78826 570
53.80838 537
53.82849 596
53.8486 538
53.86872 576
53.88883 567
53.90894 609
53.92906 622
53.94917 620
53.96929 676
53.9894 635
54.00951 649
54.02963 598
54.04974 693
54.06985 649
54.08997 659
54.11008 617
54.1302 661
54.15031 643
54.17042 639
54.19054 655
54.21065 692
54.23076 676
54.25088 676
54.27099 678
54.29111 615
54.31122 633
54.33133 616
54.35145 557
54.37156 598
54.39167 589
54.41179 602
54.4319 593
54.45201 565
54.47213 568
54.49224 613
54.51236 579
54.53247 602
54.55258 584
54.5727 610
54.59281 617
54.61292 596
54.63304 595
54.65315 589
54.67327 621
54.69338 643
54.71349 648
54.73361 700
54.75372 740
54.77383 756
54.79395 762
54.81406 792
54.83417 811
54.85429 733
54.8744 713
54.89452 677
54.91463 674
54.93474 665
54.95486 663
54.97497 658
54.99508 686
55.0152 616
55.03531 594
55.05543 564
55.07554 561
55.09565 548
55.11577 602
55.13588 578
55.15599 546
55.17611 538
55.19622 619
55.21634 632
55.23645 642
55.25656 655
55.27668 638
55.29679 625
55.3169 590
55.33702 597
55.35713 613
55.37724 557
55.39736 581
55.41747 565
55.43759 586
55.4577 573
55.47781 493
55.49793 586
55.51804 476
55.53815 523
55.55827 496
55.57838 507
55.5985 447
55.61861 509
55.63872 517
55.65884 500
55.67895 500
55.69906 489
55.71918 470
55.73929 476
55.75941 450
55.77952 498
55.79963 524
55.81975 521
55.83986 501
55.85997 449
55.88009 490
55.9002 507
55.92031 497
55.94043 489
55.96054 468
55.98066 513
56.00077 452
56.02088 519
56.041 489
56.06111 489
56.08122 480
56.10134 498
56.12145 476
56.14157 514
56.16168 506
56.18179 501
56.20191 496
56.22202 482
56.24213 478
56.26225 473
56.28236 515
56.30248 456
56.32259 472
56.3427 481
56.36282 475
56.38293 499
56.40304 525
56.42316 471
56.44327 484
56.46338 474
56.4835 471
56.50361 507
56.52373 471
56.54384 478
56.56395 501
56.58407 484
56.60418 464
56.62429 499
56.64441 459
56.66452 466
56.68464 483
56.70475 487
56.72486 474
56.74498 459
56.76509 499
56.7852 481
56.80532 481
56.82543 468
56.84554 478
56.86566 506
56.88577 494
56.90589 465
56.926 476
56.94611 455
56.96623 466
56.98634 474
57.00645 517
57.02657 481
57.04668 447
57.0668 478
57.08691 491
57.10702 483
57.12714 460
57.14725 491
57.16736 471
57.18748 520
57.20759 479
57.22771 473
57.24782 480
57.26793 472
57.28805 499
57.30816 519
57.32827 518
57.34839 530
57.3685 499
57.38861 499
57.40873 497
57.42884 495
57.44896 491
57.46907 461
57.48918 472
57.5093 506
57.52941 497
57.54952 524
57.56964 485
57.58975 482
57.60987 459
57.62998 495
57.65009 498
57.67021 499
57.69032 511
57.71043 496
57.73055 431
57.75066 497
57.77078 491
57.79089 462
57.811 492
57.83112 466
57.85123 434
57.87134 484
57.89146 470
57.91157 473
57.93168 453
57.9518 441
57.97191 511
57.99203 488
58.01214 454
58.03225 493
58.05237 479
58.07248 459
58.09259 454
58.11271 455
58.13282 461
58.15294 468
58.17305 477
58.19316 453
58.21328 408
58.23339 470
58.2535 476
58.27362 443
58.29373 464
58.31385 436
58.33396 466
58.35407 443
58.37419 447
58.3943 452
58.41441 461
58.43453 441
58.45464 463
58.47475 462
58.49487 447
58.51498 408
58.5351 480
58.55521 484
58.57532 440
58.59544 464
58.61555 433
58.63566 464
58.65578 405
58.67589 453
58.69601 469
58.71612 425
58.73623 472
58.75635 449
58.77646 479
58.79657 440
58.81669 409
58.8368 465
58.85691 472
58.87703 467
58.89714 406
58.91726 447
58.93737 469
58.95748 466
58.9776 470
58.99771 470
59.01782 423
59.03794 422
59.05805 451
59.07817 466
59.09828 410
59.11839 427
59.13851 466
59.15862 446
59.17873 446
59.19885 406
59.21896 437
59.23908 462
59.25919 497
59.2793 467
59.29942 436
59.31953 423
59.33964 470
59.35976 457
59.37987 451
59.39998 465
59.4201 472
59.44021 468
59.46033 477
59.48044 521
59.50055 465
59.52067 492
59.54078 476
59.56089 494
59.58101 515
59.60112 493
59.62124 482
59.64135 530
59.66146 543
59.68158 524
59.70169 597
59.7218 601
59.74192 627
59.76203 700
59.78215 682
59.80226 781
59.82237 887
59.84249 931
59.8626 1028
59.88271 1006
59.90283 1007
59.92294 948
59.94305 875
59.96317 818
59.98328 811
60.0034 784
60.02351 801
60.04362 747
60.06374 750
60.08385 685
60.10396 641
60.12408 615
60.14419 557
60.16431 549
60.18442 530
60.20453 474
60.22465 471
60.24476 488
60.26487 481
60.28499 468
60.3051 477
60.32522 438
60.34533 481
60.36544 455
60.38556 440
60.40567 463
60.42578 436
60.4459 444
60.46601 479
60.48612 478
60.50624 419
60.52635 424
60.54647 438
60.56658 455
60.58669 453
60.60681 426
60.62692 435
60.64703 411
60.66715 475
60.68726 421
60.70738 444
60.72749 426
60.7476 437
60.76772 416
60.78783 442
60.80794 459
60.82806 481
60.84817 459
60.86828 439
60.8884 424
60.90851 481
60.92863 434
60.94874 435
60.96885 463
60.98897 426
61.00908 450
61.02919 473
61.04931 439
61.06942 466
61.08954 448
61.10965 452
61.12976 473
61.14988 460
61.16999 464
61.1901 459
61.21022 448
61.23033 428
61.25045 473
61.27056 491
61.29067 511
61.31079 462
61.3309 464
61.35101 437
61.37113 500
61.39124 477
61.41135 448
61.43147 496
61.45158 469
61.4717 432
61.49181 503
61.51192 471
61.53204 453
61.55215 503
61.57226 501
61.59238 487
61.61249 508
61.63261 475
61.65272 504
61.67283 465
61.69295 496
61.71306 488
61.73317 491
61.75329 481
61.7734 477
61.79352 465
61.81363 516
61.83374 501
61.85386 499
61.87397 494
61.89408 544
61.9142 515
61.93431 503
61.95442 544
61.97454 551
61.99465 538
62.01477 534
62.03488 572
62.05499 580
62.07511 550
62.09522 596
62.11533 601
62.13545 575
62.15556 612
62.17568 617
62.19579 597
62.2159 626
62.23602 662
62.25613 640
62.27624 645
62.29636 678
62.31647 670
62.33659 637
62.3567 689
62.37681 618
62.39693 646
62.41704 661
62.43715 608
62.45727 625
62.47738 610
62.49749 619
62.51761 637
62.53772 623
62.55784 580
62.57795 545
62.59806 554
62.61818 588
62.63829 550
62.6584 571
62.67852 520
62.69863 569
62.71875 557
62.73886 509
62.75897 559
62.77909 556
62.7992 545
62.81931 536
62.83943 538
62.85954 506
62.87965 525
62.89977 535
62.91988 529
62.94 522
62.96011 502
62.98022 541
63.00034 484
63.02045 524
63.04056 495
63.06068 544
63.08079 537
63.10091 557
63.12102 516
63.14113 562
63.16125 526
63.18136 522
63.20147 543
63.22159 550
63.2417 533
63.26182 530
63.28193 527
63.30204 537
63.32216 522
63.34227 510
63.36238 534
63.3825 509
63.40261 517
63.42272 513
63.44284 467
63.46295 478
63.48307 473
63.50318 483
63.52329 520
63.54341 500
63.56352 515
63.58363 487
63.60375 507
63.62386 490
63.64398 503
63.66409 516
63.6842 528
63.70432 503
63.72443 507
63.74454 522
63.76466 554
63.78477 514
63.80489 576
63.825 567
63.84511 587
63.86523 613
63.88534 584
63.90545 634
63.92557 610
63.94568 614
63.96579 655
63.98591 644
64.00602 587
64.02614 642
64.04625 642
64.06636 644
64.08648 639
64.10659 638
64.1267 619
64.14682 600
64.16693 596
64.18705 615
64.20716 602
64.22727 566
64.24739 571
64.2675 541
64.28761 506
64.30773 519
64.32784 525
64.34796 457
64.36807 513
64.38818 510
64.4083 518
64.42841 474
64.44852 499
64.46864 504
64.48875 488
64.50886 458
64.52898 478
64.54909 436
64.56921 442
64.58932 440
64.60943 439
64.62955 467
64.64966 421
64.66977 474
64.68989 473
64.71 420
64.73012 460
64.75023 446
64.77034 458
64.79046 464
64.81057 414
64.83068 436
64.8508 465
64.87091 410
64.89102 410
64.91114 469
64.93125 445
64.95137 443
64.97148 419
64.99159 446
65.01171 398
65.03182 441
65.05193 487
65.07205 405
65.09216 393
65.11228 443
65.13239 455
65.1525 450
65.17262 456
65.19273 465
65.21284 428
65.23296 409
65.25307 429
65.27319 418
65.2933 447
65.31341 410
65.33353 445
65.35364 447
65.37375 436
65.39387 453
65.41398 422
65.43409 431
65.45421 425
65.47432 471
65.49444 410
65.51455 437
65.53466 415
65.55478 452
65.57489 433
65.595 439
65.61512 487
65.63523 437
65.65535 461
65.67546 441
65.69557 446
65.71569 445
65.7358 449
65.75591 456
65.77603 466
65.79614 427
65.81626 460
65.83637 424
65.85648 442
65.8766 458
65.89671 406
65.91682 450
65.93694 450
65.95705 443
65.97716 424
65.99728 418
66.01739 456
66.03751 426
66.05762 421
66.07773 390
66.09785 414
66.11796 425
66.13807 378
66.15819 433
66.1783 424
66.19842 413
66.21853 411
66.23864 410
66.25876 435
66.27887 423
66.29898 421
66.3191 474
66.33921 436
66.35933 444
66.37944 440
66.39955 416
66.41967 453
66.43978 401
66.45989 409
66.48001 407
66.50012 456
66.52023 419
66.54035 426
66.56046 450
66.58058 431
66.60069 432
66.6208 427
66.64092 452
66.66103 419
66.68114 396
66.70126 454
66.72137 420
66.74149 445
66.7616 421
66.78171 427
66.80183 442
66.82194 432
66.84205 447
66.86217 438
66.88228 406
66.90239 420
66.92251 421
66.94262 449
66.96274 411
66.98285 402
67.00296 416
67.02308 438
67.04319 415
67.0633 403
67.08342 428
67.10353 451
67.12365 427
67.14376 455
67.16387 440
67.18399 455
67.2041 454
67.22421 461
67.24433 457
67.26444 425
67.28456 449
67.30467 434
67.32478 447
67.3449 463
67.36501 437
67.38512 467
67.40524 493
67.42535 485
67.44546 488
67.46558 492
67.48569 522
67.50581 542
67.52592 519
67.54603 577
67.56615 600
67.58626 636
67.60637 690
67.62649 726
67.6466 785
67.66672 788
67.68683 716
67.70694 733
67.72706 700
67.74717 666
67.76728 659
67.7874 625
67.80751 636
67.82763 674
67.84774 669
67.86785 653
67.88797 694
67.90808 657
67.92819 706
67.94831 668
67.96842 757
67.98853 764
68.00865 761
68.02876 827
68.04888 896
68.06899 888
68.0891 905
68.10922 857
68.12933 848
68.14944 852
68.16956 841
68.18967 811
68.20979 798
68.2299 883
68.25001 827
68.27013 811
68.29024 769
68.31035 710
68.33047 698
68.35058 621
68.3707 622
68.39081 629
68.41092 586
68.43104 583
68.45115 578
68.47126 483
68.49138 532
68.51149 487
68.5316 453
68.55172 485
68.57183 448
68.59195 470
68.61206 454
68.63217 434
68.65229 454
68.6724 425
68.69251 447
68.71263 421
68.73274 412
68.75286 400
68.77297 473
68.79308 413
68.8132 402
68.83331 408
68.85342 434
68.87354 411
68.89365 452
68.91376 459
68.93388 421
68.95399 451
68.97411 397
68.99422 398
69.01433 402
69.03445 425
69.05456 406
69.07467 437
69.09479 424
69.1149 452
69.13502 432
69.15513 409
69.17524 418
69.19536 413
69.21547 423
69.23558 434
69.2557 408
69.27581 427
69.29593 387
69.31604 448
69.33615 433
69.35627 395
69.37638 439
69.39649 450
69.41661 430
69.43672 421
69.45683 435
69.47695 470
69.49706 426
69.51718 442
69.53729 451
69.5574 442
69.57752 457
69.59763 433
69.61774 440
69.63786 432
69.65797 400
69.67809 410
69.6982 419
69.71831 438
69.73843 484
69.75854 414
69.77865 416
69.79877 424
69.81888 446
69.839 442
69.85911 404
69.87922 422
69.89934 404
69.91945 425
69.93956 434
69.95968 424
69.97979 429
69.9999 430
70.02002 412
70.04013 466
70.06025 445
70.08036 421
70.10047 415
70.12059 446
70.1407 447
70.16081 455
70.18093 421
70.20104 414
70.22116 446
70.24127 428
70.26138 420
70.2815 425
70.30161 445
70.32172 406
70.34184 454
70.36195 418
70.38207 413
70.40218 412
70.42229 414
70.44241 430
70.46252 422
70.48263 411
70.50275 430
70.52286 460
70.54297 410
70.56309 435
70.5832 409
70.60332 422
70.62343 420
70.64354 428
70.66366 428
70.68377 406
70.70388 420
70.724 432
70.74411 399
70.76423 417
70.78434 396
70.80445 405
70.82457 385
70.84468 398
70.86479 407
70.88491 373
70.90502 406
70.92513 417
70.94525 419
70.96536 388
70.98548 411
71.00559 404
71.0257 375
71.04582 385
71.06593 405
71.08604 410
71.10616 407
71.12627 429
71.14639 450
71.1665 435
71.18661 403
71.20673 399
71.22684 431
71.24695 399
71.26707 420
71.28718 425
71.3073 405
71.32741 395
71.34752 427
71.36764 434
71.38775 390
71.40786 399
71.42798 403
71.44809 427
71.4682 399
71.48832 434
71.50843 437
71.52855 422
71.54866 445
71.56877 446
71.58889 447
71.609 427
71.62911 407
71.64923 402
71.66934 413
71.68946 422
71.70957 451
71.72968 440
71.7498 464
71.76991 430
71.79002 436
71.81014 400
71.83025 422
71.85037 440
71.87048 431
71.89059 424
71.91071 447
71.93082 413
71.95093 460
71.97105 455
71.99116 431
72.01127 440
72.03139 460
72.0515 431
72.07162 470
72.09173 425
72.11184 438
72.13196 420
72.15207 460
72.17218 437
72.1923 406
72.21241 407
72.23253 428
72.25264 428
72.27275 437
72.29287 406
72.31298 443
72.33309 377
72.35321 426
72.37332 419
72.39344 413
72.41355 419
72.43366 419
72.45378 414
72.47389 425
72.494 390
72.51412 419
72.53423 410
72.55434 401
72.57446 393
72.59457 418
72.61469 441
72.6348 475
72.65491 413
72.67503 407
72.69514 426
72.71525 402
72.73537 386
72.75548 438
72.7756 433
72.79571 394
72.81582 369
72.83594 398
72.85605 412
72.87616 435
72.89628 409
72.91639 384
72.9365 457
72.95662 397
72.97673 392
72.99685 402
73.01696 424
73.03707 406
73.05719 395
73.0773 414
73.09741 408
73.11753 412
73.13764 422
73.15776 428
73.17787 430
73.19798 437
73.2181 462
73.23821 475
73.25832 487
73.27844 506
73.29855 458
73.31867 512
73.33878 513
73.35889 565
73.37901 531
73.39912 512
73.41923 552
73.43935 496
73.45946 544
73.47957 503
73.49969 500
73.5198 472
73.53992 461
73.56003 499
73.58014 480
73.60026 447
73.62037 447
73.64048 509
73.6606 459
73.68071 444
73.70083 449
73.72094 404
73.74105 442
73.76117 437
73.78128 413
73.80139 420
73.82151 417
73.84162 391
73.86174 374
73.88185 437
73.90196 380
73.92208 377
73.94219 439
73.9623 420
73.98242 432
74.00253 397
74.02264 396
74.04276 415
74.06287 424
74.08299 427
74.1031 428
74.12321 401
74.14333 438
74.16344 405
74.18355 440
74.20367 432
74.22378 425
74.2439 420
74.26401 385
74.28412 457
74.30424 376
74.32435 389
74.34446 442
74.36458 406
74.38469 404
74.40481 381
74.42492 417
74.44503 404
74.46515 404
74.48526 449
74.50537 427
74.52549 430
74.5456 401
74.56571 413
74.58583 386
74.60594 416
74.62606 416
74.64617 443
74.66628 378
74.6864 380
74.70651 392
74.72662 420
74.74674 414
74.76685 411
74.78697 395
74.80708 396
74.82719 416
74.84731 400
74.86742 427
74.88753 406
74.90765 405
74.92776 440
74.94787 453
74.96799 396
74.9881 378
75.00822 376
