3.00117 21680
3.02128 21614
3.0414 20985
3.06151 20180
3.08162 20135
3.10174 19101
3.12185 18579
3.14197 18377
3.16208 17419
3.18219 17443
3.20231 16241
3.22242 16208
3.24253 15700
3.26265 14922
3.28276 14837
3.30288 14515
3.32299 14059
3.3431 13362
3.36322 12910
3.38333 12602
3.40344 12039
3.42356 11680
3.44367 11406
3.46379 10857
3.4839 10619
3.50401 10116
3.52413 9768
3.54424 9482
3.56435 8950
3.58447 8793
3.60458 8304
3.62469 8123
3.64481 7788
3.66492 7456
3.68504 7227
3.70515 6677
3.72526 6666
3.74538 6603
3.76549 5987
3.7856 5858
3.80572 5685
3.82583 5424
3.84595 5240
3.86606 4868
3.88617 4741
3.90629 4512
3.9264 4384
3.94651 4115
3.96663 3883
3.98674 3788
4.00686 3552
4.02697 3502
4.04708 3441
4.0672 3056
4.08731 3000
4.10742 2888
4.12754 2776
4.14765 2725
4.16776 2522
4.18788 2377
4.20799 2264
4.22811 2280
4.24822 2225
4.26833 1984
4.28845 1979
4.30856 1832
4.32867 1818
4.34879 1811
4.3689 1659
4.38902 1674
4.40913 1511
4.42924 1632
4.44936 1598
4.46947 1339
4.48958 1394
4.5097 1333
4.52981 1283
4.54992 1402
4.57004 1219
4.59015 1329
4.61027 1216
4.63038 1229
4.65049 1112
4.67061 1067
4.69072 1137
4.71083 1050
4.73095 1063
4.75106 1001
4.77118 934
4.79129 908
4.8114 873
4.83152 882
4.85163 911
4.87174 821
4.89186 813
4.91197 862
4.93209 843
4.9522 822
4.97231 764
4.99243 772
5.01254 718
5.03265 711
5.05277 741
5.07288 688
5.09299 660
5.11311 638
5.13322 621
5.15334 613
5.17345 574
5.19356 619
5.21368 618
5.23379 590
5.2539 573
5.27402 492
5.29413 488
5.31425 558
5.33436 506
5.35447 539
5.37459 462
5.3947 447
5.41481 464
5.43493 468
5.45504 435
5.47516 444
5.49527 414
5.51538 416
5.5355 388
5.55561 343
5.57572 376
5.59584 383
5.61595 390
5.63606 375
5.65618 350
5.67629 385
5.69641 331
5.71652 344
5.73663 359
5.75675 312
5.77686 348
5.79697 287
5.81709 314
5.8372 332
5.85732 293
5.87743 311
5.89754 266
5.91766 285
5.93777 253
5.95788 323
5.978 227
5.99811 263
6.01823 265
6.03834 264
6.05845 247
6.07857 293
6.09868 293
6.11879 284
6.13891 240
6.15902 253
6.17913 265
6.19925 289
6.21936 250
6.23948 256
6.25959 264
6.2797 219
6.29982 228
6.31993 262
6.34004 224
6.36016 226
6.38027 215
6.40039 207
6.4205 254
6.44061 247
6.46073 255
6.48084 242
6.50095 231
6.52107 231
6.54118 209
6.56129 221
6.58141 245
6.60152 214
6.62164 223
6.64175 249
6.66186 224
6.68198 206
6.70209 199
6.7222 232
6.74232 204
6.76243 206
6.78255 218
6.80266 226
6.82277 255
6.84289 221
6.863 218
6.88311 242
6.90323 248
6.92334 196
6.94346 219
6.96357 210
6.98368 216
7.0038 200
7.02391 208
7.04402 198
7.06414 225
7.08425 207
7.10436 220
7.12448 199
7.14459 219
7.16471 209
7.18482 226
7.20493 226
7.22505 206
7.24516 236
7.26527 198
7.28539 242
7.3055 229
7.32562 188
7.34573 213
7.36584 212
7.38596 222
7.40607 245
7.42618 241
7.4463 221
7.46641 228
7.48653 212
7.50664 225
7.52675 186
7.54687 225
7.56698 225
7.58709 229
7.60721 237
7.62732 238
7.64743 254
7.66755 207
7.68766 211
7.70778 227
7.72789 239
7.748 226
7.76812 248
7.78823 214
7.80834 233
7.82846 219
7.84857 240
7.86869 223
7.8888 229
7.90891 196
7.92903 245
7.94914 206
7.96925 250
7.98937 260
8.00948 223
8.0296 231
8.04971 247
8.06982 199
8.08994 235
8.11005 223
8.13016 215
8.15028 233
8.17039 232
8.1905 244
8.21062 247
8.23073 207
8.25085 235
8.27096 221
8.29107 225
8.31119 233
8.3313 246
8.35141 226
8.37153 244
8.39164 229
8.41176 225
8.43187 248
8.45198 245
8.4721 267
8.49221 239
8.51232 224
8.53244 243
8.55255 235
8.57266 240
8.59278 268
8.61289 239
8.63301 250
8.65312 212
8.67323 247
8.69335 250
8.71346 231
8.73357 254
8.75369 259
8.7738 235
8.79392 239
8.81403 271
8.83414 242
8.85426 227
8.87437 250
8.89448 270
8.9146 260
8.93471 234
8.95483 233
8.97494 281
8.99505 256
9.01517 268
9.03528 221
9.05539 250
9.07551 264
9.09562 253
9.11573 257
9.13585 254
9.15596 230
9.17608 248
9.19619 197
9.2163 226
9.23642 242
9.25653 244
9.27664 236
9.29676 227
9.31687 243
9.33699 264
9.3571 236
9.37721 215
9.39733 261
9.41744 235
9.43755 235
9.45767 254
9.47778 251
9.4979 216
9.51801 257
9.53812 256
9.55824 243
9.57835 221
9.59846 243
9.61858 203
9.63869 252
9.6588 232
9.67892 237
9.69903 240
9.71915 243
9.73926 264
9.75937 230
9.77949 255
9.7996 212
9.81971 256
9.83983 250
9.85994 241
9.88006 260
9.90017 239
9.92028 243
9.9404 228
9.96051 268
9.98062 237
10.00074 255
10.02085 227
10.04097 245
10.06108 214
10.08119 216
10.10131 237
10.12142 246
10.14153 224
10.16165 213
10.18176 234
10.20187 231
10.22199 219
10.2421 233
10.26222 246
10.28233 223
10.30244 232
10.32256 249
10.34267 239
10.36278 247
10.3829 219
10.40301 228
10.42313 224
10.44324 231
10.46335 242
10.48347 260
10.50358 254
10.52369 226
10.54381 227
10.56392 231
10.58403 267
10.60415 262
10.62426 218
10.64438 233
10.66449 260
10.6846 232
10.70472 204
10.72483 241
10.74494 213
10.76506 226
10.78517 227
10.80529 227
10.8254 205
10.84551 231
10.86563 266
10.88574 264
10.90585 270
10.92597 223
10.94608 223
10.9662 251
10.98631 221
11.00642 267
11.02654 231
11.04665 251
11.06676 265
11.08688 260
11.10699 241
11.1271 241
11.14722 232
11.16733 248
11.18745 230
11.20756 243
11.22767 218
11.24779 245
11.2679 262
11.28801 257
11.30813 215
11.32824 203
11.34836 240
11.36847 228
11.38858 248
11.4087 256
11.42881 266
11.44892 199
11.46904 226
11.48915 217
11.50927 235
11.52938 219
11.54949 227
11.56961 238
11.58972 265
11.60983 232
11.62995 220
11.65006 252
11.67017 256
11.69029 270
11.7104 275
11.73052 314
11.75063 271
11.77074 261
11.79086 242
11.81097 246
11.83108 229
11.8512 244
11.87131 293
11.89143 276
11.91154 245
11.93165 258
11.95177 257
11.97188 257
11.99199 270
12.01211 288
12.03222 291
12.05234 284
12.07245 295
12.09256 315
12.11268 319
12.13279 346
12.1529 339
12.17302 360
12.19313 304
12.21324 330
12.23336 358
12.25347 370
12.27359 378
12.2937 365
12.31381 389
12.33393 398
12.35404 376
12.37415 373
12.39427 338
12.41438 349
12.4345 329
12.45461 354
12.47472 316
12.49484 292
12.51495 287
12.53506 271
12.55518 243
12.57529 254
12.5954 255
12.61552 293
12.63563 264
12.65575 251
12.67586 239
12.69597 252
12.71609 234
12.7362 228
12.75631 246
12.77643 223
12.79654 263
12.81666 243
12.83677 245
12.85688 227
12.877 232
12.89711 234
12.91722 253
12.93734 255
12.95745 215
12.97757 233
12.99768 219
13.01779 240
13.03791 216
13.05802 234
13.07813 236
13.09825 250
13.11836 243
13.13847 252
13.15859 256
13.1787 237
13.19882 269
13.21893 254
13.23904 247
13.25916 244
13.27927 223
13.29938 233
13.3195 248
13.33961 245
13.35973 224
13.37984 236
13.39995 214
13.42007 251
13.44018 209
13.46029 247
13.48041 215
13.50052 233
13.52064 224
13.54075 234
13.56086 251
13.58098 255
13.60109 275
13.6212 284
13.64132 301
13.66143 260
13.68154 303
13.70166 250
13.72177 246
13.74189 228
13.762 216
13.78211 234
13.80223 199
13.82234 217
13.84245 212
13.86257 160
13.88268 219
13.9028 213
13.92291 217
13.94302 228
13.96314 252
13.98325 204
14.00336 227
14.02348 206
14.04359 198
14.06371 213
14.08382 224
14.10393 176
14.12405 197
14.14416 187
14.16427 190
14.18439 237
14.2045 208
14.22461 230
14.24473 195
14.26484 220
14.28496 221
14.30507 207
14.32518 197
14.3453 189
14.36541 219
14.38552 209
14.40564 222
14.42575 226
14.44587 221
14.46598 211
14.48609 215
14.50621 218
14.52632 211
14.54643 208
14.56655 192
14.58666 237
14.60677 199
14.62689 219
14.647 229
14.66712 222
14.68723 224
14.70734 213
14.72746 207
14.74757 181
14.76768 221
14.7878 194
14.80791 205
14.82803 228
14.84814 224
14.86825 231
14.88837 255
14.90848 219
14.92859 248
14.94871 241
14.96882 234
14.98894 218
15.00905 231
15.02916 270
15.04928 248
15.06939 234
15.0895 248
15.10962 251
15.12973 246
15.14984 256
15.16996 238
15.19007 219
15.21019 214
15.2303 184
15.25041 245
15.27053 222
15.29064 229
15.31075 219
15.33087 207
15.35098 215
15.3711 225
15.39121 197
15.41132 185
15.43144 189
15.45155 181
15.47166 215
15.49178 202
15.51189 199
15.53201 198
15.55212 172
15.57223 212
15.59235 227
15.61246 223
15.63257 187
15.65269 233
15.6728 183
15.69291 213
15.71303 207
15.73314 206
15.75326 182
15.77337 196
15.79348 199
15.8136 182
15.83371 188
15.85382 199
15.87394 205
15.89405 210
15.91417 203
15.93428 187
15.95439 178
15.97451 218
15.99462 192
16.01473 196
16.03485 196
16.05496 214
16.07508 211
16.09519 216
16.1153 205
16.13542 193
16.15553 192
16.17564 213
16.19576 229
16.21587 172
16.23598 182
16.2561 216
16.27621 206
16.29633 182
16.31644 189
16.33655 198
16.35667 196
16.37678 187
16.39689 192
16.41701 197
16.43712 191
16.45724 194
16.47735 199
16.49746 178
16.51758 194
16.53769 196
16.5578 205
16.57792 194
16.59803 215
16.61814 208
16.63826 215
16.65837 179
16.67849 177
16.6986 200
16.71871 176
16.73883 206
16.75894 204
16.77905 208
16.79917 206
16.81928 188
16.8394 200
16.85951 191
16.87962 214
16.89974 222
16.91985 192
16.93996 182
16.96008 187
16.98019 221
17.00031 201
17.02042 218
17.04053 200
17.06065 188
17.08076 214
17.10087 210
17.12099 206
17.1411 182
17.16121 191
17.18133 187
17.20144 211
17.22156 192
17.24167 188
17.26178 214
17.2819 210
17.30201 204
17.32212 197
17.34224 199
17.36235 158
17.38247 226
17.40258 186
17.42269 210
17.44281 185
17.46292 212
17.48303 175
17.50315 209
17.52326 196
17.54338 214
17.56349 190
17.5836 202
17.60372 197
17.62383 213
17.64394 170
17.66406 225
17.68417 216
17.70428 222
17.7244 183
17.74451 193
17.76463 171
17.78474 198
17.80485 206
17.82497 184
17.84508 180
17.86519 221
17.88531 179
17.90542 186
17.92554 190
17.94565 197
17.96576 206
17.98588 201
18.00599 205
18.0261 203
18.04622 188
18.06633 204
18.08645 202
18.10656 173
18.12667 208
18.14679 192
18.1669 200
18.18701 195
18.20713 219
18.22724 222
18.24735 177
18.26747 221
18.28758 216
18.3077 196
18.32781 225
18.34792 206
18.36804 193
18.38815 209
18.40826 177
18.42838 200
18.44849 208
18.46861 167
18.48872 185
18.50883 200
18.52895 213
18.54906 210
18.56917 219
18.58929 196
18.6094 202
18.62951 224
18.64963 186
18.66974 183
18.68986 206
18.70997 204
18.73008 221
18.7502 205
18.77031 214
18.79042 214
18.81054 234
18.83065 209
18.85077 215
18.87088 201
18.89099 201
18.91111 195
18.93122 233
18.95133 189
18.97145 193
18.99156 212
19.01168 208
19.03179 174
19.0519 200
19.07202 210
19.09213 208
19.11224 226
19.13236 210
19.15247 220
19.17258 187
19.1927 206
19.21281 215
19.23293 213
19.25304 227
19.27315 210
19.29327 233
19.31338 233
19.33349 221
19.35361 227
19.37372 231
19.39384 209
19.41395 231
19.43406 225
19.45418 208
19.47429 228
19.4944 234
19.51452 222
19.53463 228
19.55475 242
19.57486 215
19.59497 216
19.61509 217
19.6352 211
19.65531 249
19.67543 254
19.69554 271
19.71565 282
19.73577 290
19.75588 352
19.776 352
19.79611 338
19.81622 367
19.83634 352
19.85645 355
19.87656 393
19.89668 378
19.91679 375
19.93691 361
19.95702 353
19.97713 350
19.99725 361
20.01736 303
20.03747 339
20.05759 318
20.0777 328
20.09782 330
20.11793 300
20.13804 343
20.15816 302
20.17827 377
20.19838 374
20.2185 333
20.23861 360
20.25872 356
20.27884 344
20.29895 335
20.31907 365
20.33918 396
20.35929 408
20.37941 382
20.39952 386
20.41963 374
20.43975 387
20.45986 416
20.47998 436
20.50009 431
20.5202 413
20.54032 481
20.56043 500
20.58054 519
20.60066 565
20.62077 520
20.64088 676
20.661 835
20.68111 971
20.70123 1275
20.72134 1757
20.74145 2389
20.76157 3121
20.78168 4059
20.80179 4944
20.82191 5869
20.84202 6261
20.86214 6185
20.88225 5095
20.90236 3922
20.92248 2939
20.94259 1984
20.9627 1506
20.98282 1135
21.00293 1062
21.02305 1009
21.04316 944
21.06327 849
21.08339 748
21.1035 627
21.12361 580
21.14373 556
21.16384 490
21.18395 468
21.20407 414
21.22418 449
21.2443 414
21.26441 406
21.28452 415
21.30464 382
21.32475 355
21.34486 407
21.36498 381
21.38509 383
21.40521 342
21.42532 373
21.44543 366
21.46555 350
21.48566 365
21.50577 334
21.52589 349
21.546 330
21.56612 348
21.58623 318
21.60634 312
21.62646 321
21.64657 332
21.66668 338
21.6868 312
21.70691 300
21.72702 290
21.74714 332
21.76725 315
21.78737 308
21.80748 280
21.82759 283
21.84771 270
21.86782 313
21.88793 314
21.90805 328
21.92816 333
21.94828 293
21.96839 319
21.9885 304
22.00862 321
22.02873 315
22.04884 276
22.06896 293
22.08907 315
22.10919 312
22.1293 280
22.14941 299
22.16953 293
22.18964 301
22.20975 281
22.22987 291
22.24998 320
22.27009 372
22.29021 374
22.31032 340
22.33044 371
22.35055 382
22.37066 373
22.39078 325
22.41089 314
22.431 312
22.45112 327
22.47123 331
22.49135 322
22.51146 306
22.53157 312
22.55169 344
22.5718 333
22.59191 301
22.61203 319
22.63214 304
22.65225 290
22.67237 296
22.69248 280
22.7126 268
22.73271 276
22.75282 246
22.77294 284
22.79305 251
22.81316 261
22.83328 267
22.85339 274
22.87351 272
22.89362 266
22.91373 268
22.93385 310
22.95396 288
22.97407 287
22.99419 323
23.0143 320
23.03442 327
23.05453 354
23.07464 330
23.09476 359
23.11487 378
23.13498 367
23.1551 364
23.17521 425
23.19532 436
23.21544 388
23.23555 370
23.25567 354
23.27578 384
23.29589 371
23.31601 331
23.33612 358
23.35623 392
23.37635 332
23.39646 341
23.41658 370
23.43669 352
23.4568 379
23.47692 374
23.49703 346
23.51714 388
23.53726 402
23.55737 376
23.57749 363
23.5976 338
23.61771 350
23.63783 385
23.65794 372
23.67805 368
23.69817 358
23.71828 353
23.73839 338
23.75851 341
23.77862 370
23.79874 367
23.81885 404
23.83896 364
23.85908 378
23.87919 446
23.8993 439
23.91942 470
23.93953 462
23.95965 481
23.97976 457
23.99987 454
24.01999 430
24.0401 381
24.06021 363
24.08033 318
24.10044 280
24.12056 307
24.14067 300
24.16078 288
24.1809 274
24.20101 292
24.22112 298
24.24124 327
24.26135 311
24.28146 324
24.30158 299
24.32169 325
24.34181 375
24.36192 317
24.38203 328
24.40215 333
24.42226 356
24.44237 322
24.46249 318
24.4826 301
24.50272 320
24.52283 337
24.54294 332
24.56306 334
24.58317 305
24.60328 315
24.6234 345
24.64351 337
24.66362 394
24.68374 354
24.70385 390
24.72397 376
24.74408 399
24.76419 383
24.78431 429
24.80442 417
24.82453 408
24.84465 375
24.86476 444
24.88488 392
24.90499 408
24.9251 352
24.94522 373
24.96533 378
24.98544 396
25.00556 347
25.02567 312
25.04579 344
25.0659 351
25.08601 342
25.10613 335
25.12624 372
25.14635 359
25.16647 369
25.18658 343
25.20669 364
25.22681 350
25.24692 366
25.26704 401
25.28715 400
25.30726 384
25.32738 340
25.34749 392
25.3676 361
25.38772 345
25.40783 366
25.42795 395
25.44806 449
25.46817 428
25.48829 499
25.5084 540
25.52851 551
25.54863 611
25.56874 681
25.58886 715
25.60897 676
25.62908 688
25.6492 656
25.66931 618
25.68942 573
25.70954 555
25.72965 492
25.74976 499
25.76988 506
25.78999 480
25.81011 445
25.83022 421
25.85033 427
25.87045 462
25.89056 478
25.91067 474
25.93079 469
25.9509 509
25.97102 503
25.99113 437
26.01124 486
26.03136 523
26.05147 543
26.07158 520
26.0917 559
26.11181 584
26.13193 594
26.15204 642
26.17215 730
26.19227 723
26.21238 801
26.23249 820
26.25261 913
26.27272 933
26.29283 1069
26.31295 1180
26.33306 1296
26.35318 1521
26.37329 1734
26.3934 2096
26.41352 2607
26.43363 3359
26.45374 4362
26.47386 5841
26.49397 7874
26.51409 10659
26.5342 14087
26.55431 18489
26.57443 22893
26.59454 26311
26.61465 28297
26.63477 27139
26.65488 23457
26.67499 18433
26.69511 13624
26.71522 9712
26.73534 6450
26.75545 3800
26.77556 2405
26.79568 1883
26.81579 1588
26.8359 1445
26.85602 1366
26.87613 1278
26.89625 1208
26.91636 1217
26.93647 1218
26.95659 1110
26.9767 1162
26.99681 1120
27.01693 1115
27.03704 1043
27.05716 1114
27.07727 1055
27.09738 982
27.1175 884
27.13761 857
27.15772 778
27.17784 705
27.19795 647
27.21806 649
27.23818 576
27.25829 680
27.27841 686
27.29852 733
27.31863 762
27.33875 836
27.35886 980
27.37897 1033
27.39909 1150
27.4192 1263
27.43932 1276
27.45943 1283
27.47954 1258
27.49966 1111
27.51977 957
27.53988 890
27.56 743
27.58011 596
27.60023 566
27.62034 456
27.64045 415
27.66057 392
27.68068 399
27.70079 410
27.72091 403
27.74102 418
27.76113 453
27.78125 423
27.80136 397
27.82148 371
27.84159 373
27.8617 387
27.88182 349
27.90193 383
27.92204 380
27.94216 410
27.96227 333
27.98239 335
28.0025 332
28.02261 377
28.04273 355
28.06284 339
28.08295 292
28.10307 282
28.12318 316
28.1433 288
28.16341 272
28.18352 306
28.20364 315
28.22375 279
28.24386 297
28.26398 292
28.28409 302
28.3042 309
28.32432 310
28.34443 289
28.36455 295
28.38466 283
28.40477 268
28.42489 249
28.445 291
28.46511 271
28.48523 257
28.50534 242
28.52546 279
28.54557 259
28.56568 302
28.5858 272
28.60591 267
28.62602 284
28.64614 265
28.66625 258
28.68636 277
28.70648 256
28.72659 263
28.74671 280
28.76682 316
28.78693 240
28.80705 285
28.82716 310
28.84727 275
28.86739 283
28.8875 272
28.90762 240
28.92773 266
28.94784 258
28.96796 274
28.98807 256
29.00818 286
29.0283 252
29.04841 261
29.06853 288
29.08864 284
29.10875 280
29.12887 263
29.14898 288
29.16909 271
29.18921 280
29.20932 305
29.22943 271
29.24955 256
29.26966 281
29.28978 291
29.30989 260
29.33 298
29.35012 307
29.37023 336
29.39034 336
29.41046 331
29.43057 374
29.45069 353
29.4708 379
29.49091 363
29.51103 323
29.53114 331
29.55125 312
29.57137 310
29.59148 337
29.6116 355
29.63171 311
29.65182 354
29.67194 303
29.69205 339
29.71216 349
29.73228 332
29.75239 350
29.7725 370
29.79262 352
29.81273 370
29.83285 349
29.85296 332
29.87307 348
29.89319 332
29.9133 330
29.93341 306
29.95353 300
29.97364 333
29.99376 343
30.01387 328
30.03398 302
30.0541 373
30.07421 373
30.09432 377
30.11444 373
30.13455 408
30.15467 381
30.17478 382
30.19489 369
30.21501 375
30.23512 355
30.25523 353
30.27535 310
30.29546 307
30.31557 319
30.33569 297
30.3558 308
30.37592 311
30.39603 309
30.41614 286
30.43626 296
30.45637 277
30.47648 266
30.4966 274
30.51671 275
30.53683 297
30.55694 288
30.57705 286
30.59717 278
30.61728 310
30.63739 336
30.65751 313
30.67762 421
30.69773 402
30.71785 388
30.73796 380
30.75808 452
30.77819 437
30.7983 427
30.81842 430
30.83853 418
30.85864 382
30.87876 362
30.89887 354
30.91899 331
30.9391 284
30.95921 271
30.97933 285
30.99944 233
31.01955 235
31.03967 253
31.05978 238
31.0799 227
31.10001 222
31.12012 255
31.14024 251
31.16035 228
31.18046 236
31.20058 236
31.22069 222
31.2408 239
31.26092 241
31.28103 223
31.30115 231
31.32126 219
31.34137 240
31.36149 235
31.3816 223
31.40171 228
31.42183 239
31.44194 234
31.46206 227
31.48217 232
31.50228 219
31.5224 231
31.54251 192
31.56262 214
31.58274 212
31.60285 231
31.62297 239
31.64308 234
31.66319 200
31.68331 214
31.70342 218
31.72353 219
31.74365 223
31.76376 199
31.78387 208
31.80399 228
31.8241 231
31.84422 217
31.86433 234
31.88444 215
31.90456 257
31.92467 237
31.94478 222
31.9649 229
31.98501 244
32.00513 224
32.02524 245
32.04535 243
32.06547 267
32.08558 260
32.10569 265
32.12581 271
32.14592 281
32.16604 238
32.18615 265
32.20626 284
32.22638 276
32.24649 288
32.2666 321
32.28672 316
32.30683 300
32.32694 293
32.34706 294
32.36717 270
32.38729 295
32.4074 326
32.42751 326
32.44763 268
32.46774 293
32.48785 276
32.50797 293
32.52808 244
32.5482 261
32.56831 240
32.58842 237
32.60854 209
32.62865 269
32.64876 222
32.66888 229
32.68899 234
32.7091 249
32.72922 210
32.74933 223
32.76945 218
32.78956 221
32.80967 236
32.82979 235
32.8499 228
32.87001 238
32.89013 230
32.91024 246
32.93036 219
32.95047 230
32.97058 207
32.9907 234
33.01081 202
33.03092 229
33.05104 254
33.07115 257
33.09127 212
33.11138 211
33.13149 202
33.15161 217
33.17172 254
33.19183 220
33.21195 249
33.23206 246
33.25217 253
33.27229 245
33.2924 227
33.31252 268
33.33263 210
33.35274 246
33.37286 217
33.39297 224
33.41308 215
33.4332 201
33.45331 212
33.47343 244
33.49354 270
33.51365 224
33.53377 230
33.55388 219
33.57399 226
33.59411 226
33.61422 235
33.63434 213
33.65445 241
33.67456 222
33.69468 261
33.71479 245
33.7349 199
33.75502 200
33.77513 187
33.79524 217
33.81536 228
33.83547 216
33.85559 226
33.8757 203
33.89581 223
33.91593 187
33.93604 195
33.95615 226
33.97627 225
33.99638 234
34.0165 233
34.03661 226
34.05672 282
34.07684 278
34.09695 249
34.11706 268
34.13718 303
34.15729 281
34.17741 288
34.19752 317
34.21763 317
34.23775 309
34.25786 330
34.27797 319
34.29809 322
34.3182 313
34.33831 289
34.35843 276
34.37854 320
34.39866 281
34.41877 278
34.43888 250
34.459 294
34.47911 247
34.49922 271
34.51934 279
34.53945 266
34.55957 277
34.57968 300
34.59979 325
34.61991 268
34.64002 317
34.66013 276
34.68025 289
34.70036 352
34.72047 321
34.74059 341
34.7607 319
34.78082 343
34.80093 354
34.82104 397
34.84116 374
34.86127 343
34.88138 382
34.9015 377
34.92161 410
34.94173 410
34.96184 367
34.98195 366
35.00207 349
35.02218 356
35.04229 382
35.06241 373
35.08252 323
35.10264 346
35.12275 323
35.14286 342
35.16298 358
35.18309 362
35.2032 315
35.22332 320
35.24343 347
35.26354 341
35.28366 326
35.30377 353
35.32389 351
35.344 327
35.36411 369
35.38423 356
35.40434 351
35.42445 360
35.44457 384
35.46468 367
35.4848 389
35.50491 383
35.52502 349
35.54514 365
35.56525 386
35.58536 328
35.60548 318
35.62559 315
35.64571 338
35.66582 340
35.68593 309
35.70605 324
35.72616 309
35.74627 316
35.76639 298
35.7865 350
35.80661 304
35.82673 338
35.84684 336
35.86696 339
35.88707 363
35.90718 335
35.9273 282
35.94741 306
35.96752 323
35.98764 287
36.00775 311
36.02787 281
36.04798 272
36.06809 296
36.08821 286
36.10832 302
36.12843 305
36.14855 283
36.16866 311
36.18878 309
36.20889 331
36.229 321
36.24912 348
36.26923 351
36.28934 376
36.30946 443
36.32957 488
36.34968 567
36.3698 729
36.38991 821
36.41003 960
36.43014 1285
36.45025 1412
36.47037 1682
36.49048 1921
36.51059 2010
36.53071 2042
36.55082 1730
36.57094 1512
36.59105 1203
36.61116 1134
36.63128 927
36.65139 755
36.6715 582
36.69162 422
36.71173 380
36.73184 366
36.75196 333
36.77207 345
36.79219 313
36.8123 336
36.83241 331
36.85253 325
36.87264 329
36.89275 312
36.91287 299
36.93298 327
36.9531 295
36.97321 343
36.99332 292
37.01344 311
37.03355 306
37.05366 313
37.07378 295
37.09389 288
37.11401 295
37.13412 307
37.15423 278
37.17435 262
37.19446 244
37.21457 266
37.23469 267
37.2548 262
37.27491 240
37.29503 244
37.31514 266
37.33526 260
37.35537 254
37.37548 241
37.3956 244
37.41571 268
37.43582 220
37.45594 249
37.47605 246
37.49617 247
37.51628 256
37.53639 253
37.55651 277
37.57662 246
37.59673 256
37.61685 245
37.63696 273
37.65708 259
37.67719 310
37.6973 261
37.71742 298
37.73753 251
37.75764 245
37.77776 259
37.79787 236
37.81798 253
37.8381 250
37.85821 252
37.87833 239
37.89844 224
37.91855 248
37.93867 226
37.95878 243
37.97889 233
37.99901 258
38.01912 244
38.03924 234
38.05935 238
38.07946 242
38.09958 245
38.11969 262
38.1398 251
38.15992 290
38.18003 257
38.20015 284
38.22026 295
38.24037 277
38.26049 294
38.2806 289
38.30071 271
38.32083 295
38.34094 280
38.36105 328
38.38117 285
38.40128 318
38.4214 315
38.44151 300
38.46162 305
38.48174 362
38.50185 326
38.52196 310
38.54208 319
38.56219 323
38.58231 305
38.60242 313
38.62253 282
38.64265 297
38.66276 289
38.68287 275
38.70299 276
38.7231 259
38.74321 238
38.76333 254
38.78344 286
38.80356 257
38.82367 224
38.84378 264
38.8639 229
38.88401 265
38.90412 244
38.92424 266
38.94435 247
38.96447 242
38.98458 245
39.00469 269
39.02481 306
39.04492 273
39.06503 302
39.08515 275
39.10526 348
39.12538 288
39.14549 309
39.1656 341
39.18572 370
39.20583 405
39.22594 437
39.24606 469
39.26617 513
39.28628 674
39.3064 778
39.32651 900
39.34663 1148
39.36674 1334
39.38685 1496
39.40697 1778
39.42708 1876
39.44719 1864
39.46731 1654
39.48742 1422
39.50754 1201
39.52765 1030
39.54776 957
39.56788 815
39.58799 644
39.6081 503
39.62822 382
39.64833 300
39.66845 317
39.68856 304
39.70867 253
39.72879 259
39.7489 285
39.76901 229
39.78913 260
39.80924 272
39.82935 272
39.84947 254
39.86958 260
39.8897 253
39.90981 263
39.92992 253
39.95004 251
39.97015 272
39.99026 296
40.01038 284
40.03049 320
40.05061 323
40.07072 365
40.09083 415
40.11095 482
40.13106 520
40.15117 575
40.17129 691
40.1914 805
40.21152 892
40.23163 1024
40.25174 1022
40.27186 961
40.29197 883
40.31208 804
40.3322 701
40.35231 595
40.37242 559
40.39254 504
40.41265 409
40.43277 343
40.45288 325
40.47299 286
40.49311 251
40.51322 263
40.53333 244
40.55345 277
40.57356 265
40.59368 234
40.61379 249
40.6339 219
40.65402 261
40.67413 237
40.69424 245
40.71436 224
40.73447 258
40.75458 220
40.7747 216
40.79481 225
40.81493 235
40.83504 268
40.85515 212
40.87527 221
40.89538 228
40.91549 238
40.93561 230
40.95572 221
40.97584 217
40.99595 227
41.01606 261
41.03618 252
41.05629 231
41.0764 248
41.09652 254
41.11663 232
41.13675 235
41.15686 245
41.17697 266
41.19709 228
41.2172 260
41.23731 232
41.25743 230
41.27754 253
41.29765 256
41.31777 200
41.33788 218
41.358 259
41.37811 223
41.39822 247
41.41834 241
41.43845 242
41.45856 243
41.47868 245
41.49879 255
41.51891 255
41.53902 263
41.55913 294
41.57925 272
41.59936 310
41.61947 283
41.63959 307
41.6597 339
41.67982 365
41.69993 356
41.72004 359
41.74016 388
41.76027 414
41.78038 416
41.8005 365
41.82061 351
41.84072 345
41.86084 324
41.88095 359
41.90107 292
41.92118 280
41.94129 276
41.96141 293
41.98152 264
42.00163 258
42.02175 272
42.04186 283
42.06198 225
42.08209 238
42.1022 262
42.12232 298
42.14243 260
42.16254 326
42.18266 325
42.20277 357
42.22289 379
42.243 436
42.26311 513
42.28323 610
42.30334 749
42.32345 839
42.34357 1009
42.36368 1136
42.38379 1295
42.40391 1339
42.42402 1363
42.44414 1142
42.46425 1135
42.48436 920
42.50448 791
42.52459 746
42.5447 709
42.56482 582
42.58493 458
42.60505 372
42.62516 341
42.64527 282
42.66539 260
42.6855 290
42.70561 271
42.72573 271
42.74584 262
42.76595 223
42.78607 271
42.80618 283
42.8263 278
42.84641 255
42.86652 249
42.88664 229
42.90675 236
42.92686 195
42.94698 221
42.96709 209
42.98721 207
43.00732 235
43.02743 204
43.04755 193
43.06766 225
43.08777 202
43.10789 208
43.128 220
43.14812 212
43.16823 200
43.18834 204
43.20846 191
43.22857 220
43.24868 233
43.2688 197
43.28891 216
43.30902 213
43.32914 214
43.34925 190
43.36937 214
43.38948 210
43.40959 209
43.42971 210
43.44982 217
43.46993 205
43.49005 218
43.51016 228
43.53028 203
43.55039 220
43.5705 207
43.59062 226
43.61073 219
43.63084 218
43.65096 214
43.67107 210
43.69119 224
43.7113 194
43.73141 214
43.75153 235
43.77164 209
43.79175 214
43.81187 205
43.83198 200
43.85209 182
43.87221 215
43.89232 190
43.91244 207
43.93255 209
43.95266 208
43.97278 203
43.99289 194
44.013 205
44.03312 221
44.05323 237
44.07335 217
44.09346 222
44.11357 230
44.13369 223
44.1538 213
44.17391 201
44.19403 217
44.21414 191
44.23426 204
44.25437 196
44.27448 235
44.2946 186
44.31471 217
44.33482 193
44.35494 180
44.37505 209
44.39516 181
44.41528 200
44.43539 205
44.45551 194
44.47562 186
44.49573 197
44.51585 192
44.53596 208
44.55607 201
44.57619 216
44.5963 212
44.61642 203
44.63653 205
44.65664 203
44.67676 192
44.69687 238
44.71698 199
44.7371 200
44.75721 206
44.77732 176
44.79744 232
44.81755 191
44.83767 216
44.85778 201
44.87789 228
44.89801 212
44.91812 194
44.93823 206
44.95835 206
44.97846 225
44.99858 224
45.01869 228
45.0388 226
45.05892 205
45.07903 225
45.09914 228
45.11926 216
45.13937 246
45.15949 200
45.1796 225
45.19971 222
45.21983 227
45.23994 197
45.26005 194
45.28017 231
45.30028 224
45.32039 220
45.34051 271
45.36062 244
45.38074 233
45.40085 265
45.42096 249
45.44108 278
45.46119 320
45.4813 302
45.50142 308
45.52153 353
45.54165 325
45.56176 389
45.58187 402
45.60199 471
45.6221 536
45.64221 590
45.66233 681
45.68244 743
45.70256 827
45.72267 860
45.74278 914
45.7629 925
45.78301 920
45.80312 790
45.82324 700
45.84335 634
45.86346 523
45.88358 576
45.90369 505
45.92381 448
45.94392 371
45.96403 281
45.98415 274
46.00426 299
46.02437 255
46.04449 235
46.0646 238
46.08472 232
46.10483 214
46.12494 229
46.14506 220
46.16517 216
46.18528 218
46.2054 207
46.22551 211
46.24563 236
46.26574 227
46.28585 221
46.30597 220
46.32608 225
46.34619 212
46.36631 197
46.38642 192
46.40653 214
46.42665 197
46.44676 189
46.46688 210
46.48699 193
46.5071 202
46.52722 192
46.54733 208
46.56744 217
46.58756 180
46.60767 195
46.62779 193
46.6479 173
46.66801 185
46.68813 189
46.70824 186
46.72835 180
46.74847 181
46.76858 205
46.78869 203
46.80881 180
46.82892 208
46.84904 194
46.86915 195
46.88926 178
46.90938 192
46.92949 184
46.9496 196
46.96972 230
46.98983 193
47.00995 238
47.03006 230
47.05017 215
47.07029 208
47.0904 283
47.11051 248
47.13063 221
47.15074 223
47.17086 221
47.19097 228
47.21108 231
47.2312 236
47.25131 238
47.27142 222
47.29154 242
47.31165 205
47.33176 237
47.35188 230
47.37199 222
47.39211 233
47.41222 237
47.43233 256
47.45245 206
47.47256 214
47.49267 221
47.51279 238
47.5329 215
47.55302 225
47.57313 243
47.59324 188
47.61336 238
47.63347 201
47.65358 191
47.6737 191
47.69381 220
47.71393 209
47.73404 208
47.75415 202
47.77427 198
47.79438 210
47.81449 191
47.83461 181
47.85472 232
47.87483 220
47.89495 218
47.91506 203
47.93518 228
47.95529 227
47.9754 208
47.99552 218
48.01563 200
48.03574 206
48.05586 208
48.07597 150
48.09609 186
48.1162 204
48.13631 214
48.15643 193
48.17654 206
48.19665 172
48.21677 203
48.23688 204
48.257 193
48.27711 180
48.29722 233
48.31734 217
48.33745 191
48.35756 213
48.37768 197
48.39779 194
48.4179 211
48.43802 195
48.45813 203
48.47825 208
48.49836 193
48.51847 231
48.53859 209
48.5587 214
48.57881 180
48.59893 209
48.61904 205
48.63916 222
48.65927 210
48.67938 218
48.6995 218
48.71961 213
48.73972 261
48.75984 241
48.77995 218
48.80006 232
48.82018 213
48.84029 252
48.86041 221
48.88052 266
48.90063 273
48.92075 258
48.94086 251
48.96097 278
48.98109 259
49.0012 285
49.02132 255
49.04143 235
49.06154 232
49.08166 241
49.10177 251
49.12188 241
49.142 222
49.16211 254
49.18223 213
49.20234 218
49.22245 223
49.24257 241
49.26268 223
49.28279 209
49.30291 208
49.32302 212
49.34313 216
49.36325 214
49.38336 224
49.40348 233
49.42359 223
49.4437 215
49.46382 244
49.48393 216
49.50404 243
49.52416 245
49.54427 223
49.56439 260
49.5845 251
49.60461 279
49.62473 255
49.64484 249
49.66495 289
49.68507 283
49.70518 327
49.7253 311
49.74541 324
49.76552 330
49.78564 400
49.80575 387
49.82586 455
49.84598 510
49.86609 570
49.8862 617
49.90632 736
49.92643 816
49.94655 1000
49.96666 1165
49.98677 1476
50.00689 1738
50.027 2040
50.04711 2450
50.06723 2617
50.08734 2894
50.10746 2727
50.12757 2498
50.14768 2230
50.1678 1814
50.18791 1672
50.20802 1605
50.22814 1411
50.24825 1392
50.26837 1125
50.28848 849
50.30859 591
50.32871 504
50.34882 426
50.36893 374
50.38905 365
50.40916 372
50.42927 359
50.44939 393
50.4695 456
50.48962 442
50.50973 409
50.52984 465
50.54996 457
50.57007 403
50.59018 425
50.6103 431
50.63041 401
50.65053 404
50.67064 367
50.69075 380
50.71087 317
50.73098 307
50.75109 329
50.77121 294
50.79132 316
50.81143 298
50.83155 279
50.85166 265
50.87178 275
50.89189 286
50.912 258
50.93212 248
50.95223 223
50.97234 256
50.99246 190
51.01257 223
51.03269 209
51.0528 197
51.07291 202
51.09303 252
51.11314 213
51.13325 204
51.15337 216
51.17348 203
51.1936 220
51.21371 195
51.23382 219
51.25394 197
51.27405 215
51.29416 206
51.31428 205
51.33439 181
51.3545 228
51.37462 222
51.39473 182
51.41485 188
51.43496 203
51.45507 193
51.47519 189
51.4953 168
51.51541 215
51.53553 182
51.55564 174
51.57576 185
51.59587 189
51.61598 196
51.6361 193
51.65621 218
51.67632 202
51.69644 175
51.71655 217
51.73667 184
51.75678 170
51.77689 217
51.79701 197
51.81712 220
51.83723 211
51.85735 189
51.87746 212
51.89757 160
51.91769 187
51.9378 174
51.95792 185
51.97803 196
51.99814 163
52.01826 169
52.03837 166
52.05848 169
52.0786 187
52.09871 205
52.11883 167
52.13894 185
52.15905 199
52.17917 156
52.19928 186
52.21939 201
52.23951 181
52.25962 203
52.27974 174
52.29985 203
52.31996 195
52.34008 187
52.36019 175
52.3803 197
52.40042 201
52.42053 215
52.44064 197
52.46076 203
52.48087 193
52.50099 184
52.5211 183
52.54121 183
52.56133 215
52.58144 189
52.60155 194
52.62167 210
52.64178 197
52.6619 182
52.68201 191
52.70212 217
52.72224 206
52.74235 173
52.76246 198
52.78258 205
52.80269 209
52.8228 208
52.84292 196
52.86303 196
52.88315 202
52.90326 184
52.92337 210
52.94349 204
52.9636 181
52.98371 221
53.00383 200
53.02394 206
53.04406 189
53.06417 227
53.08428 195
53.1044 194
53.12451 199
53.14462 219
53.16474 221
53.18485 198
53.20497 213
53.22508 209
53.24519 204
53.26531 216
53.28542 212
53.30553 217
53.32565 243
53.34576 234
53.36587 231
53.38599 253
53.4061 204
53.42622 235
53.44633 209
53.46644 228
53.48656 222
53.50667 206
53.52678 227
53.5469 200
53.56701 213
53.58713 215
53.60724 222
53.62735 215
53.64747 188
53.66758 206
53.68769 235
53.70781 252
53.72792 225
53.74804 247
53.76815 243
53.78826 226
53.80838 238
53.82849 221
53.8486 201
53.86872 233
53.88883 234
53.90894 229
53.92906 220
53.94917 250
53.96929 248
53.9894 213
54.00951 272
54.02963 244
54.04974 234
54.06985 221
54.08997 212
54.11008 241
54.1302 234
54.15031 231
54.17042 236
54.19054 237
54.21065 218
54.23076 240
54.25088 243
54.27099 226
54.29111 218
54.31122 269
54.33133 249
54.35145 248
54.37156 246
54.39167 248
54.41179 250
54.4319 250
54.45201 243
54.47213 214
54.49224 271
54.51236 258
54.53247 265
54.55258 321
54.5727 302
54.59281 331
54.61292 327
54.63304 381
54.65315 405
54.67327 461
54.69338 501
54.71349 558
54.73361 663
54.75372 754
54.77383 833
54.79395 874
54.81406 970
54.83417 981
54.85429 855
54.8744 795
54.89452 705
54.91463 642
54.93474 603
54.95486 595
54.97497 615
54.99508 602
55.0152 499
55.03531 420
55.05543 392
55.07554 348
55.09565 313
55.11577 355
55.13588 354
55.15599 384
55.17611 392
55.19622 441
55.21634 463
55.23645 508
55.25656 518
55.27668 558
55.29679 527
55.3169 499
55.33702 486
55.35713 437
55.37724 369
55.39736 388
55.41747 396
55.43759 394
55.4577 364
55.47781 343
55.49793 279
55.51804 280
55.53815 248
55.55827 250
55.57838 241
55.5985 235
55.61861 236
55.63872 250
55.65884 210
55.67895 227
55.69906 216
55.71918 231
55.73929 228
55.75941 219
55.77952 217
55.79963 212
55.81975 202
55.83986 201
55.85997 201
55.88009 183
55.9002 208
55.92031 212
55.94043 211
55.96054 181
55.98066 196
56.00077 221
56.02088 205
56.041 215
56.06111 186
56.08122 188
56.10134 201
56.12145 176
56.14157 194
56.16168 209
56.18179 184
56.20191 184
56.22202 196
56.24213 174
56.26225 176
56.28236 220
56.30248 225
56.32259 180
56.3427 200
56.36282 193
56.38293 194
56.40304 223
56.42316 189
56.44327 214
56.46338 222
56.4835 188
56.50361 186
56.52373 222
56.54384 203
56.56395 233
56.58407 196
56.60418 181
56.62429 209
56.64441 210
56.66452 197
56.68464 192
56.70475 201
56.72486 201
56.74498 209
56.76509 198
56.7852 209
56.80532 236
56.82543 195
56.84554 187
56.86566 201
56.88577 206
56.90589 207
56.926 206
56.94611 185
56.96623 171
56.98634 211
57.00645 206
57.02657 197
57.04668 193
57.0668 194
57.08691 197
57.10702 210
57.12714 199
57.14725 207
57.16736 233
57.18748 240
57.20759 231
57.22771 250
57.24782 250
57.26793 245
57.28805 239
57.30816 219
57.32827 218
57.34839 233
57.3685 212
57.38861 193
57.40873 183
57.42884 206
57.44896 223
57.46907 213
57.48918 193
57.5093 184
57.52941 196
57.54952 209
57.56964 199
57.58975 192
57.60987 189
57.62998 203
57.65009 197
57.67021 201
57.69032 189
57.71043 167
57.73055 209
57.75066 182
57.77078 194
57.79089 215
57.811 216
57.83112 222
57.85123 198
57.87134 200
57.89146 201
57.91157 196
57.93168 179
57.9518 195
57.97191 183
57.99203 197
58.01214 180
58.03225 199
58.05237 188
58.07248 185
58.09259 173
58.11271 153
58.13282 177
58.15294 171
58.17305 183
58.19316 214
58.21328 190
58.23339 201
58.2535 185
58.27362 184
58.29373 201
58.31385 165
58.33396 169
58.35407 191
58.37419 199
58.3943 184
58.41441 180
58.43453 199
58.45464 204
58.47475 228
58.49487 184
58.51498 210
58.5351 205
58.55521 215
58.57532 205
58.59544 201
58.61555 210
58.63566 219
58.65578 213
58.67589 204
58.69601 201
58.71612 215
58.73623 196
58.75635 217
58.77646 184
58.79657 218
58.81669 206
58.8368 195
58.85691 192
58.87703 203
58.89714 184
58.91726 197
58.93737 188
58.95748 202
58.9776 189
58.99771 174
59.01782 186
59.03794 196
59.05805 203
59.07817 168
59.09828 221
59.11839 165
59.13851 205
59.15862 189
59.17873 176
59.19885 182
59.21896 198
59.23908 238
59.25919 214
59.2793 202
59.29942 211
59.31953 225
59.33964 211
59.35976 239
59.37987 217
59.39998 223
59.4201 221
59.44021 226
59.46033 245
59.48044 238
59.50055 269
59.52067 278
59.54078 291
59.56089 298
59.58101 370
59.60112 352
59.62124 361
59.64135 384
59.66146 450
59.68158 440
59.70169 551
59.7218 617
59.74192 674
59.76203 843
59.78215 945
59.80226 1106
59.82237 1257
59.84249 1506
59.8626 1635
59.88271 1670
59.90283 1767
59.92294 1706
59.94305 1618
59.96317 1331
59.98328 1209
60.0034 1058
60.02351 999
60.04362 1001
60.06374 993
60.08385 881
60.10396 790
60.12408 650
60.14419 548
60.16431 415
60.18442 368
60.20453 322
60.22465 267
60.24476 255
60.26487 240
60.28499 264
60.3051 248
60.32522 212
60.34533 200
60.36544 234
60.38556 220
60.40567 238
60.42578 242
60.4459 234
60.46601 222
60.48612 190
60.50624 226
60.52635 214
60.54647 182
60.56658 180
60.58669 201
60.60681 205
60.62692 196
60.64703 179
60.66715 174
60.68726 216
60.70738 199
60.72749 224
60.7476 206
60.76772 198
60.78783 190
60.80794 195
60.82806 213
60.84817 177
60.86828 213
60.8884 210
60.90851 210
60.92863 191
60.94874 202
60.96885 192
60.98897 198
61.00908 210
61.02919 189
61.04931 219
61.06942 207
61.08954 217
61.10965 218
61.12976 222
61.14988 231
61.16999 212
61.1901 240
61.21022 208
61.23033 222
61.25045 190
61.27056 203
61.29067 209
61.31079 248
61.3309 194
61.35101 223
61.37113 194
61.39124 204
61.41135 195
61.43147 212
61.45158 206
61.4717 197
61.49181 186
61.51192 215
61.53204 191
61.55215 213
61.57226 191
61.59238 188
61.61249 214
61.63261 212
61.65272 218
61.67283 206
61.69295 197
61.71306 208
61.73317 210
61.75329 216
61.7734 204
61.79352 234
61.81363 202
61.83374 238
61.85386 253
61.87397 245
61.89408 212
61.9142 253
61.93431 228
61.95442 240
61.97454 205
61.99465 230
62.01477 240
62.03488 260
62.05499 229
62.07511 235
62.09522 232
62.11533 248
62.13545 248
62.15556 242
62.17568 224
62.19579 269
62.2159 248
62.23602 239
62.25613 249
62.27624 237
62.29636 242
62.31647 264
62.33659 240
62.3567 256
62.37681 229
62.39693 218
62.41704 198
62.43715 221
62.45727 225
62.47738 218
62.49749 231
62.51761 204
62.53772 237
62.55784 208
62.57795 220
62.59806 193
62.61818 215
62.63829 216
62.6584 206
62.67852 215
62.69863 194
62.71875 199
62.73886 217
62.75897 214
62.77909 200
62.7992 214
62.81931 213
62.83943 210
62.85954 200
62.87965 191
62.89977 198
62.91988 236
62.94 197
62.96011 198
62.98022 242
63.00034 211
63.02045 240
63.04056 206
63.06068 203
63.08079 220
63.10091 221
63.12102 212
63.14113 182
63.16125 211
63.18136 234
63.20147 222
63.22159 205
63.2417 205
63.26182 209
63.28193 196
63.30204 185
63.32216 191
63.34227 205
63.36238 218
63.3825 187
63.40261 206
63.42272 206
63.44284 210
63.46295 174
63.48307 190
63.50318 219
63.52329 205
63.54341 204
63.56352 198
63.58363 185
63.60375 226
63.62386 205
63.64398 236
63.66409 241
63.6842 230
63.70432 270
63.72443 263
63.74454 260
63.76466 261
63.78477 293
63.80489 284
63.825 293
63.84511 373
63.86523 397
63.88534 352
63.90545 425
63.92557 442
63.94568 499
63.96579 481
63.98591 512
64.00602 493
64.02614 432
64.04625 415
64.06636 372
64.08648 309
64.10659 337
64.1267 339
64.14682 320
64.16693 325
64.18705 292
64.20716 277
64.22727 246
64.24739 241
64.2675 237
64.28761 223
64.30773 202
64.32784 194
64.34796 216
64.36807 197
64.38818 192
64.4083 185
64.42841 186
64.44852 171
64.46864 181
64.48875 197
64.50886 208
64.52898 185
64.54909 198
64.56921 176
64.58932 166
64.60943 176
64.62955 175
64.64966 190
64.66977 189
64.68989 166
64.71 188
64.73012 200
64.75023 193
64.77034 171
64.79046 185
64.81057 170
64.83068 193
64.8508 188
64.87091 183
64.89102 177
64.91114 166
64.93125 188
64.95137 196
64.97148 201
64.99159 198
65.01171 172
65.03182 214
65.05193 184
65.07205 182
65.09216 170
65.11228 201
65.13239 217
65.1525 209
65.17262 187
65.19273 182
65.21284 221
65.23296 208
65.25307 182
65.27319 206
65.2933 184
65.31341 179
65.33353 190
65.35364 197
65.37375 202
65.39387 198
65.41398 195
65.43409 217
65.45421 196
65.47432 192
65.49444 210
65.51455 211
65.53466 175
65.55478 184
65.57489 203
65.595 228
65.61512 234
65.63523 232
65.65535 235
65.67546 242
65.69557 245
65.71569 238
65.7358 241
65.75591 238
65.77603 245
65.79614 219
65.81626 245
65.83637 242
65.85648 223
65.8766 249
65.89671 221
65.91682 233
65.93694 206
65.95705 200
65.97716 202
65.99728 196
66.01739 192
66.03751 196
66.05762 192
66.07773 180
66.09785 192
66.11796 195
66.13807 207
66.15819 191
66.1783 188
66.19842 184
66.21853 186
66.23864 185
66.25876 198
66.27887 193
66.29898 208
66.3191 222
66.33921 201
66.35933 218
66.37944 201
66.39955 207
66.41967 168
66.43978 185
66.45989 180
66.48001 196
66.50012 210
66.52023 189
66.54035 209
66.56046 198
66.58058 206
66.60069 186
66.6208 185
66.64092 169
66.66103 197
66.68114 180
66.70126 194
66.72137 193
66.74149 166
66.7616 192
66.78171 172
66.80183 190
66.82194 191
66.84205 204
66.86217 180
66.88228 200
66.90239 197
66.92251 196
66.94262 226
66.96274 193
66.98285 202
67.00296 191
67.02308 193
67.04319 191
67.0633 205
67.08342 204
67.10353 215
67.12365 190
67.14376 211
67.16387 213
67.18399 196
67.2041 211
67.22421 196
67.24433 214
67.26444 220
67.28456 230
67.30467 247
67.32478 241
67.3449 236
67.36501 277
67.38512 290
67.40524 320
67.42535 314
67.44546 325
67.46558 385
67.48569 390
67.50581 405
67.52592 507
67.54603 564
67.56615 605
67.58626 732
67.60637 863
67.62649 887
67.6466 1037
67.66672 1028
67.68683 1114
67.70694 1002
67.72706 1004
67.74717 864
67.76728 820
67.7874 695
67.80751 765
67.82763 756
67.84774 806
67.86785 835
67.88797 941
67.90808 880
67.92819 878
67.94831 923
67.96842 916
67.98853 949
68.00865 1077
68.02876 1213
68.04888 1303
68.06899 1475
68.0891 1464
68.10922 1534
68.12933 1382
68.14944 1362
68.16956 1232
68.18967 1234
68.20979 1238
68.2299 1303
68.25001 1372
68.27013 1240
68.29024 1185
68.31035 1073
68.33047 925
68.35058 788
68.3707 670
68.39081 633
68.41092 554
68.43104 562
68.45115 513
68.47126 487
68.49138 440
68.51149 382
68.5316 337
68.55172 283
68.57183 279
68.59195 223
68.61206 271
68.63217 226
68.65229 227
68.6724 225
68.69251 225
68.71263 236
68.73274 190
68.75286 240
68.77297 212
68.79308 204
68.8132 195
68.83331 183
68.85342 180
68.87354 200
68.89365 199
68.91376 205
68.93388 182
68.95399 227
68.97411 183
68.99422 198
69.01433 212
69.03445 193
69.05456 181
69.07467 188
69.09479 204
69.1149 176
69.13502 174
69.15513 169
69.17524 173
69.19536 181
69.21547 172
69.23558 157
69.2557 180
69.27581 170
69.29593 169
69.31604 182
69.33615 161
69.35627 166
69.37638 200
69.39649 181
69.41661 172
69.43672 169
69.45683 157
69.47695 189
69.49706 178
69.51718 180
69.53729 181
69.5574 191
69.57752 192
69.59763 180
69.61774 191
69.63786 185
69.65797 201
69.67809 178
69.6982 169
69.71831 199
69.73843 192
69.75854 183
69.77865 183
69.79877 193
69.81888 176
69.839 176
69.85911 156
69.87922 168
69.89934 187
69.91945 172
69.93956 184
69.95968 174
69.97979 170
69.9999 176
70.02002 171
70.04013 168
70.06025 176
70.08036 164
70.10047 189
70.12059 185
70.1407 178
70.16081 189
70.18093 195
70.20104 170
70.22116 181
70.24127 169
70.26138 183
70.2815 177
70.30161 184
70.32172 172
70.34184 165
70.36195 153
70.38207 179
70.40218 163
70.42229 185
70.44241 172
70.46252 162
70.48263 199
70.50275 185
70.52286 176
70.54297 172
70.56309 167
70.5832 182
70.60332 176
70.62343 186
70.64354 172
70.66366 162
70.68377 156
70.70388 192
70.724 172
70.74411 176
70.76423 164
70.78434 158
70.80445 165
70.82457 172
70.84468 153
70.86479 171
70.88491 173
70.90502 162
70.92513 179
70.94525 187
70.96536 156
70.98548 172
71.00559 168
71.0257 170
71.04582 184
71.06593 173
71.08604 176
71.10616 154
71.12627 144
71.14639 175
71.1665 156
71.18661 141
71.20673 157
71.22684 152
71.24695 158
71.26707 186
71.28718 180
71.3073 167
71.32741 164
71.34752 169
71.36764 173
71.38775 182
71.40786 154
71.42798 163
71.44809 188
71.4682 155
71.48832 188
71.50843 189
71.52855 195
71.54866 161
71.56877 184
71.58889 172
71.609 203
71.62911 193
71.64923 185
71.66934 174
71.68946 186
71.70957 194
71.72968 168
71.7498 167
71.76991 188
71.79002 157
71.81014 188
71.83025 208
71.85037 184
71.87048 178
71.89059 186
71.91071 181
71.93082 189
71.95093 161
71.97105 174
71.99116 173
72.01127 178
72.03139 176
72.0515 179
72.07162 191
72.09173 220
72.11184 164
72.13196 165
72.15207 180
72.17218 166
72.1923 192
72.21241 200
72.23253 162
72.25264 191
72.27275 202
72.29287 189
72.31298 200
72.33309 197
72.35321 180
72.37332 177
72.39344 196
72.41355 167
72.43366 168
72.45378 169
72.47389 191
72.494 170
72.51412 186
72.53423 176
72.55434 173
72.57446 195
72.59457 164
72.61469 171
72.6348 168
72.65491 197
72.67503 198
72.69514 174
72.71525 188
72.73537 181
72.75548 161
72.7756 177
72.79571 192
72.81582 165
72.83594 176
72.85605 179
72.87616 189
72.89628 208
72.91639 188
72.9365 201
72.95662 183
72.97673 195
72.99685 198
73.01696 204
73.03707 190
73.05719 203
73.0773 219
73.09741 241
73.11753 218
73.13764 244
73.15776 222
73.17787 276
73.19798 240
73.2181 258
73.23821 251
73.25832 290
73.27844 296
73.29855 370
73.31867 420
73.33878 418
73.35889 439
73.37901 469
73.39912 472
73.41923 483
73.43935 429
73.45946 410
73.47957 365
73.49969 335
73.5198 334
73.53992 308
73.56003 344
73.58014 307
73.60026 342
73.62037 334
73.64048 320
73.6606 292
73.68071 258
73.70083 242
73.72094 217
73.74105 222
73.76117 192
73.78128 171
73.80139 189
73.82151 174
73.84162 179
73.86174 186
73.88185 204
73.90196 188
73.92208 173
73.94219 179
73.9623 183
73.98242 163
74.00253 178
74.02264 196
74.04276 153
74.06287 194
74.08299 150
74.1031 199
74.12321 180
74.14333 182
74.16344 172
74.18355 171
74.20367 169
74.22378 137
74.2439 189
74.26401 179
74.28412 184
74.30424 169
74.32435 183
74.34446 170
74.36458 157
74.38469 167
74.40481 192
74.42492 168
74.44503 182
74.46515 176
74.48526 196
74.50537 165
74.52549 183
74.5456 173
74.56571 169
74.58583 183
74.60594 167
74.62606 178
74.64617 193
74.66628 172
74.6864 178
74.70651 190
74.72662 177
74.74674 193
74.76685 171
74.78697 187
74.80708 186
74.82719 181
74.84731 166
74.86742 203
74.88753 178
74.90765 187
74.92776 176
74.94787 189
74.96799 167
74.9881 149
75.00822 179
