3.00117 23210.1764728297
3.02128 22990.4211171524
3.0414 22396
3.06151 21759.6278848874
3.08162 21040.5587552799
3.10174 20749.9961520838
3.12185 20064.1575736927
3.14197 19778.8151477684
3.16208 18912.7968674588
3.18219 18400.1916256103
3.20231 17956.7393491055
3.22242 17418.5400753333
3.24253 17031.400381135
3.26265 16443.8828079518
3.28276 15647.6776091153
3.30288 15622.248419315
3.32299 15010.2839460735
3.3431 14618
3.36322 13946.3032710185
3.38333 13541.0758746608
3.40344 13605.9618374651
3.42356 12662.1838870099
3.44367 12580.2541790224
3.46379 12047.2806623138
3.4839 11704
3.50401 11448.7874599917
3.52413 10965.5456691724
3.54424 10790.3477853878
3.56435 10245.3525937263
3.58447 9920.1558821387
3.60458 9774.44755079005
3.62469 9205.119336249
3.64481 9198.84221059108
3.66492 8459.27546843015
3.68504 8111.94153071434
3.70515 8043.00148006348
3.72526 7450.68880354033
3.74538 7453.97864994335
3.76549 7197.24811102932
3.7856 6783
3.80572 6925.84150771367
3.82583 6398.28601754352
3.84595 6161.45831933879
3.86606 5862.5130129415
3.88617 5663.36477039313
3.90629 5361.13289542846
3.9264 5273
3.94651 5364.85438694438
3.96663 4813.47826752023
3.98674 4793.96189399595
4.00686 4540.78005594014
4.02697 4224.17933925401
4.04708 4204.13618015635
4.0672 3881
4.08731 3694.02463167706
4.10742 3822.98879692569
4.12754 3629.60714154581
4.14765 3503.389863705
4.16776 3255.59261000728
4.18788 3046.02289885607
4.20799 3111.02145285685
4.22811 2925.91836249867
4.24822 2848.9143256436
4.26833 2693.71967186034
4.28845 2567.98691995462
4.30856 2589.20898627913
4.32867 2421.02279088313
4.34879 2507.04046575287
4.3689 2236
4.38902 2206.03460044969
4.40913 2214.01313526001
4.42924 2218.93831588835
4.44936 2149.15716631731
4.46947 2064.17487673398
4.48958 1960.01910579741
4.5097 2001
4.52981 1941.97379932131
4.54992 1902.91269421308
4.57004 1769.77592014326
4.59015 1749.80267856103
4.61027 1832.02753115763
4.63038 1711.12108089973
4.65049 1685.96664192568
4.67061 1729.95526914643
4.69072 1554.89978948579
4.71083 1578.0558514824
4.73095 1565.95969531683
4.75106 1538.18289001509
4.77118 1431.02040966514
4.79129 1503.9644379187
4.8114 1503
4.83152 1459.99427527212
4.85163 1438.8215160807
4.87174 1278.88170059076
4.89186 1332.92180432972
4.91197 1310.00712720035
4.93209 1338.00271088361
4.9522 1286
4.97231 1253.96764783001
4.99243 1179.98138554573
5.01254 1252.21819292278
5.03265 1277.33511792809
5.05277 1082.12004503278
5.07288 1143.94383561386
5.09299 1100.04536099367
5.11311 1050.01316090096
5.13322 1089.95562152801
5.15334 985.919697371793
5.17345 1029.05971746644
5.19356 994.062716958698
5.21368 1016.93428173949
5.23379 1050.03226276166
5.2539 940
5.27402 993.043052830008
5.29413 972.944622314042
5.31425 959.008051171565
5.33436 951.082615684709
5.35447 911.967230316542
5.37459 956.015833146358
5.3947 868
5.41481 923.019310823654
5.43493 883.87909801847
5.45504 830.012527459686
5.47516 876.931295905784
5.49527 855.103957141083
5.51538 807.962887258955
5.5355 869
5.55561 759.985538253322
5.57572 811.983661690341
5.59584 718.94309346225
5.61595 794.802716163675
5.63606 791.144812275998
5.65618 725.994717264812
5.67629 777.993943202173
5.69641 720.965739203055
5.71652 691.002449301644
5.73663 718.074889991157
5.75675 740.867359151975
5.77686 665.985533501464
5.79697 744.945179620126
5.81709 698.028683909277
5.8372 672
5.85732 644.99868999361
5.87743 650.95127447119
5.89754 607.035259144169
5.91766 673.939708907179
5.93777 637.073629491814
5.95788 606.036766563942
5.978 598
5.99811 708.011003674815
6.01823 636.922577816246
6.03834 650.023723060426
6.05845 639.96725150947
6.07857 665.029480617358
6.09868 608.029663814094
6.11879 624.990642394787
6.13891 618.993819703851
6.15902 609.985982585166
6.17913 606.044492390494
6.19925 635.932571104137
6.21936 581.986775338837
6.23948 634.005209999101
6.25959 562.02259613136
6.2797 581
6.29982 582.997071423466
6.31993 580.976065057597
6.34004 559.996054412483
6.36016 585.923044605617
6.38027 620.955197605365
6.40039 617.032663549373
6.4205 524
6.44061 539.032125672833
6.46073 600.041616859296
6.48084 595.989237867248
6.50095 599.02293821209
6.52107 575.030691757843
6.54118 574.980687104963
6.56129 584.014997889187
6.58141 538.996684554806
6.60152 575.029814119923
6.62164 571.971462133585
6.64175 571.038492321674
6.66186 587.005176999221
6.68198 563.029011657987
6.70209 549.995897563147
6.7222 566
6.74232 555.98936904116
6.76243 558.020443630738
6.78255 566.972349625906
6.80266 549.986563245616
6.82277 571.005657775195
6.84289 539.012107076301
6.863 539
6.88311 546.01232273995
6.90323 571.992174527309
6.92334 542.974033216938
6.94346 560.951689615656
6.96357 568.013635321321
6.98368 542.044364831155
7.0038 510
7.02391 551.008570253311
7.04402 538.001411897304
7.06414 552.96645207215
7.08425 509.051459373395
7.10436 531.926819262459
7.12448 534.051134026603
7.14459 479.99351421335
7.16471 538.005460036519
7.18482 496.993872170015
7.20493 552.08356006957
7.22505 573.024919891345
7.24516 573.065610261965
7.26527 520.055253659496
7.28539 501.017475242052
7.3055 472
7.32562 541.02074266024
7.34573 491.914369106289
7.36584 486.087415510717
7.38596 547.902378087995
7.40607 543.104074867106
7.42618 460.033540422268
7.4463 500
7.46641 533.977421551847
7.48653 474.042315524477
7.50664 568.069037315632
7.52675 502.205385844178
7.54687 482.939150965158
7.56698 538.970095237585
7.58709 537.997922107605
7.60721 552.997611392084
7.62732 539.017890259873
7.64743 568.971617834078
7.66755 508.919753906169
7.68766 519.997360891541
7.70778 499.002828257374
7.72789 528.98161987739
7.748 537
7.76812 475.928249819928
7.78823 458.123343614917
7.80834 577.089682691008
7.82846 514.187828590945
7.84857 466.00024751483
7.86869 482.000652635755
7.8888 482
7.90891 546.991287991371
7.92903 469.970915057857
7.94914 520.030115886907
7.96925 468.115969672068
7.98937 480.918770587405
8.00948 529.98541740147
8.0296 521
8.04971 548.005321718986
8.06982 524.962130886768
8.08994 495.971273992574
8.11005 484.940016996947
8.13016 459.993951018346
8.15028 495.955125665418
8.17039 518.004710849519
8.1905 500
8.21062 524.007916281467
8.23073 504.967364718316
8.25085 501.026394245881
8.27096 521.939934190273
8.29107 547.985981884616
8.31119 541.005273114651
8.3313 518
8.35141 453.988817698143
8.37153 480.049260487567
8.39164 496.032503188957
8.41176 510.016832960744
8.43187 490.996455066733
8.45198 527.947535203503
8.4721 552
8.49221 502.996881258707
8.51232 525.977625006242
8.53244 471.000145423989
8.55255 531.90087754457
8.57266 522.013311168724
8.59278 546.968425302451
8.61289 540.032956058082
8.63301 466.99675644456
8.65312 519.029387511707
8.67323 499.980792095106
8.69335 508.980259220879
8.71346 488.976963848585
8.73357 529.963191448879
8.75369 526.998020765914
8.7738 562
8.79392 593.975294315538
8.81403 525.903878437391
8.83414 511.067145782859
8.85426 546.021256098228
8.87437 498.045186811007
8.89448 510.973585277579
8.9146 524
8.93471 510.982727064928
8.95483 477.998308655454
8.97494 511.078735256326
8.99505 531.988489001606
9.01517 517.060167981568
9.03528 470.029053873788
9.05539 473.986079691444
9.07551 508.015523631885
9.09562 508.95235091706
9.11573 452.992891644114
9.13585 491.033085834299
9.15596 460.054472132711
9.17608 465.978834784019
9.19619 482.994427516884
9.2163 500
9.23642 515.944184765161
9.25653 434.989848442328
9.27664 497.053597966713
9.29676 463.033371327964
9.31687 488.975845974767
9.33699 478.999902315416
9.3571 492
9.37721 461.990385354855
9.39733 467.01542648999
9.41744 464.973936506029
9.43755 438.110803918402
9.45767 406.973681945314
9.47778 457.966535887434
9.4979 468
9.51801 512.002210412942
9.53812 481.99317256975
9.55824 498.968359224332
9.57835 452.957829844324
9.59846 485.911381735238
9.61858 495.035134470192
9.63869 454.998045517281
9.6588 493
9.67892 462.966369705506
9.69903 455.011761460229
9.71915 475.095546322425
9.73926 510.987682049694
9.75937 475.094708052752
9.77949 430.996131539547
9.7996 477
9.81971 489.006657649668
9.83983 511.015341159147
9.85994 490.903032159445
9.88006 448.007969829878
9.90017 475.969868009088
9.92028 478.983732272258
9.9404 503
9.96051 470.989245993296
9.98062 474.004203071604
10.00074 483.081137117247
10.02085 535.954585708385
10.04097 500.094128552813
10.06108 450.023710597265
10.08119 464.973528562328
10.10131 514.001413395197
10.12142 477.974421803801
10.14153 473.970292723225
10.16165 448.038013428119
10.18176 487.004443185666
10.20187 453.982947131453
10.22199 510.986030750038
10.2421 483
10.26222 475.010772990356
10.28233 484.999117833586
10.30244 461.905217868912
10.32256 424.977366938259
10.34267 479.915764213874
10.36278 496.023893473654
10.3829 469
10.40301 493.9953627258
10.42313 440.919912958225
10.44324 429.058197317321
10.46335 467.956675266394
10.48347 467.9734743353
10.50358 512.953897275367
10.52369 515.030868112061
10.54381 439.99159293496
10.56392 491.057594269915
10.58403 496.934547966422
10.60415 453.008523471369
10.62426 492.963959991905
10.64438 460.054721613411
10.66449 433.98757929348
10.6846 480
10.70472 448.960302353809
10.72483 439.032486451697
10.74494 469.02582376112
10.76506 462.009337394421
10.78517 466.004815705661
10.80529 474.971817817789
10.8254 529
10.84551 431.976292919999
10.86563 466.054178649289
10.88574 465.002301408598
10.90585 497.864267554189
10.92597 527.05034426583
10.94608 467.012133905501
10.9662 504
10.98631 479.999214533625
11.00642 503.993252155902
11.02654 461.949323721409
11.04665 471.968449552084
11.06676 475.966568744039
11.08688 499.996051226402
11.10699 483.005755845099
11.1271 488
11.14722 493.016326848608
11.16733 519.031553404029
11.18745 516.927513320114
11.20756 482.03051429491
11.22767 489.985354328508
11.24779 492.995471640343
11.2679 511
11.28801 507.984471012577
11.30813 483.036039196385
11.32824 547.103544412219
11.34836 544.097919989305
11.36847 501.985561747277
11.38858 534.019766108167
11.4087 475
11.42881 516.004654801766
11.44892 479.988353830106
11.46904 520.098932042111
11.48915 546.966524885241
11.50927 548.029765267784
11.52938 519.017444709104
11.54949 523.991052017145
11.56961 539.002757949669
11.58972 530.980894007501
11.60983 522.030285872906
11.62995 552.002854533632
11.65006 528.013738798045
11.67017 536.031953030876
11.69029 495.003076409569
11.7104 532
11.73052 528.97196430042
11.75063 516.045795121881
11.77074 566.033215528273
11.79086 559.931760329715
11.81097 618.992600953242
11.83108 562.047375204617
11.8512 568
11.87131 587.998030187321
11.89143 571.993209327617
11.91154 587.038461479125
11.93165 590.046556711072
11.95177 583.930646942546
11.97188 634.035284480489
11.99199 546.009035609293
12.01211 623.037238357907
12.03222 642.006470365832
12.05234 645.936469596158
12.07245 597.972381502841
12.09256 634.914104210003
12.11268 653.993799362764
12.13279 665.987573695414
12.1529 676
12.17302 603.950049229075
12.19313 618.100511220859
12.21324 676.999880418861
12.23336 644.972406616642
12.25347 701.97065041623
12.27359 665.015968840064
12.2937 666
12.31381 658.003984267693
12.33393 688.049634900335
12.35404 687.898031711127
12.37415 611.14561415879
12.39427 599.967075625333
12.41438 618.008871976514
12.4345 597
12.45461 624.003895965284
12.47472 595.960988248885
12.49484 576.010111243165
12.51495 580.071916635119
12.53506 535.024434279527
12.55518 556.991447376987
12.57529 527.022898580584
12.5954 501
12.61552 528.018665895703
12.63563 512.930177893931
12.65575 474.015812227786
12.67586 503.016949951549
12.69597 465.994607328293
12.71609 514.985251186123
12.7362 486
12.75631 434.989642761312
12.77643 451.060564842592
12.79654 486.022925091604
12.81666 474.035041562833
12.83677 464.010483253406
12.85688 451.023180490044
12.877 436
12.89711 472.010550345107
12.91722 468.997843615085
12.93734 471.975062658849
12.95745 448.026190897118
12.97757 450.016716940375
12.99768 425.013501198779
13.01779 432.992839939238
13.03791 428.984061712105
13.05802 407.035608302347
13.07813 476.044963712875
13.09825 439.856246910228
13.11836 420.928123753597
13.13847 466.012511996042
13.15859 419.004026738825
13.1787 473
13.19882 483.956398253453
13.21893 419.931986140931
13.23904 420.068505569507
13.25916 449.010506482166
13.27927 419.024747889682
13.29938 434.9707199403
13.3195 446
13.33961 422.006136306073
13.35973 466.046133179812
13.37984 459.955684783009
13.39995 449.974699594488
13.42007 465.004976115762
13.44018 454.981810193551
13.46029 484.006433715211
13.48041 436.989858191541
13.50052 473.061380455985
13.52064 508.979155585827
13.54075 480.002154811376
13.56086 527.873470059183
13.58098 582.946935362639
13.60109 625.991477948632
13.6212 616
13.64132 599.996008209316
13.66143 583.91459775003
13.68154 524.009452966187
13.70166 589.889178716756
13.72177 576.107326480715
13.74189 497.023208993458
13.762 492
13.78211 492.002925995289
13.80223 504.00902801768
13.82234 481.880058485082
13.84245 415.077943440589
13.86257 433.937125810085
13.88268 450.03210748295
13.9028 395
13.92291 406.009649156049
13.94302 408.994168110933
13.96314 407.01405067264
13.98325 409.055377398225
14.00336 381.98595929999
14.02348 409.006315072921
14.04359 378.995283761205
14.06371 426.009584037566
14.08382 404.991336653159
14.10393 418.992064021508
14.12405 396.007079713241
14.14416 423.982300634423
14.16427 399.044052778188
14.18439 394.988989242431
14.2045 416
14.22461 394.003630280592
14.24473 416.973003731738
14.26484 366.96756987909
14.28496 397.948111661159
14.30507 403.965931682896
14.32518 444.976648591878
14.3453 431
14.36541 396.987492462244
14.38552 387.004151813375
14.40564 400.034847045683
14.42575 414.976129951274
14.44587 415.016503325513
14.46598 393.031108581067
14.48609 372.994956008196
14.50621 394.998303124674
14.52632 374.006395483403
14.54643 413.047593680406
14.56655 414.972197915231
14.58666 417.944971220757
14.60677 441.032008591801
14.62689 398.000739875621
14.647 423
14.66712 357.988388068248
14.68723 414.069873237488
14.70734 399.900535429874
14.72746 356.04075385666
14.74757 361.972522497469
14.76768 382.972380856306
14.7878 410
14.80791 398.981163302338
14.82803 358.976038103761
14.84814 376.066393154229
14.86825 408.919927187385
14.88837 418.054485437499
14.90848 366.014775955693
14.92859 401.976287448883
14.94871 421.996095637721
14.96882 409.004703551198
14.98894 422.984042154567
15.00905 398.992811415382
15.02916 416.996817478651
15.04928 407.976662945096
15.06939 460.981879193764
15.0895 456
15.10962 441.003997884731
15.12973 451.995646377306
15.14984 446.044954879009
15.16996 486.965759857455
15.19007 479.984768360388
15.21019 506.999110854526
15.2303 469
15.25041 441.000743913393
15.27053 451.990049051307
15.29064 436.019993040435
15.31075 458.038593697372
15.33087 407.052034867078
15.35098 408.992234101683
15.3711 401
15.39121 382.985889191498
15.41132 364.016751421661
15.43144 412.095919974158
15.45155 418.118388581359
15.47166 367.979907093018
15.49178 418.990535011889
15.51189 375.013403559425
15.53201 396.014520186402
15.55212 405.000094528008
15.57223 404.996150306769
15.59235 396.965619568581
15.61246 385.998115915161
15.63257 388.025108160615
15.65269 376.980355468571
15.6728 445
15.69291 416.980840735375
15.71303 402.997559575095
15.73314 402.000145018781
15.75326 394.050705062628
15.77337 371.982163923193
15.79348 401.001567238369
15.8136 373
15.83371 410.019091618599
15.85382 418.986915956331
15.87394 399.968498474853
15.89405 394.988699098428
15.91417 402.989963511664
15.93428 406.995451823129
15.95439 403.012436763271
15.97451 369.99229091793
15.99462 381.020969840788
16.01473 393.000255020424
16.03485 377.923153895059
16.05496 359.951404135312
16.07508 400.000672720688
16.09519 367.998766989944
16.1153 409
16.13542 383.975000378039
16.15553 386.020899331978
16.17564 396.010201578405
16.19576 392.032713927823
16.21587 374.00793500657
16.23598 384.983502367227
16.2561 387
16.27621 369.011721331599
16.29633 418.03107451225
16.31644 410.031571847352
16.33655 456.919708258331
16.35667 434.109186556999
16.37678 364.018246180262
16.39689 393.986964646801
16.41701 386.99131875202
16.43712 381.0046349806
16.45724 389.009637384869
16.47735 387.992308722425
16.49746 393.955466989147
16.51758 414.008478255131
16.53769 381.013503840655
16.5578 379
16.57792 392.011766670384
16.59803 391.969504171709
16.61814 365.983699668958
16.63826 380.960044166008
16.65837 385.022671410296
16.67849 378.982684196881
16.6986 426
16.71871 378.984954465017
16.73883 391.025696214492
16.75894 387.976579268041
16.77905 387.948392495099
16.79917 405.030227462349
16.81928 374.978606736682
16.8394 431
16.85951 390.989452252132
16.87962 409.006977905632
16.89974 400.039996564126
16.91985 440.979210566132
16.93996 399.112648935702
16.96008 361.021791438635
16.98019 362.982044999451
17.00031 402.000199294098
17.02042 372.992237011843
17.04053 396.019367639924
17.06065 388.001891403606
17.08076 406.966449359321
17.10087 410.003466267905
17.12099 409.000767654981
17.1411 415
17.16121 425.979363494085
17.18133 361.975244635486
17.20144 402.07233670253
17.22156 404.999851847377
17.24167 420.969983589098
17.26178 426.017410767886
17.2819 405
17.30201 411.983802081961
17.32212 357.987220136247
17.34224 406.131850241861
17.36235 441.008836226915
17.38247 413.046888673574
17.40258 398.996811138306
17.42269 403.005712460051
17.44281 390.00786018931
17.46292 415.987395500546
17.48303 377.998059428113
17.50315 420.075132585101
17.52326 410.046914787729
17.54338 397.004941199339
17.56349 405.984390513451
17.5836 443
17.60372 435.989085300289
17.62383 430.985852867968
17.64394 417.989749588078
17.66406 419.011659016702
17.68417 416.961804347603
17.70428 437.042441642445
17.7244 368
17.74451 441.030361257597
17.76463 445.987041551835
17.78474 444.97165478004
17.80485 415.067189477928
17.82497 412.960435569782
17.84508 439.007166009641
17.86519 405.01070251902
17.88531 418.015031198526
17.90542 425.963750458012
17.92554 376.984945275509
17.94565 416.092678794895
17.96576 422.013180199314
17.98588 425.981110037244
18.00599 452.988257074973
18.0261 465
18.04622 453.965094828851
18.06633 417.993535237568
18.08645 432.974081201991
18.10656 402.003855834057
18.12667 428.990554997351
18.14679 405.007032911732
18.1669 422
18.18701 440.001101356049
18.20713 428.974454130553
18.22724 415.98858834365
18.24735 414.012092497375
18.26747 404.016013310101
18.28758 400.991280745041
18.3077 420
18.32781 439.005362855457
18.34792 426.954433453691
18.36804 386.026707617234
18.38815 434.960448311321
18.40826 417.962680796634
18.42838 464.004342204523
18.44849 416.003511571195
18.46861 443.986269611538
18.48872 370.9823407358
18.50883 437.116486524019
18.52895 450.86363406487
18.54906 386.022859201989
18.56917 428.947301763282
18.58929 422.010729246953
18.6094 418
18.62951 433.992734415973
18.64963 405.002053776524
18.66974 431.00073001088
18.68986 390.094335997558
18.70997 394.878398316724
18.73008 477.017857708856
18.7502 381
18.77031 425.032970671227
18.79042 451.998841705601
18.81054 441.978721194206
18.83065 443.950614651458
18.85077 468.981794701973
18.87088 451.04725172264
18.89099 410.998071993863
18.91111 454.020315512907
18.93122 456.970781166987
18.95133 435.029268852518
18.97145 474.005269611866
18.99156 434.061604071629
19.01168 442.97125204562
19.03179 459.004830935779
19.0519 434
19.07202 446.038457992625
19.09213 472.969171883617
19.11224 429.991429512969
19.13236 469.943101436006
19.15247 466.998978690183
19.17258 480.001380598995
19.1927 459
19.21281 455.001264949444
19.23293 454.995297253873
19.25304 461.05593431775
19.27315 496.959198274698
19.29327 492.997012554332
19.31338 497.024305826141
19.33349 461.00007337486
19.35361 502.019845088778
19.37372 513.9994708813
19.39384 512.990475964979
19.41395 518.078929798971
19.43406 563.939355380173
19.45418 563.018968118094
19.47429 542.01000802234
19.4944 537
19.51452 581.050752789862
19.53463 619.030421285074
19.55475 618.953437042516
19.57486 596.028511057638
19.59497 606.939981998594
19.61509 655.983453815909
19.6352 663
19.65531 685.037140557748
19.67543 779.081510460947
19.69554 776.964985027908
19.71565 781.938849449426
19.73577 800.017555431308
19.75588 784.96851224951
19.776 845
19.79611 848.038724942438
19.81622 963.022772705964
19.83634 897.960544147511
19.85645 949.956949978454
19.87656 909.032503530641
19.89668 952.943727086813
19.91679 963.023842868956
19.93691 903.994212884708
19.95702 933.004585601551
19.97713 898.96714713152
19.99725 919.103792568474
20.01736 968.871784918696
20.03747 996.102997580952
20.05759 869.043572150684
20.0777 862
20.09782 868.015314570498
20.11793 898.043646346767
20.13804 892.88543267136
20.15816 819.070213222179
20.17827 845.912865459507
20.19838 881.012294590131
20.2185 839
20.23861 829.989101674796
20.25872 805.015209739388
20.27884 844.00573423628
20.29895 809.036536032714
20.31907 837.943508671859
20.33918 851.010673291873
20.35929 825.016822649531
20.37941 804.002499297632
20.39952 828.022662735921
20.41963 832.986254822177
20.43975 809.900314100493
20.45986 771.032080162155
20.47998 778.988091010864
20.50009 781.999393099749
20.5202 792
20.54032 822.029990843959
20.56043 827.948005869289
20.58054 783.990103106526
20.60066 812.980865138349
20.62077 803.960692157371
20.64088 831.06086909946
20.661 727
20.68111 816.032118531581
20.70123 821.053313005367
20.72134 891.035689558081
20.74145 878.835746619685
20.76157 1017.853495654
20.78168 1040.97242336489
20.80179 1108.96820767233
20.82191 1144.01278238802
20.84202 1152.96547395624
20.86214 1101.97414794188
20.88225 1098.81328637808
20.90236 976.127070054543
20.92248 997.971644133446
20.94259 992.999601269591
20.9627 999
20.98282 941.961317064439
21.00293 952.064939332591
21.02305 984.984683560143
21.04316 965.954423198916
21.06327 1022.95744573847
21.08339 1014.99484189333
21.1035 1049
21.12361 1027.9983067298
21.14373 1041.97704540068
21.16384 1002.97942489059
21.18395 1002.15619984765
21.20407 889.119148931199
21.22418 897.930632583198
21.2443 952
21.26441 891.97692467325
21.28452 904.05177292156
21.30464 934.934660973117
21.32475 862.11478049222
21.34486 881.883008183977
21.36498 914.033067771597
21.38509 846.016675486539
21.40521 861.004064726413
21.42532 853.021629216729
21.44543 890.992534054121
21.46555 858.032425513077
21.48566 915.944974326318
21.50577 896.014909786686
21.52589 918.989486937746
21.546 920
21.56612 935.036982230498
21.58623 976.032744182801
21.60634 952.858215381883
21.62646 883.030526272399
21.64657 893.069506768885
21.66668 796.05860095242
21.6868 807
21.70691 817.013133338391
21.72702 827.933844594383
21.74714 723.92108483464
21.76725 755.97692700848
21.78737 710.058381537009
21.80748 740.898512806546
21.82759 824.013508715756
21.84771 728.985593911439
21.86782 786.02918858311
21.88793 765.028882387737
21.90805 836.108549581594
21.92816 813.099331479562
21.94828 779.014887637025
21.96839 786.984260383791
21.9885 817
22.00862 794.98309000473
22.02873 781.941321417233
22.04884 732.976351594273
22.06896 746.041783361771
22.08907 685.071614066594
22.10919 690.976269842436
22.1293 721
22.14941 656.995134945856
22.16953 692.985298604082
22.18964 625.911705466197
22.20975 634.96666950295
22.22987 628.999975873423
22.24998 644.983607135756
22.27009 629.032770696444
22.29021 578.023004836258
22.31032 669.001072253188
22.33044 599.024106261203
22.35055 700.110973069183
22.37066 634.169655851929
22.39078 601.997363981301
22.41089 627.971925416837
22.431 680
22.45112 648.984534690601
22.47123 677.071481209334
22.49135 701.957376638486
22.51146 671.988822457505
22.53157 707.980855216673
22.55169 682.01325959806
22.5718 697
22.59191 742.983224184496
22.61203 667.980620666571
22.63214 716.010502068892
22.65225 668.019729217241
22.67237 707.99642672072
22.69248 668.001353139568
22.7126 718
22.73271 690.969763727571
22.75282 650.006373783127
22.77294 680.004556661203
22.79305 651.030977522825
22.81316 684.875707108063
22.83328 734.985633479921
22.85339 714.016419776909
22.87351 685.985377415985
22.89362 666.006558896234
22.91373 698.058474751111
22.93385 695.816968424632
22.95396 611.010859057297
22.97407 677.937172798003
22.99419 656.013708389431
23.0143 657
23.03442 659.015685993579
23.05453 678.996706667613
23.07464 655.96790293079
23.09476 658.986605872074
23.11487 664.975770874984
23.13498 683.996750282406
23.1551 674
23.17521 687.00723033897
23.19532 686.983101908118
23.21544 673.022704362383
23.23555 692.033911597616
23.25567 650.0385024458
23.27578 653.000326048991
23.29589 654.979045339244
23.31601 694.978931136348
23.33612 611.998123823618
23.35623 700.097633598281
23.37635 693.964579108379
23.39646 720.892166998107
23.41658 785.927179572953
23.43669 836.999469892167
23.4568 819
23.47692 888.0647843851
23.49703 932.084649015585
23.51714 1008.13569252254
23.53726 1059.89314240729
23.55737 1110.96238553754
23.57749 1100.01703765581
23.5976 1081
23.61771 1111.99139257432
23.63783 1045.91375480251
23.65794 1037.04737609439
23.67805 1064.95188686119
23.69817 1055.07071981977
23.71828 978.090039995886
23.73839 894.036619990783
23.75851 848.998961355461
23.77862 856.971124348396
23.79874 800.948327660837
23.81885 803.936004453557
23.83896 736.130283304833
23.85908 715.975909975272
23.87919 727.029142230764
23.8993 665
23.91942 785.003125238916
23.93953 667.907914160684
23.95965 725.160377639054
23.97976 723.0623814048
23.99987 705.994591777815
24.01999 693.036454002142
24.0401 610
24.06021 683.018268472135
24.08033 649.957192209765
24.10044 669.072386815143
24.12056 677.07112503235
24.14067 633.002270844886
24.16078 667.985608467218
24.1809 649
24.20101 669.010573762749
24.22112 659.956278349549
24.24124 637.116655881396
24.26135 721.019617762465
24.28146 626.120036440417
24.30158 646.973629887815
24.32169 641.998877939855
24.34181 657.998721214353
24.36192 642.007923444421
24.38203 674.028151631816
24.40215 661.94122108832
24.42226 656.951020820299
24.44237 686.004096856677
24.46249 664.994700420177
24.4826 710
24.50272 713.005013254555
24.52283 726.99827525056
24.54294 717.022857685559
24.56306 767.845728205526
24.58317 819.024042317046
24.60328 768.012520621596
24.6234 798
24.64351 761.990984308997
24.66362 775.000419353025
24.68374 752.978783742686
24.70385 768.940076436426
24.72397 797.926635925377
24.74408 821.064420197192
24.76419 711.025235847178
24.78431 756.036040350606
24.80442 778.96490603031
24.82453 737.017193174381
24.84465 791.063572312352
24.86476 767.047379974227
24.88488 758.029158861038
24.90499 708.017848593287
24.9251 705
24.94522 713.998781426304
24.96533 713.022565541838
24.98544 729.977728141369
25.00556 696.041927554927
25.02567 709.946717261094
25.04579 727.014347877807
25.0659 673
25.08601 680.006319160089
25.10613 678.997565728391
25.12624 698.095436671401
25.14635 744.98152565067
25.16647 707.07601784819
25.18658 678.00462543259
25.20669 686.995324980688
25.22681 699.014963626124
25.24692 713.951499618408
25.26704 631.927785308505
25.28715 647.991406062686
25.30726 623.94821833634
25.32738 686.983805217466
25.34749 657.994480615069
25.3676 705
25.38772 636.953265768684
25.40783 658.080672040103
25.42795 686.95194172842
25.44806 649.007436176038
25.46817 676.993264178424
25.48829 641.018923384446
25.5084 642
25.52851 689.005609808842
25.54863 676.021175202423
25.56874 716.026363713258
25.58886 702.972660619261
25.60897 762.891596672531
25.62908 810.980359043265
25.6492 816
25.66931 863.052758981381
25.68942 956.991254193151
25.70954 907.121202728794
25.72965 1048.89961901361
25.74976 967.085375252664
25.76988 1011.98060018264
25.78999 951.041269189496
25.81011 884.965851665738
25.83022 802.913876241821
25.85033 716.866942425008
25.87045 657.013341765794
25.89056 684.061576807821
25.91067 601.073900322391
25.93079 614.989262879915
25.9509 618
25.97102 643.005943719
25.99113 620.956458427509
26.01124 595.939744455704
26.03136 579.945557070618
26.05147 625.983620702765
26.07158 595.025790651942
26.0917 592
26.11181 576.003171745357
26.13193 601.016271778924
26.15204 588.977735445268
26.17215 599.923763986699
26.19227 616.045496744831
26.21238 569.998408185572
26.23249 623.976222777197
26.25261 632.998137603475
26.27272 640.015169876598
26.29283 639.945827812917
26.31295 612.114293092151
26.33306 707.888663287336
26.35318 700.006463753136
26.37329 722.992512096887
26.3934 718
26.41352 743.043498426711
26.43363 799.101323676165
26.45374 867.112980895004
26.47386 942.730065099307
26.49397 1136.68772420311
26.51409 1313.93012766448
26.5342 1493
26.55431 1894.20449608924
26.57443 2217.34390421455
26.59454 2358.11647907911
26.61465 2363.06705439941
26.63477 2266.33820405464
26.65488 1945.31800612873
26.67499 1687.1154810538
26.69511 1449.88208410813
26.71522 1220.7832731165
26.73534 1048.81199760683
26.75545 977.669677867839
26.77556 808.19048916454
26.79568 826.936008542388
26.81579 859.004363454316
26.8359 835
26.85602 862.038025488412
26.87613 874.958391907695
26.89625 844.047772585971
26.91636 912.871488909637
26.93647 940.980773153818
26.95659 947.006970408743
26.9767 932
26.99681 979.022459020121
27.01693 975.903032015203
27.03704 899.955219682821
27.05716 939.907030234558
27.07727 948.030679324071
27.09738 930.991379977076
27.1175 947
27.13761 922.016612437229
27.15772 992.018711844228
27.17784 934.860688794534
27.19795 916.909582535187
27.21806 969.940648388367
27.23818 974.98142758329
27.25829 1018.97888212312
27.27841 1050.01819049267
27.29852 1099.05109730565
27.31863 1148.07764012832
27.33875 1196.07846426355
27.35886 1252.73020634469
27.37897 1449.72092362353
27.39909 1570.96480425027
27.4192 1615
27.43932 1644.04712905598
27.45943 1675.95264143944
27.47954 1587.82294522221
27.49966 1544.01551069291
27.51977 1529.08367126778
27.53988 1427.11799461339
27.56 1356
27.58011 1411.01227928256
27.60023 1376.92933657384
27.62034 1378.13133786353
27.64045 1470.83962829134
27.66057 1484.01000225863
27.68068 1485.99256778425
27.70079 1492.99810931989
27.72091 1485.98872084261
27.74102 1423.88036789986
27.76113 1305.94554485951
27.78125 1317.87217986535
27.80136 1182.25628115924
27.82148 1102.07974701148
27.84159 1005.04062589483
27.8617 945
27.88182 878.960956246213
27.90193 874.012585252595
27.92204 849.837526211059
27.94216 744.140751605923
27.96227 731.982533127556
27.98239 723.019494049385
28.0025 666
28.02261 644.006827379741
28.04273 662.983531830106
28.06284 624.946548709372
28.08295 605.136794686585
28.10307 542.00237667942
28.12318 589.984194590699
28.1433 560
28.16341 586.001463129254
28.18352 560.998846621004
28.20364 577.955751066231
28.22375 518.909482774538
28.24386 543.869471416991
28.26398 586.02496735871
28.28409 516.024310557865
28.3042 518
28.32432 520.997891122542
28.34443 526.023920746842
28.36455 539.987598988313
28.38466 506.110860368403
28.40477 464.995276556905
28.42489 494.995188494723
28.445 482
28.46511 516.008275294416
28.48523 493.940563975863
28.50534 454.919674938036
28.52546 447.874305141408
28.54557 532.967586124975
28.56568 478.059128276697
28.5858 461
28.60591 461.004299980162
28.62602 461.968631697779
28.64614 417.976898295482
28.66625 449.896229283893
28.68636 469.004813250204
28.70648 453.022707117681
28.72659 448.983226946462
28.74671 503.01881916567
28.76682 500.970978048102
28.78693 461.93396595264
28.80705 445.09533943857
28.82716 502.972736739755
28.84727 468.036663712532
28.86739 474.999810878894
28.8875 459
28.90762 465.988533938465
28.92773 443.002932680824
28.94784 477.07349177749
28.96796 484.053134195186
28.98807 448.025738227797
29.00818 444.024351374839
29.0283 417
29.04841 475.014103523334
29.06853 450.949529322192
29.08864 460.123754923547
29.10875 516.050163815903
29.12887 442.05328679483
29.14898 469.975494760211
29.16909 462.001365649621
29.18921 483.012601387848
29.20932 493.997378667739
29.22943 474.941963173331
29.24955 430.923131517318
29.26966 440.879915669969
29.28978 497.012522715867
29.30989 426.027182251661
29.33 436
29.35012 487.045024925868
29.37023 509.989259909154
29.39034 483.948917309325
29.41046 468.031581875399
29.43057 461.965103708285
29.45069 499.990994213797
29.4708 481
29.49091 462.011425399686
29.51103 508.041688350231
29.53114 487.88644409262
29.55125 443.978663626142
29.57137 488.961176817332
29.59148 478.010392941862
29.6116 496
29.63171 530.009693386765
29.65182 537.00825901275
29.67194 555.044497318903
29.69205 559.928215449565
29.71216 533.940319255702
29.73228 598.97417949413
29.75239 594.975433973707
29.7725 684
29.79262 635.948363504596
29.81273 641.070932484041
29.83285 697.111835846444
29.85296 721.969828822488
29.87307 738.970234488306
29.89319 745.012902173185
29.9133 710
29.93341 729.996708718139
29.95353 702.008295277355
29.97364 726.951519119546
29.99376 645.155701411172
30.01387 609.02370537615
30.03398 602.984456889655
30.0541 628
30.07421 613.988195024919
30.09432 606.018596855809
30.11444 615.910287546377
30.13455 545.05195978319
30.15467 586.93737674951
30.17478 578.047614177852
30.19489 534.004666851705
30.21501 556.009578124777
30.23512 551.986338565212
30.25523 543.999519517515
30.27535 545.992657168051
30.29546 538.011575359861
30.31557 533.01895019221
30.33569 523.992706571721
30.3558 550
30.37592 541.016321775812
30.39603 571.993315706121
30.41614 534.966587704295
30.43626 546.012563282909
30.45637 523.986429478793
30.47648 558.991362257328
30.4966 531
30.51671 553.031788761155
30.53683 598.956595846661
30.55694 530.972043207831
30.57705 589.856162511316
30.59717 604.993267833363
30.61728 613.006742019297
30.63739 595.003644088804
30.65751 605.005987918667
30.67762 619.031016307733
30.69773 661.046795379994
30.71785 682.080446603825
30.73796 703.069074066066
30.75808 657.965773296276
30.77819 741.993165124821
30.7983 675
30.81842 691.98886245525
30.83853 640.971080385466
30.85864 674.069860581556
30.87876 653.168319326802
30.89887 559.06197830186
30.91899 584.977037815095
30.9391 604
30.95921 573.976957321881
30.97933 532.970903274303
30.99944 533.002947247353
31.01955 519.070104462182
31.03967 485.048546323869
31.05978 472.97987799865
31.0799 498
31.10001 453.980580172072
31.12012 448.01570814483
31.14024 456.969888125073
31.16035 435.978169760702
31.18046 473.938267980089
31.20058 478.006648105954
31.22069 477.996137166708
31.2408 476
31.26092 441.002892654862
31.28103 463.974538235199
31.30115 409.93043353562
31.32126 437.898869854465
31.34137 461.033398983652
31.36149 429.992518340228
31.3816 478
31.40171 447.993271172955
31.42183 454.958205482251
31.44194 394.932738212827
31.46206 425.849145223048
31.48217 474.048638318642
31.50228 397.031681594234
31.5224 439
31.54251 449.986191642742
31.56262 417.993428350954
31.58274 439.042429847912
31.60285 431.098264818642
31.62297 401.961531516862
31.64308 456.986060366053
31.66319 418.016690740225
31.68331 430.019488667038
31.70342 452.981870145716
31.72353 406.947050474065
31.74365 413.100541733684
31.76376 449.994842630896
31.78387 424.027073430178
31.80399 430.993613646518
31.8241 438
31.84422 435.967268996986
31.86433 387.959263701736
31.88444 407.110261036197
31.90456 450.017171211496
31.92467 410.018416743373
31.94478 442.963497640556
31.9649 459
31.98501 475.004407788728
32.00513 474.99987777333
32.02524 470.959110519794
32.04535 435.092785928061
32.06547 417.983420062686
32.08558 443.980450484318
32.10569 445.004299162452
32.12581 430.988029572909
32.14592 421.032762005984
32.16604 480.078618786878
32.18615 470.89692919155
32.20626 446.945847618898
32.22638 495.992282189688
32.24649 465.002008221572
32.2666 515
32.28672 568.051506321157
32.30683 593.947059666929
32.32694 531.963730033112
32.34706 582.851042334744
32.36717 617.039594723221
32.38729 561.017040663501
32.4074 568
32.42751 566.993119269657
32.44763 534.910055910711
32.46774 477.975760462862
32.48785 512.893678254408
32.50797 526.022297586179
32.52808 495.03657071516
32.5482 481
32.56831 496.96754927775
32.58842 406.008807646022
32.60854 497.060170368169
32.62865 436.098508202129
32.64876 454.995642745177
32.66888 421.013763316137
32.68899 440.994505573878
32.7091 439
32.72922 470.98422249433
32.74933 428.009726293294
32.76945 479.035186609401
32.78956 440.053863626012
32.80967 458.948951013267
32.82979 470.009843474438
32.8499 446
32.87001 476.006777611017
32.89013 454.949807394121
32.91024 445.055770674394
32.93036 485.971698711934
32.95047 466.033229025543
32.97058 466.982311988336
32.9907 482
33.01081 467.994494415442
33.03092 459.979305351087
33.05104 442.032407198487
33.07115 481.946810114473
33.09127 485.955345016044
33.11138 526.009166836752
33.13149 469.021779242227
33.15161 462.997642140156
33.17172 462.041500151519
33.19183 519.009016489309
33.21195 476.947097990804
33.23206 502.93834534929
33.25217 498.059199300244
33.27229 455.008000986231
33.2924 467
33.31252 470.017292549283
33.33263 490.987476109581
33.35274 463.995992208098
33.37286 485.997293820762
33.39297 462.01418496844
33.41308 481.975640638916
33.4332 490
33.45331 475.98766886039
33.47343 453.993413438829
33.49354 470.048990796791
33.51365 474.0844337956
33.53377 435.986249411174
33.55388 486.964466149368
33.57399 479.011405555586
33.59411 459.987575010025
33.61422 439.002812992471
33.63434 457.009450697977
33.65445 452.042346303302
33.67456 478.019671764303
33.69468 444.001577259554
33.71479 476.993498178652
33.7349 457
33.75502 466.000448215592
33.77513 439.938316571181
33.79524 424.077545430154
33.81536 479.989833038678
33.83547 435.040065670032
33.85559 448.995516675772
33.8757 437
33.89581 446.998962497727
33.91593 447.062115958155
33.93604 497.977738273819
33.95615 430.117859494361
33.97627 430.999937290339
33.99638 435.935169875404
34.0165 518
34.03661 441.976603274842
34.05672 460.014276360115
34.07684 431.919303313227
34.09695 424.893600199204
34.11706 479.9732135424
34.13718 461.985188438788
34.15729 497.011011285562
34.17741 428.987503096489
34.19752 478.065568209765
34.21763 523.064874765586
34.23775 549.940533646143
34.25786 490.092481628304
34.27797 487.963767488447
34.29809 516.984976738724
34.3182 528
34.33831 498.006533208295
34.35843 548.048683792355
34.37854 528.898488120456
34.39866 497.957074196492
34.41877 541.99393179304
34.43888 523.959729972209
34.459 608
34.47911 562.97504020927
34.49922 549.995163843496
34.51934 545.031129353377
34.53945 575.950189777112
34.55957 583.968640820264
34.57968 613.990201575026
34.59979 595.013565639646
34.61991 584.004605486324
34.64002 605.020166978065
34.66013 625.048760290848
34.68025 664.064961102882
34.70036 673.980948719704
34.72047 687.98903711638
34.74059 687.99845042183
34.7607 703
34.78082 737.042890425299
34.80093 774.022935470989
34.82104 776.024445016314
34.84116 798.979554493032
34.86127 794.994910622698
34.88138 797.02980446401
34.9015 758
34.92161 804.014198935207
34.94173 796.995740980279
34.96184 795.918279154529
34.98195 738.023595175471
35.00207 758.051716384333
35.02218 687.00451346548
35.04229 752.981397550457
35.06241 730.993580323095
35.08252 749.002367311899
35.10264 726.982645940163
35.12275 737.99935343618
35.14286 730.956956851899
35.16298 768.993402022636
35.18309 740.010443295728
35.2032 747
35.22332 739.975833486961
35.24343 723.020681539274
35.26354 742.956198399274
35.28366 695.018890369898
35.30377 734.945829274658
35.32389 725.022655306159
35.344 679
35.36411 686.008253903552
35.38423 685.965053091679
35.40434 667.039858038071
35.42445 704.00705817409
35.44457 671.990691036455
35.46468 711.001382215628
35.4848 667
35.50491 698.011948792064
35.52502 678.955412426566
35.54514 642.980592144014
35.56525 664.896528312999
35.58536 690.031401067593
35.60548 657.999066349613
35.62559 680.009015363179
35.64571 625.987916635599
35.66582 661.058207548735
35.68593 685.955489981446
35.70605 634.956571703845
35.72616 667.909378125392
35.74627 674.071324160808
35.76639 613.009442666187
35.7865 646
35.80661 663.005212719859
35.82673 664.963324915688
35.84684 628.971461344764
35.86696 637.998058603276
35.88707 620.024630603609
35.90718 621.983114177402
35.9273 628
35.94741 598.010397068838
35.96752 659.036800382022
35.98764 637.902228241613
36.00775 608.975760725926
36.02787 634.002377143125
36.04798 604.018067780275
36.06809 609.000429114836
36.08821 600.004800163776
36.10832 617.989364727388
36.12843 588.999970930589
36.14855 612.989942256829
36.16866 580.021383559439
36.18878 597.000834180511
36.20889 569.009361738166
36.229 582
36.24912 618.041277106787
36.26923 643.983467866853
36.28934 601.909507118549
36.30946 588.94418590098
36.32957 618.027577114211
36.34968 570.010714677918
36.3698 603
36.38991 586.998296932549
36.41003 621.076901623888
36.43014 653.996497535067
36.45025 647.909875388908
36.47037 706.976789074133
36.49048 680.00208243176
36.51059 711.996190310078
36.53071 695.008249417618
36.55082 724.965272213576
36.57094 638.90997846811
36.59105 666.098600579519
36.61116 669.046363408921
36.63128 632.048310134769
36.65139 612.975363228902
36.6715 679
36.69162 594.931803411533
36.71173 591.028772621492
36.73184 603.030752007413
36.75196 614.024188301193
36.77207 598.968593295258
36.79219 638.998673512894
36.8123 591
36.83241 575.013899015532
36.85253 626.073045502037
36.87264 643.966340587561
36.89275 618.012884797158
36.91287 638.966081274242
36.93298 642.013630775787
36.9531 626
36.97321 620.989084747353
36.99332 598.010544048386
37.01344 624.983349763575
37.03355 602.906277157658
37.05366 674.9851126847
37.07378 599.078314541294
37.09389 584.981422762298
37.11401 629.009534276369
37.13412 614.976006137828
37.15423 613.043843807193
37.17435 645.999236144671
37.19446 599.138780904777
37.21457 557.976637896749
37.23469 601.992208061811
37.2548 578
37.27491 586.004675563551
37.29503 577.971061372847
37.31514 556.96243931005
37.33526 558.924845395468
37.35537 590.049512934931
37.37548 524.0095415228
37.3956 580
37.41571 566.987028858508
37.43582 562.009172498981
37.45594 574.020356375222
37.47605 575.027671211162
37.49617 559.015984673661
37.51628 557.997104835143
37.53639 560.997485804146
37.55651 567.001924127777
37.57662 570.006439681496
37.59673 577.000376879713
37.61685 555.876500915564
37.63696 514.975024300313
37.65708 577.934608167449
37.67719 589.026569411216
37.6973 530
37.71742 590.039780970477
37.73753 578.974126987177
37.75764 583.016852342658
37.77776 573.068277858414
37.79787 543.982283674827
37.81798 578.995505743658
37.8381 545
37.85821 549.006181887502
37.87833 555.010446230575
37.89844 560.991208876069
37.91855 558.943933359817
37.93867 585.020678470144
37.95878 546.005801522708
37.97889 572.999512923632
37.99901 533.983093068978
38.01912 533.015018342044
38.03924 558.090931422357
38.05935 591.948109817687
38.07946 542.020194727119
38.09958 581.968461961677
38.11969 565.023671048334
38.1398 527
38.15992 548.021608297182
38.18003 543.955646277226
38.20015 514.995287588001
38.22026 539.949847682509
38.24037 543.022465588089
38.26049 538.984024143187
38.2806 590
38.30071 575.984498005224
38.32083 561.015217998219
38.34094 584.028901215079
38.36105 579.035455845464
38.38117 568.008225285005
38.40128 566.999750920422
38.4214 562
38.44151 553.005843730891
38.46162 566.981609137618
38.48174 549.099912561914
38.50185 624.028929136714
38.52196 530.121094428694
38.54208 555.949876219118
38.56219 575.002877438793
38.58231 552.982004047932
38.60242 534.027394429645
38.62253 581.015228346669
38.64265 544.911179159007
38.66276 538.986443985266
38.68287 539.013889932608
38.70299 520.013186604121
38.7231 518
38.74321 594.01942280559
38.76333 572.934796668705
38.78344 547.995616931252
38.80356 566.931747993403
38.82367 591.009204316889
38.84378 558.036187878528
38.8639 540
38.88401 550.008856714937
38.90412 551.966276247635
38.92424 509.995464207882
38.94435 524.101200942131
38.96447 454.003949092106
38.98458 520.958489129706
39.00469 503.008470279758
39.02481 524.017599499179
39.04492 543.99845645893
39.06503 518.933869916496
39.08515 472.9147382282
39.10526 481.860259715927
39.12538 553.00672081379
39.14549 476.030242765319
39.1656 494
39.18572 545.979285807272
39.20583 470.912009703645
39.22594 477.099636903049
39.24606 509.054519945945
39.26617 458.992257196096
39.28628 524.946134908366
39.3064 525
39.32651 520.012597985349
39.34663 558.03181363488
39.36674 554.988460824234
39.38685 555.017623286424
39.40697 548.975808464505
39.42708 566.024750127706
39.44719 511.015164285207
39.46731 540.034194712637
39.48742 583.97456873849
39.50754 512.904956071941
39.52765 528.122452331239
39.54776 542.123207646526
39.56788 452.029427549917
39.58799 489.988111066503
39.6081 460
39.62822 436.985102814887
39.64833 434.035682750489
39.66845 459.971135637968
39.68856 414.074093974227
39.70867 415.956940685741
39.72879 442.99569097468
39.7489 433
39.76901 443.020479248939
39.78913 472.9517974177
39.80924 416.013266176048
39.82935 477.949415128907
39.84947 436.04190465745
39.86958 453.980281580095
39.8897 461
39.90981 486.991946729177
39.92992 431.954019948061
39.95004 434.084123124874
39.97015 473.00029926177
39.99026 442.035919188874
40.01038 453.985000069601
40.03049 463.988201317883
40.05061 479.984069051686
40.07072 432.008264148905
40.09083 493.056894806173
40.11095 481.972335642903
40.13106 492.9873451024
40.15117 486.003430296643
40.17129 491.001605775675
40.1914 488
40.21152 526.023189534153
40.23163 524.994628671867
40.25174 522.964361147433
40.27186 487.076276436421
40.29197 470.976726893302
40.31208 505.967452361038
40.3322 513
40.35231 494.006440733747
40.37242 526.007635614844
40.39254 487.876849947265
40.41265 446.991971694764
40.43277 482.948806567814
40.45288 496.990436153632
40.47299 505.00334540212
40.49311 476.978768831993
40.51322 456.030349599097
40.53333 492.953396129641
40.55345 421.980193198245
40.57356 472.993573279903
40.59368 415.025839692687
40.61379 446.988809764613
40.6339 445
40.65402 491.005307129777
40.67413 451.960205981558
40.69424 460.017031260823
40.71436 454.997106606979
40.73447 469.976755853453
40.75458 477.994755259778
40.7747 477
40.79481 461.003153541796
40.81493 478.994478294222
40.83504 460.010509352628
40.85515 478.050652521038
40.87527 436.989111115482
40.89538 497.949477012228
40.91549 490.025504643458
40.93561 439.990268900161
40.95572 457.03047307368
40.97584 481.039895925268
40.99595 481.910518768078
41.01606 438.009853950859
41.03618 472.971052120687
41.05629 477.995720815661
41.0764 496
41.09652 486.996458482243
41.11663 500.031110954469
41.13675 493.853249016505
41.15686 438.935881332397
41.17697 522.973869379089
41.19709 455.02663706925
41.2172 463
41.23731 452.990385809824
41.25743 456.05923421982
41.27754 504.02732725007
41.29765 476.08562722453
41.31777 457.025230939299
41.33788 456.955259676281
41.358 514
41.37811 470.983034940691
41.39822 467.990763931271
41.41834 454.040267372023
41.43845 492.992132583218
41.45856 473.946467580496
41.47868 518.036089991014
41.49879 434.999226606795
41.51891 534.03867172283
41.53902 526.963347650684
41.55913 524.059282524488
41.57925 577.069985434939
41.59936 578.975350857545
41.61947 603.995403167174
41.63959 587.998751189528
41.6597 613
41.67982 609.005062691119
41.69993 602.904152000769
41.72004 517.957187526777
41.74016 572.880859985383
41.76027 578.057071784043
41.78038 533.026504641888
41.8005 521
41.82061 480.988045731166
41.84072 477.993546265908
41.86084 460.979963892269
41.88095 467.958474364031
41.90107 465.066682746694
41.92118 415.993754129736
41.94129 466.987435517468
41.96141 442.98696702186
41.98152 444.01060657349
42.00163 445.98885598494
42.02175 445.055314293332
42.04186 463.060459655453
42.06198 417.981837504241
42.08209 474.004938420604
42.1022 396
42.12232 426.043153089651
42.14243 425.941245382383
42.16254 400.071752755576
42.18266 463.982604504968
42.20277 426.985894648747
42.22289 487.987580288203
42.243 448
42.26311 433.99908399857
42.28323 442.053257844776
42.30334 476.976502884215
42.32345 437.008255087639
42.34357 477.958068181171
42.36368 473.000928332789
42.38379 485.001691564096
42.40391 478.014735004304
42.42402 534.031871838259
42.44414 509.876539890175
42.46425 469.052605149209
42.48436 511.038645976553
42.50448 443.02144478057
42.52459 498.965485200709
42.5447 517
42.56482 454.934944068324
42.58493 426.033874191296
42.60505 472.064329442971
42.62516 468.994801001757
42.64527 471.058835425628
42.66539 410.01073221107
42.6855 446
42.70561 464.992031548672
42.72573 445.015607022461
42.74584 474.002806959602
42.76595 436.106293606668
42.78607 431.934780896435
42.80618 472.024224480282
42.8263 416
42.84641 480.011943864013
42.86652 434.954892119933
42.88664 432.026887686204
42.90675 442.962341582126
42.92686 451.034260235221
42.94698 424.002999831232
42.96709 444.994451072908
42.98721 425.982303195612
43.00732 406.014126521026
43.02743 439.026742184666
43.04755 426.94257206938
43.06766 415.989025150321
43.08777 426.998231368259
43.10789 419.999084032275
43.128 431
43.14812 420.98747007927
43.16823 410.980527484198
43.18834 396.985600266959
43.20846 399.982144957793
43.22857 414.962232300858
43.24868 439.990298766911
43.2688 422
43.28891 393.011016685766
43.30902 435.996709539613
43.32914 376.886159085408
43.34925 380.833405911554
43.36937 447.996638990938
43.38948 387.057149314445
43.40959 384.980900709436
43.42971 428.013302371508
43.44982 437.010540978446
43.46993 436.937078373248
43.49005 376.944900780815
43.51016 399.960457556238
43.53028 400.98540716513
43.55039 432.989848281067
43.5705 419
43.59062 380.992712071173
43.61073 387.968163390867
43.63084 353.016876125163
43.65096 410.888862212976
43.67107 435.975212278604
43.69119 450.002605902874
43.7113 423
43.73141 401.99984705435
43.75153 419.03564977987
43.77164 425.953575996066
43.79175 391.035619119845
43.81187 405.968952014131
43.83198 418.985002147366
43.85209 431.003033962909
43.87221 409.991236344273
43.89232 415.028499555414
43.91244 436.968195161221
43.93255 402.997435292678
43.95266 440.936476705093
43.97278 443.006834260432
43.99289 437.008150837194
44.013 429
44.03312 478.017496864393
44.05323 444.920780379177
44.07335 410.984567975555
44.09346 425.958440825371
44.11357 436.003603552474
44.13369 425.007027401841
44.1538 412
44.17391 399.995722802896
44.19403 397.003697098232
44.21414 407.039298172638
44.23426 422.013074644622
44.25437 402.012846019448
44.27448 413.983216131779
44.2946 411
44.31471 378.001333405312
44.33482 405.003211354145
44.35494 382.998597465822
44.37505 412.941829998456
44.39516 413.005894876746
44.41528 424.97569710777
44.43539 433.017301095174
44.45551 377.986986496659
44.47562 400.040380106909
44.49573 415.966786204622
44.51585 374.933403552317
44.53596 381.945514411537
44.55607 406.980180282504
44.57619 413.992236561711
44.5963 424
44.61642 388.005300458203
44.63653 438.068206237474
44.65664 431.887679090068
44.67676 372.034709048333
44.69687 405.927206771979
44.71698 425.018551173178
44.7371 395
44.75721 417.011244917746
44.77732 419.991556218341
44.79744 404.950824002559
44.81755 384.993815943012
44.83767 412.942021613751
44.85778 443.981024179205
44.87789 450.002017609666
44.89801 436.988146563913
44.91812 412.988417909062
44.93823 416.011148431601
44.95835 417.991891548112
44.97846 415.988979277113
44.99858 431.977034389741
45.01869 445.005414520343
45.0388 417
45.05892 421.036661004268
45.07903 450.968814286957
45.09914 401.97893256948
45.11926 446.898849132289
45.13937 461.023915438292
45.15949 453.982858643165
45.1796 495
45.19971 431.989648665267
45.21983 469.037705193895
45.23994 448.941069715906
45.26005 433.036295718551
45.28017 426.966793112377
45.30028 456.005559226909
45.32039 421.008806785048
45.34051 437.009616132425
45.36062 445.012260947505
45.38074 465.030676695584
45.40085 460.934930873484
45.42096 429.036873626801
45.44108 439.962619148131
45.46119 467.008886228018
45.4813 426
45.50142 454.010731120399
45.52153 431.974078267802
45.54165 432.989539390838
45.56176 423.979787388546
45.58187 449.978253735053
45.60199 443.005620766039
45.6221 454
45.64221 497.001312954043
45.66233 461.956272734061
45.68244 466.043395443459
45.70256 484.978316588218
45.72267 489.990509557673
45.74278 498.99437442343
45.7629 495
45.78301 480.998090606728
45.80312 480.987375243985
45.82324 464.007111605202
45.84335 481.996641590901
45.86346 462.029806516454
45.88358 468.98067002427
45.90369 479.005863615728
45.92381 449.985467783093
45.94392 432.990724747272
45.96403 439.050113875695
45.98415 468.957792888911
46.00426 409.11006199715
46.02437 403.934872544147
46.04449 453.992329559389
46.0646 436
46.08472 447.000480325638
46.10483 422.952454197388
46.12494 405.001988829236
46.14506 427.915290075658
46.16517 451.049958877348
46.18528 395.007236220291
46.2054 445
46.22551 440.984205559885
46.24563 415.993732288963
46.26574 425.001370862353
46.28585 419.966725910832
46.30597 442.004926135031
46.32608 418.0059525012
46.34619 433.998449761148
46.36631 413.990830803321
46.38642 418.022582170881
46.40653 442.017438094322
46.42665 440.998669286212
46.44676 448.977373726903
46.46688 450.017906822784
46.48699 422.010091245367
46.5071 433
46.52722 476.992781559455
46.54733 428.953180291362
46.56744 445.073758984567
46.58756 462.035713980542
46.60767 422.05140864692
46.62779 404.009138957672
46.6479 394
46.66801 431.001848514257
46.68813 414.031669263516
46.70824 456.979491942334
46.72835 406.009478421855
46.74847 453.975293626737
46.76858 419.023012638002
46.78869 436.987640385907
46.80881 439.993398371125
46.82892 422.986305218445
46.84904 416.998733055819
46.86915 415.988373246135
46.88926 410.003237645133
46.90938 416.985852819281
46.92949 432.993176467956
46.9496 439
46.96972 428.986643893835
46.98983 427.031067227135
47.00995 450.990599096548
47.03006 424.029117314607
47.05017 442.942670142974
47.07029 466.006522762775
47.0904 440
47.11051 456.982852344518
47.13063 386.960723348442
47.15074 420.058248628655
47.17086 417.99567997761
47.19097 441.958437211468
47.21108 454.005507170559
47.2312 443
47.25131 439.987051352996
47.27142 401.983763019886
47.29154 425.092560622652
47.31165 468.923499018341
47.33176 474.045745799842
47.35188 439.028387244458
47.37199 430.995990305568
47.39211 436.995138632689
47.41222 427.01892476221
47.43233 465.02660029068
47.45245 452.968825046702
47.47256 448.036807576024
47.49267 429.973644320791
47.51279 460.008178899366
47.5329 405
47.55302 430.03347611006
47.57313 438.991160862413
47.59324 432.998010749717
47.61336 436.992251333669
47.63347 434.017289427912
47.65358 418.014421484468
47.6737 412
47.69381 428.015083434053
47.71393 441.947904592784
47.73404 400.049953179565
47.75415 460.02899064839
47.77427 379.061844956178
47.79438 418.946261322304
47.81449 437.998807808438
47.83461 431.987782415008
47.85472 403.993852629998
47.87483 419.015518273142
47.89495 411.971332396761
47.91506 406.006396586407
47.93518 409.981622016528
47.95529 420.014287254192
47.9754 391
47.99552 467.011468952114
48.01563 402.925188919956
48.03574 415.066427603416
48.05586 424.040529461082
48.07597 394.022455541842
48.09609 407.983893129852
48.1162 427
48.13631 394.995406112847
48.15643 418.038128662129
48.17654 419.963950409784
48.19665 402.995061464886
48.21677 428.944457178635
48.23688 448.015791911794
48.257 419
48.27711 436.998497945242
48.29722 408.985596442018
48.31734 421.025966564977
48.33745 429.055283326391
48.35756 454.006132608943
48.37768 416.048780169378
48.39779 384.005357733153
48.4179 396
48.43802 428.014501868489
48.45813 422.985885516141
48.47825 414.960794843513
48.49836 402.975085718259
48.51847 434.961593296417
48.53859 442.997688346284
48.5587 449
48.57881 432.987320755009
48.59893 405.963032686484
48.61904 398.039138455439
48.63916 425.988237503124
48.65927 402.047039086138
48.67938 386.996865987495
48.6995 402
48.71961 408.993806702747
48.73972 400.024863616954
48.75984 442.023055245494
48.77995 418.042937192691
48.80006 428.963294992952
48.82018 426.032332910674
48.84029 398.989221628699
48.86041 436.989365176792
48.88052 371.982749599825
48.90063 424.077767782278
48.92075 428.949343719041
48.94086 407.042681780539
48.96097 391.011271787485
48.98109 390.998217509946
49.0012 402
49.02132 425.996564375098
49.04143 408.008192662542
49.06154 428.981411549999
49.08166 397.99596790355
49.10177 430.988942678606
49.12188 399.028247967881
49.142 403
49.16211 423.005966694636
49.18223 430.016318613017
49.20234 433.954727048594
49.22245 397.046342625085
49.24257 407.970904523763
49.26268 420.987465207773
49.28279 438.988502554537
49.30291 457.001460390879
49.32302 442.977209560489
49.34313 419.966669370967
49.36325 404.995735742471
49.38336 412.983711077894
49.40348 417.992118633038
49.42359 431.991485503573
49.4437 448
49.46382 454.997432630355
49.48393 437.950194617711
49.50404 403.966181163777
49.52416 410.959578354618
49.54427 429.979527017311
49.56439 429.010505845861
49.5845 407
49.60461 438.020331141948
49.62473 453.963613302525
49.64484 401.897253817973
49.66495 385.932802167993
49.68507 426.972077316293
49.70518 420.996680985195
49.7253 434
49.74541 411.005574182688
49.76552 450.014330733104
49.78564 422.934286061375
49.80575 422.084410206046
49.82586 456.007604505142
49.84598 426.006873129017
49.86609 449.993363702247
49.8862 433
49.90632 429.025263492353
49.92643 471.056669788865
49.94655 486.991501698573
49.96666 491.923608652322
49.98677 538.991468373565
50.00689 512.00043032298
50.027 559
50.04711 591.003466263905
50.06723 592.020026514869
50.08734 602.951037891462
50.10746 562.009410435831
50.12757 586.010650818441
50.14768 540.032263714958
50.1678 536
50.18791 505.99181252258
50.20802 501.977268739296
50.22814 474.023536562756
50.24825 510.001382917576
50.26837 462.068010788189
50.28848 447.006201880579
50.30859 442.993305340027
50.32871 451.983739533692
50.34882 397.982286443264
50.36893 422.021094632439
50.38905 411.000279433838
50.40916 431.96952903495
50.42927 420.051390992823
50.44939 399.986792921288
50.4695 447
50.48962 422.003021726512
50.50973 464.044776304087
50.52984 459.981539861779
50.54996 471.938567701937
50.57007 494.018349990178
50.59018 455.032246001532
50.6103 455
50.63041 489.017386824463
50.65053 503.973542910156
50.67064 472.975689904772
50.69075 497.879906030107
50.71087 534.9927382305
50.73098 524.98657499787
50.75109 546.012910637063
50.77121 504.013694885313
50.79132 588.041853483047
50.81143 571.007305903992
50.83155 611.018863672055
50.85166 590.951249183012
50.87178 657.964938878969
50.89189 635.016552958568
50.912 610
50.93212 567.013773834235
50.95223 615.008973633602
50.97234 573.965575550011
50.99246 583.064936968646
51.01257 505.087945667463
51.03269 498.992015453331
51.0528 506
51.07291 495.992274304512
51.09303 468.930516587845
51.11314 424.97751795008
51.13325 438.002921334547
51.15337 419.998351196669
51.17348 452.958634538702
51.1936 449
51.21371 345.979694312614
51.23382 388.060619559804
51.25394 415.007948397405
51.27405 405.06414664584
51.29416 385.975611433232
51.31428 417.984658741921
51.33439 402.012852571059
51.3545 392
51.37462 401.986065700976
51.39473 366.95660896521
51.41485 371.093343031042
51.43496 416.943095950023
51.45507 415.030394254575
51.47519 403.993052618211
51.4953 420
51.51541 382.001154843917
51.53553 422.025896648516
51.55564 396.946082525936
51.57576 393.985938037475
51.59587 396.006012237793
51.61598 387.011843322708
51.6361 377
51.65621 379.004625953372
51.67632 383.989196344062
51.69644 372.026127586241
51.71655 400.97718218299
51.73667 382.029723124663
51.75678 378.995554688205
51.77689 377.006457420755
51.79701 359.995269826075
51.81712 370.029926324261
51.83723 386.955485546584
51.85735 343.020041585447
51.87746 391.97500554138
51.89757 355.033598289734
51.91769 371.991413033243
51.9378 378
51.95792 404.991997673798
51.97803 368.97393710853
51.99814 383.024147657113
52.01826 385.960620796343
52.03837 406.033434410287
52.05848 358.013785188304
52.0786 389
52.09871 381.989791292749
52.11883 373.011271949309
52.13894 380.974844915997
52.15905 363.960208638881
52.17917 404.969289938765
52.19928 386.031934119811
52.21939 369.000081847781
52.23951 389.020752810759
52.25962 420.989327075675
52.27974 380.95428530052
52.29985 378.942495691169
52.31996 343.990862686059
52.34008 383.980179582672
52.36019 371.001579798624
52.3803 396
52.40042 403.987181925873
52.42053 382.975699633997
52.44064 383.030086427813
52.46076 391.040092637394
52.48087 372.947214592331
52.50099 433.996407876019
52.5211 384
52.54121 393.998689626141
52.56133 367.990499867067
52.58144 404.116296052638
52.60155 441.021559916393
52.62167 413.991188616532
52.64178 435.032989608591
52.6619 367
52.68201 417.017367714828
52.70212 405.99119008266
52.72224 425.049007961555
52.74235 432.029121313787
52.76246 413.027609096543
52.78258 408.004856863066
52.80269 407.990854902122
52.8228 428
52.84292 395.980549005045
52.86303 412.058358964334
52.88315 438.98038413203
52.90326 407.044651020969
52.92337 416.952503822168
52.94349 430.017893594146
52.9636 381
52.98371 431.011056975872
53.00383 413.004238262927
53.02394 447.029284798558
53.04406 424.05671327635
53.06417 409.021758808012
53.08428 393.006155392312
53.1044 400
53.12451 414.010018948392
53.14462 436.015119539375
53.16474 443.012015094347
53.18485 449.000994630959
53.20497 439.024547689978
53.22508 425.005746113091
53.24519 427.996767966175
53.26531 425.991426838703
53.28542 414.0203465482
53.30553 454.029216413443
53.32565 442.970204899087
53.34576 455.93202019622
53.36587 473.051801415679
53.38599 421.998464041015
53.4061 470
53.42622 427.962145920913
53.44633 431.033105789639
53.46644 456.066455457046
53.48656 485.982265651318
53.50667 472.031874353989
53.52678 455.016375422081
53.5469 437
53.56701 430.006333985319
53.58713 444.986374215725
53.60724 437.088967436267
53.62735 495.04951352867
53.64747 407.082249303411
53.66758 427.961201491898
53.68769 440.999455035258
53.70781 449.009785888558
53.72792 463.989264775627
53.74804 428.927063546288
53.76815 422.078677615582
53.78826 462.976244339126
53.80838 442.019606694227
53.82849 448.987627256596
53.8486 467
53.86872 442.976565209285
53.88883 442.036051154767
53.90894 470.015985910525
53.92906 457.022348551355
53.94917 464.967300859105
53.96929 481.002232041989
53.9894 467
54.00951 489.010007878996
54.02963 488.975188105235
54.04974 471.990726260596
54.06985 479.979526526335
54.08997 473.037669492223
54.11008 446.009110354715
54.1302 449
54.15031 442.018996198894
54.17042 503.019496426083
54.19054 471.946632327656
54.21065 483.923952249895
54.23076 505.987017948516
54.25088 494.026340293965
54.27099 469.005752085618
54.29111 474.00630747872
54.31122 475.98189557255
54.33133 444.959722783696
54.35145 439.038024520013
54.37156 461.966809984815
54.39167 464.010777260859
54.41179 457.001361386867
54.4319 468
54.45201 497.001036876762
54.47213 474.973809593374
54.49224 478.022424554617
54.51236 481.018905927605
54.53247 468.004932175267
54.55258 462.034160602233
54.5727 428
54.59281 496.026419398272
54.61292 486.943872260866
54.63304 440.009051119505
54.65315 482.935320528964
54.67327 472.018953680301
54.69338 484.969389272106
54.71349 510.996730634537
54.73361 499.99403795554
54.75372 501.011362339196
54.77383 509.994495262431
54.79395 491.940825131514
54.81406 493.899204669428
54.83417 555.980422364654
54.85429 513.022703018944
54.8744 501
54.89452 505.003679961047
54.91463 508.00257607898
54.93474 512.020711391647
54.95486 514.050279918386
54.97497 478.016875045359
54.99508 499.971896636582
55.0152 497
55.03531 442.989811231062
55.05543 465.045833740023
55.07554 471.969137337093
55.09565 465.915078083804
55.11577 511.006249031105
55.13588 464.022890280281
55.15599 470.013405526812
55.17611 417.996487931992
55.19622 464.037201852164
55.21634 463.990728961498
55.23645 462.945990974472
55.25656 438.967104724421
55.27668 477.999314908415
55.29679 450.991598078655
55.3169 501
55.33702 445.965806382203
55.35713 457.007655417202
55.37724 437.979475377209
55.39736 444.005687569669
55.41747 424.030126930399
55.43759 426.983806991074
55.4577 459
55.47781 424.990983820262
55.49793 436.01293077784
55.51804 422.95482905407
55.53815 419.915431453196
55.55827 463.985657341319
55.57838 437.021041956424
55.5985 436
55.61861 418.00025037713
55.63872 442.025027342147
55.65884 448.983683975571
55.67895 439.995859560654
55.69906 451.978970350154
55.71918 450.013803693586
55.73929 426.016418765149
55.75941 411.01439859903
55.77952 452.998288562496
55.79963 417.998096004763
55.81975 446.972760786897
55.83986 398.029454523202
55.85997 439.926333630026
55.88009 449.014709821338
55.9002 415
55.92031 426.993714344544
55.94043 389.972310069696
55.96054 400.012143660669
55.98066 389.017418338766
56.00077 396.970260660783
56.02088 415.990066820286
56.041 415
56.06111 413.002107280884
56.08122 409.973965351662
56.10134 380.002795636967
56.12145 406.971533399367
56.14157 392.016744662772
56.16168 406.966806746112
56.18179 437.992187382658
56.20191 422.976047430943
56.22202 382.008866276461
56.24213 427.03692310368
56.26225 419.007229789808
56.28236 440.988919868796
56.30248 419.025110616467
56.32259 409.000301351466
56.3427 420
56.36282 444.986077713211
56.38293 397.938980241265
56.40304 397.067226485184
56.42316 433.973209050434
56.44327 422.019416155757
56.46338 432.964669443197
56.4835 468
56.50361 445.984125562863
56.52373 422.975842057366
56.54384 407.965518200637
56.56395 400.951536460679
56.58407 428.996465438762
56.60418 410.99876836459
56.62429 438.988778863366
56.64441 434.990327575134
56.66452 412.977336217497
56.68464 406.047048639545
56.70475 441.030922172776
56.72486 424.03850857157
56.74498 427.974138819706
56.76509 452.998865957646
56.7852 429
56.80532 410.999925996324
56.82543 420.008059929651
56.84554 408.945005226989
56.86566 391.957835304565
56.88577 435.964176412706
56.90589 423.011919228071
56.926 410
56.94611 404.997203127208
56.96623 409.038267947421
56.98634 434.986331433768
57.00645 402.047152674923
57.02657 413.970440545123
57.04668 421.003282609189
57.0668 404
57.08691 376.007245891941
57.10702 417.017290435993
57.12714 398.969661066851
57.14725 405.973666542428
57.16736 408.994153467987
57.18748 420.977484223225
57.20759 430.015165307966
57.22771 393.007698515226
57.24782 439.998719403131
57.26793 385.952784599694
57.28805 406.065124284111
57.30816 405.032068633453
57.32827 397.978873547373
57.34839 416.00381574023
57.3685 386
57.38861 394.009631274748
57.40873 401.984976729341
57.42884 383.981700558112
57.44896 387.990348475107
57.46907 394.966004087591
57.48918 417.009005867734
57.5093 381
57.52941 391.022199368152
57.54952 432.002865340145
57.56964 387.869842451391
57.58975 352.945296000884
57.60987 416.903557666066
57.62998 438.025245064411
57.65009 403.002442362173
57.67021 424.001436384466
57.69032 391.960419584536
57.71043 375.013905270804
57.73055 383.946664341559
57.75066 357.949519629714
57.77078 420.969159665928
57.79089 396.017497809924
57.811 385
57.83112 399.037128778588
57.85123 439.016522939862
57.87134 406.884697646973
57.89146 367.984073706451
57.91157 403.974081711061
57.93168 396.990328325488
57.9518 428
57.97191 408.981957443336
57.99203 389.018675862429
58.01214 419.032668042082
58.03225 418.970981505544
58.05237 432.036194294855
58.07248 387.01034825048
58.09259 400.01509445615
58.11271 338.99400636865
58.13282 393.05749324144
58.15294 402.945677112289
58.17305 370.963272046981
58.19316 377.977277062842
58.21328 385.985962915609
58.23339 394.009880222005
58.2535 366
58.27362 405.031028182978
58.29373 403.975612891676
58.31385 391.987958163804
58.33396 389.018254708063
58.35407 376.009524049881
58.37419 377.00068166441
58.3943 386
58.41441 424.988992858442
58.43453 362.966532767307
58.45464 412.146110425657
58.47475 447.048496199719
58.49487 399.051847320732
58.51498 386.024540248661
58.5351 355
58.55521 397.025746457725
58.57532 427.007409738624
58.59544 411.927001005738
58.61555 385.959205959589
58.63566 428.955821904067
58.65578 416.01479486724
58.67589 414.003831415306
58.69601 403.003338170617
58.71612 431.031779018745
58.73623 450.009681350496
58.75635 434.885399053388
58.77646 387.021619186111
58.79657 410.973161557394
58.81669 395.018373121839
58.8368 373
58.85691 409.007765231218
58.87703 392.972630743185
58.89714 392.013668398603
58.91726 398.982511128371
58.93737 415.955470012542
58.95748 438.011126187389
58.9776 401
58.99771 389.993448535407
59.01782 379.016498460272
59.03794 417.055644241463
59.05805 422.991610635561
59.07817 421.044226319317
59.09828 384.998676839429
59.11839 413.998455745907
59.13851 395.008148231544
59.15862 428.976593575621
59.17873 363.97678220923
59.19885 409.065193769432
59.21896 389.028595586677
59.23908 402.986883072325
59.25919 403.996700138345
59.2793 428
59.29942 443.972347139359
59.31953 400.992177010315
59.33964 426.996131601857
59.35976 397.991762714873
59.37987 434.985821814099
59.39998 404.023732895616
59.4201 411
59.44021 416.002248946572
59.46033 412.961278990993
59.48044 392.054147151821
59.50055 433.057056788146
59.52067 359.051317884053
59.54078 395.951155111726
59.56089 401.017891386235
59.58101 375.015886824321
59.60112 445.040163415343
59.62124 411.835273340582
59.64135 345.984296672091
59.66146 391.904689060083
59.68158 407.999551924471
59.70169 409.997812899948
59.7218 412
59.74192 401.995805668748
59.76203 414.043270164853
59.78215 443.028070873962
59.80226 434.028186639131
59.82237 430.986019459742
59.84249 453.981796928079
59.8626 493
59.88271 499.990277771768
59.90283 467.959563511465
59.92294 452.974155568147
59.94305 435.048973225085
59.96317 427.974734915342
59.98328 449.006148215312
60.0034 431
60.02351 477.01110748906
60.04362 457.974730408357
60.06374 454.020592153777
60.08385 453.076641064018
60.10396 416.996022865078
60.12408 443.007582833087
60.14419 398.014104207022
60.16431 399.995991893101
60.18442 373.98854314701
60.20453 383.004815551092
60.22465 380.041234841906
60.24476 409.977514335099
60.26487 401.994060235876
60.28499 416.004650401358
60.3051 387
60.32522 407.028387734725
60.34533 418.99005223568
60.36544 401.96619484524
60.38556 394.000558035662
60.40567 404.959406442806
60.42578 421.027436502086
60.4459 382
60.46601 426.994082235704
60.48612 368.994102399672
60.50624 417.011649963888
60.52635 371.028275563399
60.54647 403.99912439521
60.56658 370.990791760403
60.58669 428.981525358204
60.60681 415.988700130505
60.62692 406.987863566098
60.64703 393.003713898973
60.66715 405.998351195182
60.68726 390.017499439493
60.70738 404.967282848118
60.72749 420.016317189198
60.7476 371
60.76772 414.028809219272
60.78783 409.002251217416
60.80794 422.984293702711
60.82806 400.987757717225
60.84817 433.975549834544
60.86828 421.011434022769
60.8884 415
60.90851 393.018576602049
60.92863 459.015098773879
60.94874 408.939530652742
60.96885 418.028410243932
60.98897 365.082870702267
61.00908 352.961751927076
61.02919 414.974375602109
61.04931 433.999287427852
61.06942 425.987290125233
61.08954 411.973163145176
61.10965 404.00189133792
61.12976 421.920026470293
61.14988 457.99976032592
61.16999 422.020372877183
61.1901 404
61.21022 414.010589189993
61.23033 423.019171915595
61.25045 436.009901918534
61.27056 435.979883622411
61.29067 451.994754410181
61.31079 443.001513724622
61.3309 448
61.35101 422.978313133811
61.37113 397.037019599923
61.39124 445.021245743887
61.41135 412.055579872688
61.43147 426.963136405569
61.45158 448.965704650918
61.4717 474
61.49181 435.005055054671
61.51192 479.999115331614
61.53204 430.962517980521
61.55215 463.930133344463
61.57226 462.995131208933
61.59238 477.995991868
61.61249 461.012187313215
61.63261 449.003479030688
61.65272 470.023446700498
61.67283 471.951729421053
61.69295 441.046654636046
61.71306 493.953962638864
61.73317 481.983102987747
61.75329 516.001329634212
61.7734 477
61.79352 490.98994049583
61.81363 459.002724643176
61.83374 513.137751841999
61.85386 550.012103676653
61.87397 520.036385493322
61.89408 517.992542379653
61.9142 515
61.93431 499.00900598721
61.95442 536.011232705882
61.97454 509.939405422685
61.99465 523.815610658917
62.01477 604.972211313829
62.03488 566.021981509554
62.05499 584.995218873252
62.07511 576.006821443731
62.09522 618.034487357796
62.11533 613.942485971204
62.13545 571.953678911821
62.15556 587.930393005149
62.17568 601.034169497977
62.19579 553.001186775194
62.2159 595
62.23602 584.995419394922
62.25613 601.016129643074
62.27624 574.86296682114
62.29636 513.991833290168
62.31647 563.970075089199
62.33659 531.016387529124
62.3567 527
62.37681 526.007410873915
62.39693 539.968091086123
62.41704 499.984848792142
62.43715 525.975736440655
62.45727 510.002057591437
62.47738 533.980467758866
62.49749 522.020434911793
62.51761 471.979485937412
62.53772 459.01701966025
62.55784 487.035607078091
62.57795 480.942998869449
62.59806 457.031884290491
62.61818 452.996734663183
62.63829 454.003055868028
62.6584 441
62.67852 445.037772866801
62.69863 478.965485900893
62.71875 418.940794375478
62.73886 450.931682913434
62.75897 450.030693188224
62.77909 448.979094594513
62.7992 495
62.81931 433.981871453124
62.83943 452.044092669917
62.85954 453.956401144817
62.87965 435.974818475379
62.89977 451.041015838913
62.91988 401.004881013466
62.94 442
62.96011 416.986897017816
62.98022 420.019550047436
63.00034 433.997478738685
63.02045 424.998960222738
63.04056 438.970999622875
63.06068 444.001663756821
63.08079 427.021803724859
63.10091 389.006020412982
63.12102 434.016456504911
63.14113 412.990347875859
63.16125 425.963810511855
63.18136 393.984728058993
63.20147 442.947822460024
63.22159 422.031479270247
63.2417 366
63.26182 396.035897637239
63.28193 407.991430195277
63.30204 405.027568880754
63.32216 429.967982415154
63.34227 425.027499678885
63.36238 410.002308206425
63.3825 417
63.40261 408.992435894227
63.42272 401.009165977341
63.44284 415.998785977032
63.46295 398.038909150587
63.48307 391.017480074083
63.50318 388.964700075304
63.52329 437.994717494232
63.54341 401.980690179981
63.56352 392.006730448367
63.58363 412.0624486796
63.60375 461.081994760612
63.62386 459.065183949607
63.64398 426.006947927177
63.66409 441.995249789469
63.6842 424
63.70432 399.010235550715
63.72443 439.061543240105
63.74454 452.973369960196
63.76466 431.023006859197
63.78477 425.036009990415
63.80489 395.998395503172
63.825 432
63.84511 424.97767066711
63.86523 381.996151496772
63.88534 436.176462933348
63.90545 504.959629988018
63.92557 462.113664177907
63.94568 406.008386724316
63.96579 434.985770798366
63.98591 443.002504674599
64.00602 459.023197456077
64.02614 465.941535961151
64.04625 420.950044904222
64.06636 429.002206746015
64.08648 418.981460146443
64.10659 449.006738143367
64.1267 396
64.14682 411.032727640682
64.16693 435.02792584897
64.18705 440.955618080877
64.20716 406.067734531628
64.22727 389.997998544268
64.24739 403.988789263113
64.2675 427
64.28761 423.979838079158
64.30773 383.015911718685
64.32784 426.008468725504
64.34796 380.072256383703
64.36807 392.936976240182
64.38818 433.970911106628
64.4083 445
64.42841 424.978172119126
64.44852 381.989638885359
64.46864 408.069110485303
64.48875 412.095565120622
64.50886 372.972338540103
64.52898 427.969956415957
64.54909 410.011713894275
64.56921 407.000495598902
64.58932 400.99255819904
64.60943 394.989439295622
64.62955 395.04436539226
64.64966 428.925602333103
64.66977 446.021966358858
64.68989 417.00709511638
64.71 418
64.73012 389.982404997796
64.75023 396.025573938222
64.77034 403.982335360528
64.79046 390.993201374888
64.81057 405.002524175795
64.83068 404.954788866384
64.8508 466
64.87091 421.997480823747
64.89102 463.008698497145
64.91114 417.916091705444
64.93125 410.989758726601
64.95137 402.032832885677
64.97148 393.967246332276
64.99159 441.994963951446
65.01171 406.982949768775
65.03182 404.013034808901
65.05193 407.977394518821
65.07205 386.991071317949
65.09216 398.000852938728
65.11228 382.009627826079
65.13239 390.990997636869
65.1525 390
65.17262 352.019841227277
65.19273 413.042189505243
65.21284 385.937440560938
65.23296 386.961326252275
65.25307 401.997315066772
65.27319 393.004234983383
65.2933 387
65.31341 369.995262026097
65.33353 384.06256664036
65.35364 412.941972990837
65.37375 355.029803477012
65.39387 399.942913674792
65.41398 390.035707068269
65.43409 367.995328497913
65.45421 395.006572414206
65.47432 393.012635062189
65.49444 401.914333125695
65.51455 346.045125404486
65.53466 421.939800580951
65.55478 383.02837708664
65.57489 405.982201313799
65.595 427
65.61512 438.993719989981
65.63523 412.948875989944
65.65535 395.028401000665
65.67546 420.975134208543
65.69557 412.015795344859
65.71569 406.007551838443
65.7358 385
65.75591 393.007421193578
65.77603 390.952154842993
65.79614 363.046258278933
65.81626 415.972673760185
65.83637 384.023223611358
65.85648 404.98477567159
65.8766 399
65.89671 402.990545466144
65.91682 368.986605175009
65.93694 388.05576069128
65.95705 407.955006684912
65.97716 421.003320680263
65.99728 407.014171281831
66.01739 402.997693993214
66.03751 397.984405313324
66.05762 365.006704163757
66.07773 398.006823309177
66.09785 363.929565576876
66.11796 368.956744017035
66.13807 382.006778333386
66.15819 370.99872114519
66.1783 385
66.19842 379.008480066072
66.21853 403.025052952373
66.23864 402.992465221426
66.25876 393.062559513321
66.27887 361.990007144033
66.29898 400.971807245507
66.3191 391
66.33921 359.990271275956
66.35933 369.06754436668
66.37944 412.995275897538
66.39955 369.088200327125
66.41967 372.963609813381
66.43978 385.014112185883
66.45989 362.000258712346
66.48001 377.99759538742
66.50012 347.977861847363
66.52023 358.050723365428
66.54035 383.98583783254
66.56046 362.992593733104
66.58058 393.979266779419
66.60069 383.013436871721
66.6208 365
66.64092 371.993035266399
66.66103 364.036889205607
66.68114 400.990661868618
66.70126 365.999622895468
66.72137 404.975981095388
66.74149 374.020034115506
66.7616 362
66.78171 382.000013685032
66.80183 355.948904095668
66.82194 348.069777813337
66.84205 387.032684597861
66.86217 342.996443343222
66.88228 393.975881933365
66.90239 368.012011237876
66.92251 372.003141481952
66.94262 372.010785445977
66.96274 382.966801226507
66.98285 346.951761880999
67.00296 366.908304852228
67.02308 400.006026168067
67.04319 373.001816842938
67.0633 390
67.08342 347.966458989595
67.10353 352.045460796866
67.12365 378.004737583971
67.14376 360.027975696446
67.16387 358.008309845172
67.18399 360.980419963435
67.2041 418
67.22421 400.984298516453
67.24433 379.97645731284
67.26444 370.003376255759
67.28456 383.958550259151
67.30467 389.041959402449
67.32478 356.989221799625
67.3449 398
67.36501 371.994078926196
67.38512 389.00914288427
67.40524 372.956276774615
67.42535 373.916490398906
67.44546 411.99078341346
67.46558 383.024552899225
67.48569 395.977098958241
67.50581 434.998215850333
67.52592 399.980303921886
67.54603 415.034243218665
67.56615 419.969978424861
67.58626 409.979510169939
67.60637 438.958343939122
67.62649 449.00242802965
67.6466 450
67.66672 473.981229393409
67.68683 430.990445415698
67.70694 451.957699044841
67.72706 398.01434493894
67.74717 442.965017670228
67.76728 420.020175955174
67.7874 428
67.80751 433.004384115709
67.82763 447.01366364797
67.84774 449.004984256159
67.86785 455.980764966739
67.88797 452.036513470228
67.90808 425.999749357186
67.92819 445.997358536448
67.94831 439.008748850688
67.96842 475.011372517528
67.98853 450.958958024165
68.00865 444.014123164016
68.02876 452.97866642585
68.04888 453.021540321003
68.06899 431.993548323195
68.0891 472
68.10922 474.006299959758
68.12933 488.9986135831
68.14944 462.928730061875
68.16956 436.028841416647
68.18967 431.998284317936
68.20979 433.998078158826
68.2299 457
68.25001 517.005727912428
68.27013 480.951401786442
68.29024 470.962038098105
68.31035 439.041808501464
68.33047 435.032004819149
68.35058 407.990368691926
68.3707 436
68.39081 379.982265529905
68.41092 390.019143499699
68.43104 389.97734390614
68.45115 387.043096248907
68.47126 416.954536121953
68.49138 414.027830573256
68.51149 381.009370223483
68.5316 386
68.55172 397.992766656537
68.57183 384.005601107557
68.59195 405.033329458202
68.61206 393.060186994858
68.63217 369.99605549663
68.65229 389.994801165489
68.6724 380
68.69251 379.007122560483
68.71263 402.034613759887
68.73274 395.888032987534
68.75286 338.973717988182
68.77297 404.953868965544
68.79308 375.028304933813
68.8132 381
68.83331 373.991120450363
68.85342 361.000595865014
68.87354 386.102679153612
68.89365 432.978599397748
68.91376 396.112055507417
68.93388 360.999301123796
68.95399 386.986916718738
68.97411 391.99358207642
68.99422 369.974415729465
69.01433 352.998182531716
69.03445 374.106401065348
69.05456 409.004229223914
69.07467 377.038219335538
69.09479 375.997295729268
69.1149 381
69.13502 388.970354152916
69.15513 344.992867092454
69.17524 389.098146501227
69.19536 394.090415153863
69.21547 342.012993134615
69.23558 382.953384748395
69.2557 400
69.27581 383.98750791125
69.29593 368.013671946483
69.31604 389.007199013941
69.33615 366.073132927348
69.35627 351.99532224292
69.37638 364.98634368242
69.39649 370.002001355146
69.41661 363.999701284706
69.43672 377.027332968445
69.45683 393.971189034285
69.47695 361.003966433911
69.49706 393.97434034877
69.51718 378.002288018821
69.53729 396.997390065208
69.5574 376
69.57752 362.991391548537
69.59763 362.025791891218
69.61774 385.011180057164
69.63786 376.989632209321
69.65797 388.02603563552
69.67809 352.005061740168
69.6982 380
69.71831 386.989426607845
69.73843 362.999899416829
69.75854 375.977485049061
69.77865 349.984069362534
69.79877 380.998962247279
69.81888 353.996975998394
69.839 390
69.85911 363.985664879179
69.87922 353.993417447311
69.89934 350.026483581549
69.91945 370.003773314194
69.93956 356.002787272913
69.95968 368.998902772904
69.97979 364.988044487314
69.9999 410
70.02002 388.945426208123
70.04013 352.029484200891
70.06025 406.06756072129
70.08036 381.082292259006
70.10047 370.950355340581
70.12059 411.999512880945
70.1407 365
70.16081 354.02260898968
70.18093 410.012371881169
70.20104 372.956123803576
70.22116 392.942847049273
70.24127 401.013261794367
70.26138 383.022935091799
70.2815 363
70.30161 359.001303723018
70.32172 364.00539010646
70.34184 362.975472978582
70.36195 349.995148738589
70.38207 365.97975790153
70.40218 361.023029020275
70.42229 336.005423636997
70.44241 352.019760347775
70.46252 379.98405814765
70.48263 348.018254562619
70.50275 399.06073981924
70.52286 369.093124488011
70.54297 344.99868753501
70.56309 352.003933825743
70.5832 329
70.60332 342.046610307782
70.62343 391.02372215659
70.64354 365.922862104811
70.66366 343.009169721937
70.68377 351.976864915991
70.70388 353.027253560765
70.724 320
70.74411 344.003726351701
70.76423 336.029553448115
70.78434 373.001038338435
70.80445 343.002049973297
70.82457 373.991455290815
70.84468 340.03069658569
70.86479 339.992231307211
70.88491 355.006637736338
70.90502 363.000001357874
70.92513 357.993460209507
70.94525 355.991389937129
70.96536 354.981713269913
70.98548 367.000317732771
71.00559 353.006888091875
71.0257 358
71.04582 375.968112461672
71.06593 320.982532848091
71.08604 366.09816292857
71.10616 385.98188502929
71.12627 383.052352198075
71.14639 339.004747204146
71.1665 359
71.18661 335.997944277721
71.20673 364.045438744924
71.22684 359.908710602791
71.24695 318.95475205637
71.26707 379.950430468336
71.28718 357.036575475546
71.3073 340
71.32741 346.014092875073
71.34752 378.00681537228
71.36764 361.984387947888
71.38775 363.050481680864
71.40786 339.953933456836
71.42798 387.997824676695
71.44809 344.009784218503
71.4682 366
71.48832 350.999052400348
71.50843 371.012761668031
71.52855 357.969152770329
71.54866 355.013576223604
71.56877 351.96750401246
71.58889 393.981836345399
71.609 397
71.62911 348.979989838575
71.64923 339.029553589954
71.66934 366.024146220515
71.68946 361.998789466501
71.70957 371.994958192262
71.72968 368.993096227503
71.7498 380
71.76991 360.99893822506
71.79002 378.009747020116
71.81014 374.003763639045
71.83025 386.976285305292
71.85037 373.064218494508
71.87048 339.978383497011
71.89059 405.972727966854
71.91071 403.975633469319
71.93082 350.976230049
71.95093 375.086253532586
71.97105 417.984329544187
71.99116 379.040865102993
72.01127 398.952790695671
72.03139 410.006471494574
72.0515 384
72.07162 377.012058528477
72.09173 388.98666277871
72.11184 367.993015667364
72.13196 386.966521830002
72.15207 393.978995520807
72.17218 414.989231601039
72.1923 401
72.21241 368.99820275196
72.23253 390.026562913572
72.25264 385.966682725917
72.27275 378.959882500707
72.29287 404.986248078423
72.31298 388.025693512286
72.33309 369.006913713989
72.35321 369.012144460894
72.37332 391.985322654861
72.39344 356.996992187449
72.41355 387.015468431637
72.43366 359.034376959763
72.45378 367.994062892244
72.47389 372.98239060767
72.494 417
72.51412 369.958387279722
72.53423 371.045027618277
72.55434 408.070198163206
72.57446 427.006965682384
72.59457 396.085751338858
72.61469 344.007716810622
72.6348 369
72.65491 393.004412051709
72.67503 391.992684159423
72.69514 388.997504165179
72.71525 392.968070425101
72.73537 407.989819632704
72.75548 395.033848029962
72.7756 367
72.79571 404.017693751818
72.81582 412.98935155759
72.83594 396.972525278721
72.85605 389.014763120767
72.87616 385.990711743862
72.89628 394.9948430077
72.91639 379.023062647391
72.9365 352
72.95662 441.026754897991
72.97673 391.941212961926
72.99685 395.989848380745
73.01696 371.0142931721
73.03707 393.959850886642
73.05719 395.014119223163
73.0773 369
73.09741 413.017662553992
73.11753 411.962926968501
73.13764 377.917915784303
73.15776 351.979960219151
73.17787 396.913153111697
73.19798 439.978958334956
73.2181 441
73.23821 430.99725369895
73.25832 421.9758392632
73.27844 397.001285335459
73.29855 416.983477023202
73.31867 407.991416045051
73.33878 431.984842896854
73.35889 422.012241700561
73.37901 406.002612345581
73.39912 428.021546862718
73.41923 437.00160232185
73.43935 422.897806740861
73.45946 382.997038143087
73.47957 413.987320872538
73.49969 399.992152261151
73.5198 433
73.53992 377.976974858609
73.56003 409.053059623708
73.58014 421.019529071126
73.60026 438.970254489945
73.62037 433.050354598689
73.64048 402.98790275246
73.6606 442
73.68071 412.985289680745
73.70083 409.011206994257
73.72094 414.005040076399
73.74105 416.984353446895
73.76117 420.01453590098
73.78128 400.018139340682
73.80139 393.997695020232
73.82151 411.016256560499
73.84162 430.975743228644
73.86174 379.943655027502
73.88185 393.059898450941
73.90196 407.968558030507
73.92208 414.024407404607
73.94219 379.0022561285
73.9623 402
73.98242 384.996256935993
74.00253 401.008369797036
74.02264 383.956546630946
74.04276 375.986468540046
74.06287 385.998854541964
74.08299 384.991437808326
74.1031 409
74.12321 385.994227787882
74.14333 408.065918357795
74.16344 434.963944624645
74.18355 390.063157300209
74.20367 397.986686303401
74.22378 393.998299373681
74.2439 404
74.26401 396.999255243655
74.28412 401.997824738747
74.30424 407.080187426727
74.32435 446.06736055949
74.34446 379.031974563138
74.36458 431.951621955386
74.38469 433.008155317084
74.40481 421.993530350177
74.42492 411.002395799192
74.44503 410.955794293611
74.46515 366.960009793182
74.48526 386.956315665474
74.50537 383.035428728359
74.52549 370.987506712632
74.5456 415
74.56571 400.994093206341
74.58583 408.010971386334
74.60594 405.994817726032
74.62606 402.029527423818
74.64617 379.028259668909
74.66628 376.984578488869
74.6864 392
74.70651 364.982644079801
74.72662 354.02962170821
74.74674 399.035623603668
74.76685 375.095021536187
74.78697 358.977630459937
74.80708 393.965177121574
74.82719 413.99500157451
74.84731 410.987975529937
74.86742 377.978712409783
74.88753 384.043112399871
74.90765 406.982236504864
74.92776 375.0540412056
74.94787 379.947819035007
74.96799 418.990498535135
74.9881 409
75.00822 384.976272372
