3.00117 21767
3.02128 20701
3.0414 20235
3.06151 19913
3.08162 19078
3.10174 18824
3.12185 18253
3.14197 18037
3.16208 17135
3.18219 16709
3.20231 16392
3.22242 15812
3.24253 15557
3.26265 14923
3.28276 14545
3.30288 14073
3.32299 13441
3.3431 13185
3.36322 12848
3.38333 12425
3.40344 11989
3.42356 11586
3.44367 11234
3.46379 10780
3.4839 10488
3.50401 10158
3.52413 9647
3.54424 9593
3.56435 9251
3.58447 8756
3.60458 8538
3.62469 8072
3.64481 7979
3.66492 7570
3.68504 7291
3.70515 7021
3.72526 6639
3.74538 6587
3.76549 6359
3.7856 6107
3.80572 5728
3.82583 5505
3.84595 5304
3.86606 5165
3.88617 4747
3.90629 4629
3.9264 4500
3.94651 4299
3.96663 4140
3.98674 3870
4.00686 3835
4.02697 3618
4.04708 3515
4.0672 3358
4.08731 3054
4.10742 3085
4.12754 2834
4.14765 2834
4.16776 2836
4.18788 2574
4.20799 2532
4.22811 2267
4.24822 2316
4.26833 2226
4.28845 2009
4.30856 2099
4.32867 1949
4.34879 1926
4.3689 1911
4.38902 1750
4.40913 1748
4.42924 1671
4.44936 1717
4.46947 1649
4.48958 1466
4.5097 1434
4.52981 1445
4.54992 1456
4.57004 1449
4.59015 1322
4.61027 1366
4.63038 1252
4.65049 1264
4.67061 1226
4.69072 1210
4.71083 1233
4.73095 1111
4.75106 1070
4.77118 1164
4.79129 987
4.8114 1079
4.83152 1020
4.85163 926
4.87174 1097
4.89186 931
4.91197 962
4.93209 939
4.9522 956
4.97231 896
4.99243 845
5.01254 835
5.03265 827
5.05277 783
5.07288 866
5.09299 769
5.11311 791
5.13322 754
5.15334 716
5.17345 687
5.19356 690
5.21368 683
5.23379 602
5.2539 597
5.27402 645
5.29413 603
5.31425 589
5.33436 608
5.35447 568
5.37459 568
5.3947 528
5.41481 533
5.43493 557
5.45504 576
5.47516 485
5.49527 520
5.51538 502
5.5355 465
5.55561 444
5.57572 501
5.59584 471
5.61595 442
5.63606 469
5.65618 424
5.67629 409
5.69641 407
5.71652 440
5.73663 403
5.75675 408
5.77686 387
5.79697 399
5.81709 405
5.8372 399
5.85732 389
5.87743 377
5.89754 395
5.91766 372
5.93777 395
5.95788 390
5.978 344
5.99811 342
6.01823 359
6.03834 365
6.05845 340
6.07857 352
6.09868 313
6.11879 379
6.13891 384
6.15902 359
6.17913 372
6.19925 361
6.21936 329
6.23948 368
6.25959 331
6.2797 365
6.29982 347
6.31993 331
6.34004 283
6.36016 316
6.38027 343
6.40039 354
6.4205 301
6.44061 306
6.46073 281
6.48084 313
6.50095 293
6.52107 341
6.54118 292
6.56129 325
6.58141 265
6.60152 244
6.62164 282
6.64175 322
6.66186 281
6.68198 308
6.70209 291
6.7222 323
6.74232 288
6.76243 303
6.78255 315
6.80266 270
6.82277 279
6.84289 282
6.863 286
6.88311 328
6.90323 292
6.92334 296
6.94346 268
6.96357 293
6.98368 289
7.0038 302
7.02391 279
7.04402 260
7.06414 292
7.08425 291
7.10436 269
7.12448 284
7.14459 294
7.16471 278
7.18482 289
7.20493 290
7.22505 290
7.24516 304
7.26527 297
7.28539 268
7.3055 275
7.32562 278
7.34573 251
7.36584 287
7.38596 280
7.40607 290
7.42618 295
7.4463 279
7.46641 239
7.48653 298
7.50664 284
7.52675 277
7.54687 253
7.56698 287
7.58709 306
7.60721 277
7.62732 277
7.64743 261
7.66755 295
7.68766 288
7.70778 281
7.72789 274
7.748 258
7.76812 263
7.78823 296
7.80834 263
7.82846 287
7.84857 298
7.86869 296
7.8888 303
7.90891 287
7.92903 268
7.94914 296
7.96925 267
7.98937 301
8.00948 287
8.0296 293
8.04971 263
8.06982 259
8.08994 293
8.11005 285
8.13016 303
8.15028 278
8.17039 297
8.1905 283
8.21062 298
8.23073 296
8.25085 293
8.27096 274
8.29107 284
8.31119 311
8.3313 273
8.35141 300
8.37153 289
8.39164 277
8.41176 279
8.43187 275
8.45198 291
8.4721 301
8.49221 273
8.51232 306
8.53244 306
8.55255 296
8.57266 299
8.59278 283
8.61289 302
8.63301 284
8.65312 296
8.67323 286
8.69335 319
8.71346 297
8.73357 301
8.75369 282
8.7738 329
8.79392 312
8.81403 339
8.83414 290
8.85426 275
8.87437 313
8.89448 313
8.9146 301
8.93471 288
8.95483 314
8.97494 316
8.99505 276
9.01517 297
9.03528 290
9.05539 289
9.07551 301
9.09562 304
9.11573 281
9.13585 283
9.15596 279
9.17608 286
9.19619 249
9.2163 306
9.23642 318
9.25653 263
9.27664 284
9.29676 298
9.31687 298
9.33699 282
9.3571 286
9.37721 304
9.39733 265
9.41744 298
9.43755 282
9.45767 291
9.47778 282
9.4979 301
9.51801 293
9.53812 273
9.55824 304
9.57835 299
9.59846 315
9.61858 255
9.63869 312
9.6588 264
9.67892 273
9.69903 261
9.71915 285
9.73926 272
9.75937 280
9.77949 281
9.7996 297
9.81971 311
9.83983 286
9.85994 300
9.88006 327
9.90017 259
9.92028 316
9.9404 291
9.96051 286
9.98062 255
10.00074 289
10.02085 291
10.04097 288
10.06108 298
10.08119 303
10.10131 302
10.12142 253
10.14153 296
10.16165 284
10.18176 263
10.20187 320
10.22199 291
10.2421 271
10.26222 278
10.28233 285
10.30244 270
10.32256 318
10.34267 291
10.36278 291
10.3829 284
10.40301 290
10.42313 275
10.44324 302
10.46335 312
10.48347 275
10.50358 276
10.52369 277
10.54381 280
10.56392 302
10.58403 275
10.60415 278
10.62426 312
10.64438 304
10.66449 317
10.6846 280
10.70472 293
10.72483 265
10.74494 298
10.76506 292
10.78517 272
10.80529 309
10.8254 305
10.84551 310
10.86563 281
10.88574 297
10.90585 305
10.92597 279
10.94608 281
10.9662 293
10.98631 307
11.00642 306
11.02654 323
11.04665 329
11.06676 304
11.08688 267
11.10699 283
11.1271 291
11.14722 307
11.16733 283
11.18745 271
11.20756 286
11.22767 265
11.24779 277
11.2679 290
11.28801 270
11.30813 332
11.32824 272
11.34836 287
11.36847 285
11.38858 308
11.4087 302
11.42881 316
11.44892 292
11.46904 325
11.48915 321
11.50927 304
11.52938 329
11.54949 319
11.56961 319
11.58972 347
11.60983 302
11.62995 293
11.65006 309
11.67017 312
11.69029 332
11.7104 303
11.73052 332
11.75063 379
11.77074 331
11.79086 366
11.81097 387
11.83108 369
11.8512 375
11.87131 388
11.89143 386
11.91154 367
11.93165 395
11.95177 399
11.97188 459
11.99199 430
12.01211 448
12.03222 478
12.05234 485
12.07245 466
12.09256 551
12.11268 594
12.13279 551
12.1529 623
12.17302 617
12.19313 642
12.21324 653
12.23336 644
12.25347 657
12.27359 666
12.2937 677
12.31381 724
12.33393 638
12.35404 652
12.37415 625
12.39427 619
12.41438 585
12.4345 583
12.45461 563
12.47472 529
12.49484 523
12.51495 454
12.53506 483
12.55518 425
12.57529 473
12.5954 400
12.61552 373
12.63563 373
12.65575 346
12.67586 346
12.69597 362
12.71609 330
12.7362 340
12.75631 352
12.77643 298
12.79654 302
12.81666 295
12.83677 307
12.85688 292
12.877 302
12.89711 287
12.91722 309
12.93734 286
12.95745 336
12.97757 327
12.99768 277
13.01779 274
13.03791 297
13.05802 261
13.07813 278
13.09825 283
13.11836 270
13.13847 220
13.15859 272
13.1787 275
13.19882 281
13.21893 264
13.23904 285
13.25916 277
13.27927 276
13.29938 287
13.3195 262
13.33961 219
13.35973 289
13.37984 289
13.39995 277
13.42007 266
13.44018 259
13.46029 289
13.48041 257
13.50052 253
13.52064 275
13.54075 269
13.56086 247
13.58098 264
13.60109 266
13.6212 249
13.64132 252
13.66143 297
13.68154 268
13.70166 261
13.72177 253
13.74189 246
13.762 255
13.78211 247
13.80223 257
13.82234 260
13.84245 250
13.86257 241
13.88268 228
13.9028 236
13.92291 245
13.94302 224
13.96314 244
13.98325 234
14.00336 261
14.02348 246
14.04359 260
14.06371 241
14.08382 261
14.10393 270
14.12405 259
14.14416 243
14.16427 247
14.18439 220
14.2045 251
14.22461 226
14.24473 256
14.26484 246
14.28496 239
14.30507 226
14.32518 240
14.3453 238
14.36541 229
14.38552 227
14.40564 240
14.42575 217
14.44587 241
14.46598 234
14.48609 261
14.50621 210
14.52632 238
14.54643 223
14.56655 242
14.58666 272
14.60677 252
14.62689 218
14.647 244
14.66712 211
14.68723 247
14.70734 241
14.72746 194
14.74757 235
14.76768 244
14.7878 240
14.80791 252
14.82803 251
14.84814 224
14.86825 240
14.88837 245
14.90848 226
14.92859 249
14.94871 241
14.96882 222
14.98894 218
15.00905 208
15.02916 230
15.04928 233
15.06939 224
15.0895 248
15.10962 239
15.12973 247
15.14984 263
15.16996 262
15.19007 230
15.21019 243
15.2303 249
15.25041 224
15.27053 227
15.29064 257
15.31075 256
15.33087 243
15.35098 187
15.3711 220
15.39121 224
15.41132 213
15.43144 268
15.45155 232
15.47166 221
15.49178 215
15.51189 244
15.53201 236
15.55212 226
15.57223 237
15.59235 257
15.61246 242
15.63257 225
15.65269 241
15.6728 206
15.69291 213
15.71303 210
15.73314 227
15.75326 234
15.77337 242
15.79348 230
15.8136 221
15.83371 229
15.85382 230
15.87394 247
15.89405 243
15.91417 235
15.93428 270
15.95439 229
15.97451 212
15.99462 234
16.01473 198
16.03485 248
16.05496 191
16.07508 261
16.09519 230
16.1153 226
16.13542 219
16.15553 217
16.17564 236
16.19576 201
16.21587 233
16.23598 222
16.2561 239
16.27621 224
16.29633 244
16.31644 249
16.33655 232
16.35667 226
16.37678 236
16.39689 232
16.41701 239
16.43712 244
16.45724 268
16.47735 239
16.49746 215
16.51758 230
16.53769 210
16.5578 244
16.57792 241
16.59803 238
16.61814 218
16.63826 224
16.65837 224
16.67849 221
16.6986 247
16.71871 216
16.73883 233
16.75894 239
16.77905 224
16.79917 268
16.81928 227
16.8394 251
16.85951 221
16.87962 224
16.89974 226
16.91985 241
16.93996 226
16.96008 189
16.98019 238
17.00031 248
17.02042 227
17.04053 192
17.06065 249
17.08076 221
17.10087 198
17.12099 255
17.1411 211
17.16121 221
17.18133 225
17.20144 219
17.22156 255
17.24167 174
17.26178 216
17.2819 237
17.30201 216
17.32212 238
17.34224 218
17.36235 239
17.38247 253
17.40258 213
17.42269 226
17.44281 226
17.46292 232
17.48303 254
17.50315 266
17.52326 225
17.54338 216
17.56349 275
17.5836 244
17.60372 238
17.62383 215
17.64394 223
17.66406 231
17.68417 233
17.70428 245
17.7244 246
17.74451 270
17.76463 229
17.78474 240
17.80485 249
17.82497 237
17.84508 209
17.86519 263
17.88531 248
17.90542 255
17.92554 261
17.94565 213
17.96576 235
17.98588 257
18.00599 275
18.0261 292
18.04622 273
18.06633 286
18.08645 287
18.10656 289
18.12667 288
18.14679 279
18.1669 338
18.18701 342
18.20713 354
18.22724 346
18.24735 386
18.26747 363
18.28758 390
18.3077 371
18.32781 386
18.34792 346
18.36804 345
18.38815 291
18.40826 291
18.42838 292
18.44849 257
18.46861 284
18.48872 239
18.50883 261
18.52895 220
18.54906 261
18.56917 240
18.58929 223
18.6094 254
18.62951 236
18.64963 213
18.66974 247
18.68986 226
18.70997 237
18.73008 249
18.7502 240
18.77031 227
18.79042 269
18.81054 244
18.83065 229
18.85077 272
18.87088 252
18.89099 236
18.91111 246
18.93122 235
18.95133 249
18.97145 217
18.99156 230
19.01168 257
19.03179 246
19.0519 241
19.07202 242
19.09213 212
19.11224 239
19.13236 198
19.15247 227
19.17258 243
19.1927 243
19.21281 248
19.23293 274
19.25304 256
19.27315 248
19.29327 228
19.31338 230
19.33349 248
19.35361 255
19.37372 276
19.39384 253
19.41395 270
19.43406 271
19.45418 278
19.47429 274
19.4944 282
19.51452 316
19.53463 317
19.55475 335
19.57486 328
19.59497 334
19.61509 429
19.6352 409
19.65531 464
19.67543 456
19.69554 488
19.71565 518
19.73577 511
19.75588 589
19.776 605
19.79611 599
19.81622 617
19.83634 600
19.85645 668
19.87656 672
19.89668 640
19.91679 655
19.93691 656
19.95702 595
19.97713 617
19.99725 580
20.01736 572
20.03747 605
20.05759 563
20.0777 582
20.09782 615
20.11793 550
20.13804 579
20.15816 605
20.17827 621
20.19838 655
20.2185 556
20.23861 606
20.25872 557
20.27884 622
20.29895 589
20.31907 561
20.33918 614
20.35929 662
20.37941 613
20.39952 628
20.41963 651
20.43975 644
20.45986 630
20.47998 615
20.50009 660
20.5202 673
20.54032 759
20.56043 789
20.58054 760
20.60066 879
20.62077 1023
20.64088 1180
20.661 1388
20.68111 1797
20.70123 2213
20.72134 2798
20.74145 3423
20.76157 4108
20.78168 4520
20.80179 4921
20.82191 5023
20.84202 4496
20.86214 4065
20.88225 3312
20.90236 2570
20.92248 1917
20.94259 1359
20.9627 1007
20.98282 854
21.00293 736
21.02305 635
21.04316 654
21.06327 544
21.08339 576
21.1035 560
21.12361 561
21.14373 559
21.16384 514
21.18395 558
21.20407 482
21.22418 509
21.2443 506
21.26441 532
21.28452 560
21.30464 562
21.32475 507
21.34486 534
21.36498 476
21.38509 518
21.40521 530
21.42532 495
21.44543 540
21.46555 495
21.48566 525
21.50577 491
21.52589 507
21.546 455
21.56612 501
21.58623 461
21.60634 477
21.62646 511
21.64657 435
21.66668 427
21.6868 444
21.70691 408
21.72702 411
21.74714 423
21.76725 407
21.78737 383
21.80748 422
21.82759 386
21.84771 418
21.86782 417
21.88793 456
21.90805 391
21.92816 412
21.94828 388
21.96839 369
21.9885 376
22.00862 373
22.02873 382
22.04884 360
22.06896 386
22.08907 381
22.10919 429
22.1293 376
22.14941 375
22.16953 368
22.18964 387
22.20975 321
22.22987 366
22.24998 345
22.27009 373
22.29021 360
22.31032 399
22.33044 357
22.35055 359
22.37066 323
22.39078 374
22.41089 354
22.431 356
22.45112 338
22.47123 379
22.49135 360
22.51146 339
22.53157 345
22.55169 325
22.5718 369
22.59191 321
22.61203 338
22.63214 347
22.65225 334
22.67237 373
22.69248 400
22.7126 358
22.73271 363
22.75282 328
22.77294 327
22.79305 340
22.81316 372
22.83328 380
22.85339 332
22.87351 369
22.89362 348
22.91373 339
22.93385 348
22.95396 342
22.97407 345
22.99419 369
23.0143 330
23.03442 352
23.05453 326
23.07464 318
23.09476 342
23.11487 344
23.13498 315
23.1551 354
23.17521 350
23.19532 311
23.21544 340
23.23555 340
23.25567 307
23.27578 339
23.29589 318
23.31601 317
23.33612 301
23.35623 318
23.37635 325
23.39646 301
23.41658 315
23.43669 330
23.4568 298
23.47692 317
23.49703 291
23.51714 379
23.53726 301
23.55737 321
23.57749 305
23.5976 328
23.61771 333
23.63783 334
23.65794 340
23.67805 347
23.69817 347
23.71828 337
23.73839 369
23.75851 338
23.77862 318
23.79874 364
23.81885 372
23.83896 353
23.85908 385
23.87919 355
23.8993 348
23.91942 370
23.93953 382
23.95965 389
23.97976 388
23.99987 364
24.01999 383
24.0401 350
24.06021 347
24.08033 388
24.10044 345
24.12056 353
24.14067 320
24.16078 324
24.1809 327
24.20101 356
24.22112 335
24.24124 340
24.26135 360
24.28146 364
24.30158 384
24.32169 375
24.34181 369
24.36192 383
24.38203 392
24.40215 379
24.42226 375
24.44237 414
24.46249 393
24.4826 413
24.50272 429
24.52283 398
24.54294 426
24.56306 445
24.58317 457
24.60328 476
24.6234 480
24.64351 518
24.66362 491
24.68374 498
24.70385 547
24.72397 584
24.74408 537
24.76419 581
24.78431 567
24.80442 618
24.82453 596
24.84465 555
24.86476 551
24.88488 596
24.90499 590
24.9251 562
24.94522 557
24.96533 547
24.98544 511
25.00556 479
25.02567 533
25.04579 521
25.0659 515
25.08601 448
25.10613 456
25.12624 459
25.14635 500
25.16647 501
25.18658 479
25.20669 465
25.22681 495
25.24692 448
25.26704 446
25.28715 415
25.30726 383
25.32738 431
25.34749 437
25.3676 409
25.38772 371
25.40783 408
25.42795 400
25.44806 392
25.46817 381
25.48829 383
25.5084 349
25.52851 393
25.54863 392
25.56874 393
25.58886 436
25.60897 397
25.62908 423
25.6492 442
25.66931 453
25.68942 445
25.70954 447
25.72965 498
25.74976 439
25.76988 478
25.78999 510
25.81011 456
25.83022 482
25.85033 535
25.87045 503
25.89056 542
25.91067 497
25.93079 499
25.9509 534
25.97102 532
25.99113 572
26.01124 533
26.03136 556
26.05147 599
26.07158 664
26.0917 665
26.11181 681
26.13193 789
26.15204 756
26.17215 830
26.19227 901
26.21238 960
26.23249 1063
26.25261 1169
26.27272 1251
26.29283 1404
26.31295 1654
26.33306 1972
26.35318 2287
26.37329 2766
26.3934 3560
26.41352 4521
26.43363 5757
26.45374 7482
26.47386 9689
26.49397 11776
26.51409 14971
26.5342 17433
26.55431 19563
26.57443 21358
26.59454 21221
26.61465 19776
26.63477 17519
26.65488 14612
26.67499 11145
26.69511 8047
26.71522 5667
26.73534 3827
26.75545 2654
26.77556 1923
26.79568 1530
26.81579 1297
26.8359 1084
26.85602 1036
26.87613 849
26.89625 889
26.91636 838
26.93647 713
26.95659 703
26.9767 620
26.99681 628
27.01693 582
27.03704 520
27.05716 528
27.07727 569
27.09738 518
27.1175 467
27.13761 448
27.15772 440
27.17784 438
27.19795 484
27.21806 457
27.23818 453
27.25829 424
27.27841 449
27.29852 399
27.31863 412
27.33875 423
27.35886 457
27.37897 435
27.39909 472
27.4192 439
27.43932 382
27.45943 396
27.47954 378
27.49966 412
27.51977 374
27.53988 404
27.56 387
27.58011 370
27.60023 334
27.62034 395
27.64045 362
27.66057 395
27.68068 374
27.70079 360
27.72091 354
27.74102 372
27.76113 371
27.78125 385
27.80136 375
27.82148 379
27.84159 371
27.8617 387
27.88182 367
27.90193 371
27.92204 359
27.94216 305
27.96227 351
27.98239 356
28.0025 383
28.02261 281
28.04273 328
28.06284 325
28.08295 342
28.10307 332
28.12318 339
28.1433 322
28.16341 294
28.18352 339
28.20364 299
28.22375 307
28.24386 341
28.26398 326
28.28409 335
28.3042 337
28.32432 322
28.34443 323
28.36455 292
28.38466 345
28.40477 302
28.42489 301
28.445 291
28.46511 293
28.48523 301
28.50534 293
28.52546 303
28.54557 299
28.56568 307
28.5858 285
28.60591 282
28.62602 280
28.64614 301
28.66625 299
28.68636 334
28.70648 294
28.72659 304
28.74671 297
28.76682 298
28.78693 252
28.80705 273
28.82716 273
28.84727 296
28.86739 286
28.8875 291
28.90762 281
28.92773 253
28.94784 264
28.96796 273
28.98807 281
29.00818 275
29.0283 285
29.04841 249
29.06853 255
29.08864 287
29.10875 261
29.12887 250
29.14898 294
29.16909 287
29.18921 258
29.20932 278
29.22943 276
29.24955 282
29.26966 297
29.28978 266
29.30989 275
29.33 264
29.35012 275
29.37023 282
29.39034 260
29.41046 278
29.43057 274
29.45069 292
29.4708 294
29.49091 280
29.51103 283
29.53114 283
29.55125 268
29.57137 270
29.59148 308
29.6116 256
29.63171 271
29.65182 268
29.67194 255
29.69205 286
29.71216 273
29.73228 302
29.75239 267
29.7725 316
29.79262 293
29.81273 266
29.83285 284
29.85296 280
29.87307 273
29.89319 292
29.9133 288
29.93341 236
29.95353 279
29.97364 244
29.99376 249
30.01387 244
30.03398 274
30.0541 285
30.07421 267
30.09432 287
30.11444 276
30.13455 267
30.15467 260
30.17478 262
30.19489 280
30.21501 266
30.23512 251
30.25523 271
30.27535 259
30.29546 271
30.31557 237
30.33569 224
30.3558 243
30.37592 252
30.39603 261
30.41614 255
30.43626 260
30.45637 275
30.47648 265
30.4966 267
30.51671 270
30.53683 278
30.55694 256
30.57705 248
30.59717 286
30.61728 252
30.63739 266
30.65751 240
30.67762 247
30.69773 243
30.71785 270
30.73796 260
30.75808 251
30.77819 235
30.7983 259
30.81842 256
30.83853 284
30.85864 301
30.87876 250
30.89887 263
30.91899 285
30.9391 265
30.95921 251
30.97933 275
30.99944 240
31.01955 231
31.03967 273
31.05978 292
31.0799 257
31.10001 283
31.12012 231
31.14024 250
31.16035 247
31.18046 264
31.20058 284
31.22069 260
31.2408 263
31.26092 280
31.28103 270
31.30115 254
31.32126 260
31.34137 256
31.36149 238
31.3816 218
31.40171 272
31.42183 242
31.44194 272
31.46206 232
31.48217 261
31.50228 217
31.5224 242
31.54251 244
31.56262 256
31.58274 254
31.60285 220
31.62297 243
31.64308 240
31.66319 244
31.68331 258
31.70342 240
31.72353 235
31.74365 251
31.76376 246
31.78387 236
31.80399 250
31.8241 248
31.84422 245
31.86433 256
31.88444 242
31.90456 269
31.92467 249
31.94478 260
31.9649 277
31.98501 234
32.00513 271
32.02524 248
32.04535 245
32.06547 219
32.08558 243
32.10569 257
32.12581 243
32.14592 241
32.16604 252
32.18615 220
32.20626 243
32.22638 237
32.24649 236
32.2666 258
32.28672 287
32.30683 247
32.32694 263
32.34706 272
32.36717 244
32.38729 279
32.4074 285
32.42751 272
32.44763 287
32.46774 241
32.48785 273
32.50797 241
32.52808 294
32.5482 273
32.56831 265
32.58842 247
32.60854 267
32.62865 241
32.64876 253
32.66888 268
32.68899 246
32.7091 267
32.72922 239
32.74933 249
32.76945 256
32.78956 245
32.80967 268
32.82979 253
32.8499 254
32.87001 246
32.89013 238
32.91024 256
32.93036 236
32.95047 229
32.97058 244
32.9907 259
33.01081 265
33.03092 260
33.05104 276
33.07115 292
33.09127 254
33.11138 282
33.13149 243
33.15161 259
33.17172 246
33.19183 264
33.21195 238
33.23206 290
33.25217 256
33.27229 263
33.2924 244
33.31252 270
33.33263 234
33.35274 250
33.37286 281
33.39297 259
33.41308 230
33.4332 268
33.45331 249
33.47343 275
33.49354 251
33.51365 255
33.53377 270
33.55388 268
33.57399 240
33.59411 246
33.61422 243
33.63434 233
33.65445 241
33.67456 241
33.69468 267
33.71479 244
33.7349 227
33.75502 244
33.77513 252
33.79524 269
33.81536 252
33.83547 247
33.85559 243
33.8757 242
33.89581 223
33.91593 234
33.93604 220
33.95615 211
33.97627 240
33.99638 229
34.0165 230
34.03661 239
34.05672 255
34.07684 257
34.09695 247
34.11706 216
34.13718 225
34.15729 243
34.17741 245
34.19752 218
34.21763 213
34.23775 226
34.25786 235
34.27797 262
34.29809 237
34.3182 236
34.33831 250
34.35843 252
34.37854 272
34.39866 267
34.41877 293
34.43888 298
34.459 284
34.47911 284
34.49922 292
34.51934 315
34.53945 306
34.55957 320
34.57968 288
34.59979 345
34.61991 341
34.64002 341
34.66013 349
34.68025 348
34.70036 372
34.72047 373
34.74059 378
34.7607 419
34.78082 428
34.80093 454
34.82104 464
34.84116 421
34.86127 472
34.88138 458
34.9015 450
34.92161 453
34.94173 424
34.96184 427
34.98195 421
35.00207 391
35.02218 420
35.04229 393
35.06241 370
35.08252 394
35.10264 379
35.12275 419
35.14286 374
35.16298 386
35.18309 377
35.2032 371
35.22332 358
35.24343 369
35.26354 385
35.28366 366
35.30377 381
35.32389 337
35.344 377
35.36411 369
35.38423 350
35.40434 343
35.42445 379
35.44457 352
35.46468 402
35.4848 390
35.50491 369
35.52502 335
35.54514 377
35.56525 332
35.58536 396
35.60548 357
35.62559 389
35.64571 383
35.66582 385
35.68593 378
35.70605 422
35.72616 403
35.74627 456
35.76639 414
35.7865 415
35.80661 431
35.82673 408
35.84684 412
35.86696 421
35.88707 385
35.90718 418
35.9273 413
35.94741 405
35.96752 384
35.98764 434
36.00775 344
36.02787 368
36.04798 396
36.06809 391
36.08821 385
36.10832 394
36.12843 409
36.14855 427
36.16866 452
36.18878 436
36.20889 466
36.229 468
36.24912 450
36.26923 578
36.28934 622
36.30946 710
36.32957 737
36.34968 907
36.3698 1046
36.38991 1173
36.41003 1278
36.43014 1433
36.45025 1650
36.47037 1618
36.49048 1585
36.51059 1514
36.53071 1471
36.55082 1209
36.57094 1144
36.59105 953
36.61116 804
36.63128 684
36.65139 576
36.6715 540
36.69162 446
36.71173 403
36.73184 340
36.75196 340
36.77207 358
36.79219 356
36.8123 334
36.83241 353
36.85253 329
36.87264 344
36.89275 338
36.91287 330
36.93298 334
36.9531 327
36.97321 322
36.99332 354
37.01344 343
37.03355 341
37.05366 350
37.07378 350
37.09389 320
37.11401 363
37.13412 321
37.15423 312
37.17435 348
37.19446 363
37.21457 335
37.23469 334
37.2548 334
37.27491 311
37.29503 336
37.31514 337
37.33526 341
37.35537 335
37.37548 348
37.3956 339
37.41571 338
37.43582 355
37.45594 360
37.47605 348
37.49617 372
37.51628 331
37.53639 341
37.55651 348
37.57662 337
37.59673 375
37.61685 353
37.63696 386
37.65708 380
37.67719 373
37.6973 378
37.71742 341
37.73753 368
37.75764 383
37.77776 362
37.79787 352
37.81798 347
37.8381 339
37.85821 355
37.87833 343
37.89844 353
37.91855 342
37.93867 369
37.95878 331
37.97889 304
37.99901 322
38.01912 321
38.03924 363
38.05935 345
38.07946 346
38.09958 343
38.11969 338
38.1398 388
38.15992 367
38.18003 404
38.20015 373
38.22026 375
38.24037 364
38.26049 409
38.2806 415
38.30071 384
38.32083 426
38.34094 373
38.36105 406
38.38117 394
38.40128 417
38.4214 397
38.44151 409
38.46162 418
38.48174 394
38.50185 385
38.52196 362
38.54208 385
38.56219 387
38.58231 355
38.60242 357
38.62253 337
38.64265 326
38.66276 345
38.68287 352
38.70299 341
38.7231 329
38.74321 305
38.76333 347
38.78344 341
38.80356 363
38.82367 359
38.84378 353
38.8639 330
38.88401 337
38.90412 315
38.92424 337
38.94435 318
38.96447 368
38.98458 347
39.00469 404
39.02481 389
39.04492 363
39.06503 401
39.08515 416
39.10526 416
39.12538 448
39.14549 444
39.1656 524
39.18572 495
39.20583 578
39.22594 654
39.24606 721
39.26617 831
39.28628 887
39.3064 1016
39.32651 1218
39.34663 1260
39.36674 1410
39.38685 1520
39.40697 1538
39.42708 1461
39.44719 1321
39.46731 1228
39.48742 1001
39.50754 953
39.52765 845
39.54776 694
39.56788 581
39.58799 479
39.6081 430
39.62822 371
39.64833 342
39.66845 289
39.68856 306
39.70867 310
39.72879 285
39.7489 316
39.76901 288
39.78913 276
39.80924 308
39.82935 282
39.84947 305
39.86958 297
39.8897 292
39.90981 303
39.92992 317
39.95004 312
39.97015 367
39.99026 362
40.01038 358
40.03049 413
40.05061 419
40.07072 485
40.09083 575
40.11095 617
40.13106 684
40.15117 670
40.17129 772
40.1914 792
40.21152 933
40.23163 845
40.25174 842
40.27186 742
40.29197 726
40.31208 629
40.3322 565
40.35231 513
40.37242 412
40.39254 408
40.41265 394
40.43277 336
40.45288 350
40.47299 324
40.49311 293
40.51322 280
40.53333 324
40.55345 280
40.57356 262
40.59368 255
40.61379 271
40.6339 311
40.65402 287
40.67413 299
40.69424 253
40.71436 267
40.73447 260
40.75458 273
40.7747 276
40.79481 244
40.81493 265
40.83504 281
40.85515 257
40.87527 272
40.89538 267
40.91549 260
40.93561 261
40.95572 263
40.97584 281
40.99595 287
41.01606 294
41.03618 255
41.05629 299
41.0764 275
41.09652 291
41.11663 296
41.13675 282
41.15686 275
41.17697 263
41.19709 298
41.2172 294
41.23731 280
41.25743 270
41.27754 266
41.29765 282
41.31777 243
41.33788 277
41.358 277
41.37811 288
41.39822 267
41.41834 254
41.43845 271
41.45856 243
41.47868 285
41.49879 257
41.51891 269
41.53902 260
41.55913 265
41.57925 276
41.59936 263
41.61947 238
41.63959 307
41.6597 239
41.67982 279
41.69993 247
41.72004 254
41.74016 270
41.76027 236
41.78038 267
41.8005 296
41.82061 263
41.84072 272
41.86084 260
41.88095 277
41.90107 279
41.92118 302
41.94129 280
41.96141 276
41.98152 251
42.00163 325
42.02175 285
42.04186 295
42.06198 293
42.08209 324
42.1022 330
42.12232 323
42.14243 366
42.16254 396
42.18266 428
42.20277 503
42.22289 562
42.243 628
42.26311 722
42.28323 757
42.30334 906
42.32345 968
42.34357 1025
42.36368 1148
42.38379 1176
42.40391 1203
42.42402 1089
42.44414 912
42.46425 815
42.48436 740
42.50448 685
42.52459 567
42.5447 486
42.56482 396
42.58493 327
42.60505 314
42.62516 309
42.64527 284
42.66539 276
42.6855 226
42.70561 297
42.72573 240
42.74584 257
42.76595 235
42.78607 264
42.80618 240
42.8263 222
42.84641 264
42.86652 248
42.88664 210
42.90675 246
42.92686 245
42.94698 229
42.96709 220
42.98721 212
43.00732 216
43.02743 219
43.04755 246
43.06766 219
43.08777 226
43.10789 227
43.128 201
43.14812 229
43.16823 235
43.18834 220
43.20846 255
43.22857 215
43.24868 244
43.2688 247
43.28891 230
43.30902 255
43.32914 184
43.34925 232
43.36937 219
43.38948 202
43.40959 213
43.42971 238
43.44982 228
43.46993 254
43.49005 236
43.51016 208
43.53028 206
43.55039 222
43.5705 210
43.59062 233
43.61073 202
43.63084 262
43.65096 239
43.67107 248
43.69119 237
43.7113 252
43.73141 232
43.75153 210
43.77164 215
43.79175 239
43.81187 210
43.83198 236
43.85209 239
43.87221 229
43.89232 224
43.91244 242
43.93255 257
43.95266 251
43.97278 230
43.99289 246
44.013 243
44.03312 236
44.05323 246
44.07335 231
44.09346 224
44.11357 219
44.13369 225
44.1538 251
44.17391 226
44.19403 239
44.21414 234
44.23426 214
44.25437 213
44.27448 230
44.2946 233
44.31471 255
44.33482 234
44.35494 209
44.37505 198
44.39516 211
44.41528 228
44.43539 237
44.45551 208
44.47562 238
44.49573 232
44.51585 212
44.53596 211
44.55607 238
44.57619 228
44.5963 212
44.61642 225
44.63653 233
44.65664 229
44.67676 238
44.69687 240
44.71698 239
44.7371 233
44.75721 243
44.77732 232
44.79744 237
44.81755 214
44.83767 241
44.85778 233
44.87789 212
44.89801 235
44.91812 230
44.93823 232
44.95835 254
44.97846 265
44.99858 251
45.01869 218
45.0388 228
45.05892 238
45.07903 243
45.09914 240
45.11926 234
45.13937 227
45.15949 276
45.1796 231
45.19971 265
45.21983 244
45.23994 267
45.26005 263
45.28017 261
45.30028 265
45.32039 302
45.34051 293
45.36062 281
45.38074 298
45.40085 313
45.42096 291
45.44108 325
45.46119 336
45.4813 397
45.50142 409
45.52153 413
45.54165 397
45.56176 444
45.58187 558
45.60199 576
45.6221 609
45.64221 628
45.66233 740
45.68244 777
45.70256 810
45.72267 804
45.74278 824
45.7629 708
45.78301 714
45.80312 619
45.82324 599
45.84335 557
45.86346 462
45.88358 427
45.90369 428
45.92381 335
45.94392 295
45.96403 273
45.98415 315
46.00426 279
46.02437 233
46.04449 272
46.0646 255
46.08472 277
46.10483 262
46.12494 231
46.14506 231
46.16517 243
46.18528 271
46.2054 269
46.22551 268
46.24563 244
46.26574 216
46.28585 227
46.30597 223
46.32608 239
46.34619 242
46.36631 245
46.38642 232
46.40653 242
46.42665 216
46.44676 235
46.46688 240
46.48699 259
46.5071 207
46.52722 221
46.54733 244
46.56744 219
46.58756 265
46.60767 222
46.62779 222
46.6479 251
46.66801 233
46.68813 213
46.70824 218
46.72835 244
46.74847 208
46.76858 233
46.78869 258
46.80881 216
46.82892 217
46.84904 243
46.86915 221
46.88926 224
46.90938 228
46.92949 213
46.9496 216
46.96972 235
46.98983 223
47.00995 218
47.03006 207
47.05017 244
47.07029 216
47.0904 213
47.11051 240
47.13063 215
47.15074 233
47.17086 217
47.19097 239
47.21108 247
47.2312 209
47.25131 248
47.27142 231
47.29154 231
47.31165 215
47.33176 250
47.35188 237
47.37199 228
47.39211 246
47.41222 208
47.43233 225
47.45245 249
47.47256 233
47.49267 237
47.51279 230
47.5329 247
47.55302 186
47.57313 226
47.59324 245
47.61336 205
47.63347 207
47.65358 256
47.6737 200
47.69381 232
47.71393 247
47.73404 215
47.75415 215
47.77427 231
47.79438 242
47.81449 204
47.83461 255
47.85472 229
47.87483 224
47.89495 230
47.91506 228
47.93518 222
47.95529 228
47.9754 231
47.99552 229
48.01563 260
48.03574 228
48.05586 214
48.07597 239
48.09609 213
48.1162 231
48.13631 223
48.15643 207
48.17654 240
48.19665 231
48.21677 213
48.23688 249
48.257 248
48.27711 224
48.29722 228
48.31734 220
48.33745 226
48.35756 237
48.37768 212
48.39779 223
48.4179 200
48.43802 231
48.45813 205
48.47825 228
48.49836 261
48.51847 246
48.53859 196
48.5587 233
48.57881 239
48.59893 234
48.61904 242
48.63916 227
48.65927 215
48.67938 243
48.6995 241
48.71961 234
48.73972 226
48.75984 216
48.77995 212
48.80006 235
48.82018 234
48.84029 216
48.86041 237
48.88052 223
48.90063 224
48.92075 224
48.94086 229
48.96097 244
48.98109 232
49.0012 242
49.02132 236
49.04143 220
49.06154 229
49.08166 225
49.10177 250
49.12188 222
49.142 211
49.16211 238
49.18223 232
49.20234 255
49.22245 225
49.24257 221
49.26268 240
49.28279 232
49.30291 242
49.32302 217
49.34313 232
49.36325 215
49.38336 251
49.40348 263
49.42359 256
49.4437 244
49.46382 261
49.48393 228
49.50404 268
49.52416 284
49.54427 284
49.56439 268
49.5845 266
49.60461 283
49.62473 268
49.64484 295
49.66495 339
49.68507 336
49.70518 339
49.7253 390
49.74541 379
49.76552 414
49.78564 477
49.80575 522
49.82586 587
49.84598 649
49.86609 715
49.8862 863
49.90632 996
49.92643 1117
49.94655 1275
49.96666 1493
49.98677 1759
50.00689 1914
50.027 2063
50.04711 2273
50.06723 2237
50.08734 2165
50.10746 2068
50.12757 1816
50.14768 1637
50.1678 1450
50.18791 1233
50.20802 1155
50.22814 1038
50.24825 878
50.26837 704
50.28848 553
50.30859 444
50.32871 402
50.34882 357
50.36893 312
50.38905 364
50.40916 322
50.42927 305
50.44939 305
50.4695 296
50.48962 347
50.50973 304
50.52984 287
50.54996 272
50.57007 290
50.59018 277
50.6103 275
50.63041 268
50.65053 270
50.67064 245
50.69075 238
50.71087 237
50.73098 250
50.75109 258
50.77121 260
50.79132 232
50.81143 270
50.83155 204
50.85166 241
50.87178 242
50.89189 233
50.912 231
50.93212 245
50.95223 220
50.97234 209
50.99246 239
51.01257 230
51.03269 213
51.0528 232
51.07291 224
51.09303 220
51.11314 202
51.13325 177
51.15337 216
51.17348 215
51.1936 202
51.21371 204
51.23382 221
51.25394 222
51.27405 209
51.29416 203
51.31428 213
51.33439 210
51.3545 190
51.37462 206
51.39473 194
51.41485 208
51.43496 236
51.45507 192
51.47519 176
51.4953 191
51.51541 222
51.53553 191
51.55564 204
51.57576 233
51.59587 208
51.61598 190
51.6361 204
51.65621 195
51.67632 223
51.69644 179
51.71655 200
51.73667 207
51.75678 203
51.77689 214
51.79701 190
51.81712 217
51.83723 205
51.85735 222
51.87746 213
51.89757 188
51.91769 189
51.9378 182
51.95792 188
51.97803 223
51.99814 212
52.01826 222
52.03837 236
52.05848 224
52.0786 205
52.09871 205
52.11883 193
52.13894 225
52.15905 202
52.17917 213
52.19928 203
52.21939 220
52.23951 183
52.25962 224
52.27974 239
52.29985 214
52.31996 216
52.34008 201
52.36019 201
52.3803 201
52.40042 164
52.42053 187
52.44064 229
52.46076 188
52.48087 207
52.50099 191
52.5211 180
52.54121 203
52.56133 207
52.58144 184
52.60155 220
52.62167 198
52.64178 194
52.6619 201
52.68201 218
52.70212 216
52.72224 198
52.74235 221
52.76246 217
52.78258 227
52.80269 201
52.8228 207
52.84292 216
52.86303 222
52.88315 172
52.90326 222
52.92337 231
52.94349 215
52.9636 214
52.98371 232
53.00383 213
53.02394 217
53.04406 197
53.06417 218
53.08428 236
53.1044 242
53.12451 201
53.14462 194
53.16474 227
53.18485 236
53.20497 228
53.22508 247
53.24519 234
53.26531 230
53.28542 217
53.30553 222
53.32565 202
53.34576 229
53.36587 219
53.38599 211
53.4061 219
53.42622 238
53.44633 227
53.46644 229
53.48656 241
53.50667 231
53.52678 229
53.5469 244
53.56701 264
53.58713 251
53.60724 258
53.62735 235
53.64747 247
53.66758 260
53.68769 233
53.70781 247
53.72792 280
53.74804 260
53.76815 271
53.78826 270
53.80838 245
53.82849 271
53.8486 272
53.86872 265
53.88883 272
53.90894 287
53.92906 288
53.94917 268
53.96929 283
53.9894 304
54.00951 267
54.02963 292
54.04974 309
54.06985 284
54.08997 301
54.11008 280
54.1302 306
54.15031 278
54.17042 299
54.19054 286
54.21065 283
54.23076 306
54.25088 287
54.27099 276
54.29111 306
54.31122 313
54.33133 288
54.35145 297
54.37156 326
54.39167 336
54.41179 343
54.4319 324
54.45201 301
54.47213 343
54.49224 347
54.51236 361
54.53247 394
54.55258 380
54.5727 432
54.59281 454
54.61292 494
54.63304 487
54.65315 580
54.67327 554
54.69338 642
54.71349 669
54.73361 731
54.75372 796
54.77383 875
54.79395 872
54.81406 866
54.83417 835
54.85429 745
54.8744 666
54.89452 668
54.91463 617
54.93474 592
54.95486 538
54.97497 572
54.99508 553
55.0152 473
55.03531 466
55.05543 435
55.07554 465
55.09565 438
55.11577 467
55.13588 447
55.15599 487
55.17611 506
55.19622 478
55.21634 540
55.23645 536
55.25656 535
55.27668 514
55.29679 511
55.3169 479
55.33702 432
55.35713 389
55.37724 443
55.39736 439
55.41747 380
55.43759 360
55.4577 336
55.47781 305
55.49793 296
55.51804 287
55.53815 349
55.55827 276
55.57838 265
55.5985 297
55.61861 254
55.63872 265
55.65884 270
55.67895 267
55.69906 265
55.71918 246
55.73929 252
55.75941 263
55.77952 269
55.79963 288
55.81975 251
55.83986 225
55.85997 259
55.88009 269
55.9002 229
55.92031 241
55.94043 255
55.96054 231
55.98066 243
56.00077 260
56.02088 269
56.041 233
56.06111 199
56.08122 243
56.10134 256
56.12145 236
56.14157 241
56.16168 232
56.18179 269
56.20191 238
56.22202 250
56.24213 236
56.26225 247
56.28236 219
56.30248 237
56.32259 213
56.3427 241
56.36282 231
56.38293 250
56.40304 253
56.42316 246
56.44327 221
56.46338 242
56.4835 242
56.50361 224
56.52373 228
56.54384 233
56.56395 253
56.58407 218
56.60418 229
56.62429 235
56.64441 228
56.66452 231
56.68464 224
56.70475 225
56.72486 249
56.74498 246
56.76509 215
56.7852 251
56.80532 241
56.82543 220
56.84554 207
56.86566 235
56.88577 234
56.90589 230
56.926 224
56.94611 220
56.96623 225
56.98634 219
57.00645 262
57.02657 234
57.04668 241
57.0668 248
57.08691 229
57.10702 263
57.12714 246
57.14725 249
57.16736 248
57.18748 239
57.20759 266
57.22771 240
57.24782 241
57.26793 224
57.28805 246
57.30816 242
57.32827 205
57.34839 212
57.3685 229
57.38861 224
57.40873 213
57.42884 225
57.44896 200
57.46907 219
57.48918 202
57.5093 226
57.52941 205
57.54952 214
57.56964 214
57.58975 237
57.60987 212
57.62998 199
57.65009 206
57.67021 200
57.69032 232
57.71043 213
57.73055 209
57.75066 213
57.77078 212
57.79089 213
57.811 217
57.83112 226
57.85123 207
57.87134 177
57.89146 206
57.91157 219
57.93168 218
57.9518 246
57.97191 219
57.99203 222
58.01214 201
58.03225 220
58.05237 226
58.07248 217
58.09259 207
58.11271 223
58.13282 202
58.15294 207
58.17305 234
58.19316 210
58.21328 211
58.23339 212
58.2535 232
58.27362 223
58.29373 207
58.31385 222
58.33396 200
58.35407 203
58.37419 212
58.3943 209
58.41441 220
58.43453 205
58.45464 201
58.47475 197
58.49487 191
58.51498 212
58.5351 212
58.55521 211
58.57532 219
58.59544 219
58.61555 218
58.63566 225
58.65578 197
58.67589 193
58.69601 213
58.71612 239
58.73623 202
58.75635 206
58.77646 208
58.79657 203
58.81669 232
58.8368 215
58.85691 217
58.87703 199
58.89714 196
58.91726 205
58.93737 193
58.95748 237
58.9776 223
58.99771 226
59.01782 204
59.03794 220
59.05805 230
59.07817 215
59.09828 248
59.11839 211
59.13851 231
59.15862 218
59.17873 234
59.19885 246
59.21896 223
59.23908 251
59.25919 243
59.2793 231
59.29942 230
59.31953 237
59.33964 226
59.35976 255
59.37987 248
59.39998 259
59.4201 269
59.44021 291
59.46033 311
59.48044 321
59.50055 318
59.52067 340
59.54078 323
59.56089 341
59.58101 379
59.60112 409
59.62124 438
59.64135 511
59.66146 558
59.68158 608
59.70169 722
59.7218 806
59.74192 890
59.76203 1049
59.78215 1067
59.80226 1228
59.82237 1373
59.84249 1415
59.8626 1477
59.88271 1468
59.90283 1436
59.92294 1296
59.94305 1149
59.96317 1076
59.98328 954
60.0034 928
60.02351 856
60.04362 831
60.06374 729
60.08385 691
60.10396 581
60.12408 507
60.14419 366
60.16431 347
60.18442 332
60.20453 260
60.22465 275
60.24476 263
60.26487 257
60.28499 228
60.3051 233
60.32522 260
60.34533 234
60.36544 229
60.38556 247
60.40567 252
60.42578 223
60.4459 236
60.46601 219
60.48612 234
60.50624 215
60.52635 234
60.54647 225
60.56658 210
60.58669 213
60.60681 219
60.62692 221
60.64703 202
60.66715 219
60.68726 186
60.70738 222
60.72749 206
60.7476 227
60.76772 194
60.78783 221
60.80794 189
60.82806 209
60.84817 225
60.86828 205
60.8884 224
60.90851 212
60.92863 210
60.94874 200
60.96885 211
60.98897 212
61.00908 210
61.02919 205
61.04931 212
61.06942 192
61.08954 230
61.10965 225
61.12976 215
61.14988 237
61.16999 206
61.1901 212
61.21022 209
61.23033 203
61.25045 211
61.27056 224
61.29067 228
61.31079 224
61.3309 217
61.35101 230
61.37113 209
61.39124 218
61.41135 214
61.43147 235
61.45158 227
61.4717 211
61.49181 248
61.51192 248
61.53204 256
61.55215 234
61.57226 264
61.59238 252
61.61249 274
61.63261 236
61.65272 247
61.67283 251
61.69295 262
61.71306 252
61.73317 259
61.75329 221
61.7734 279
61.79352 252
61.81363 278
61.83374 264
61.85386 252
61.87397 268
61.89408 282
61.9142 282
61.93431 262
61.95442 258
61.97454 300
61.99465 307
62.01477 323
62.03488 293
62.05499 335
62.07511 286
62.09522 299
62.11533 301
62.13545 320
62.15556 329
62.17568 345
62.19579 310
62.2159 360
62.23602 300
62.25613 335
62.27624 313
62.29636 309
62.31647 300
62.33659 302
62.3567 288
62.37681 293
62.39693 281
62.41704 291
62.43715 277
62.45727 282
62.47738 274
62.49749 245
62.51761 274
62.53772 249
62.55784 228
62.57795 260
62.59806 241
62.61818 236
62.63829 203
62.6584 242
62.67852 245
62.69863 247
62.71875 234
62.73886 189
62.75897 227
62.77909 220
62.7992 232
62.81931 252
62.83943 236
62.85954 198
62.87965 231
62.89977 221
62.91988 231
62.94 213
62.96011 240
62.98022 196
63.00034 229
63.02045 231
63.04056 220
63.06068 207
63.08079 225
63.10091 204
63.12102 217
63.14113 210
63.16125 208
63.18136 232
63.20147 216
63.22159 243
63.2417 230
63.26182 232
63.28193 214
63.30204 222
63.32216 216
63.34227 197
63.36238 225
63.3825 224
63.40261 212
63.42272 234
63.44284 213
63.46295 252
63.48307 245
63.50318 241
63.52329 235
63.54341 236
63.56352 247
63.58363 248
63.60375 225
63.62386 231
63.64398 255
63.66409 250
63.6842 286
63.70432 273
63.72443 286
63.74454 296
63.76466 345
63.78477 306
63.80489 329
63.825 374
63.84511 408
63.86523 383
63.88534 405
63.90545 434
63.92557 431
63.94568 443
63.96579 452
63.98591 407
64.00602 405
64.02614 340
64.04625 365
64.06636 346
64.08648 311
64.10659 330
64.1267 334
64.14682 305
64.16693 286
64.18705 301
64.20716 282
64.22727 235
64.24739 197
64.2675 222
64.28761 218
64.30773 220
64.32784 227
64.34796 235
64.36807 217
64.38818 215
64.4083 200
64.42841 198
64.44852 241
64.46864 234
64.48875 200
64.50886 234
64.52898 192
64.54909 207
64.56921 202
64.58932 222
64.60943 195
64.62955 193
64.64966 176
64.66977 193
64.68989 198
64.71 196
64.73012 191
64.75023 201
64.77034 196
64.79046 174
64.81057 201
64.83068 209
64.8508 181
64.87091 213
64.89102 190
64.91114 210
64.93125 206
64.95137 193
64.97148 204
64.99159 180
65.01171 182
65.03182 194
65.05193 202
65.07205 185
65.09216 218
65.11228 224
65.13239 216
65.1525 213
65.17262 174
65.19273 205
65.21284 194
65.23296 206
65.25307 187
65.27319 211
65.2933 214
65.31341 173
65.33353 204
65.35364 182
65.37375 197
65.39387 192
65.41398 202
65.43409 211
65.45421 210
65.47432 241
65.49444 237
65.51455 230
65.53466 201
65.55478 198
65.57489 264
65.595 239
65.61512 211
65.63523 266
65.65535 232
65.67546 266
65.69557 261
65.71569 250
65.7358 283
65.75591 252
65.77603 232
65.79614 234
65.81626 208
65.83637 198
65.85648 221
65.8766 231
65.89671 196
65.91682 207
65.93694 219
65.95705 198
65.97716 217
65.99728 180
66.01739 189
66.03751 212
66.05762 187
66.07773 208
66.09785 218
66.11796 203
66.13807 214
66.15819 203
66.1783 199
66.19842 232
66.21853 219
66.23864 198
66.25876 230
66.27887 200
66.29898 200
66.3191 220
66.33921 184
66.35933 177
66.37944 200
66.39955 187
66.41967 205
66.43978 215
66.45989 195
66.48001 181
66.50012 198
66.52023 224
66.54035 198
66.56046 215
66.58058 195
66.60069 198
66.6208 219
66.64092 205
66.66103 208
66.68114 177
66.70126 189
66.72137 220
66.74149 212
66.7616 198
66.78171 221
66.80183 215
66.82194 210
66.84205 203
66.86217 203
66.88228 182
66.90239 210
66.92251 218
66.94262 215
66.96274 232
66.98285 198
67.00296 198
67.02308 214
67.04319 216
67.0633 218
67.08342 226
67.10353 250
67.12365 218
67.14376 211
67.16387 256
67.18399 249
67.2041 270
67.22421 240
67.24433 269
67.26444 269
67.28456 273
67.30467 273
67.32478 281
67.3449 315
67.36501 305
67.38512 345
67.40524 384
67.42535 401
67.44546 430
67.46558 449
67.48569 544
67.50581 553
67.52592 619
67.54603 679
67.56615 753
67.58626 828
67.60637 895
67.62649 874
67.6466 1005
67.66672 948
67.68683 925
67.70694 881
67.72706 807
67.74717 861
67.76728 798
67.7874 768
67.80751 835
67.82763 792
67.84774 788
67.86785 853
67.88797 840
67.90808 874
67.92819 907
67.94831 990
67.96842 1021
67.98853 1061
68.00865 1142
68.02876 1243
68.04888 1258
68.06899 1295
68.0891 1292
68.10922 1200
68.12933 1166
68.14944 1110
68.16956 1220
68.18967 1144
68.20979 1113
68.2299 1139
68.25001 1067
68.27013 993
68.29024 930
68.31035 790
68.33047 683
68.35058 636
68.3707 569
68.39081 495
68.41092 503
68.43104 486
68.45115 443
68.47126 383
68.49138 359
68.51149 346
68.5316 260
68.55172 257
68.57183 267
68.59195 240
68.61206 253
68.63217 244
68.65229 233
68.6724 252
68.69251 200
68.71263 240
68.73274 203
68.75286 245
68.77297 230
68.79308 198
68.8132 179
68.83331 213
68.85342 211
68.87354 213
68.89365 211
68.91376 210
68.93388 215
68.95399 213
68.97411 188
68.99422 202
69.01433 177
69.03445 205
69.05456 205
69.07467 183
69.09479 186
69.1149 206
69.13502 199
69.15513 186
69.17524 200
69.19536 187
69.21547 226
69.23558 184
69.2557 224
69.27581 185
69.29593 214
69.31604 215
69.33615 199
69.35627 177
69.37638 218
69.39649 217
69.41661 196
69.43672 189
69.45683 189
69.47695 182
69.49706 189
69.51718 194
69.53729 192
69.5574 179
69.57752 201
69.59763 210
69.61774 185
69.63786 184
69.65797 180
69.67809 213
69.6982 209
69.71831 215
69.73843 184
69.75854 177
69.77865 199
69.79877 187
69.81888 192
69.839 215
69.85911 180
69.87922 187
69.89934 200
69.91945 187
69.93956 196
69.95968 164
69.97979 193
69.9999 173
70.02002 192
70.04013 207
70.06025 209
70.08036 176
70.10047 203
70.12059 182
70.1407 194
70.16081 189
70.18093 196
70.20104 190
70.22116 198
70.24127 192
70.26138 191
70.2815 176
70.30161 178
70.32172 228
70.34184 174
70.36195 199
70.38207 179
70.40218 178
70.42229 171
70.44241 218
70.46252 186
70.48263 207
70.50275 171
70.52286 189
70.54297 178
70.56309 181
70.5832 174
70.60332 187
70.62343 180
70.64354 160
70.66366 199
70.68377 179
70.70388 167
70.724 184
70.74411 201
70.76423 183
70.78434 185
70.80445 172
70.82457 172
70.84468 206
70.86479 185
70.88491 172
70.90502 187
70.92513 176
70.94525 158
70.96536 181
70.98548 187
71.00559 188
71.0257 196
71.04582 196
71.06593 188
71.08604 164
71.10616 190
71.12627 170
71.14639 175
71.1665 159
71.18661 196
71.20673 206
71.22684 179
71.24695 164
71.26707 183
71.28718 152
71.3073 186
71.32741 206
71.34752 174
71.36764 176
71.38775 180
71.40786 194
71.42798 183
71.44809 206
71.4682 172
71.48832 170
71.50843 160
71.52855 185
71.54866 199
71.56877 195
71.58889 170
71.609 196
71.62911 163
71.64923 181
71.66934 184
71.68946 178
71.70957 195
71.72968 169
71.7498 193
71.76991 181
71.79002 174
71.81014 175
71.83025 202
71.85037 177
71.87048 177
71.89059 211
71.91071 203
71.93082 164
71.95093 183
71.97105 176
71.99116 167
72.01127 177
72.03139 175
72.0515 180
72.07162 169
72.09173 173
72.11184 184
72.13196 180
72.15207 197
72.17218 159
72.1923 200
72.21241 181
72.23253 202
72.25264 157
72.27275 176
72.29287 172
72.31298 218
72.33309 195
72.35321 176
72.37332 190
72.39344 193
72.41355 182
72.43366 181
72.45378 191
72.47389 211
72.494 202
72.51412 200
72.53423 150
72.55434 176
72.57446 175
72.59457 178
72.61469 177
72.6348 224
72.65491 200
72.67503 181
72.69514 204
72.71525 199
72.73537 198
72.75548 198
72.7756 211
72.79571 176
72.81582 204
72.83594 209
72.85605 181
72.87616 187
72.89628 176
72.91639 213
72.9365 204
72.95662 211
72.97673 215
72.99685 224
73.01696 196
73.03707 225
73.05719 222
73.0773 227
73.09741 240
73.11753 258
73.13764 264
73.15776 268
73.17787 277
73.19798 288
73.2181 317
73.23821 325
73.25832 346
73.27844 375
73.29855 388
73.31867 387
73.33878 421
73.35889 433
73.37901 476
73.39912 454
73.41923 407
73.43935 413
73.45946 354
73.47957 327
73.49969 350
73.5198 330
73.53992 317
73.56003 344
73.58014 338
73.60026 320
73.62037 332
73.64048 271
73.6606 293
73.68071 249
73.70083 249
73.72094 224
73.74105 218
73.76117 216
73.78128 201
73.80139 203
73.82151 173
73.84162 202
73.86174 217
73.88185 199
73.90196 185
73.92208 193
73.94219 183
73.9623 195
73.98242 185
74.00253 179
74.02264 197
74.04276 177
74.06287 183
74.08299 192
74.1031 200
74.12321 185
74.14333 184
74.16344 172
74.18355 206
74.20367 196
74.22378 188
74.2439 186
74.26401 178
74.28412 205
74.30424 197
74.32435 181
74.34446 181
74.36458 180
74.38469 186
74.40481 190
74.42492 172
74.44503 197
74.46515 178
74.48526 187
74.50537 167
74.52549 197
74.5456 186
74.56571 198
74.58583 193
74.60594 184
74.62606 187
74.64617 183
74.66628 213
74.6864 160
74.70651 179
74.72662 199
74.74674 188
74.76685 185
74.78697 211
74.80708 167
74.82719 187
74.84731 176
74.86742 163
74.88753 192
74.90765 160
74.92776 184
74.94787 181
74.96799 204
74.9881 200
75.00822 220
