3.00117 19993
3.02128 19919
3.0414 19143
3.06151 18732
3.08162 18348
3.10174 17523
3.12185 17141
3.14197 16720
3.16208 15872
3.18219 15812
3.20231 15115
3.22242 14866
3.24253 14242
3.26265 13884
3.28276 13606
3.30288 12916
3.32299 12622
3.3431 12313
3.36322 11773
3.38333 11313
3.40344 10837
3.42356 10762
3.44367 10255
3.46379 10180
3.4839 9882
3.50401 9212
3.52413 9043
3.54424 8604
3.56435 8294
3.58447 8096
3.60458 7485
3.62469 7433
3.64481 7086
3.66492 6726
3.68504 6779
3.70515 6148
3.72526 6123
3.74538 5876
3.76549 5730
3.7856 5588
3.80572 4957
3.82583 5083
3.84595 4697
3.86606 4517
3.88617 4456
3.90629 3900
3.9264 3910
3.94651 3807
3.96663 3666
3.98674 3668
4.00686 3240
4.02697 3237
4.04708 3040
4.0672 2786
4.08731 2913
4.10742 2562
4.12754 2551
4.14765 2447
4.16776 2309
4.18788 2375
4.20799 1976
4.22811 2140
4.24822 2060
4.26833 1962
4.28845 1900
4.30856 1800
4.32867 1781
4.34879 1739
4.3689 1710
4.38902 1733
4.40913 1513
4.42924 1465
4.44936 1422
4.46947 1414
4.48958 1464
4.5097 1317
4.52981 1286
4.54992 1401
4.57004 1316
4.59015 1293
4.61027 1256
4.63038 1107
4.65049 1221
4.67061 1213
4.69072 1127
4.71083 1097
4.73095 1069
4.75106 1083
4.77118 1016
4.79129 1063
4.8114 980
4.83152 882
4.85163 968
4.87174 906
4.89186 942
4.91197 872
4.93209 881
4.9522 841
4.97231 841
4.99243 833
5.01254 726
5.03265 788
5.05277 825
5.07288 742
5.09299 720
5.11311 665
5.13322 707
5.15334 653
5.17345 617
5.19356 685
5.21368 655
5.23379 592
5.2539 589
5.27402 637
5.29413 592
5.31425 599
5.33436 563
5.35447 598
5.37459 556
5.3947 567
5.41481 515
5.43493 524
5.45504 550
5.47516 524
5.49527 543
5.51538 512
5.5355 474
5.55561 472
5.57572 482
5.59584 405
5.61595 430
5.63606 426
5.65618 448
5.67629 378
5.69641 381
5.71652 395
5.73663 379
5.75675 405
5.77686 429
5.79697 358
5.81709 391
5.8372 392
5.85732 369
5.87743 412
5.89754 352
5.91766 330
5.93777 417
5.95788 336
5.978 357
5.99811 318
6.01823 350
6.03834 292
6.05845 392
6.07857 355
6.09868 333
6.11879 404
6.13891 355
6.15902 372
6.17913 337
6.19925 380
6.21936 328
6.23948 314
6.25959 365
6.2797 327
6.29982 357
6.31993 352
6.34004 348
6.36016 340
6.38027 345
6.40039 377
6.4205 300
6.44061 317
6.46073 304
6.48084 334
6.50095 303
6.52107 338
6.54118 327
6.56129 338
6.58141 297
6.60152 335
6.62164 301
6.64175 334
6.66186 318
6.68198 279
6.70209 298
6.7222 309
6.74232 295
6.76243 312
6.78255 304
6.80266 332
6.82277 375
6.84289 304
6.863 270
6.88311 309
6.90323 302
6.92334 349
6.94346 314
6.96357 345
6.98368 347
7.0038 337
7.02391 313
7.04402 300
7.06414 286
7.08425 286
7.10436 322
7.12448 337
7.14459 301
7.16471 318
7.18482 305
7.20493 289
7.22505 299
7.24516 280
7.26527 316
7.28539 263
7.3055 317
7.32562 266
7.34573 303
7.36584 324
7.38596 330
7.40607 302
7.42618 321
7.4463 291
7.46641 280
7.48653 282
7.50664 316
7.52675 320
7.54687 319
7.56698 328
7.58709 303
7.60721 303
7.62732 302
7.64743 296
7.66755 334
7.68766 323
7.70778 280
7.72789 322
7.748 300
7.76812 293
7.78823 314
7.80834 306
7.82846 329
7.84857 285
7.86869 298
7.8888 303
7.90891 314
7.92903 307
7.94914 370
7.96925 274
7.98937 296
8.00948 318
8.0296 312
8.04971 316
8.06982 331
8.08994 293
8.11005 320
8.13016 344
8.15028 309
8.17039 331
8.1905 334
8.21062 306
8.23073 332
8.25085 336
8.27096 316
8.29107 307
8.31119 322
8.3313 284
8.35141 322
8.37153 375
8.39164 347
8.41176 302
8.43187 339
8.45198 346
8.4721 357
8.49221 370
8.51232 349
8.53244 360
8.55255 405
8.57266 374
8.59278 375
8.61289 418
8.63301 415
8.65312 468
8.67323 509
8.69335 501
8.71346 541
8.73357 597
8.75369 656
8.7738 733
8.79392 782
8.81403 801
8.83414 900
8.85426 879
8.87437 817
8.89448 734
8.9146 656
8.93471 521
8.95483 500
8.97494 469
8.99505 422
9.01517 392
9.03528 351
9.05539 395
9.07551 403
9.09562 377
9.11573 367
9.13585 348
9.15596 342
9.17608 351
9.19619 351
9.2163 345
9.23642 345
9.25653 311
9.27664 312
9.29676 310
9.31687 325
9.33699 345
9.3571 323
9.37721 362
9.39733 301
9.41744 320
9.43755 300
9.45767 308
9.47778 331
9.4979 333
9.51801 325
9.53812 300
9.55824 297
9.57835 273
9.59846 353
9.61858 308
9.63869 342
9.6588 298
9.67892 311
9.69903 313
9.71915 308
9.73926 329
9.75937 310
9.77949 317
9.7996 305
9.81971 332
9.83983 323
9.85994 316
9.88006 332
9.90017 310
9.92028 287
9.9404 330
9.96051 314
9.98062 303
10.00074 301
10.02085 346
10.04097 322
10.06108 295
10.08119 306
10.10131 310
10.12142 300
10.14153 290
10.16165 299
10.18176 281
10.20187 310
10.22199 314
10.2421 274
10.26222 286
10.28233 297
10.30244 317
10.32256 339
10.34267 319
10.36278 318
10.3829 319
10.40301 304
10.42313 294
10.44324 340
10.46335 282
10.48347 289
10.50358 310
10.52369 302
10.54381 282
10.56392 335
10.58403 314
10.60415 306
10.62426 314
10.64438 322
10.66449 274
10.6846 310
10.70472 304
10.72483 278
10.74494 273
10.76506 294
10.78517 316
10.80529 339
10.8254 339
10.84551 306
10.86563 309
10.88574 303
10.90585 282
10.92597 307
10.94608 296
10.9662 337
10.98631 303
11.00642 319
11.02654 292
11.04665 311
11.06676 317
11.08688 288
11.10699 308
11.1271 312
11.14722 324
11.16733 278
11.18745 281
11.20756 252
11.22767 329
11.24779 330
11.2679 318
11.28801 309
11.30813 304
11.32824 296
11.34836 331
11.36847 308
11.38858 334
11.4087 337
11.42881 342
11.44892 314
11.46904 300
11.48915 328
11.50927 334
11.52938 322
11.54949 335
11.56961 288
11.58972 314
11.60983 315
11.62995 298
11.65006 321
11.67017 329
11.69029 331
11.7104 320
11.73052 340
11.75063 323
11.77074 328
11.79086 329
11.81097 304
11.83108 345
11.8512 323
11.87131 287
11.89143 333
11.91154 334
11.93165 325
11.95177 350
11.97188 377
11.99199 321
12.01211 320
12.03222 348
12.05234 365
12.07245 342
12.09256 317
12.11268 381
12.13279 347
12.1529 383
12.17302 353
12.19313 378
12.21324 370
12.23336 367
12.25347 345
12.27359 368
12.2937 383
12.31381 354
12.33393 380
12.35404 364
12.37415 316
12.39427 348
12.41438 323
12.4345 356
12.45461 342
12.47472 322
12.49484 374
12.51495 322
12.53506 361
12.55518 333
12.57529 352
12.5954 360
12.61552 336
12.63563 340
12.65575 308
12.67586 340
12.69597 327
12.71609 311
12.7362 303
12.75631 308
12.77643 292
12.79654 296
12.81666 297
12.83677 293
12.85688 298
12.877 275
12.89711 295
12.91722 311
12.93734 285
12.95745 290
12.97757 310
12.99768 304
13.01779 300
13.03791 327
13.05802 290
13.07813 305
13.09825 293
13.11836 302
13.13847 293
13.15859 285
13.1787 302
13.19882 294
13.21893 250
13.23904 302
13.25916 311
13.27927 300
13.29938 290
13.3195 282
13.33961 281
13.35973 250
13.37984 249
13.39995 285
13.42007 308
13.44018 266
13.46029 293
13.48041 312
13.50052 320
13.52064 298
13.54075 277
13.56086 308
13.58098 301
13.60109 276
13.6212 305
13.64132 295
13.66143 307
13.68154 284
13.70166 265
13.72177 313
13.74189 312
13.762 282
13.78211 299
13.80223 263
13.82234 297
13.84245 286
13.86257 299
13.88268 303
13.9028 296
13.92291 288
13.94302 300
13.96314 318
13.98325 286
14.00336 282
14.02348 281
14.04359 300
14.06371 253
14.08382 269
14.10393 298
14.12405 287
14.14416 264
14.16427 264
14.18439 275
14.2045 291
14.22461 258
14.24473 271
14.26484 293
14.28496 279
14.30507 262
14.32518 282
14.3453 283
14.36541 304
14.38552 300
14.40564 280
14.42575 268
14.44587 276
14.46598 297
14.48609 268
14.50621 278
14.52632 323
14.54643 294
14.56655 280
14.58666 279
14.60677 270
14.62689 261
14.647 305
14.66712 319
14.68723 289
14.70734 263
14.72746 267
14.74757 266
14.76768 268
14.7878 253
14.80791 281
14.82803 271
14.84814 308
14.86825 268
14.88837 258
14.90848 294
14.92859 313
14.94871 265
14.96882 268
14.98894 262
15.00905 284
15.02916 284
15.04928 261
15.06939 267
15.0895 289
15.10962 265
15.12973 265
15.14984 288
15.16996 258
15.19007 265
15.21019 266
15.2303 273
15.25041 281
15.27053 276
15.29064 235
15.31075 247
15.33087 298
15.35098 243
15.3711 281
15.39121 265
15.41132 256
15.43144 247
15.45155 284
15.47166 277
15.49178 255
15.51189 274
15.53201 275
15.55212 265
15.57223 295
15.59235 262
15.61246 274
15.63257 286
15.65269 286
15.6728 276
15.69291 283
15.71303 265
15.73314 270
15.75326 255
15.77337 271
15.79348 231
15.8136 267
15.83371 253
15.85382 269
15.87394 274
15.89405 282
15.91417 244
15.93428 253
15.95439 303
15.97451 269
15.99462 275
16.01473 286
16.03485 288
16.05496 244
16.07508 279
16.09519 279
16.1153 276
16.13542 268
16.15553 268
16.17564 248
16.19576 246
16.21587 244
16.23598 315
16.2561 273
16.27621 265
16.29633 247
16.31644 284
16.33655 254
16.35667 273
16.37678 292
16.39689 255
16.41701 267
16.43712 266
16.45724 267
16.47735 278
16.49746 241
16.51758 265
16.53769 263
16.5578 268
16.57792 284
16.59803 273
16.61814 272
16.63826 271
16.65837 247
16.67849 250
16.6986 280
16.71871 251
16.73883 263
16.75894 241
16.77905 251
16.79917 245
16.81928 306
16.8394 263
16.85951 256
16.87962 265
16.89974 258
16.91985 250
16.93996 266
16.96008 300
16.98019 317
17.00031 268
17.02042 270
17.04053 276
17.06065 267
17.08076 284
17.10087 249
17.12099 278
17.1411 234
17.16121 275
17.18133 277
17.20144 298
17.22156 245
17.24167 312
17.26178 302
17.2819 293
17.30201 283
17.32212 269
17.34224 281
17.36235 253
17.38247 295
17.40258 301
17.42269 281
17.44281 298
17.46292 298
17.48303 261
17.50315 247
17.52326 261
17.54338 287
17.56349 322
17.5836 355
17.60372 334
17.62383 338
17.64394 356
17.66406 415
17.68417 434
17.70428 449
17.7244 473
17.74451 466
17.76463 421
17.78474 446
17.80485 432
17.82497 357
17.84508 381
17.86519 315
17.88531 330
17.90542 307
17.92554 335
17.94565 300
17.96576 318
17.98588 309
18.00599 318
18.0261 315
18.04622 290
18.06633 305
18.08645 322
18.10656 284
18.12667 281
18.14679 297
18.1669 316
18.18701 270
18.20713 285
18.22724 304
18.24735 248
18.26747 293
18.28758 293
18.3077 241
18.32781 282
18.34792 241
18.36804 300
18.38815 270
18.40826 298
18.42838 262
18.44849 279
18.46861 256
18.48872 274
18.50883 290
18.52895 268
18.54906 279
18.56917 291
18.58929 289
18.6094 272
18.62951 276
18.64963 297
18.66974 267
18.68986 279
18.70997 285
18.73008 242
18.7502 266
18.77031 288
18.79042 265
18.81054 287
18.83065 307
18.85077 300
18.87088 256
18.89099 258
18.91111 255
18.93122 281
18.95133 269
18.97145 282
18.99156 297
19.01168 298
19.03179 302
19.0519 269
19.07202 262
19.09213 258
19.11224 288
19.13236 301
19.15247 277
19.17258 279
19.1927 288
19.21281 280
19.23293 290
19.25304 307
19.27315 287
19.29327 282
19.31338 299
19.33349 286
19.35361 314
19.37372 320
19.39384 318
19.41395 301
19.43406 316
19.45418 305
19.47429 274
19.4944 328
19.51452 351
19.53463 334
19.55475 351
19.57486 364
19.59497 400
19.61509 387
19.6352 466
19.65531 544
19.67543 563
19.69554 600
19.71565 583
19.73577 738
19.75588 778
19.776 824
19.79611 911
19.81622 909
19.83634 997
19.85645 1059
19.87656 997
19.89668 944
19.91679 862
19.93691 716
19.95702 665
19.97713 555
19.99725 514
20.01736 493
20.03747 479
20.05759 485
20.0777 472
20.09782 446
20.11793 464
20.13804 462
20.15816 486
20.17827 491
20.19838 468
20.2185 476
20.23861 456
20.25872 456
20.27884 410
20.29895 421
20.31907 439
20.33918 492
20.35929 396
20.37941 461
20.39952 454
20.41963 465
20.43975 473
20.45986 464
20.47998 471
20.50009 463
20.5202 505
20.54032 509
20.56043 571
20.58054 541
20.60066 589
20.62077 669
20.64088 662
20.661 776
20.68111 902
20.70123 1115
20.72134 1416
20.74145 1877
20.76157 2368
20.78168 3163
20.80179 4063
20.82191 4720
20.84202 4790
20.86214 4518
20.88225 3819
20.90236 2849
20.92248 1933
20.94259 1250
20.9627 917
20.98282 752
21.00293 613
21.02305 577
21.04316 581
21.06327 561
21.08339 531
21.1035 527
21.12361 536
21.14373 510
21.16384 555
21.18395 522
21.20407 527
21.22418 536
21.2443 536
21.26441 532
21.28452 544
21.30464 528
21.32475 498
21.34486 476
21.36498 463
21.38509 489
21.40521 495
21.42532 440
21.44543 496
21.46555 500
21.48566 463
21.50577 479
21.52589 468
21.546 519
21.56612 546
21.58623 453
21.60634 486
21.62646 503
21.64657 477
21.66668 416
21.6868 460
21.70691 450
21.72702 429
21.74714 369
21.76725 389
21.78737 399
21.80748 355
21.82759 345
21.84771 347
21.86782 389
21.88793 395
21.90805 358
21.92816 373
21.94828 370
21.96839 368
21.9885 366
22.00862 397
22.02873 351
22.04884 362
22.06896 343
22.08907 387
22.10919 364
22.1293 341
22.14941 317
22.16953 336
22.18964 340
22.20975 366
22.22987 362
22.24998 361
22.27009 364
22.29021 365
22.31032 374
22.33044 376
22.35055 391
22.37066 384
22.39078 402
22.41089 340
22.431 379
22.45112 385
22.47123 326
22.49135 352
22.51146 328
22.53157 348
22.55169 361
22.5718 327
22.59191 370
22.61203 406
22.63214 388
22.65225 353
22.67237 330
22.69248 357
22.7126 375
22.73271 375
22.75282 400
22.77294 424
22.79305 462
22.81316 513
22.83328 517
22.85339 550
22.87351 573
22.89362 559
22.91373 541
22.93385 532
22.95396 500
22.97407 418
22.99419 425
23.0143 418
23.03442 416
23.05453 347
23.07464 309
23.09476 355
23.11487 349
23.13498 346
23.1551 380
23.17521 343
23.19532 336
23.21544 338
23.23555 341
23.25567 322
23.27578 335
23.29589 352
23.31601 317
23.33612 358
23.35623 375
23.37635 304
23.39646 337
23.41658 327
23.43669 317
23.4568 340
23.47692 392
23.49703 360
23.51714 337
23.53726 390
23.55737 365
23.57749 357
23.5976 361
23.61771 397
23.63783 352
23.65794 379
23.67805 426
23.69817 466
23.71828 485
23.73839 513
23.75851 515
23.77862 543
23.79874 581
23.81885 525
23.83896 500
23.85908 464
23.87919 441
23.8993 470
23.91942 454
23.93953 457
23.95965 437
23.97976 404
23.99987 421
24.01999 413
24.0401 402
24.06021 425
24.08033 408
24.10044 436
24.12056 349
24.14067 400
24.16078 368
24.1809 342
24.20101 357
24.22112 333
24.24124 331
24.26135 343
24.28146 348
24.30158 395
24.32169 311
24.34181 331
24.36192 378
24.38203 301
24.40215 335
24.42226 328
24.44237 337
24.46249 336
24.4826 341
24.50272 345
24.52283 338
24.54294 368
24.56306 367
24.58317 352
24.60328 365
24.6234 326
24.64351 376
24.66362 308
24.68374 349
24.70385 365
24.72397 382
24.74408 348
24.76419 343
24.78431 316
24.80442 401
24.82453 394
24.84465 386
24.86476 408
24.88488 389
24.90499 365
24.9251 417
24.94522 385
24.96533 350
24.98544 381
25.00556 400
25.02567 370
25.04579 348
25.0659 401
25.08601 384
25.10613 377
25.12624 412
25.14635 401
25.16647 386
25.18658 376
25.20669 377
25.22681 423
25.24692 440
25.26704 480
25.28715 453
25.30726 464
25.32738 478
25.34749 520
25.3676 536
25.38772 579
25.40783 623
25.42795 684
25.44806 740
25.46817 654
25.48829 661
25.5084 638
25.52851 595
25.54863 572
25.56874 570
25.58886 537
25.60897 483
25.62908 520
25.6492 500
25.66931 468
25.68942 467
25.70954 444
25.72965 498
25.74976 461
25.76988 445
25.78999 411
25.81011 464
25.83022 506
25.85033 468
25.87045 474
25.89056 467
25.91067 458
25.93079 461
25.9509 466
25.97102 541
25.99113 512
26.01124 514
26.03136 480
26.05147 513
26.07158 548
26.0917 517
26.11181 569
26.13193 569
26.15204 593
26.17215 626
26.19227 661
26.21238 693
26.23249 700
26.25261 805
26.27272 834
26.29283 849
26.31295 902
26.33306 984
26.35318 1120
26.37329 1302
26.3934 1528
26.41352 1863
26.43363 2213
26.45374 3061
26.47386 4059
26.49397 5513
26.51409 7670
26.5342 10718
26.55431 14209
26.57443 17509
26.59454 20325
26.61465 21233
26.63477 20602
26.65488 17442
26.67499 13428
26.69511 10254
26.71522 7223
26.73534 4738
26.75545 2907
26.77556 1937
26.79568 1594
26.81579 1340
26.8359 1171
26.85602 1071
26.87613 923
26.89625 814
26.91636 818
26.93647 727
26.95659 700
26.9767 646
26.99681 603
27.01693 559
27.03704 559
27.05716 509
27.07727 506
27.09738 511
27.1175 451
27.13761 495
27.15772 472
27.17784 486
27.19795 482
27.21806 470
27.23818 428
27.25829 471
27.27841 467
27.29852 487
27.31863 476
27.33875 541
27.35886 563
27.37897 555
27.39909 555
27.4192 577
27.43932 579
27.45943 516
27.47954 556
27.49966 513
27.51977 474
27.53988 479
27.56 457
27.58011 428
27.60023 421
27.62034 493
27.64045 436
27.66057 507
27.68068 514
27.70079 511
27.72091 568
27.74102 572
27.76113 602
27.78125 673
27.80136 675
27.82148 699
27.84159 724
27.8617 711
27.88182 628
27.90193 669
27.92204 593
27.94216 541
27.96227 484
27.98239 469
28.0025 465
28.02261 453
28.04273 424
28.06284 400
28.08295 378
28.10307 397
28.12318 393
28.1433 346
28.16341 365
28.18352 353
28.20364 390
28.22375 390
28.24386 360
28.26398 353
28.28409 363
28.3042 380
28.32432 330
28.34443 349
28.36455 336
28.38466 374
28.40477 346
28.42489 333
28.445 307
28.46511 391
28.48523 378
28.50534 369
28.52546 377
28.54557 385
28.56568 346
28.5858 369
28.60591 340
28.62602 339
28.64614 347
28.66625 352
28.68636 342
28.70648 391
28.72659 300
28.74671 352
28.76682 335
28.78693 335
28.80705 357
28.82716 339
28.84727 317
28.86739 351
28.8875 312
28.90762 332
28.92773 305
28.94784 315
28.96796 312
28.98807 338
29.00818 333
29.0283 310
29.04841 331
29.06853 360
29.08864 307
29.10875 317
29.12887 301
29.14898 321
29.16909 293
29.18921 316
29.20932 312
29.22943 333
29.24955 340
29.26966 332
29.28978 319
29.30989 312
29.33 329
29.35012 313
29.37023 315
29.39034 329
29.41046 356
29.43057 326
29.45069 343
29.4708 346
29.49091 364
29.51103 337
29.53114 369
29.55125 351
29.57137 363
29.59148 373
29.6116 409
29.63171 417
29.65182 409
29.67194 430
29.69205 454
29.71216 456
29.73228 488
29.75239 551
29.7725 560
29.79262 639
29.81273 608
29.83285 589
29.85296 596
29.87307 650
29.89319 591
29.9133 529
29.93341 463
29.95353 482
29.97364 464
29.99376 397
30.01387 418
30.03398 402
30.0541 339
30.07421 362
30.09432 370
30.11444 378
30.13455 392
30.15467 370
30.17478 349
30.19489 356
30.21501 346
30.23512 364
30.25523 342
30.27535 322
30.29546 320
30.31557 331
30.33569 311
30.3558 337
30.37592 270
30.39603 310
30.41614 343
30.43626 334
30.45637 353
30.47648 316
30.4966 321
30.51671 336
30.53683 303
30.55694 326
30.57705 302
30.59717 339
30.61728 314
30.63739 308
30.65751 297
30.67762 294
30.69773 331
30.71785 303
30.73796 313
30.75808 303
30.77819 352
30.7983 339
30.81842 320
30.83853 335
30.85864 308
30.87876 314
30.89887 311
30.91899 330
30.9391 372
30.95921 356
30.97933 339
30.99944 372
31.01955 385
31.03967 369
31.05978 407
31.0799 395
31.10001 430
31.12012 475
31.14024 482
31.16035 496
31.18046 457
31.20058 532
31.22069 487
31.2408 486
31.26092 449
31.28103 436
31.30115 450
31.32126 380
31.34137 378
31.36149 369
31.3816 362
31.40171 359
31.42183 358
31.44194 364
31.46206 355
31.48217 319
31.50228 319
31.5224 349
31.54251 298
31.56262 332
31.58274 297
31.60285 309
31.62297 319
31.64308 309
31.66319 340
31.68331 301
31.70342 288
31.72353 318
31.74365 348
31.76376 326
31.78387 353
31.80399 334
31.8241 361
31.84422 368
31.86433 376
31.88444 401
31.90456 412
31.92467 399
31.94478 364
31.9649 434
31.98501 466
32.00513 481
32.02524 458
32.04535 490
32.06547 422
32.08558 416
32.10569 369
32.12581 409
32.14592 328
32.16604 339
32.18615 334
32.20626 334
32.22638 330
32.24649 325
32.2666 324
32.28672 311
32.30683 318
32.32694 309
32.34706 296
32.36717 275
32.38729 265
32.4074 325
32.42751 312
32.44763 315
32.46774 315
32.48785 314
32.50797 280
32.52808 297
32.5482 294
32.56831 281
32.58842 283
32.60854 287
32.62865 304
32.64876 290
32.66888 315
32.68899 326
32.7091 333
32.72922 283
32.74933 282
32.76945 305
32.78956 292
32.80967 311
32.82979 313
32.8499 312
32.87001 303
32.89013 331
32.91024 317
32.93036 335
32.95047 304
32.97058 336
32.9907 345
33.01081 355
33.03092 382
33.05104 346
33.07115 377
33.09127 405
33.11138 386
33.13149 389
33.15161 354
33.17172 390
33.19183 377
33.21195 360
33.23206 354
33.25217 297
33.27229 310
33.2924 308
33.31252 309
33.33263 356
33.35274 323
33.37286 349
33.39297 351
33.41308 320
33.4332 319
33.45331 339
33.47343 302
33.49354 354
33.51365 326
33.53377 302
33.55388 307
33.57399 327
33.59411 300
33.61422 297
33.63434 333
33.65445 315
33.67456 314
33.69468 316
33.71479 329
33.7349 305
33.75502 327
33.77513 297
33.79524 285
33.81536 288
33.83547 297
33.85559 296
33.8757 275
33.89581 294
33.91593 299
33.93604 349
33.95615 307
33.97627 303
33.99638 263
34.0165 302
34.03661 293
34.05672 306
34.07684 271
34.09695 266
34.11706 323
34.13718 303
34.15729 283
34.17741 297
34.19752 313
34.21763 304
34.23775 316
34.25786 277
34.27797 326
34.29809 327
34.3182 338
34.33831 342
34.35843 394
34.37854 347
34.39866 400
34.41877 404
34.43888 471
34.459 491
34.47911 522
34.49922 547
34.51934 528
34.53945 601
34.55957 615
34.57968 524
34.59979 541
34.61991 548
34.64002 588
34.66013 544
34.68025 534
34.70036 553
34.72047 524
34.74059 547
34.7607 561
34.78082 580
34.80093 648
34.82104 697
34.84116 699
34.86127 790
34.88138 869
34.9015 893
34.92161 1011
34.94173 929
34.96184 1018
34.98195 970
35.00207 921
35.02218 843
35.04229 756
35.06241 749
35.08252 704
35.10264 620
35.12275 576
35.14286 494
35.16298 466
35.18309 464
35.2032 451
35.22332 374
35.24343 416
35.26354 403
35.28366 388
35.30377 384
35.32389 381
35.344 393
35.36411 359
35.38423 336
35.40434 380
35.42445 358
35.44457 395
35.46468 358
35.4848 383
35.50491 404
35.52502 369
35.54514 425
35.56525 441
35.58536 437
35.60548 377
35.62559 487
35.64571 431
35.66582 410
35.68593 402
35.70605 371
35.72616 390
35.74627 409
35.76639 421
35.7865 415
35.80661 424
35.82673 431
35.84684 403
35.86696 481
35.88707 422
35.90718 398
35.9273 405
35.94741 388
35.96752 458
35.98764 437
36.00775 418
36.02787 432
36.04798 419
36.06809 416
36.08821 430
36.10832 391
36.12843 409
36.14855 405
36.16866 385
36.18878 419
36.20889 405
36.229 412
36.24912 437
36.26923 460
36.28934 500
36.30946 540
36.32957 619
36.34968 683
36.3698 777
36.38991 888
36.41003 1022
36.43014 1194
36.45025 1357
36.47037 1498
36.49048 1776
36.51059 1785
36.53071 1674
36.55082 1429
36.57094 1378
36.59105 1167
36.61116 1015
36.63128 942
36.65139 745
36.6715 631
36.69162 551
36.71173 511
36.73184 504
36.75196 450
36.77207 476
36.79219 455
36.8123 463
36.83241 410
36.85253 424
36.87264 444
36.89275 392
36.91287 471
36.93298 404
36.9531 377
36.97321 436
36.99332 376
37.01344 409
37.03355 379
37.05366 376
37.07378 399
37.09389 364
37.11401 387
37.13412 366
37.15423 340
37.17435 364
37.19446 352
37.21457 353
37.23469 334
37.2548 393
37.27491 361
37.29503 372
37.31514 351
37.33526 339
37.35537 353
37.37548 352
37.3956 372
37.41571 392
37.43582 381
37.45594 366
37.47605 424
37.49617 397
37.51628 408
37.53639 407
37.55651 389
37.57662 383
37.59673 396
37.61685 432
37.63696 420
37.65708 409
37.67719 417
37.6973 454
37.71742 465
37.73753 475
37.75764 464
37.77776 461
37.79787 445
37.81798 407
37.8381 369
37.85821 392
37.87833 393
37.89844 369
37.91855 341
37.93867 298
37.95878 311
37.97889 303
37.99901 343
38.01912 323
38.03924 337
38.05935 305
38.07946 313
38.09958 346
38.11969 345
38.1398 312
38.15992 295
38.18003 310
38.20015 311
38.22026 343
38.24037 304
38.26049 327
38.2806 329
38.30071 329
38.32083 327
38.34094 325
38.36105 352
38.38117 350
38.40128 358
38.4214 325
38.44151 314
38.46162 313
38.48174 297
38.50185 321
38.52196 317
38.54208 325
38.56219 347
38.58231 316
38.60242 303
38.62253 293
38.64265 277
38.66276 302
38.68287 329
38.70299 299
38.7231 308
38.74321 327
38.76333 329
38.78344 284
38.80356 295
38.82367 284
38.84378 311
38.8639 330
38.88401 320
38.90412 293
38.92424 339
38.94435 322
38.96447 277
38.98458 316
39.00469 316
39.02481 319
39.04492 321
39.06503 354
39.08515 369
39.10526 313
39.12538 340
39.14549 354
39.1656 409
39.18572 369
39.20583 382
39.22594 446
39.24606 476
39.26617 498
39.28628 546
39.3064 652
39.32651 768
39.34663 912
39.36674 1087
39.38685 1258
39.40697 1391
39.42708 1524
39.44719 1459
39.46731 1317
39.48742 1151
39.50754 985
39.52765 883
39.54776 770
39.56788 721
39.58799 531
39.6081 445
39.62822 356
39.64833 358
39.66845 359
39.68856 336
39.70867 336
39.72879 309
39.7489 314
39.76901 305
39.78913 324
39.80924 328
39.82935 311
39.84947 361
39.86958 338
39.8897 318
39.90981 354
39.92992 369
39.95004 386
39.97015 387
39.99026 405
40.01038 361
40.03049 446
40.05061 420
40.07072 424
40.09083 446
40.11095 571
40.13106 551
40.15117 592
40.17129 681
40.1914 787
40.21152 817
40.23163 895
40.25174 949
40.27186 899
40.29197 812
40.31208 728
40.3322 671
40.35231 647
40.37242 591
40.39254 553
40.41265 480
40.43277 395
40.45288 375
40.47299 343
40.49311 334
40.51322 337
40.53333 349
40.55345 314
40.57356 340
40.59368 299
40.61379 297
40.6339 326
40.65402 314
40.67413 346
40.69424 321
40.71436 324
40.73447 336
40.75458 374
40.7747 343
40.79481 384
40.81493 375
40.83504 370
40.85515 355
40.87527 387
40.89538 373
40.91549 354
40.93561 354
40.95572 372
40.97584 360
40.99595 355
41.01606 370
41.03618 336
41.05629 320
41.0764 352
41.09652 373
41.11663 344
41.13675 363
41.15686 393
41.17697 364
41.19709 388
41.2172 378
41.23731 366
41.25743 357
41.27754 371
41.29765 374
41.31777 309
41.33788 355
41.358 358
41.37811 351
41.39822 344
41.41834 305
41.43845 303
41.45856 301
41.47868 321
41.49879 324
41.51891 313
41.53902 306
41.55913 270
41.57925 331
41.59936 313
41.61947 303
41.63959 293
41.6597 318
41.67982 287
41.69993 308
41.72004 295
41.74016 333
41.76027 316
41.78038 336
41.8005 336
41.82061 346
41.84072 344
41.86084 362
41.88095 370
41.90107 381
41.92118 353
41.94129 365
41.96141 375
41.98152 390
42.00163 370
42.02175 421
42.04186 392
42.06198 351
42.08209 371
42.1022 411
42.12232 392
42.14243 414
42.16254 410
42.18266 454
42.20277 453
42.22289 477
42.243 580
42.26311 642
42.28323 671
42.30334 759
42.32345 906
42.34357 1044
42.36368 1130
42.38379 1203
42.40391 1253
42.42402 1273
42.44414 1153
42.46425 1049
42.48436 964
42.50448 801
42.52459 749
42.5447 663
42.56482 601
42.58493 484
42.60505 410
42.62516 385
42.64527 344
42.66539 334
42.6855 325
42.70561 327
42.72573 289
42.74584 289
42.76595 300
42.78607 301
42.80618 288
42.8263 262
42.84641 265
42.86652 285
42.88664 255
42.90675 276
42.92686 266
42.94698 298
42.96709 286
42.98721 280
43.00732 256
43.02743 297
43.04755 282
43.06766 258
43.08777 273
43.10789 291
43.128 277
43.14812 273
43.16823 278
43.18834 247
43.20846 251
43.22857 255
43.24868 235
43.2688 278
43.28891 279
43.30902 260
43.32914 261
43.34925 277
43.36937 273
43.38948 254
43.40959 303
43.42971 281
43.44982 279
43.46993 273
43.49005 264
43.51016 277
43.53028 285
43.55039 270
43.5705 279
43.59062 284
43.61073 265
43.63084 250
43.65096 272
43.67107 280
43.69119 267
43.7113 232
43.73141 286
43.75153 263
43.77164 275
43.79175 268
43.81187 276
43.83198 277
43.85209 288
43.87221 282
43.89232 263
43.91244 301
43.93255 285
43.95266 286
43.97278 283
43.99289 331
44.013 289
44.03312 287
44.05323 309
44.07335 278
44.09346 287
44.11357 290
44.13369 273
44.1538 281
44.17391 274
44.19403 248
44.21414 254
44.23426 267
44.25437 277
44.27448 287
44.2946 257
44.31471 273
44.33482 290
44.35494 257
44.37505 294
44.39516 278
44.41528 261
44.43539 294
44.45551 255
44.47562 279
44.49573 247
44.51585 290
44.53596 284
44.55607 292
44.57619 281
44.5963 289
44.61642 262
44.63653 284
44.65664 244
44.67676 278
44.69687 247
44.71698 255
44.7371 268
44.75721 277
44.77732 269
44.79744 282
44.81755 283
44.83767 273
44.85778 258
44.87789 256
44.89801 279
44.91812 259
44.93823 292
44.95835 294
44.97846 326
44.99858 285
45.01869 301
45.0388 300
45.05892 288
45.07903 300
45.09914 318
45.11926 342
45.13937 326
45.15949 312
45.1796 337
45.19971 323
45.21983 383
45.23994 398
45.26005 409
45.28017 386
45.30028 434
45.32039 415
45.34051 431
45.36062 449
45.38074 412
45.40085 401
45.42096 397
45.44108 428
45.46119 405
45.4813 391
45.50142 415
45.52153 371
45.54165 377
45.56176 399
45.58187 411
45.60199 471
45.6221 492
45.64221 501
45.66233 584
45.68244 709
45.70256 774
45.72267 781
45.74278 824
45.7629 837
45.78301 832
45.80312 739
45.82324 651
45.84335 617
45.86346 614
45.88358 595
45.90369 537
45.92381 501
45.94392 451
45.96403 404
45.98415 354
46.00426 367
46.02437 364
46.04449 348
46.0646 341
46.08472 350
46.10483 315
46.12494 347
46.14506 338
46.16517 308
46.18528 315
46.2054 302
46.22551 281
46.24563 277
46.26574 285
46.28585 277
46.30597 275
46.32608 292
46.34619 285
46.36631 276
46.38642 295
46.40653 298
46.42665 307
46.44676 271
46.46688 303
46.48699 301
46.5071 276
46.52722 284
46.54733 322
46.56744 331
46.58756 286
46.60767 315
46.62779 280
46.6479 296
46.66801 296
46.68813 273
46.70824 283
46.72835 300
46.74847 243
46.76858 256
46.78869 262
46.80881 277
46.82892 260
46.84904 296
46.86915 268
46.88926 262
46.90938 237
46.92949 261
46.9496 274
46.96972 232
46.98983 286
47.00995 293
47.03006 254
47.05017 230
47.07029 253
47.0904 221
47.11051 243
47.13063 254
47.15074 256
47.17086 243
47.19097 234
47.21108 264
47.2312 272
47.25131 252
47.27142 254
47.29154 256
47.31165 248
47.33176 242
47.35188 285
47.37199 238
47.39211 254
47.41222 271
47.43233 236
47.45245 282
47.47256 257
47.49267 258
47.51279 264
47.5329 256
47.55302 232
47.57313 236
47.59324 241
47.61336 254
47.63347 272
47.65358 291
47.6737 273
47.69381 289
47.71393 265
47.73404 253
47.75415 224
47.77427 247
47.79438 240
47.81449 300
47.83461 294
47.85472 261
47.87483 272
47.89495 261
47.91506 262
47.93518 277
47.95529 263
47.9754 280
47.99552 246
48.01563 245
48.03574 253
48.05586 284
48.07597 294
48.09609 241
48.1162 270
48.13631 265
48.15643 278
48.17654 258
48.19665 276
48.21677 260
48.23688 267
48.257 288
48.27711 259
48.29722 287
48.31734 243
48.33745 258
48.35756 275
48.37768 271
48.39779 286
48.4179 274
48.43802 278
48.45813 266
48.47825 257
48.49836 241
48.51847 264
48.53859 243
48.5587 240
48.57881 277
48.59893 259
48.61904 282
48.63916 267
48.65927 303
48.67938 268
48.6995 283
48.71961 240
48.73972 236
48.75984 273
48.77995 296
48.80006 285
48.82018 258
48.84029 272
48.86041 270
48.88052 245
48.90063 261
48.92075 271
48.94086 264
48.96097 279
48.98109 275
49.0012 262
49.02132 281
49.04143 273
49.06154 275
49.08166 271
49.10177 247
49.12188 249
49.142 254
49.16211 260
49.18223 288
49.20234 277
49.22245 283
49.24257 274
49.26268 287
49.28279 296
49.30291 277
49.32302 270
49.34313 293
49.36325 313
49.38336 317
49.40348 277
49.42359 289
49.4437 296
49.46382 291
49.48393 282
49.50404 308
49.52416 285
49.54427 299
49.56439 288
49.5845 299
49.60461 256
49.62473 273
49.64484 288
49.66495 327
49.68507 300
49.70518 320
49.7253 341
49.74541 326
49.76552 315
49.78564 338
49.80575 389
49.82586 406
49.84598 425
49.86609 429
49.8862 494
49.90632 590
49.92643 642
49.94655 707
49.96666 865
49.98677 1100
50.00689 1309
50.027 1590
50.04711 1818
50.06723 2039
50.08734 2267
50.10746 2191
50.12757 1923
50.14768 1663
50.1678 1362
50.18791 1325
50.20802 1245
50.22814 1199
50.24825 1059
50.26837 896
50.28848 733
50.30859 512
50.32871 461
50.34882 357
50.36893 330
50.38905 346
50.40916 342
50.42927 322
50.44939 339
50.4695 311
50.48962 318
50.50973 350
50.52984 310
50.54996 326
50.57007 316
50.59018 322
50.6103 287
50.63041 327
50.65053 315
50.67064 299
50.69075 310
50.71087 291
50.73098 294
50.75109 269
50.77121 305
50.79132 282
50.81143 273
50.83155 268
50.85166 257
50.87178 247
50.89189 239
50.912 275
50.93212 276
50.95223 244
50.97234 275
50.99246 272
51.01257 242
51.03269 265
51.0528 280
51.07291 253
51.09303 255
51.11314 256
51.13325 283
51.15337 263
51.17348 246
51.1936 226
51.21371 217
51.23382 279
51.25394 222
51.27405 226
51.29416 240
51.31428 252
51.33439 246
51.3545 243
51.37462 253
51.39473 254
51.41485 234
51.43496 235
51.45507 262
51.47519 267
51.4953 250
51.51541 252
51.53553 213
51.55564 232
51.57576 250
51.59587 252
51.61598 253
51.6361 231
51.65621 242
51.67632 227
51.69644 218
51.71655 262
51.73667 281
51.75678 246
51.77689 259
51.79701 245
51.81712 228
51.83723 242
51.85735 255
51.87746 244
51.89757 250
51.91769 232
51.9378 251
51.95792 246
51.97803 259
51.99814 270
52.01826 260
52.03837 235
52.05848 260
52.0786 264
52.09871 271
52.11883 256
52.13894 243
52.15905 236
52.17917 246
52.19928 266
52.21939 268
52.23951 254
52.25962 256
52.27974 252
52.29985 220
52.31996 257
52.34008 289
52.36019 242
52.3803 268
52.40042 235
52.42053 278
52.44064 272
52.46076 247
52.48087 260
52.50099 261
52.5211 305
52.54121 264
52.56133 276
52.58144 281
52.60155 261
52.62167 257
52.64178 271
52.6619 241
52.68201 285
52.70212 269
52.72224 322
52.74235 290
52.76246 283
52.78258 314
52.80269 276
52.8228 318
52.84292 291
52.86303 287
52.88315 283
52.90326 287
52.92337 298
52.94349 283
52.9636 271
52.98371 294
53.00383 300
53.02394 275
53.04406 265
53.06417 288
53.08428 294
53.1044 278
53.12451 266
53.14462 257
53.16474 245
53.18485 290
53.20497 320
53.22508 267
53.24519 289
53.26531 277
53.28542 281
53.30553 290
53.32565 272
53.34576 299
53.36587 306
53.38599 290
53.4061 297
53.42622 280
53.44633 322
53.46644 302
53.48656 320
53.50667 328
53.52678 301
53.5469 295
53.56701 310
53.58713 328
53.60724 336
53.62735 329
53.64747 334
53.66758 292
53.68769 308
53.70781 322
53.72792 310
53.74804 338
53.76815 329
53.78826 293
53.80838 322
53.82849 327
53.8486 319
53.86872 329
53.88883 305
53.90894 314
53.92906 330
53.94917 312
53.96929 335
53.9894 349
54.00951 321
54.02963 344
54.04974 334
54.06985 326
54.08997 357
54.11008 323
54.1302 323
54.15031 309
54.17042 349
54.19054 311
54.21065 357
54.23076 336
54.25088 337
54.27099 335
54.29111 337
54.31122 338
54.33133 325
54.35145 320
54.37156 339
54.39167 301
54.41179 359
54.4319 368
54.45201 342
54.47213 329
54.49224 354
54.51236 306
54.53247 333
54.55258 352
54.5727 368
54.59281 387
54.61292 359
54.63304 395
54.65315 414
54.67327 440
54.69338 443
54.71349 527
54.73361 611
54.75372 679
54.77383 702
54.79395 790
54.81406 797
54.83417 790
54.85429 823
54.8744 726
54.89452 639
54.91463 592
54.93474 575
54.95486 637
54.97497 565
54.99508 574
55.0152 519
55.03531 470
55.05543 439
55.07554 462
55.09565 434
55.11577 412
55.13588 432
55.15599 438
55.17611 442
55.19622 506
55.21634 509
55.23645 564
55.25656 515
55.27668 559
55.29679 553
55.3169 526
55.33702 456
55.35713 459
55.37724 434
55.39736 426
55.41747 434
55.43759 396
55.4577 402
55.47781 387
55.49793 409
55.51804 394
55.53815 335
55.55827 361
55.57838 394
55.5985 360
55.61861 338
55.63872 361
55.65884 376
55.67895 361
55.69906 412
55.71918 394
55.73929 358
55.75941 371
55.77952 379
55.79963 407
55.81975 357
55.83986 370
55.85997 354
55.88009 353
55.9002 348
55.92031 342
55.94043 312
55.96054 314
55.98066 309
56.00077 322
56.02088 309
56.041 307
56.06111 300
56.08122 298
56.10134 291
56.12145 294
56.14157 286
56.16168 294
56.18179 261
56.20191 287
56.22202 278
56.24213 280
56.26225 295
56.28236 301
56.30248 292
56.32259 256
56.3427 283
56.36282 247
56.38293 320
56.40304 318
56.42316 265
56.44327 292
56.46338 277
56.4835 261
56.50361 292
56.52373 275
56.54384 298
56.56395 262
56.58407 276
56.60418 268
56.62429 283
56.64441 258
56.66452 317
56.68464 308
56.70475 291
56.72486 277
56.74498 275
56.76509 285
56.7852 299
56.80532 296
56.82543 322
56.84554 309
56.86566 271
56.88577 292
56.90589 303
56.926 273
56.94611 263
56.96623 272
56.98634 301
57.00645 273
57.02657 269
57.04668 261
57.0668 275
57.08691 285
57.10702 291
57.12714 296
57.14725 291
57.16736 294
57.18748 264
57.20759 303
57.22771 282
57.24782 278
57.26793 284
57.28805 277
57.30816 299
57.32827 257
57.34839 309
57.3685 296
57.38861 310
57.40873 279
57.42884 312
57.44896 277
57.46907 295
57.48918 267
57.5093 286
57.52941 296
57.54952 329
57.56964 285
57.58975 285
57.60987 277
57.62998 283
57.65009 282
57.67021 253
57.69032 285
57.71043 244
57.73055 280
57.75066 255
57.77078 293
57.79089 273
57.811 271
57.83112 247
57.85123 287
57.87134 271
57.89146 245
57.91157 260
57.93168 223
57.9518 248
57.97191 262
57.99203 265
58.01214 241
58.03225 256
58.05237 248
58.07248 257
58.09259 232
58.11271 264
58.13282 237
58.15294 238
58.17305 260
58.19316 236
58.21328 282
58.23339 241
58.2535 258
58.27362 231
58.29373 261
58.31385 237
58.33396 262
58.35407 231
58.37419 231
58.3943 213
58.41441 242
58.43453 217
58.45464 247
58.47475 238
58.49487 257
58.51498 240
58.5351 247
58.55521 241
58.57532 242
58.59544 270
58.61555 213
58.63566 261
58.65578 254
58.67589 282
58.69601 232
58.71612 247
58.73623 235
58.75635 291
58.77646 222
58.79657 240
58.81669 269
58.8368 264
58.85691 282
58.87703 235
58.89714 250
58.91726 273
58.93737 225
58.95748 239
58.9776 258
58.99771 279
59.01782 277
59.03794 293
59.05805 247
59.07817 280
59.09828 272
59.11839 283
59.13851 296
59.15862 261
59.17873 295
59.19885 278
59.21896 295
59.23908 301
59.25919 291
59.2793 296
59.29942 305
59.31953 315
59.33964 289
59.35976 289
59.37987 298
59.39998 326
59.4201 313
59.44021 341
59.46033 303
59.48044 300
59.50055 324
59.52067 326
59.54078 332
59.56089 366
59.58101 329
59.60112 380
59.62124 308
59.64135 377
59.66146 407
59.68158 422
59.70169 519
59.7218 499
59.74192 615
59.76203 641
59.78215 756
59.80226 849
59.82237 951
59.84249 1104
59.8626 1260
59.88271 1381
59.90283 1366
59.92294 1308
59.94305 1262
59.96317 1121
59.98328 967
60.0034 906
60.02351 857
60.04362 836
60.06374 840
60.08385 801
60.10396 762
60.12408 565
60.14419 551
60.16431 423
60.18442 396
60.20453 352
60.22465 330
60.24476 348
60.26487 284
60.28499 318
60.3051 301
60.32522 283
60.34533 270
60.36544 308
60.38556 317
60.40567 264
60.42578 309
60.4459 301
60.46601 279
60.48612 276
60.50624 284
60.52635 297
60.54647 286
60.56658 313
60.58669 313
60.60681 307
60.62692 304
60.64703 300
60.66715 294
60.68726 304
60.70738 325
60.72749 266
60.7476 290
60.76772 270
60.78783 291
60.80794 261
60.82806 275
60.84817 281
60.86828 286
60.8884 266
60.90851 263
60.92863 287
60.94874 255
60.96885 263
60.98897 269
61.00908 263
61.02919 276
61.04931 276
61.06942 238
61.08954 238
61.10965 264
61.12976 296
61.14988 278
61.16999 284
61.1901 282
61.21022 263
61.23033 289
61.25045 259
61.27056 287
61.29067 252
61.31079 277
61.3309 292
61.35101 288
61.37113 307
61.39124 314
61.41135 313
61.43147 321
61.45158 305
61.4717 332
61.49181 345
61.51192 354
61.53204 369
61.55215 380
61.57226 374
61.59238 371
61.61249 392
61.63261 446
61.65272 459
61.67283 451
61.69295 483
61.71306 524
61.73317 443
61.75329 468
61.7734 433
61.79352 470
61.81363 448
61.83374 404
61.85386 419
61.87397 400
61.89408 386
61.9142 366
61.93431 366
61.95442 338
61.97454 356
61.99465 348
62.01477 304
62.03488 321
62.05499 342
62.07511 308
62.09522 301
62.11533 322
62.13545 300
62.15556 297
62.17568 308
62.19579 294
62.2159 287
62.23602 282
62.25613 298
62.27624 307
62.29636 298
62.31647 305
62.33659 294
62.3567 274
62.37681 274
62.39693 282
62.41704 279
62.43715 286
62.45727 236
62.47738 298
62.49749 305
62.51761 283
62.53772 290
62.55784 266
62.57795 317
62.59806 275
62.61818 283
62.63829 253
62.6584 278
62.67852 239
62.69863 260
62.71875 264
62.73886 269
62.75897 247
62.77909 231
62.7992 253
62.81931 252
62.83943 261
62.85954 260
62.87965 254
62.89977 230
62.91988 260
62.94 241
62.96011 249
62.98022 257
63.00034 250
63.02045 262
63.04056 245
63.06068 272
63.08079 269
63.10091 256
63.12102 251
63.14113 273
63.16125 242
63.18136 211
63.20147 258
63.22159 261
63.2417 278
63.26182 232
63.28193 251
63.30204 246
63.32216 232
63.34227 268
63.36238 232
63.3825 233
63.40261 235
63.42272 260
63.44284 241
63.46295 251
63.48307 244
63.50318 257
63.52329 262
63.54341 250
63.56352 225
63.58363 251
63.60375 276
63.62386 234
63.64398 280
63.66409 251
63.6842 239
63.70432 265
63.72443 299
63.74454 291
63.76466 258
63.78477 277
63.80489 328
63.825 306
63.84511 361
63.86523 356
63.88534 379
63.90545 397
63.92557 448
63.94568 455
63.96579 493
63.98591 487
64.00602 465
64.02614 430
64.04625 402
64.06636 373
64.08648 355
64.10659 371
64.1267 356
64.14682 374
64.16693 353
64.18705 347
64.20716 327
64.22727 315
64.24739 262
64.2675 257
64.28761 234
64.30773 233
64.32784 238
64.34796 249
64.36807 226
64.38818 261
64.4083 248
64.42841 242
64.44852 230
64.46864 256
64.48875 223
64.50886 243
64.52898 237
64.54909 232
64.56921 224
64.58932 232
64.60943 237
64.62955 244
64.64966 254
64.66977 254
64.68989 228
64.71 232
64.73012 218
64.75023 262
64.77034 263
64.79046 240
64.81057 219
64.83068 250
64.8508 254
64.87091 222
64.89102 231
64.91114 237
64.93125 237
64.95137 266
64.97148 239
64.99159 221
65.01171 214
65.03182 232
65.05193 242
65.07205 234
65.09216 261
65.11228 249
65.13239 252
65.1525 246
65.17262 237
65.19273 226
65.21284 242
65.23296 253
65.25307 205
65.27319 233
65.2933 235
65.31341 236
65.33353 230
65.35364 251
65.37375 224
65.39387 264
65.41398 245
65.43409 254
65.45421 221
65.47432 251
65.49444 232
65.51455 227
65.53466 261
65.55478 246
65.57489 262
65.595 258
65.61512 238
65.63523 254
65.65535 283
65.67546 286
65.69557 285
65.71569 263
65.7358 259
65.75591 279
65.77603 296
65.79614 262
65.81626 271
65.83637 252
65.85648 248
65.8766 265
65.89671 238
65.91682 241
65.93694 255
65.95705 239
65.97716 218
65.99728 270
66.01739 259
66.03751 260
66.05762 230
66.07773 256
66.09785 233
66.11796 219
66.13807 260
66.15819 238
66.1783 241
66.19842 219
66.21853 222
66.23864 218
66.25876 225
66.27887 227
66.29898 235
66.3191 228
66.33921 233
66.35933 245
66.37944 242
66.39955 237
66.41967 231
66.43978 241
66.45989 213
66.48001 239
66.50012 259
66.52023 243
66.54035 208
66.56046 234
66.58058 247
66.60069 217
66.6208 213
66.64092 194
66.66103 229
66.68114 226
66.70126 232
66.72137 227
66.74149 229
66.7616 249
66.78171 234
66.80183 236
66.82194 229
66.84205 209
66.86217 237
66.88228 236
66.90239 244
66.92251 257
66.94262 219
66.96274 257
66.98285 250
67.00296 225
67.02308 223
67.04319 233
67.0633 240
67.08342 243
67.10353 241
67.12365 220
67.14376 242
67.16387 232
67.18399 234
67.2041 236
67.22421 255
67.24433 276
67.26444 234
67.28456 244
67.30467 267
67.32478 273
67.3449 283
67.36501 292
67.38512 270
67.40524 291
67.42535 267
67.44546 350
67.46558 347
67.48569 368
67.50581 422
67.52592 386
67.54603 491
67.56615 523
67.58626 603
67.60637 644
67.62649 691
67.6466 769
67.66672 813
67.68683 819
67.70694 855
67.72706 763
67.74717 741
67.76728 641
67.7874 632
67.80751 636
67.82763 600
67.84774 612
67.86785 643
67.88797 695
67.90808 700
67.92819 687
67.94831 644
67.96842 732
67.98853 791
68.00865 818
68.02876 936
68.04888 971
68.06899 1074
68.0891 1101
68.10922 1182
68.12933 1058
68.14944 991
68.16956 923
68.18967 927
68.20979 997
68.2299 1031
68.25001 1044
68.27013 1069
68.29024 1025
68.31035 866
68.33047 752
68.35058 629
68.3707 577
68.39081 531
68.41092 552
68.43104 445
68.45115 463
68.47126 495
68.49138 412
68.51149 375
68.5316 347
68.55172 306
68.57183 287
68.59195 260
68.61206 263
68.63217 246
68.65229 272
68.6724 253
68.69251 258
68.71263 254
68.73274 258
68.75286 232
68.77297 224
68.79308 242
68.8132 246
68.83331 243
68.85342 258
68.87354 229
68.89365 253
68.91376 269
68.93388 275
68.95399 248
68.97411 265
68.99422 243
69.01433 219
69.03445 240
69.05456 230
69.07467 250
69.09479 290
69.1149 276
69.13502 276
69.15513 262
69.17524 273
69.19536 278
69.21547 256
69.23558 279
69.2557 258
69.27581 293
69.29593 268
69.31604 302
69.33615 263
69.35627 259
69.37638 269
69.39649 279
69.41661 275
69.43672 275
69.45683 271
69.47695 275
69.49706 245
69.51718 252
69.53729 303
69.5574 261
69.57752 252
69.59763 249
69.61774 268
69.63786 258
69.65797 276
69.67809 250
69.6982 271
69.71831 251
69.73843 251
69.75854 268
69.77865 246
69.79877 249
69.81888 244
69.839 266
69.85911 234
69.87922 234
69.89934 252
69.91945 244
69.93956 240
69.95968 267
69.97979 255
69.9999 219
70.02002 259
70.04013 255
70.06025 275
70.08036 234
70.10047 257
70.12059 294
70.1407 274
70.16081 238
70.18093 239
70.20104 281
70.22116 244
70.24127 269
70.26138 230
70.2815 264
70.30161 239
70.32172 242
70.34184 236
70.36195 251
70.38207 226
70.40218 254
70.42229 247
70.44241 244
70.46252 243
70.48263 221
70.50275 241
70.52286 209
70.54297 230
70.56309 199
70.5832 242
70.60332 214
70.62343 235
70.64354 214
70.66366 201
70.68377 196
70.70388 212
70.724 213
70.74411 221
70.76423 236
70.78434 206
70.80445 211
70.82457 232
70.84468 223
70.86479 216
70.88491 205
70.90502 230
70.92513 203
70.94525 214
70.96536 193
70.98548 255
71.00559 203
71.0257 209
71.04582 251
71.06593 218
71.08604 217
71.10616 222
71.12627 223
71.14639 191
71.1665 219
71.18661 219
71.20673 246
71.22684 214
71.24695 245
71.26707 200
71.28718 217
71.3073 239
71.32741 207
71.34752 197
71.36764 239
71.38775 229
71.40786 208
71.42798 219
71.44809 225
71.4682 214
71.48832 216
71.50843 196
71.52855 228
71.54866 237
71.56877 210
71.58889 211
71.609 224
71.62911 213
71.64923 223
71.66934 229
71.68946 218
71.70957 208
71.72968 247
71.7498 204
71.76991 221
71.79002 223
71.81014 214
71.83025 221
71.85037 197
71.87048 221
71.89059 244
71.91071 243
71.93082 207
71.95093 224
71.97105 205
71.99116 211
72.01127 206
72.03139 215
72.0515 195
72.07162 198
72.09173 225
72.11184 232
72.13196 215
72.15207 244
72.17218 235
72.1923 210
72.21241 183
72.23253 211
72.25264 257
72.27275 219
72.29287 248
72.31298 217
72.33309 222
72.35321 190
72.37332 213
72.39344 229
72.41355 210
72.43366 228
72.45378 220
72.47389 216
72.494 229
72.51412 232
72.53423 229
72.55434 239
72.57446 243
72.59457 231
72.61469 236
72.6348 249
72.65491 249
72.67503 261
72.69514 267
72.71525 247
72.73537 261
72.75548 252
72.7756 247
72.79571 266
72.81582 283
72.83594 282
72.85605 272
72.87616 272
72.89628 258
72.91639 299
72.9365 284
72.95662 254
72.97673 272
72.99685 269
73.01696 265
73.03707 310
73.05719 263
73.0773 276
73.09741 270
73.11753 272
73.13764 285
73.15776 325
73.17787 270
73.19798 279
73.2181 310
73.23821 299
73.25832 319
73.27844 346
73.29855 314
73.31867 377
73.33878 394
73.35889 401
73.37901 394
73.39912 402
73.41923 463
73.43935 436
73.45946 392
73.47957 379
73.49969 330
73.5198 330
73.53992 322
73.56003 307
73.58014 340
73.60026 331
73.62037 306
73.64048 315
73.6606 295
73.68071 310
73.70083 280
73.72094 262
73.74105 234
73.76117 215
73.78128 252
73.80139 238
73.82151 207
73.84162 228
73.86174 224
73.88185 223
73.90196 224
73.92208 203
73.94219 219
73.9623 235
73.98242 226
74.00253 247
74.02264 238
74.04276 199
74.06287 219
74.08299 214
74.1031 243
74.12321 244
74.14333 209
74.16344 178
74.18355 242
74.20367 226
74.22378 228
74.2439 197
74.26401 222
74.28412 203
74.30424 199
74.32435 222
74.34446 225
74.36458 236
74.38469 213
74.40481 195
74.42492 218
74.44503 205
74.46515 209
74.48526 223
74.50537 209
74.52549 214
74.5456 221
74.56571 202
74.58583 190
74.60594 224
74.62606 231
74.64617 207
74.66628 205
74.6864 200
74.70651 224
74.72662 212
74.74674 240
74.76685 222
74.78697 213
74.80708 190
74.82719 196
74.84731 209
74.86742 212
74.88753 214
74.90765 213
74.92776 193
74.94787 214
74.96799 220
74.9881 205
75.00822 206
