3.00117 20197
3.02128 19885
3.0414 19043
3.06151 18724
3.08162 18407
3.10174 17409
3.12185 17204
3.14197 16645
3.16208 16187
3.18219 16114
3.20231 15225
3.22242 15119
3.24253 14383
3.26265 13795
3.28276 13617
3.30288 13071
3.32299 12785
3.3431 12153
3.36322 11627
3.38333 11469
3.40344 10960
3.42356 10789
3.44367 10379
3.46379 10087
3.4839 9693
3.50401 9036
3.52413 9080
3.54424 8634
3.56435 8465
3.58447 8107
3.60458 7491
3.62469 7562
3.64481 6988
3.66492 6729
3.68504 6700
3.70515 6225
3.72526 6192
3.74538 5643
3.76549 5386
3.7856 5586
3.80572 5038
3.82583 4995
3.84595 4772
3.86606 4615
3.88617 4252
3.90629 4100
3.9264 4016
3.94651 3779
3.96663 3486
3.98674 3391
4.00686 3239
4.02697 3250
4.04708 3057
4.0672 2728
4.08731 2733
4.10742 2450
4.12754 2590
4.14765 2348
4.16776 2272
4.18788 2163
4.20799 2017
4.22811 2001
4.24822 1963
4.26833 1853
4.28845 1781
4.30856 1690
4.32867 1736
4.34879 1685
4.3689 1476
4.38902 1449
4.40913 1450
4.42924 1437
4.44936 1481
4.46947 1329
4.48958 1394
4.5097 1288
4.52981 1268
4.54992 1290
4.57004 1078
4.59015 1174
4.61027 1087
4.63038 1047
4.65049 1119
4.67061 992
4.69072 993
4.71083 976
4.73095 957
4.75106 1027
4.77118 866
4.79129 933
4.8114 848
4.83152 846
4.85163 821
4.87174 806
4.89186 785
4.91197 756
4.93209 692
4.9522 776
4.97231 727
4.99243 748
5.01254 637
5.03265 661
5.05277 655
5.07288 608
5.09299 646
5.11311 561
5.13322 554
5.15334 616
5.17345 542
5.19356 518
5.21368 506
5.23379 486
5.2539 510
5.27402 500
5.29413 455
5.31425 503
5.33436 423
5.35447 450
5.37459 405
5.3947 418
5.41481 436
5.43493 392
5.45504 411
5.47516 376
5.49527 395
5.51538 389
5.5355 363
5.55561 339
5.57572 360
5.59584 305
5.61595 322
5.63606 351
5.65618 299
5.67629 338
5.69641 298
5.71652 290
5.73663 280
5.75675 273
5.77686 271
5.79697 274
5.81709 281
5.8372 258
5.85732 232
5.87743 255
5.89754 242
5.91766 268
5.93777 255
5.95788 221
5.978 244
5.99811 264
6.01823 239
6.03834 228
6.05845 215
6.07857 253
6.09868 235
6.11879 207
6.13891 181
6.15902 222
6.17913 207
6.19925 241
6.21936 216
6.23948 212
6.25959 185
6.2797 216
6.29982 210
6.31993 228
6.34004 187
6.36016 184
6.38027 187
6.40039 178
6.4205 211
6.44061 177
6.46073 185
6.48084 213
6.50095 194
6.52107 197
6.54118 209
6.56129 205
6.58141 198
6.60152 204
6.62164 180
6.64175 168
6.66186 199
6.68198 199
6.70209 207
6.7222 215
6.74232 218
6.76243 185
6.78255 183
6.80266 188
6.82277 156
6.84289 184
6.863 161
6.88311 191
6.90323 170
6.92334 202
6.94346 195
6.96357 202
6.98368 195
7.0038 184
7.02391 197
7.04402 172
7.06414 185
7.08425 177
7.10436 181
7.12448 204
7.14459 176
7.16471 200
7.18482 193
7.20493 228
7.22505 189
7.24516 202
7.26527 175
7.28539 210
7.3055 160
7.32562 181
7.34573 174
7.36584 191
7.38596 210
7.40607 194
7.42618 171
7.4463 190
7.46641 191
7.48653 222
7.50664 205
7.52675 200
7.54687 198
7.56698 191
7.58709 200
7.60721 197
7.62732 208
7.64743 162
7.66755 221
7.68766 222
7.70778 183
7.72789 179
7.748 204
7.76812 212
7.78823 191
7.80834 197
7.82846 208
7.84857 180
7.86869 228
7.8888 213
7.90891 184
7.92903 212
7.94914 202
7.96925 224
7.98937 192
8.00948 182
8.0296 194
8.04971 203
8.06982 203
8.08994 198
8.11005 227
8.13016 196
8.15028 194
8.17039 193
8.1905 227
8.21062 209
8.23073 195
8.25085 214
8.27096 235
8.29107 176
8.31119 228
8.3313 196
8.35141 246
8.37153 199
8.39164 219
8.41176 227
8.43187 186
8.45198 194
8.4721 211
8.49221 222
8.51232 209
8.53244 220
8.55255 224
8.57266 199
8.59278 222
8.61289 224
8.63301 221
8.65312 199
8.67323 212
8.69335 230
8.71346 242
8.73357 210
8.75369 235
8.7738 227
8.79392 235
8.81403 195
8.83414 220
8.85426 224
8.87437 218
8.89448 200
8.9146 215
8.93471 235
8.95483 243
8.97494 222
8.99505 208
9.01517 208
9.03528 224
9.05539 233
9.07551 227
9.09562 218
9.11573 211
9.13585 244
9.15596 214
9.17608 234
9.19619 214
9.2163 222
9.23642 205
9.25653 219
9.27664 230
9.29676 234
9.31687 216
9.33699 209
9.3571 218
9.37721 209
9.39733 273
9.41744 224
9.43755 205
9.45767 226
9.47778 209
9.4979 243
9.51801 234
9.53812 219
9.55824 223
9.57835 223
9.59846 242
9.61858 206
9.63869 228
9.6588 204
9.67892 210
9.69903 218
9.71915 226
9.73926 214
9.75937 261
9.77949 210
9.7996 251
9.81971 222
9.83983 244
9.85994 203
9.88006 200
9.90017 210
9.92028 214
9.9404 259
9.96051 188
9.98062 215
10.00074 211
10.02085 223
10.04097 217
10.06108 231
10.08119 231
10.10131 234
10.12142 225
10.14153 240
10.16165 237
10.18176 226
10.20187 231
10.22199 247
10.2421 210
10.26222 229
10.28233 210
10.30244 233
10.32256 228
10.34267 245
10.36278 215
10.3829 240
10.40301 210
10.42313 228
10.44324 222
10.46335 211
10.48347 223
10.50358 239
10.52369 223
10.54381 225
10.56392 219
10.58403 190
10.60415 208
10.62426 201
10.64438 217
10.66449 215
10.6846 206
10.70472 200
10.72483 203
10.74494 203
10.76506 216
10.78517 227
10.80529 199
10.8254 269
10.84551 215
10.86563 205
10.88574 225
10.90585 221
10.92597 218
10.94608 234
10.9662 225
10.98631 262
11.00642 207
11.02654 207
11.04665 211
11.06676 223
11.08688 204
11.10699 226
11.1271 275
11.14722 227
11.16733 228
11.18745 238
11.20756 198
11.22767 215
11.24779 224
11.2679 229
11.28801 250
11.30813 209
11.32824 213
11.34836 206
11.36847 233
11.38858 209
11.4087 230
11.42881 194
11.44892 232
11.46904 231
11.48915 231
11.50927 221
11.52938 216
11.54949 213
11.56961 216
11.58972 230
11.60983 254
11.62995 205
11.65006 233
11.67017 223
11.69029 232
11.7104 236
11.73052 245
11.75063 243
11.77074 223
11.79086 222
11.81097 257
11.83108 250
11.8512 249
11.87131 225
11.89143 223
11.91154 245
11.93165 211
11.95177 240
11.97188 227
11.99199 255
12.01211 286
12.03222 258
12.05234 289
12.07245 245
12.09256 244
12.11268 232
12.13279 265
12.1529 272
12.17302 273
12.19313 270
12.21324 267
12.23336 273
12.25347 264
12.27359 287
12.2937 273
12.31381 243
12.33393 272
12.35404 238
12.37415 271
12.39427 248
12.41438 242
12.4345 245
12.45461 226
12.47472 232
12.49484 248
12.51495 256
12.53506 256
12.55518 223
12.57529 247
12.5954 216
12.61552 235
12.63563 227
12.65575 221
12.67586 246
12.69597 204
12.71609 187
12.7362 218
12.75631 227
12.77643 196
12.79654 202
12.81666 203
12.83677 231
12.85688 222
12.877 226
12.89711 197
12.91722 228
12.93734 239
12.95745 207
12.97757 212
12.99768 196
13.01779 218
13.03791 240
13.05802 240
13.07813 228
13.09825 243
13.11836 211
13.13847 236
13.15859 238
13.1787 238
13.19882 191
13.21893 213
13.23904 178
13.25916 242
13.27927 224
13.29938 230
13.3195 197
13.33961 203
13.35973 191
13.37984 203
13.39995 225
13.42007 199
13.44018 201
13.46029 217
13.48041 215
13.50052 225
13.52064 226
13.54075 218
13.56086 230
13.58098 257
13.60109 257
13.6212 253
13.64132 304
13.66143 275
13.68154 261
13.70166 219
13.72177 243
13.74189 193
13.762 201
13.78211 199
13.80223 188
13.82234 187
13.84245 213
13.86257 194
13.88268 169
13.9028 206
13.92291 184
13.94302 204
13.96314 193
13.98325 211
14.00336 187
14.02348 169
14.04359 189
14.06371 202
14.08382 182
14.10393 212
14.12405 194
14.14416 198
14.16427 178
14.18439 186
14.2045 227
14.22461 202
14.24473 208
14.26484 194
14.28496 194
14.30507 157
14.32518 177
14.3453 177
14.36541 210
14.38552 199
14.40564 201
14.42575 189
14.44587 205
14.46598 163
14.48609 183
14.50621 174
14.52632 198
14.54643 194
14.56655 185
14.58666 177
14.60677 184
14.62689 184
14.647 163
14.66712 186
14.68723 192
14.70734 178
14.72746 201
14.74757 188
14.76768 208
14.7878 170
14.80791 182
14.82803 212
14.84814 231
14.86825 202
14.88837 219
14.90848 220
14.92859 215
14.94871 216
14.96882 210
14.98894 219
15.00905 195
15.02916 200
15.04928 217
15.06939 223
15.0895 165
15.10962 206
15.12973 186
15.14984 203
15.16996 177
15.19007 189
15.21019 205
15.2303 202
15.25041 204
15.27053 182
15.29064 189
15.31075 176
15.33087 194
15.35098 170
15.3711 162
15.39121 173
15.41132 192
15.43144 188
15.45155 174
15.47166 205
15.49178 193
15.51189 158
15.53201 170
15.55212 161
15.57223 159
15.59235 165
15.61246 137
15.63257 180
15.65269 193
15.6728 185
15.69291 189
15.71303 199
15.73314 181
15.75326 197
15.77337 166
15.79348 153
15.8136 188
15.83371 178
15.85382 175
15.87394 149
15.89405 155
15.91417 164
15.93428 162
15.95439 157
15.97451 165
15.99462 190
16.01473 157
16.03485 148
16.05496 157
16.07508 173
16.09519 166
16.1153 168
16.13542 194
16.15553 163
16.17564 176
16.19576 180
16.21587 153
16.23598 157
16.2561 204
16.27621 161
16.29633 190
16.31644 161
16.33655 164
16.35667 177
16.37678 193
16.39689 151
16.41701 153
16.43712 155
16.45724 170
16.47735 146
16.49746 164
16.51758 186
16.53769 163
16.5578 182
16.57792 171
16.59803 184
16.61814 196
16.63826 176
16.65837 168
16.67849 183
16.6986 176
16.71871 193
16.73883 180
16.75894 176
16.77905 199
16.79917 197
16.81928 170
16.8394 185
16.85951 163
16.87962 167
16.89974 160
16.91985 149
16.93996 175
16.96008 198
16.98019 187
17.00031 171
17.02042 182
17.04053 165
17.06065 158
17.08076 159
17.10087 182
17.12099 169
17.1411 168
17.16121 184
17.18133 170
17.20144 188
17.22156 173
17.24167 185
17.26178 176
17.2819 146
17.30201 179
17.32212 156
17.34224 174
17.36235 173
17.38247 164
17.40258 178
17.42269 158
17.44281 165
17.46292 168
17.48303 182
17.50315 190
17.52326 151
17.54338 187
17.56349 166
17.5836 165
17.60372 157
17.62383 173
17.64394 179
17.66406 185
17.68417 150
17.70428 184
17.7244 163
17.74451 151
17.76463 147
17.78474 162
17.80485 146
17.82497 177
17.84508 178
17.86519 190
17.88531 157
17.90542 154
17.92554 165
17.94565 169
17.96576 160
17.98588 149
18.00599 175
18.0261 148
18.04622 169
18.06633 179
18.08645 157
18.10656 165
18.12667 148
18.14679 194
18.1669 149
18.18701 135
18.20713 159
18.22724 160
18.24735 162
18.26747 179
18.28758 176
18.3077 166
18.32781 164
18.34792 152
18.36804 143
18.38815 186
18.40826 194
18.42838 192
18.44849 160
18.46861 162
18.48872 147
18.50883 162
18.52895 160
18.54906 156
18.56917 153
18.58929 169
18.6094 174
18.62951 172
18.64963 202
18.66974 167
18.68986 188
18.70997 161
18.73008 178
18.7502 187
18.77031 173
18.79042 193
18.81054 209
18.83065 189
18.85077 162
18.87088 155
18.89099 182
18.91111 166
18.93122 172
18.95133 150
18.97145 174
18.99156 164
19.01168 158
19.03179 151
19.0519 150
19.07202 159
19.09213 161
19.11224 163
19.13236 177
19.15247 145
19.17258 186
19.1927 177
19.21281 192
19.23293 169
19.25304 216
19.27315 208
19.29327 181
19.31338 195
19.33349 191
19.35361 191
19.37372 186
19.39384 162
19.41395 185
19.43406 166
19.45418 163
19.47429 184
19.4944 191
19.51452 185
19.53463 170
19.55475 181
19.57486 188
19.59497 175
19.61509 198
19.6352 199
19.65531 180
19.67543 195
19.69554 217
19.71565 216
19.73577 212
19.75588 250
19.776 238
19.79611 244
19.81622 263
19.83634 237
19.85645 275
19.87656 270
19.89668 221
19.91679 263
19.93691 273
19.95702 276
19.97713 233
19.99725 237
20.01736 257
20.03747 249
20.05759 256
20.0777 238
20.09782 247
20.11793 248
20.13804 271
20.15816 244
20.17827 265
20.19838 277
20.2185 330
20.23861 298
20.25872 254
20.27884 260
20.29895 258
20.31907 295
20.33918 308
20.35929 298
20.37941 306
20.39952 290
20.41963 316
20.43975 307
20.45986 316
20.47998 346
20.50009 365
20.5202 353
20.54032 383
20.56043 365
20.58054 374
20.60066 419
20.62077 443
20.64088 507
20.661 554
20.68111 768
20.70123 972
20.72134 1377
20.74145 2017
20.76157 2936
20.78168 4143
20.80179 5557
20.82191 6876
20.84202 7746
20.86214 7487
20.88225 6281
20.90236 4850
20.92248 3321
20.94259 2204
20.9627 1555
20.98282 1155
21.00293 1000
21.02305 902
21.04316 861
21.06327 692
21.08339 604
21.1035 544
21.12361 458
21.14373 449
21.16384 370
21.18395 359
21.20407 325
21.22418 348
21.2443 314
21.26441 298
21.28452 314
21.30464 303
21.32475 294
21.34486 291
21.36498 291
21.38509 251
21.40521 264
21.42532 271
21.44543 300
21.46555 272
21.48566 249
21.50577 244
21.52589 265
21.546 253
21.56612 244
21.58623 273
21.60634 243
21.62646 232
21.64657 224
21.66668 222
21.6868 234
21.70691 243
21.72702 258
21.74714 231
21.76725 238
21.78737 261
21.80748 234
21.82759 242
21.84771 240
21.86782 231
21.88793 241
21.90805 230
21.92816 272
21.94828 239
21.96839 243
21.9885 260
22.00862 274
22.02873 249
22.04884 255
22.06896 247
22.08907 258
22.10919 252
22.1293 256
22.14941 250
22.16953 262
22.18964 268
22.20975 286
22.22987 298
22.24998 323
22.27009 320
22.29021 342
22.31032 305
22.33044 313
22.35055 307
22.37066 263
22.39078 281
22.41089 276
22.431 250
22.45112 226
22.47123 270
22.49135 250
22.51146 242
22.53157 229
22.55169 235
22.5718 232
22.59191 253
22.61203 220
22.63214 239
22.65225 232
22.67237 232
22.69248 263
22.7126 240
22.73271 223
22.75282 237
22.77294 209
22.79305 210
22.81316 220
22.83328 223
22.85339 234
22.87351 257
22.89362 254
22.91373 250
22.93385 242
22.95396 214
22.97407 274
22.99419 250
23.0143 295
23.03442 287
23.05453 314
23.07464 303
23.09476 332
23.11487 355
23.13498 378
23.1551 402
23.17521 386
23.19532 419
23.21544 387
23.23555 356
23.25567 346
23.27578 299
23.29589 280
23.31601 274
23.33612 266
23.35623 249
23.37635 232
23.39646 252
23.41658 249
23.43669 250
23.4568 261
23.47692 273
23.49703 243
23.51714 220
23.53726 273
23.55737 259
23.57749 278
23.5976 251
23.61771 246
23.63783 265
23.65794 259
23.67805 251
23.69817 233
23.71828 249
23.73839 236
23.75851 268
23.77862 254
23.79874 261
23.81885 322
23.83896 303
23.85908 336
23.87919 330
23.8993 339
23.91942 359
23.93953 436
23.95965 409
23.97976 511
23.99987 478
24.01999 462
24.0401 395
24.06021 335
24.08033 292
24.10044 316
24.12056 257
24.14067 268
24.16078 255
24.1809 254
24.20101 276
24.22112 269
24.24124 267
24.26135 280
24.28146 314
24.30158 309
24.32169 301
24.34181 294
24.36192 284
24.38203 256
24.40215 272
24.42226 260
24.44237 310
24.46249 242
24.4826 258
24.50272 254
24.52283 240
24.54294 255
24.56306 252
24.58317 234
24.60328 241
24.6234 278
24.64351 308
24.66362 291
24.68374 310
24.70385 309
24.72397 301
24.74408 294
24.76419 276
24.78431 283
24.80442 282
24.82453 264
24.84465 311
24.86476 268
24.88488 289
24.90499 287
24.9251 269
24.94522 259
24.96533 286
24.98544 279
25.00556 280
25.02567 243
25.04579 239
25.0659 250
25.08601 223
25.10613 217
25.12624 236
25.14635 236
25.16647 239
25.18658 260
25.20669 253
25.22681 229
25.24692 214
25.26704 228
25.28715 262
25.30726 239
25.32738 253
25.34749 243
25.3676 313
25.38772 286
25.40783 327
25.42795 331
25.44806 377
25.46817 400
25.48829 498
25.5084 546
25.52851 570
25.54863 529
25.56874 557
25.58886 529
25.60897 523
25.62908 550
25.6492 539
25.66931 477
25.68942 507
25.70954 446
25.72965 451
25.74976 380
25.76988 468
25.78999 429
25.81011 431
25.83022 387
25.85033 373
25.87045 422
25.89056 428
25.91067 411
25.93079 424
25.9509 452
25.97102 399
25.99113 452
26.01124 437
26.03136 457
26.05147 432
26.07158 522
26.0917 503
26.11181 563
26.13193 568
26.15204 578
26.17215 679
26.19227 688
26.21238 725
26.23249 806
26.25261 863
26.27272 950
26.29283 1014
26.31295 1112
26.33306 1199
26.35318 1354
26.37329 1508
26.3934 1786
26.41352 2004
26.43363 2551
26.45374 3347
26.47386 4387
26.49397 6151
26.51409 9038
26.5342 12990
26.55431 18650
26.57443 25025
26.59454 30604
26.61465 34327
26.63477 33868
26.65488 29416
26.67499 22865
26.69511 17399
26.71522 12033
26.73534 7595
26.75545 4254
26.77556 2513
26.79568 1766
26.81579 1475
26.8359 1327
26.85602 1168
26.87613 1090
26.89625 1061
26.91636 1059
26.93647 932
26.95659 872
26.9767 909
26.99681 904
27.01693 912
27.03704 946
27.05716 885
27.07727 865
27.09738 758
27.1175 727
27.13761 625
27.15772 597
27.17784 487
27.19795 577
27.21806 526
27.23818 545
27.25829 648
27.27841 638
27.29852 723
27.31863 804
27.33875 857
27.35886 927
27.37897 1165
27.39909 1273
27.4192 1359
27.43932 1456
27.45943 1348
27.47954 1092
27.49966 1073
27.51977 944
27.53988 808
27.56 609
27.58011 505
27.60023 505
27.62034 385
27.64045 379
27.66057 405
27.68068 368
27.70079 369
27.72091 333
27.74102 352
27.76113 315
27.78125 303
27.80136 327
27.82148 290
27.84159 307
27.8617 313
27.88182 330
27.90193 337
27.92204 342
27.94216 333
27.96227 313
27.98239 289
28.0025 322
28.02261 265
28.04273 283
28.06284 255
28.08295 280
28.10307 243
28.12318 271
28.1433 247
28.16341 242
28.18352 255
28.20364 238
28.22375 276
28.24386 306
28.26398 240
28.28409 266
28.3042 280
28.32432 269
28.34443 258
28.36455 251
28.38466 246
28.40477 241
28.42489 222
28.445 209
28.46511 267
28.48523 240
28.50534 216
28.52546 259
28.54557 244
28.56568 245
28.5858 211
28.60591 204
28.62602 243
28.64614 221
28.66625 238
28.68636 227
28.70648 212
28.72659 227
28.74671 263
28.76682 241
28.78693 261
28.80705 253
28.82716 250
28.84727 244
28.86739 206
28.8875 229
28.90762 227
28.92773 215
28.94784 206
28.96796 221
28.98807 220
29.00818 245
29.0283 253
29.04841 226
29.06853 235
29.08864 240
29.10875 206
29.12887 230
29.14898 243
29.16909 220
29.18921 217
29.20932 249
29.22943 230
29.24955 226
29.26966 258
29.28978 253
29.30989 267
29.33 317
29.35012 311
29.37023 330
29.39034 403
29.41046 378
29.43057 377
29.45069 367
29.4708 371
29.49091 344
29.51103 343
29.53114 283
29.55125 297
29.57137 261
29.59148 239
29.6116 246
29.63171 278
29.65182 204
29.67194 220
29.69205 239
29.71216 229
29.73228 236
29.75239 232
29.7725 268
29.79262 234
29.81273 260
29.83285 255
29.85296 238
29.87307 220
29.89319 232
29.9133 252
29.93341 249
29.95353 280
29.97364 237
29.99376 281
30.01387 270
30.03398 274
30.0541 284
30.07421 288
30.09432 345
30.11444 338
30.13455 337
30.15467 356
30.17478 380
30.19489 375
30.21501 392
30.23512 361
30.25523 329
30.27535 304
30.29546 277
30.31557 263
30.33569 277
30.3558 238
30.37592 214
30.39603 248
30.41614 236
30.43626 238
30.45637 242
30.47648 208
30.4966 232
30.51671 218
30.53683 242
30.55694 216
30.57705 236
30.59717 270
30.61728 264
30.63739 290
30.65751 301
30.67762 326
30.69773 362
30.71785 385
30.73796 378
30.75808 379
30.77819 373
30.7983 366
30.81842 320
30.83853 408
30.85864 361
30.87876 329
30.89887 330
30.91899 285
30.9391 254
30.95921 233
30.97933 241
30.99944 250
31.01955 197
31.03967 212
31.05978 209
31.0799 202
31.10001 193
31.12012 181
31.14024 162
31.16035 187
31.18046 168
31.20058 191
31.22069 179
31.2408 183
31.26092 185
31.28103 201
31.30115 193
31.32126 180
31.34137 183
31.36149 190
31.3816 174
31.40171 188
31.42183 195
31.44194 154
31.46206 182
31.48217 154
31.50228 181
31.5224 173
31.54251 171
31.56262 158
31.58274 185
31.60285 200
31.62297 203
31.64308 181
31.66319 176
31.68331 171
31.70342 172
31.72353 151
31.74365 141
31.76376 174
31.78387 197
31.80399 177
31.8241 189
31.84422 189
31.86433 181
31.88444 215
31.90456 195
31.92467 171
31.94478 178
31.9649 192
31.98501 184
32.00513 193
32.02524 225
32.04535 220
32.06547 215
32.08558 240
32.10569 227
32.12581 228
32.14592 231
32.16604 212
32.18615 214
32.20626 196
32.22638 228
32.24649 216
32.2666 223
32.28672 195
32.30683 221
32.32694 222
32.34706 245
32.36717 234
32.38729 258
32.4074 238
32.42751 281
32.44763 260
32.46774 254
32.48785 252
32.50797 236
32.52808 217
32.5482 246
32.56831 242
32.58842 221
32.60854 208
32.62865 175
32.64876 185
32.66888 173
32.68899 165
32.7091 181
32.72922 154
32.74933 199
32.76945 148
32.78956 171
32.80967 158
32.82979 180
32.8499 189
32.87001 160
32.89013 187
32.91024 193
32.93036 166
32.95047 166
32.97058 177
32.9907 160
33.01081 177
33.03092 163
33.05104 162
33.07115 186
33.09127 195
33.11138 175
33.13149 168
33.15161 139
33.17172 187
33.19183 154
33.21195 187
33.23206 178
33.25217 177
33.27229 169
33.2924 151
33.31252 189
33.33263 174
33.35274 158
33.37286 165
33.39297 167
33.41308 161
33.4332 156
33.45331 152
33.47343 145
33.49354 171
33.51365 146
33.53377 161
33.55388 153
33.57399 148
33.59411 144
33.61422 169
33.63434 164
33.65445 153
33.67456 174
33.69468 147
33.71479 160
33.7349 146
33.75502 160
33.77513 159
33.79524 172
33.81536 161
33.83547 174
33.85559 158
33.8757 155
33.89581 173
33.91593 186
33.93604 155
33.95615 178
33.97627 189
33.99638 174
34.0165 199
34.03661 203
34.05672 185
34.07684 226
34.09695 242
34.11706 228
34.13718 264
34.15729 277
34.17741 256
34.19752 281
34.21763 249
34.23775 215
34.25786 249
34.27797 226
34.29809 227
34.3182 184
34.33831 195
34.35843 202
34.37854 216
34.39866 220
34.41877 191
34.43888 196
34.459 202
34.47911 171
34.49922 223
34.51934 204
34.53945 233
34.55957 230
34.57968 212
34.59979 229
34.61991 225
34.64002 245
34.66013 250
34.68025 236
34.70036 260
34.72047 227
34.74059 209
34.7607 226
34.78082 244
34.80093 228
34.82104 252
34.84116 279
34.86127 262
34.88138 276
34.9015 269
34.92161 248
34.94173 232
34.96184 241
34.98195 259
35.00207 238
35.02218 258
35.04229 250
35.06241 225
35.08252 225
35.10264 242
35.12275 227
35.14286 230
35.16298 256
35.18309 269
35.2032 275
35.22332 246
35.24343 261
35.26354 261
35.28366 267
35.30377 274
35.32389 273
35.344 264
35.36411 242
35.38423 272
35.40434 288
35.42445 275
35.44457 261
35.46468 343
35.4848 276
35.50491 297
35.52502 330
35.54514 318
35.56525 259
35.58536 281
35.60548 271
35.62559 250
35.64571 281
35.66582 239
35.68593 240
35.70605 249
35.72616 235
35.74627 194
35.76639 220
35.7865 235
35.80661 261
35.82673 215
35.84684 262
35.86696 230
35.88707 240
35.90718 226
35.9273 226
35.94741 206
35.96752 207
35.98764 177
36.00775 221
36.02787 209
36.04798 217
36.06809 200
36.08821 221
36.10832 207
36.12843 205
36.14855 214
36.16866 242
36.18878 247
36.20889 215
36.229 250
36.24912 242
36.26923 258
36.28934 284
36.30946 334
36.32957 386
36.34968 432
36.3698 556
36.38991 672
36.41003 840
36.43014 1242
36.45025 1462
36.47037 1916
36.49048 2225
36.51059 2342
36.53071 2397
36.55082 2053
36.57094 1706
36.59105 1389
36.61116 1298
36.63128 1056
36.65139 851
36.6715 527
36.69162 376
36.71173 309
36.73184 279
36.75196 246
36.77207 263
36.79219 259
36.8123 280
36.83241 258
36.85253 308
36.87264 285
36.89275 263
36.91287 250
36.93298 252
36.9531 247
36.97321 249
36.99332 256
37.01344 240
37.03355 237
37.05366 229
37.07378 226
37.09389 202
37.11401 212
37.13412 203
37.15423 205
37.17435 207
37.19446 202
37.21457 198
37.23469 193
37.2548 166
37.27491 199
37.29503 179
37.31514 194
37.33526 170
37.35537 199
37.37548 190
37.3956 167
37.41571 188
37.43582 204
37.45594 196
37.47605 161
37.49617 186
37.51628 209
37.53639 199
37.55651 203
37.57662 163
37.59673 188
37.61685 198
37.63696 202
37.65708 172
37.67719 203
37.6973 186
37.71742 168
37.73753 155
37.75764 175
37.77776 178
37.79787 170
37.81798 183
37.8381 186
37.85821 175
37.87833 194
37.89844 200
37.91855 160
37.93867 196
37.95878 186
37.97889 165
37.99901 172
38.01912 180
38.03924 202
38.05935 187
38.07946 184
38.09958 177
38.11969 211
38.1398 190
38.15992 186
38.18003 174
38.20015 213
38.22026 204
38.24037 184
38.26049 208
38.2806 198
38.30071 210
38.32083 196
38.34094 226
38.36105 186
38.38117 210
38.40128 224
38.4214 237
38.44151 218
38.46162 241
38.48174 250
38.50185 224
38.52196 249
38.54208 242
38.56219 231
38.58231 239
38.60242 237
38.62253 218
38.64265 182
38.66276 216
38.68287 196
38.70299 208
38.7231 189
38.74321 175
38.76333 188
38.78344 166
38.80356 171
38.82367 217
38.84378 202
38.8639 190
38.88401 197
38.90412 164
38.92424 209
38.94435 171
38.96447 184
38.98458 188
39.00469 210
39.02481 205
39.04492 217
39.06503 210
39.08515 221
39.10526 224
39.12538 226
39.14549 246
39.1656 255
39.18572 292
39.20583 255
39.22594 322
39.24606 348
39.26617 419
39.28628 462
39.3064 611
39.32651 759
39.34663 951
39.36674 1234
39.38685 1656
39.40697 2049
39.42708 2221
39.44719 2138
39.46731 1968
39.48742 1611
39.50754 1396
39.52765 1249
39.54776 1056
39.56788 956
39.58799 661
39.6081 456
39.62822 327
39.64833 293
39.66845 241
39.68856 236
39.70867 227
39.72879 233
39.7489 226
39.76901 234
39.78913 203
39.80924 184
39.82935 220
39.84947 192
39.86958 186
39.8897 209
39.90981 179
39.92992 194
39.95004 184
39.97015 209
39.99026 234
40.01038 206
40.03049 253
40.05061 250
40.07072 277
40.09083 284
40.11095 335
40.13106 380
40.15117 487
40.17129 563
40.1914 757
40.21152 879
40.23163 1049
40.25174 1132
40.27186 1114
40.29197 1055
40.31208 903
40.3322 720
40.35231 695
40.37242 633
40.39254 518
40.41265 418
40.43277 310
40.45288 256
40.47299 220
40.49311 216
40.51322 201
40.53333 204
40.55345 192
40.57356 165
40.59368 189
40.61379 175
40.6339 204
40.65402 185
40.67413 154
40.69424 165
40.71436 177
40.73447 178
40.75458 165
40.7747 177
40.79481 154
40.81493 156
40.83504 157
40.85515 151
40.87527 162
40.89538 164
40.91549 176
40.93561 169
40.95572 165
40.97584 191
40.99595 175
41.01606 187
41.03618 190
41.05629 160
41.0764 181
41.09652 173
41.11663 170
41.13675 178
41.15686 175
41.17697 191
41.19709 180
41.2172 174
41.23731 172
41.25743 180
41.27754 176
41.29765 191
41.31777 180
41.33788 189
41.358 184
41.37811 183
41.39822 178
41.41834 202
41.43845 189
41.45856 206
41.47868 192
41.49879 191
41.51891 181
41.53902 214
41.55913 191
41.57925 225
41.59936 212
41.61947 212
41.63959 240
41.6597 224
41.67982 297
41.69993 307
41.72004 315
41.74016 339
41.76027 349
41.78038 348
41.8005 324
41.82061 324
41.84072 275
41.86084 259
41.88095 273
41.90107 271
41.92118 255
41.94129 216
41.96141 212
41.98152 204
42.00163 179
42.02175 201
42.04186 190
42.06198 194
42.08209 218
42.1022 218
42.12232 188
42.14243 225
42.16254 257
42.18266 246
42.20277 262
42.22289 309
42.243 337
42.26311 416
42.28323 481
42.30334 595
42.32345 721
42.34357 947
42.36368 1087
42.38379 1349
42.40391 1546
42.42402 1586
42.44414 1517
42.46425 1269
42.48436 1058
42.50448 930
42.52459 824
42.5447 835
42.56482 675
42.58493 548
42.60505 378
42.62516 275
42.64527 261
42.66539 234
42.6855 264
42.70561 218
42.72573 218
42.74584 220
42.76595 206
42.78607 218
42.80618 222
42.8263 186
42.84641 200
42.86652 183
42.88664 164
42.90675 188
42.92686 156
42.94698 187
42.96709 184
42.98721 195
43.00732 152
43.02743 165
43.04755 161
43.06766 162
43.08777 184
43.10789 169
43.128 173
43.14812 166
43.16823 189
43.18834 162
43.20846 188
43.22857 138
43.24868 179
43.2688 183
43.28891 154
43.30902 155
43.32914 156
43.34925 161
43.36937 184
43.38948 164
43.40959 164
43.42971 153
43.44982 181
43.46993 189
43.49005 193
43.51016 156
43.53028 193
43.55039 159
43.5705 148
43.59062 149
43.61073 168
43.63084 170
43.65096 159
43.67107 174
43.69119 168
43.7113 160
43.73141 165
43.75153 142
43.77164 133
43.79175 133
43.81187 150
43.83198 156
43.85209 151
43.87221 152
43.89232 168
43.91244 175
43.93255 161
43.95266 180
43.97278 143
43.99289 181
44.013 170
44.03312 153
44.05323 153
44.07335 174
44.09346 165
44.11357 161
44.13369 173
44.1538 171
44.17391 178
44.19403 177
44.21414 177
44.23426 154
44.25437 184
44.27448 157
44.2946 170
44.31471 180
44.33482 168
44.35494 170
44.37505 173
44.39516 149
44.41528 165
44.43539 177
44.45551 152
44.47562 135
44.49573 179
44.51585 156
44.53596 180
44.55607 170
44.57619 165
44.5963 154
44.61642 146
44.63653 185
44.65664 144
44.67676 160
44.69687 167
44.71698 166
44.7371 174
44.75721 150
44.77732 174
44.79744 147
44.81755 145
44.83767 157
44.85778 165
44.87789 158
44.89801 161
44.91812 165
44.93823 161
44.95835 170
44.97846 169
44.99858 153
45.01869 180
45.0388 183
45.05892 158
45.07903 145
45.09914 151
45.11926 137
45.13937 155
45.15949 163
45.1796 155
45.19971 169
45.21983 178
45.23994 165
45.26005 184
45.28017 185
45.30028 171
45.32039 185
45.34051 178
45.36062 174
45.38074 185
45.40085 195
45.42096 216
45.44108 223
45.46119 238
45.4813 229
45.50142 239
45.52153 271
45.54165 251
45.56176 293
45.58187 326
45.60199 375
45.6221 424
45.64221 483
45.66233 573
45.68244 711
45.70256 852
45.72267 1073
45.74278 1262
45.7629 1210
45.78301 1138
45.80312 952
45.82324 791
45.84335 759
45.86346 698
45.88358 646
45.90369 591
45.92381 464
45.94392 380
45.96403 241
45.98415 228
46.00426 237
46.02437 176
46.04449 204
46.0646 195
46.08472 201
46.10483 186
46.12494 213
46.14506 188
46.16517 181
46.18528 183
46.2054 196
46.22551 183
46.24563 168
46.26574 155
46.28585 149
46.30597 165
46.32608 167
46.34619 169
46.36631 160
46.38642 169
46.40653 162
46.42665 123
46.44676 162
46.46688 164
46.48699 179
46.5071 146
46.52722 147
46.54733 155
46.56744 148
46.58756 160
46.60767 166
46.62779 168
46.6479 168
46.66801 136
46.68813 155
46.70824 145
46.72835 155
46.74847 161
46.76858 151
46.78869 143
46.80881 168
46.82892 155
46.84904 163
46.86915 167
46.88926 155
46.90938 189
46.92949 161
46.9496 179
46.96972 163
46.98983 186
47.00995 200
47.03006 194
47.05017 217
47.07029 205
47.0904 207
47.11051 225
47.13063 200
47.15074 205
47.17086 181
47.19097 192
47.21108 193
47.2312 182
47.25131 203
47.27142 175
47.29154 160
47.31165 151
47.33176 173
47.35188 186
47.37199 180
47.39211 180
47.41222 172
47.43233 176
47.45245 184
47.47256 182
47.49267 175
47.51279 191
47.5329 179
47.55302 156
47.57313 145
47.59324 171
47.61336 162
47.63347 160
47.65358 164
47.6737 145
47.69381 166
47.71393 165
47.73404 143
47.75415 163
47.77427 164
47.79438 144
47.81449 148
47.83461 158
47.85472 138
47.87483 157
47.89495 126
47.91506 178
47.93518 139
47.95529 158
47.9754 156
47.99552 143
48.01563 148
48.03574 142
48.05586 170
48.07597 138
48.09609 169
48.1162 154
48.13631 153
48.15643 162
48.17654 148
48.19665 137
48.21677 137
48.23688 147
48.257 154
48.27711 139
48.29722 147
48.31734 175
48.33745 154
48.35756 165
48.37768 148
48.39779 186
48.4179 159
48.43802 132
48.45813 178
48.47825 150
48.49836 172
48.51847 157
48.53859 155
48.5587 158
48.57881 159
48.59893 165
48.61904 187
48.63916 188
48.65927 170
48.67938 163
48.6995 158
48.71961 194
48.73972 187
48.75984 225
48.77995 218
48.80006 191
48.82018 193
48.84029 194
48.86041 218
48.88052 194
48.90063 202
48.92075 197
48.94086 194
48.96097 200
48.98109 174
49.0012 208
49.02132 184
49.04143 202
49.06154 179
49.08166 199
49.10177 171
49.12188 186
49.142 200
49.16211 192
49.18223 170
49.20234 204
49.22245 177
49.24257 141
49.26268 143
49.28279 163
49.30291 153
49.32302 162
49.34313 171
49.36325 156
49.38336 166
49.40348 160
49.42359 175
49.4437 189
49.46382 165
49.48393 177
49.50404 167
49.52416 175
49.54427 160
49.56439 176
49.5845 179
49.60461 193
49.62473 184
49.64484 215
49.66495 197
49.68507 220
49.70518 254
49.7253 256
49.74541 241
49.76552 254
49.78564 262
49.80575 284
49.82586 358
49.84598 385
49.86609 391
49.8862 416
49.90632 551
49.92643 686
49.94655 764
49.96666 973
49.98677 1301
50.00689 1644
50.027 2004
50.04711 2585
50.06723 3056
50.08734 3440
50.10746 3495
50.12757 3192
50.14768 2734
50.1678 2141
50.18791 1937
50.20802 1811
50.22814 1827
50.24825 1737
50.26837 1422
50.28848 1037
50.30859 704
50.32871 524
50.34882 426
50.36893 370
50.38905 341
50.40916 366
50.42927 374
50.44939 381
50.4695 424
50.48962 441
50.50973 414
50.52984 415
50.54996 438
50.57007 381
50.59018 397
50.6103 381
50.63041 328
50.65053 337
50.67064 311
50.69075 311
50.71087 267
50.73098 277
50.75109 272
50.77121 235
50.79132 255
50.81143 219
50.83155 225
50.85166 228
50.87178 253
50.89189 193
50.912 190
50.93212 222
50.95223 203
50.97234 179
50.99246 188
51.01257 209
51.03269 159
51.0528 171
51.07291 174
51.09303 172
51.11314 208
51.13325 155
51.15337 175
51.17348 138
51.1936 152
51.21371 158
51.23382 151
51.25394 154
51.27405 153
51.29416 163
51.31428 158
51.33439 168
51.3545 150
51.37462 136
51.39473 147
51.41485 153
51.43496 151
51.45507 150
51.47519 143
51.4953 166
51.51541 158
51.53553 142
51.55564 178
51.57576 138
51.59587 146
51.61598 141
51.6361 148
51.65621 116
51.67632 158
51.69644 135
51.71655 140
51.73667 130
51.75678 121
51.77689 145
51.79701 138
51.81712 140
51.83723 143
51.85735 152
51.87746 140
51.89757 139
51.91769 150
51.9378 144
51.95792 126
51.97803 142
51.99814 130
52.01826 159
52.03837 118
52.05848 138
52.0786 133
52.09871 120
52.11883 158
52.13894 128
52.15905 144
52.17917 141
52.19928 133
52.21939 142
52.23951 138
52.25962 138
52.27974 170
52.29985 123
52.31996 143
52.34008 141
52.36019 163
52.3803 123
52.40042 149
52.42053 143
52.44064 161
52.46076 158
52.48087 150
52.50099 135
52.5211 165
52.54121 155
52.56133 155
52.58144 148
52.60155 165
52.62167 177
52.64178 173
52.6619 170
52.68201 162
52.70212 168
52.72224 165
52.74235 150
52.76246 146
52.78258 150
52.80269 157
52.8228 146
52.84292 141
52.86303 156
52.88315 158
52.90326 154
52.92337 136
52.94349 158
52.9636 173
52.98371 173
53.00383 167
53.02394 178
53.04406 145
53.06417 151
53.08428 153
53.1044 147
53.12451 160
53.14462 164
53.16474 155
53.18485 147
53.20497 162
53.22508 163
53.24519 155
53.26531 143
53.28542 146
53.30553 173
53.32565 145
53.34576 166
53.36587 174
53.38599 147
53.4061 149
53.42622 149
53.44633 153
53.46644 148
53.48656 129
53.50667 158
53.52678 151
53.5469 185
53.56701 178
53.58713 173
53.60724 156
53.62735 165
53.64747 162
53.66758 154
53.68769 171
53.70781 146
53.72792 187
53.74804 144
53.76815 152
53.78826 177
53.80838 137
53.82849 167
53.8486 149
53.86872 182
53.88883 145
53.90894 162
53.92906 157
53.94917 167
53.96929 172
53.9894 174
54.00951 151
54.02963 171
54.04974 163
54.06985 172
54.08997 162
54.11008 164
54.1302 171
54.15031 167
54.17042 167
54.19054 155
54.21065 162
54.23076 181
54.25088 186
54.27099 155
54.29111 162
54.31122 146
54.33133 154
54.35145 168
54.37156 183
54.39167 184
54.41179 165
54.4319 196
54.45201 181
54.47213 166
54.49224 194
54.51236 212
54.53247 219
54.55258 216
54.5727 229
54.59281 237
54.61292 246
54.63304 286
54.65315 299
54.67327 346
54.69338 384
54.71349 487
54.73361 572
54.75372 666
54.77383 805
54.79395 913
54.81406 1102
54.83417 1136
54.85429 1097
54.8744 911
54.89452 778
54.91463 684
54.93474 613
54.95486 583
54.97497 669
54.99508 610
55.0152 562
55.03531 429
55.05543 370
55.07554 280
55.09565 295
55.11577 267
55.13588 312
55.15599 297
55.17611 292
55.19622 355
55.21634 389
55.23645 482
55.25656 539
55.27668 579
55.29679 586
55.3169 527
55.33702 480
55.35713 403
55.37724 416
55.39736 403
55.41747 353
55.43759 389
55.4577 325
55.47781 325
55.49793 262
55.51804 216
55.53815 185
55.55827 200
55.57838 189
55.5985 174
55.61861 170
55.63872 195
55.65884 178
55.67895 158
55.69906 180
55.71918 186
55.73929 160
55.75941 162
55.77952 172
55.79963 161
55.81975 150
55.83986 170
55.85997 173
55.88009 148
55.9002 129
55.92031 151
55.94043 154
55.96054 184
55.98066 162
56.00077 132
56.02088 164
56.041 132
56.06111 156
56.08122 156
56.10134 161
56.12145 143
56.14157 173
56.16168 121
56.18179 147
56.20191 145
56.22202 146
56.24213 163
56.26225 143
56.28236 167
56.30248 152
56.32259 135
56.3427 133
56.36282 143
56.38293 134
56.40304 151
56.42316 146
56.44327 135
56.46338 147
56.4835 141
56.50361 176
56.52373 137
56.54384 155
56.56395 158
56.58407 157
56.60418 152
56.62429 157
56.64441 153
56.66452 160
56.68464 159
56.70475 163
56.72486 162
56.74498 153
56.76509 164
56.7852 155
56.80532 153
56.82543 131
56.84554 158
56.86566 150
56.88577 148
56.90589 158
56.926 164
56.94611 140
56.96623 165
56.98634 156
57.00645 140
57.02657 148
57.04668 174
57.0668 183
57.08691 178
57.10702 195
57.12714 201
57.14725 188
57.16736 217
57.18748 201
57.20759 207
57.22771 201
57.24782 195
57.26793 204
57.28805 181
57.30816 176
57.32827 193
57.34839 165
57.3685 208
57.38861 177
57.40873 196
57.42884 173
57.44896 127
57.46907 174
57.48918 172
57.5093 167
57.52941 139
57.54952 144
57.56964 148
57.58975 154
57.60987 159
57.62998 128
57.65009 153
57.67021 149
57.69032 123
57.71043 142
57.73055 156
57.75066 151
57.77078 147
57.79089 132
57.811 136
57.83112 151
57.85123 151
57.87134 146
57.89146 138
57.91157 149
57.93168 131
57.9518 157
57.97191 137
57.99203 155
58.01214 131
58.03225 148
58.05237 159
58.07248 167
58.09259 147
58.11271 155
58.13282 160
58.15294 176
58.17305 158
58.19316 158
58.21328 165
58.23339 161
58.2535 139
58.27362 150
58.29373 145
58.31385 142
58.33396 163
58.35407 121
58.37419 158
58.3943 174
58.41441 180
58.43453 158
58.45464 149
58.47475 147
58.49487 166
58.51498 171
58.5351 171
58.55521 179
58.57532 167
58.59544 170
58.61555 168
58.63566 186
58.65578 174
58.67589 154
58.69601 175
58.71612 156
58.73623 159
58.75635 157
58.77646 151
58.79657 144
58.81669 161
58.8368 132
58.85691 141
58.87703 146
58.89714 169
58.91726 151
58.93737 147
58.95748 144
58.9776 136
58.99771 152
59.01782 141
59.03794 143
59.05805 143
59.07817 167
59.09828 137
59.11839 140
59.13851 146
59.15862 158
59.17873 149
59.19885 156
59.21896 185
59.23908 158
59.25919 155
59.2793 154
59.29942 142
59.31953 164
59.33964 174
59.35976 179
59.37987 172
59.39998 198
59.4201 188
59.44021 221
59.46033 203
59.48044 196
59.50055 194
59.52067 225
59.54078 208
59.56089 259
59.58101 222
59.60112 288
59.62124 269
59.64135 323
59.66146 337
59.68158 384
59.70169 384
59.7218 453
59.74192 558
59.76203 601
59.78215 804
59.80226 1045
59.82237 1274
59.84249 1512
59.8626 1892
59.88271 2136
59.90283 2311
59.92294 2281
59.94305 2154
59.96317 1699
59.98328 1427
60.0034 1179
60.02351 1187
60.04362 1201
60.06374 1325
60.08385 1206
60.10396 1110
60.12408 853
60.14419 594
60.16431 454
60.18442 345
60.20453 268
60.22465 258
60.24476 231
60.26487 224
60.28499 227
60.3051 223
60.32522 204
60.34533 192
60.36544 182
60.38556 182
60.40567 171
60.42578 187
60.4459 171
60.46601 161
60.48612 176
60.50624 151
60.52635 164
60.54647 150
60.56658 157
60.58669 167
60.60681 187
60.62692 160
60.64703 141
60.66715 159
60.68726 159
60.70738 156
60.72749 145
60.7476 183
60.76772 153
60.78783 165
60.80794 171
60.82806 178
60.84817 152
60.86828 179
60.8884 152
60.90851 182
60.92863 195
60.94874 176
60.96885 148
60.98897 169
61.00908 179
61.02919 170
61.04931 177
61.06942 189
61.08954 166
61.10965 225
61.12976 189
61.14988 200
61.16999 174
61.1901 176
61.21022 157
61.23033 171
61.25045 180
61.27056 180
61.29067 171
61.31079 162
61.3309 170
61.35101 165
61.37113 139
61.39124 176
61.41135 154
61.43147 161
61.45158 155
61.4717 163
61.49181 166
61.51192 162
61.53204 147
61.55215 150
61.57226 148
61.59238 154
61.61249 145
61.63261 160
61.65272 166
61.67283 161
61.69295 172
61.71306 155
61.73317 165
61.75329 155
61.7734 164
61.79352 149
61.81363 132
61.83374 156
61.85386 168
61.87397 159
61.89408 152
61.9142 143
61.93431 162
61.95442 156
61.97454 155
61.99465 172
62.01477 162
62.03488 171
62.05499 177
62.07511 135
62.09522 174
62.11533 176
62.13545 159
62.15556 173
62.17568 168
62.19579 175
62.2159 164
62.23602 166
62.25613 165
62.27624 142
62.29636 159
62.31647 174
62.33659 173
62.3567 152
62.37681 144
62.39693 149
62.41704 187
62.43715 151
62.45727 155
62.47738 145
62.49749 171
62.51761 166
62.53772 161
62.55784 153
62.57795 195
62.59806 152
62.61818 159
62.63829 183
62.6584 160
62.67852 139
62.69863 150
62.71875 171
62.73886 160
62.75897 171
62.77909 156
62.7992 143
62.81931 152
62.83943 167
62.85954 157
62.87965 156
62.89977 150
62.91988 162
62.94 165
62.96011 144
62.98022 174
63.00034 170
63.02045 160
63.04056 176
63.06068 196
63.08079 189
63.10091 178
63.12102 190
63.14113 166
63.16125 182
63.18136 170
63.20147 159
63.22159 205
63.2417 160
63.26182 179
63.28193 165
63.30204 162
63.32216 176
63.34227 154
63.36238 160
63.3825 174
63.40261 139
63.42272 171
63.44284 180
63.46295 168
63.48307 167
63.50318 160
63.52329 146
63.54341 166
63.56352 160
63.58363 171
63.60375 171
63.62386 175
63.64398 171
63.66409 190
63.6842 182
63.70432 194
63.72443 200
63.74454 212
63.76466 217
63.78477 237
63.80489 206
63.825 256
63.84511 281
63.86523 289
63.88534 362
63.90545 411
63.92557 421
63.94568 465
63.96579 511
63.98591 565
64.00602 599
64.02614 541
64.04625 436
64.06636 373
64.08648 360
64.10659 307
64.1267 312
64.14682 342
64.16693 354
64.18705 321
64.20716 310
64.22727 275
64.24739 225
64.2675 157
64.28761 165
64.30773 138
64.32784 149
64.34796 150
64.36807 125
64.38818 144
64.4083 154
64.42841 138
64.44852 143
64.46864 141
64.48875 140
64.50886 169
64.52898 134
64.54909 126
64.56921 145
64.58932 120
64.60943 142
64.62955 126
64.64966 137
64.66977 141
64.68989 151
64.71 136
64.73012 157
64.75023 128
64.77034 140
64.79046 161
64.81057 147
64.83068 150
64.8508 175
64.87091 158
64.89102 172
64.91114 168
64.93125 151
64.95137 143
64.97148 163
64.99159 150
65.01171 156
65.03182 164
65.05193 149
65.07205 171
65.09216 158
65.11228 156
65.13239 169
65.1525 175
65.17262 163
65.19273 176
65.21284 165
65.23296 168
65.25307 167
65.27319 170
65.2933 150
65.31341 191
65.33353 171
65.35364 152
65.37375 182
65.39387 149
65.41398 158
65.43409 170
65.45421 156
65.47432 176
65.49444 156
65.51455 146
65.53466 150
65.55478 165
65.57489 175
65.595 176
65.61512 172
65.63523 171
65.65535 194
65.67546 205
65.69557 224
65.71569 243
65.7358 259
65.75591 237
65.77603 223
65.79614 189
65.81626 189
65.83637 163
65.85648 178
65.8766 208
65.89671 181
65.91682 201
65.93694 215
65.95705 178
65.97716 170
65.99728 151
66.01739 145
66.03751 153
66.05762 163
66.07773 151
66.09785 134
66.11796 138
66.13807 171
66.15819 181
66.1783 188
66.19842 171
66.21853 152
66.23864 167
66.25876 170
66.27887 173
66.29898 163
66.3191 187
66.33921 152
66.35933 129
66.37944 171
66.39955 167
66.41967 135
66.43978 167
66.45989 151
66.48001 171
66.50012 152
66.52023 151
66.54035 148
66.56046 163
66.58058 160
66.60069 153
66.6208 155
66.64092 158
66.66103 149
66.68114 155
66.70126 157
66.72137 149
66.74149 155
66.7616 150
66.78171 188
66.80183 156
66.82194 150
66.84205 160
66.86217 153
66.88228 171
66.90239 169
66.92251 156
66.94262 147
66.96274 178
66.98285 151
67.00296 154
67.02308 158
67.04319 161
67.0633 178
67.08342 177
67.10353 164
67.12365 184
67.14376 175
67.16387 158
67.18399 180
67.2041 191
67.22421 181
67.24433 201
67.26444 209
67.28456 183
67.30467 189
67.32478 213
67.3449 212
67.36501 216
67.38512 226
67.40524 215
67.42535 240
67.44546 237
67.46558 274
67.48569 311
67.50581 348
67.52592 397
67.54603 501
67.56615 559
67.58626 665
67.60637 789
67.62649 965
67.6466 1125
67.66672 1223
67.68683 1461
67.70694 1362
67.72706 1328
67.74717 1110
67.76728 925
67.7874 797
67.80751 755
67.82763 780
67.84774 843
67.86785 890
67.88797 977
67.90808 959
67.92819 994
67.94831 908
67.96842 900
67.98853 911
68.00865 1064
68.02876 1260
68.04888 1416
68.06899 1619
68.0891 1784
68.10922 1815
68.12933 1688
68.14944 1503
68.16956 1365
68.18967 1300
68.20979 1442
68.2299 1558
68.25001 1639
68.27013 1715
68.29024 1671
68.31035 1581
68.33047 1305
68.35058 929
68.3707 805
68.39081 644
68.41092 681
68.43104 665
68.45115 618
68.47126 621
68.49138 603
68.51149 465
68.5316 387
68.55172 295
68.57183 262
68.59195 252
68.61206 234
68.63217 188
68.65229 197
68.6724 182
68.69251 182
68.71263 172
68.73274 182
68.75286 178
68.77297 177
68.79308 189
68.8132 163
68.83331 152
68.85342 162
68.87354 144
68.89365 162
68.91376 175
68.93388 173
68.95399 154
68.97411 156
68.99422 129
69.01433 154
69.03445 158
69.05456 175
69.07467 156
69.09479 157
69.1149 167
69.13502 136
69.15513 131
69.17524 127
69.19536 130
69.21547 137
69.23558 142
69.2557 154
69.27581 148
69.29593 146
69.31604 142
69.33615 145
69.35627 138
69.37638 126
69.39649 145
69.41661 139
69.43672 130
69.45683 152
69.47695 134
69.49706 140
69.51718 135
69.53729 157
69.5574 151
69.57752 135
69.59763 150
69.61774 153
69.63786 127
69.65797 131
69.67809 136
69.6982 131
69.71831 155
69.73843 108
69.75854 133
69.77865 141
69.79877 131
69.81888 142
69.839 128
69.85911 132
69.87922 147
69.89934 135
69.91945 138
69.93956 129
69.95968 145
69.97979 134
69.9999 139
70.02002 149
70.04013 138
70.06025 136
70.08036 139
70.10047 132
70.12059 120
70.1407 134
70.16081 143
70.18093 134
70.20104 144
70.22116 129
70.24127 148
70.26138 135
70.2815 149
70.30161 137
70.32172 133
70.34184 144
70.36195 144
70.38207 146
70.40218 147
70.42229 134
70.44241 156
70.46252 160
70.48263 141
70.50275 121
70.52286 144
70.54297 133
70.56309 147
70.5832 126
70.60332 157
70.62343 144
70.64354 127
70.66366 135
70.68377 148
70.70388 169
70.724 111
70.74411 139
70.76423 147
70.78434 138
70.80445 161
70.82457 149
70.84468 119
70.86479 154
70.88491 142
70.90502 134
70.92513 121
70.94525 143
70.96536 141
70.98548 144
71.00559 141
71.0257 147
71.04582 136
71.06593 136
71.08604 121
71.10616 125
71.12627 129
71.14639 147
71.1665 142
71.18661 144
71.20673 151
71.22684 151
71.24695 118
71.26707 147
71.28718 147
71.3073 129
71.32741 147
71.34752 126
71.36764 150
71.38775 165
71.40786 159
71.42798 172
71.44809 165
71.4682 162
71.48832 157
71.50843 161
71.52855 158
71.54866 173
71.56877 148
71.58889 155
71.609 156
71.62911 153
71.64923 159
71.66934 144
71.68946 151
71.70957 146
71.72968 153
71.7498 151
71.76991 150
71.79002 153
71.81014 155
71.83025 129
71.85037 156
71.87048 156
71.89059 138
71.91071 148
71.93082 149
71.95093 145
71.97105 144
71.99116 152
72.01127 159
72.03139 141
72.0515 144
72.07162 153
72.09173 154
72.11184 155
72.13196 170
72.15207 144
72.17218 156
72.1923 134
72.21241 162
72.23253 156
72.25264 164
72.27275 159
72.29287 144
72.31298 144
72.33309 150
72.35321 151
72.37332 135
72.39344 133
72.41355 136
72.43366 144
72.45378 149
72.47389 159
72.494 150
72.51412 147
72.53423 129
72.55434 132
72.57446 132
72.59457 151
72.61469 159
72.6348 128
72.65491 139
72.67503 137
72.69514 138
72.71525 140
72.73537 152
72.75548 116
72.7756 121
72.79571 157
72.81582 139
72.83594 164
72.85605 152
72.87616 145
72.89628 134
72.91639 137
72.9365 169
72.95662 184
72.97673 147
72.99685 163
73.01696 168
73.03707 163
73.05719 150
73.0773 179
73.09741 168
73.11753 177
73.13764 167
73.15776 194
73.17787 206
73.19798 205
73.2181 203
73.23821 235
73.25832 258
73.27844 282
73.29855 259
73.31867 349
73.33878 430
73.35889 452
73.37901 545
73.39912 527
73.41923 593
73.43935 568
73.45946 477
73.47957 414
73.49969 349
73.5198 299
73.53992 313
73.56003 317
73.58014 333
73.60026 349
73.62037 367
73.64048 375
73.6606 334
73.68071 319
73.70083 247
73.72094 189
73.74105 183
73.76117 171
73.78128 194
73.80139 139
73.82151 149
73.84162 150
73.86174 139
73.88185 148
73.90196 149
73.92208 159
73.94219 160
73.9623 155
73.98242 154
74.00253 146
74.02264 145
74.04276 127
74.06287 156
74.08299 131
74.1031 142
74.12321 131
74.14333 140
74.16344 139
74.18355 145
74.20367 141
74.22378 157
74.2439 164
74.26401 130
74.28412 147
74.30424 145
74.32435 157
74.34446 152
74.36458 152
74.38469 140
74.40481 141
74.42492 145
74.44503 145
74.46515 162
74.48526 141
74.50537 171
74.52549 142
74.5456 157
74.56571 147
74.58583 152
74.60594 114
74.62606 138
74.64617 104
74.66628 137
74.6864 158
74.70651 163
74.72662 165
74.74674 148
74.76685 134
74.78697 149
74.80708 152
74.82719 157
74.84731 140
74.86742 149
74.88753 157
74.90765 157
74.92776 150
74.94787 147
74.96799 152
74.9881 146
75.00822 146
