3.00117 20882
3.02128 20633
3.0414 20130
3.06151 19532
3.08162 18724
3.10174 18286
3.12185 17770
3.14197 17378
3.16208 16570
3.18219 16340
3.20231 16271
3.22242 15075
3.24253 15016
3.26265 14317
3.28276 14124
3.30288 13673
3.32299 13030
3.3431 12790
3.36322 12110
3.38333 12062
3.40344 11465
3.42356 10981
3.44367 10909
3.46379 10442
3.4839 10133
3.50401 9721
3.52413 9224
3.54424 9166
3.56435 8553
3.58447 8595
3.60458 8016
3.62469 7836
3.64481 7589
3.66492 7217
3.68504 6820
3.70515 6576
3.72526 6134
3.74538 6148
3.76549 5711
3.7856 5625
3.80572 5294
3.82583 5014
3.84595 4943
3.86606 4700
3.88617 4570
3.90629 4394
3.9264 4047
3.94651 3953
3.96663 3670
3.98674 3533
4.00686 3535
4.02697 3230
4.04708 3239
4.0672 2775
4.08731 2904
4.10742 2728
4.12754 2616
4.14765 2538
4.16776 2220
4.18788 2263
4.20799 2215
4.22811 2112
4.24822 2008
4.26833 1824
4.28845 1792
4.30856 1823
4.32867 1698
4.34879 1796
4.3689 1479
4.38902 1526
4.40913 1431
4.42924 1435
4.44936 1458
4.46947 1261
4.48958 1304
4.5097 1304
4.52981 1255
4.54992 1263
4.57004 1096
4.59015 1150
4.61027 1130
4.63038 1070
4.65049 1130
4.67061 998
4.69072 915
4.71083 948
4.73095 1012
4.75106 907
4.77118 915
4.79129 799
4.8114 939
4.83152 862
4.85163 782
4.87174 809
4.89186 806
4.91197 702
4.93209 742
4.9522 713
4.97231 704
4.99243 749
5.01254 674
5.03265 689
5.05277 645
5.07288 614
5.09299 602
5.11311 680
5.13322 624
5.15334 565
5.17345 569
5.19356 566
5.21368 522
5.23379 511
5.2539 487
5.27402 507
5.29413 440
5.31425 456
5.33436 487
5.35447 434
5.37459 434
5.3947 426
5.41481 398
5.43493 443
5.45504 388
5.47516 374
5.49527 362
5.51538 371
5.5355 363
5.55561 358
5.57572 359
5.59584 292
5.61595 305
5.63606 338
5.65618 316
5.67629 306
5.69641 313
5.71652 300
5.73663 313
5.75675 297
5.77686 283
5.79697 270
5.81709 294
5.8372 262
5.85732 228
5.87743 260
5.89754 251
5.91766 259
5.93777 230
5.95788 249
5.978 240
5.99811 236
6.01823 189
6.03834 228
6.05845 237
6.07857 229
6.09868 254
6.11879 216
6.13891 223
6.15902 215
6.17913 226
6.19925 207
6.21936 215
6.23948 211
6.25959 198
6.2797 215
6.29982 183
6.31993 221
6.34004 205
6.36016 190
6.38027 204
6.40039 213
6.4205 205
6.44061 204
6.46073 212
6.48084 219
6.50095 192
6.52107 180
6.54118 192
6.56129 183
6.58141 205
6.60152 214
6.62164 189
6.64175 211
6.66186 191
6.68198 204
6.70209 185
6.7222 202
6.74232 176
6.76243 202
6.78255 189
6.80266 184
6.82277 206
6.84289 194
6.863 174
6.88311 194
6.90323 191
6.92334 209
6.94346 194
6.96357 199
6.98368 211
7.0038 201
7.02391 209
7.04402 199
7.06414 183
7.08425 192
7.10436 206
7.12448 203
7.14459 224
7.16471 204
7.18482 189
7.20493 205
7.22505 186
7.24516 194
7.26527 217
7.28539 197
7.3055 207
7.32562 185
7.34573 240
7.36584 211
7.38596 191
7.40607 197
7.42618 191
7.4463 218
7.46641 219
7.48653 211
7.50664 205
7.52675 204
7.54687 215
7.56698 237
7.58709 196
7.60721 210
7.62732 239
7.64743 203
7.66755 174
7.68766 189
7.70778 191
7.72789 213
7.748 217
7.76812 206
7.78823 211
7.80834 226
7.82846 198
7.84857 204
7.86869 242
7.8888 210
7.90891 235
7.92903 174
7.94914 192
7.96925 226
7.98937 228
8.00948 244
8.0296 226
8.04971 227
8.06982 238
8.08994 254
8.11005 224
8.13016 265
8.15028 206
8.17039 213
8.1905 207
8.21062 209
8.23073 228
8.25085 257
8.27096 217
8.29107 245
8.31119 243
8.3313 201
8.35141 207
8.37153 208
8.39164 255
8.41176 227
8.43187 231
8.45198 259
8.4721 229
8.49221 259
8.51232 222
8.53244 229
8.55255 241
8.57266 249
8.59278 233
8.61289 256
8.63301 202
8.65312 258
8.67323 248
8.69335 225
8.71346 238
8.73357 262
8.75369 251
8.7738 246
8.79392 256
8.81403 245
8.83414 236
8.85426 248
8.87437 264
8.89448 268
8.9146 221
8.93471 251
8.95483 214
8.97494 212
8.99505 223
9.01517 240
9.03528 211
9.05539 248
9.07551 212
9.09562 255
9.11573 232
9.13585 219
9.15596 255
9.17608 246
9.19619 222
9.2163 229
9.23642 232
9.25653 248
9.27664 252
9.29676 220
9.31687 225
9.33699 225
9.3571 215
9.37721 223
9.39733 206
9.41744 250
9.43755 221
9.45767 237
9.47778 244
9.4979 229
9.51801 221
9.53812 226
9.55824 211
9.57835 229
9.59846 221
9.61858 240
9.63869 253
9.6588 220
9.67892 240
9.69903 226
9.71915 239
9.73926 226
9.75937 193
9.77949 234
9.7996 215
9.81971 233
9.83983 274
9.85994 226
9.88006 220
9.90017 239
9.92028 212
9.9404 237
9.96051 223
9.98062 235
10.00074 247
10.02085 220
10.04097 214
10.06108 243
10.08119 232
10.10131 223
10.12142 246
10.14153 235
10.16165 225
10.18176 253
10.20187 251
10.22199 233
10.2421 205
10.26222 231
10.28233 213
10.30244 227
10.32256 252
10.34267 220
10.36278 235
10.3829 278
10.40301 257
10.42313 214
10.44324 217
10.46335 236
10.48347 228
10.50358 255
10.52369 231
10.54381 223
10.56392 237
10.58403 222
10.60415 220
10.62426 188
10.64438 232
10.66449 226
10.6846 231
10.70472 212
10.72483 243
10.74494 236
10.76506 218
10.78517 222
10.80529 239
10.8254 235
10.84551 240
10.86563 219
10.88574 219
10.90585 225
10.92597 204
10.94608 237
10.9662 229
10.98631 231
11.00642 207
11.02654 255
11.04665 217
11.06676 239
11.08688 241
11.10699 249
11.1271 242
11.14722 223
11.16733 227
11.18745 252
11.20756 228
11.22767 229
11.24779 228
11.2679 232
11.28801 233
11.30813 209
11.32824 225
11.34836 233
11.36847 233
11.38858 197
11.4087 222
11.42881 240
11.44892 252
11.46904 228
11.48915 241
11.50927 219
11.52938 232
11.54949 218
11.56961 258
11.58972 214
11.60983 197
11.62995 242
11.65006 271
11.67017 221
11.69029 249
11.7104 208
11.73052 248
11.75063 214
11.77074 227
11.79086 217
11.81097 234
11.83108 234
11.8512 252
11.87131 232
11.89143 224
11.91154 233
11.93165 228
11.95177 284
11.97188 237
11.99199 225
12.01211 234
12.03222 236
12.05234 252
12.07245 244
12.09256 225
12.11268 223
12.13279 259
12.1529 282
12.17302 241
12.19313 269
12.21324 234
12.23336 261
12.25347 247
12.27359 258
12.2937 252
12.31381 251
12.33393 251
12.35404 259
12.37415 265
12.39427 249
12.41438 246
12.4345 266
12.45461 212
12.47472 250
12.49484 236
12.51495 227
12.53506 258
12.55518 215
12.57529 236
12.5954 221
12.61552 229
12.63563 236
12.65575 239
12.67586 211
12.69597 214
12.71609 192
12.7362 210
12.75631 231
12.77643 222
12.79654 222
12.81666 203
12.83677 227
12.85688 242
12.877 203
12.89711 215
12.91722 205
12.93734 204
12.95745 200
12.97757 230
12.99768 232
13.01779 214
13.03791 228
13.05802 213
13.07813 224
13.09825 205
13.11836 224
13.13847 240
13.15859 210
13.1787 218
13.19882 204
13.21893 191
13.23904 221
13.25916 210
13.27927 226
13.29938 217
13.3195 235
13.33961 221
13.35973 218
13.37984 224
13.39995 218
13.42007 203
13.44018 222
13.46029 235
13.48041 247
13.50052 219
13.52064 214
13.54075 244
13.56086 197
13.58098 216
13.60109 182
13.6212 205
13.64132 220
13.66143 230
13.68154 221
13.70166 249
13.72177 224
13.74189 216
13.762 198
13.78211 229
13.80223 235
13.82234 228
13.84245 181
13.86257 203
13.88268 207
13.9028 189
13.92291 202
13.94302 223
13.96314 199
13.98325 200
14.00336 204
14.02348 221
14.04359 199
14.06371 209
14.08382 200
14.10393 186
14.12405 185
14.14416 207
14.16427 216
14.18439 181
14.2045 231
14.22461 208
14.24473 194
14.26484 183
14.28496 188
14.30507 228
14.32518 221
14.3453 204
14.36541 171
14.38552 159
14.40564 195
14.42575 194
14.44587 185
14.46598 197
14.48609 186
14.50621 187
14.52632 205
14.54643 186
14.56655 186
14.58666 183
14.60677 188
14.62689 182
14.647 210
14.66712 209
14.68723 209
14.70734 192
14.72746 196
14.74757 181
14.76768 202
14.7878 196
14.80791 184
14.82803 179
14.84814 195
14.86825 182
14.88837 184
14.90848 200
14.92859 238
14.94871 203
14.96882 199
14.98894 227
15.00905 176
15.02916 214
15.04928 197
15.06939 204
15.0895 196
15.10962 206
15.12973 168
15.14984 203
15.16996 197
15.19007 178
15.21019 203
15.2303 196
15.25041 178
15.27053 235
15.29064 205
15.31075 203
15.33087 201
15.35098 168
15.3711 189
15.39121 226
15.41132 181
15.43144 203
15.45155 170
15.47166 179
15.49178 180
15.51189 188
15.53201 189
15.55212 166
15.57223 194
15.59235 201
15.61246 180
15.63257 189
15.65269 165
15.6728 188
15.69291 186
15.71303 201
15.73314 189
15.75326 177
15.77337 165
15.79348 208
15.8136 176
15.83371 180
15.85382 176
15.87394 198
15.89405 181
15.91417 190
15.93428 177
15.95439 231
15.97451 194
15.99462 199
16.01473 186
16.03485 224
16.05496 181
16.07508 196
16.09519 179
16.1153 173
16.13542 202
16.15553 186
16.17564 188
16.19576 199
16.21587 203
16.23598 150
16.2561 186
16.27621 179
16.29633 186
16.31644 216
16.33655 182
16.35667 173
16.37678 172
16.39689 199
16.41701 172
16.43712 197
16.45724 176
16.47735 179
16.49746 153
16.51758 170
16.53769 185
16.5578 198
16.57792 178
16.59803 182
16.61814 213
16.63826 173
16.65837 162
16.67849 179
16.6986 172
16.71871 178
16.73883 171
16.75894 182
16.77905 174
16.79917 166
16.81928 180
16.8394 178
16.85951 198
16.87962 185
16.89974 193
16.91985 202
16.93996 165
16.96008 210
16.98019 193
17.00031 199
17.02042 161
17.04053 193
17.06065 184
17.08076 189
17.10087 151
17.12099 166
17.1411 190
17.16121 203
17.18133 190
17.20144 204
17.22156 173
17.24167 180
17.26178 189
17.2819 180
17.30201 162
17.32212 209
17.34224 187
17.36235 181
17.38247 201
17.40258 189
17.42269 185
17.44281 157
17.46292 169
17.48303 180
17.50315 171
17.52326 151
17.54338 174
17.56349 181
17.5836 167
17.60372 171
17.62383 161
17.64394 193
17.66406 189
17.68417 200
17.70428 195
17.7244 186
17.74451 150
17.76463 177
17.78474 158
17.80485 191
17.82497 180
17.84508 209
17.86519 169
17.88531 206
17.90542 212
17.92554 198
17.94565 200
17.96576 155
17.98588 181
18.00599 181
18.0261 176
18.04622 173
18.06633 208
18.08645 208
18.10656 188
18.12667 199
18.14679 201
18.1669 180
18.18701 178
18.20713 169
18.22724 192
18.24735 195
18.26747 146
18.28758 182
18.3077 174
18.32781 211
18.34792 173
18.36804 177
18.38815 178
18.40826 180
18.42838 161
18.44849 183
18.46861 179
18.48872 171
18.50883 172
18.52895 176
18.54906 177
18.56917 172
18.58929 204
18.6094 179
18.62951 196
18.64963 197
18.66974 189
18.68986 188
18.70997 172
18.73008 191
18.7502 182
18.77031 180
18.79042 211
18.81054 198
18.83065 206
18.85077 228
18.87088 184
18.89099 188
18.91111 190
18.93122 169
18.95133 187
18.97145 173
18.99156 190
19.01168 173
19.03179 165
19.0519 174
19.07202 192
19.09213 169
19.11224 157
19.13236 179
19.15247 192
19.17258 220
19.1927 178
19.21281 233
19.23293 191
19.25304 186
19.27315 201
19.29327 174
19.31338 198
19.33349 176
19.35361 187
19.37372 175
19.39384 177
19.41395 185
19.43406 201
19.45418 177
19.47429 206
19.4944 179
19.51452 194
19.53463 192
19.55475 212
19.57486 183
19.59497 206
19.61509 205
19.6352 206
19.65531 226
19.67543 234
19.69554 240
19.71565 232
19.73577 246
19.75588 264
19.776 275
19.79611 263
19.81622 272
19.83634 275
19.85645 257
19.87656 252
19.89668 260
19.91679 265
19.93691 270
19.95702 292
19.97713 301
19.99725 296
20.01736 311
20.03747 272
20.05759 277
20.0777 273
20.09782 259
20.11793 266
20.13804 256
20.15816 295
20.17827 268
20.19838 275
20.2185 316
20.23861 287
20.25872 303
20.27884 303
20.29895 282
20.31907 319
20.33918 294
20.35929 301
20.37941 306
20.39952 320
20.41963 326
20.43975 357
20.45986 381
20.47998 340
20.50009 340
20.5202 370
20.54032 347
20.56043 367
20.58054 411
20.60066 430
20.62077 419
20.64088 450
20.661 502
20.68111 586
20.70123 655
20.72134 803
20.74145 1075
20.76157 1555
20.78168 2201
20.80179 3485
20.82191 5014
20.84202 6984
20.86214 8694
20.88225 9570
20.90236 8715
20.92248 6599
20.94259 4678
20.9627 3029
20.98282 1584
21.00293 1054
21.02305 729
21.04316 670
21.06327 615
21.08339 569
21.1035 515
21.12361 456
21.14373 456
21.16384 423
21.18395 378
21.20407 333
21.22418 330
21.2443 319
21.26441 327
21.28452 332
21.30464 309
21.32475 282
21.34486 257
21.36498 277
21.38509 290
21.40521 321
21.42532 288
21.44543 296
21.46555 282
21.48566 283
21.50577 277
21.52589 278
21.546 291
21.56612 246
21.58623 283
21.60634 281
21.62646 238
21.64657 243
21.66668 239
21.6868 268
21.70691 242
21.72702 278
21.74714 240
21.76725 261
21.78737 236
21.80748 239
21.82759 235
21.84771 252
21.86782 256
21.88793 249
21.90805 256
21.92816 224
21.94828 244
21.96839 213
21.9885 205
22.00862 263
22.02873 260
22.04884 234
22.06896 230
22.08907 229
22.10919 248
22.1293 239
22.14941 205
22.16953 201
22.18964 252
22.20975 249
22.22987 241
22.24998 236
22.27009 266
22.29021 252
22.31032 263
22.33044 284
22.35055 281
22.37066 283
22.39078 221
22.41089 226
22.431 245
22.45112 243
22.47123 230
22.49135 210
22.51146 255
22.53157 210
22.55169 206
22.5718 201
22.59191 216
22.61203 227
22.63214 246
22.65225 223
22.67237 228
22.69248 239
22.7126 250
22.73271 217
22.75282 250
22.77294 226
22.79305 214
22.81316 261
22.83328 231
22.85339 216
22.87351 224
22.89362 216
22.91373 238
22.93385 226
22.95396 211
22.97407 214
22.99419 251
23.0143 220
23.03442 209
23.05453 249
23.07464 226
23.09476 239
23.11487 243
23.13498 237
23.1551 265
23.17521 253
23.19532 316
23.21544 286
23.23555 299
23.25567 247
23.27578 265
23.29589 261
23.31601 254
23.33612 242
23.35623 237
23.37635 204
23.39646 224
23.41658 233
23.43669 209
23.4568 201
23.47692 235
23.49703 228
23.51714 214
23.53726 201
23.55737 225
23.57749 229
23.5976 228
23.61771 211
23.63783 231
23.65794 220
23.67805 188
23.69817 223
23.71828 211
23.73839 233
23.75851 244
23.77862 236
23.79874 227
23.81885 243
23.83896 229
23.85908 234
23.87919 266
23.8993 233
23.91942 258
23.93953 264
23.95965 279
23.97976 317
23.99987 342
24.01999 373
24.0401 376
24.06021 333
24.08033 326
24.10044 268
24.12056 260
24.14067 232
24.16078 272
24.1809 277
24.20101 246
24.22112 239
24.24124 239
24.26135 242
24.28146 253
24.30158 241
24.32169 233
24.34181 278
24.36192 240
24.38203 236
24.40215 240
24.42226 234
24.44237 224
24.46249 223
24.4826 245
24.50272 238
24.52283 234
24.54294 219
24.56306 230
24.58317 223
24.60328 224
24.6234 241
24.64351 231
24.66362 233
24.68374 254
24.70385 253
24.72397 264
24.74408 267
24.76419 255
24.78431 247
24.80442 219
24.82453 256
24.84465 257
24.86476 231
24.88488 276
24.90499 272
24.9251 245
24.94522 239
24.96533 246
24.98544 244
25.00556 265
25.02567 218
25.04579 259
25.0659 240
25.08601 256
25.10613 227
25.12624 271
25.14635 232
25.16647 229
25.18658 193
25.20669 272
25.22681 267
25.24692 261
25.26704 315
25.28715 280
25.30726 306
25.32738 329
25.34749 299
25.3676 305
25.38772 286
25.40783 271
25.42795 252
25.44806 291
25.46817 293
25.48829 285
25.5084 272
25.52851 330
25.54863 302
25.56874 320
25.58886 319
25.60897 339
25.62908 343
25.6492 330
25.66931 350
25.68942 379
25.70954 377
25.72965 412
25.74976 442
25.76988 445
25.78999 438
25.81011 430
25.83022 425
25.85033 412
25.87045 429
25.89056 421
25.91067 436
25.93079 442
25.9509 456
25.97102 437
25.99113 442
26.01124 480
26.03136 478
26.05147 488
26.07158 508
26.0917 511
26.11181 507
26.13193 589
26.15204 598
26.17215 583
26.19227 638
26.21238 718
26.23249 773
26.25261 793
26.27272 839
26.29283 925
26.31295 943
26.33306 1016
26.35318 1161
26.37329 1296
26.3934 1347
26.41352 1491
26.43363 1837
26.45374 2255
26.47386 2881
26.49397 3834
26.51409 4990
26.5342 7267
26.55431 10563
26.57443 15561
26.59454 22634
26.61465 31112
26.63477 39538
26.65488 43629
26.67499 39006
26.69511 30658
26.71522 23818
26.73534 18440
26.75545 11622
26.77556 5956
26.79568 3314
26.81579 2182
26.8359 1913
26.85602 1663
26.87613 1430
26.89625 1396
26.91636 1270
26.93647 1198
26.95659 1039
26.9767 1031
26.99681 932
27.01693 845
27.03704 775
27.05716 744
27.07727 684
27.09738 632
27.1175 631
27.13761 590
27.15772 518
27.17784 518
27.19795 466
27.21806 487
27.23818 440
27.25829 445
27.27841 440
27.29852 452
27.31863 458
27.33875 470
27.35886 495
27.37897 525
27.39909 542
27.4192 564
27.43932 591
27.45943 549
27.47954 596
27.49966 596
27.51977 552
27.53988 520
27.56 511
27.58011 404
27.60023 411
27.62034 377
27.64045 344
27.66057 374
27.68068 321
27.70079 328
27.72091 315
27.74102 315
27.76113 332
27.78125 318
27.80136 314
27.82148 295
27.84159 319
27.8617 309
27.88182 302
27.90193 326
27.92204 323
27.94216 325
27.96227 272
27.98239 273
28.0025 302
28.02261 297
28.04273 273
28.06284 265
28.08295 254
28.10307 285
28.12318 276
28.1433 284
28.16341 271
28.18352 270
28.20364 265
28.22375 255
28.24386 308
28.26398 274
28.28409 243
28.3042 295
28.32432 252
28.34443 261
28.36455 247
28.38466 231
28.40477 284
28.42489 246
28.445 259
28.46511 281
28.48523 260
28.50534 238
28.52546 276
28.54557 242
28.56568 276
28.5858 269
28.60591 232
28.62602 255
28.64614 270
28.66625 259
28.68636 235
28.70648 239
28.72659 250
28.74671 257
28.76682 271
28.78693 243
28.80705 279
28.82716 240
28.84727 208
28.86739 235
28.8875 245
28.90762 260
28.92773 224
28.94784 236
28.96796 238
28.98807 257
29.00818 252
29.0283 253
29.04841 239
29.06853 247
29.08864 208
29.10875 220
29.12887 256
29.14898 257
29.16909 255
29.18921 239
29.20932 238
29.22943 247
29.24955 230
29.26966 247
29.28978 213
29.30989 238
29.33 241
29.35012 238
29.37023 294
29.39034 252
29.41046 249
29.43057 249
29.45069 297
29.4708 267
29.49091 291
29.51103 261
29.53114 260
29.55125 234
29.57137 244
29.59148 244
29.6116 272
29.63171 253
29.65182 243
29.67194 243
29.69205 240
29.71216 232
29.73228 228
29.75239 234
29.7725 223
29.79262 194
29.81273 228
29.83285 227
29.85296 221
29.87307 239
29.89319 217
29.9133 228
29.93341 215
29.95353 227
29.97364 231
29.99376 232
30.01387 193
30.03398 224
30.0541 213
30.07421 233
30.09432 217
30.11444 253
30.13455 244
30.15467 247
30.17478 273
30.19489 264
30.21501 293
30.23512 265
30.25523 258
30.27535 269
30.29546 251
30.31557 255
30.33569 225
30.3558 230
30.37592 204
30.39603 233
30.41614 217
30.43626 208
30.45637 239
30.47648 238
30.4966 235
30.51671 211
30.53683 209
30.55694 197
30.57705 201
30.59717 195
30.61728 232
30.63739 219
30.65751 204
30.67762 196
30.69773 235
30.71785 256
30.73796 216
30.75808 262
30.77819 240
30.7983 245
30.81842 247
30.83853 240
30.85864 212
30.87876 211
30.89887 262
30.91899 246
30.9391 217
30.95921 202
30.97933 256
30.99944 216
31.01955 210
31.03967 224
31.05978 225
31.0799 185
31.10001 231
31.12012 213
31.14024 186
31.16035 201
31.18046 204
31.20058 207
31.22069 197
31.2408 198
31.26092 204
31.28103 190
31.30115 202
31.32126 187
31.34137 178
31.36149 194
31.3816 205
31.40171 181
31.42183 215
31.44194 180
31.46206 181
31.48217 172
31.50228 196
31.5224 181
31.54251 194
31.56262 200
31.58274 194
31.60285 201
31.62297 203
31.64308 176
31.66319 177
31.68331 183
31.70342 160
31.72353 191
31.74365 170
31.76376 175
31.78387 146
31.80399 180
31.8241 205
31.84422 179
31.86433 212
31.88444 158
31.90456 174
31.92467 168
31.94478 192
31.9649 191
31.98501 184
32.00513 167
32.02524 189
32.04535 188
32.06547 187
32.08558 186
32.10569 222
32.12581 208
32.14592 224
32.16604 194
32.18615 197
32.20626 193
32.22638 210
32.24649 166
32.2666 189
32.28672 180
32.30683 200
32.32694 182
32.34706 165
32.36717 223
32.38729 192
32.4074 204
32.42751 211
32.44763 220
32.46774 185
32.48785 189
32.50797 201
32.52808 205
32.5482 201
32.56831 178
32.58842 192
32.60854 208
32.62865 180
32.64876 204
32.66888 196
32.68899 199
32.7091 187
32.72922 171
32.74933 196
32.76945 173
32.78956 184
32.80967 168
32.82979 188
32.8499 184
32.87001 198
32.89013 207
32.91024 202
32.93036 186
32.95047 173
32.97058 208
32.9907 195
33.01081 200
33.03092 214
33.05104 186
33.07115 206
33.09127 179
33.11138 224
33.13149 218
33.15161 217
33.17172 213
33.19183 206
33.21195 212
33.23206 199
33.25217 211
33.27229 215
33.2924 198
33.31252 204
33.33263 207
33.35274 181
33.37286 161
33.39297 171
33.41308 175
33.4332 194
33.45331 191
33.47343 182
33.49354 176
33.51365 190
33.53377 173
33.55388 166
33.57399 187
33.59411 167
33.61422 192
33.63434 197
33.65445 192
33.67456 176
33.69468 185
33.71479 159
33.7349 158
33.75502 187
33.77513 164
33.79524 154
33.81536 173
33.83547 198
33.85559 190
33.8757 186
33.89581 169
33.91593 150
33.93604 183
33.95615 158
33.97627 161
33.99638 168
34.0165 169
34.03661 171
34.05672 190
34.07684 157
34.09695 178
34.11706 187
34.13718 189
34.15729 176
34.17741 194
34.19752 206
34.21763 166
34.23775 208
34.25786 208
34.27797 210
34.29809 195
34.3182 176
34.33831 181
34.35843 182
34.37854 193
34.39866 172
34.41877 194
34.43888 174
34.459 161
34.47911 161
34.49922 183
34.51934 171
34.53945 182
34.55957 182
34.57968 182
34.59979 189
34.61991 210
34.64002 216
34.66013 192
34.68025 218
34.70036 188
34.72047 217
34.74059 218
34.7607 189
34.78082 193
34.80093 227
34.82104 209
34.84116 242
34.86127 231
34.88138 227
34.9015 212
34.92161 217
34.94173 216
34.96184 229
34.98195 239
35.00207 222
35.02218 228
35.04229 214
35.06241 196
35.08252 214
35.10264 243
35.12275 207
35.14286 218
35.16298 251
35.18309 184
35.2032 196
35.22332 213
35.24343 233
35.26354 204
35.28366 216
35.30377 206
35.32389 190
35.344 226
35.36411 212
35.38423 235
35.40434 243
35.42445 229
35.44457 245
35.46468 227
35.4848 274
35.50491 234
35.52502 277
35.54514 265
35.56525 277
35.58536 298
35.60548 280
35.62559 252
35.64571 262
35.66582 251
35.68593 261
35.70605 252
35.72616 237
35.74627 227
35.76639 247
35.7865 246
35.80661 249
35.82673 235
35.84684 249
35.86696 249
35.88707 254
35.90718 235
35.9273 213
35.94741 217
35.96752 200
35.98764 248
36.00775 208
36.02787 208
36.04798 241
36.06809 219
36.08821 269
36.10832 227
36.12843 244
36.14855 238
36.16866 261
36.18878 227
36.20889 258
36.229 251
36.24912 281
36.26923 255
36.28934 296
36.30946 291
36.32957 350
36.34968 379
36.3698 453
36.38991 536
36.41003 680
36.43014 792
36.45025 1055
36.47037 1363
36.49048 1781
36.51059 2265
36.53071 2724
36.55082 2806
36.57094 2599
36.59105 1971
36.61116 1712
36.63128 1533
36.65139 1389
36.6715 1076
36.69162 653
36.71173 486
36.73184 369
36.75196 327
36.77207 311
36.79219 234
36.8123 273
36.83241 224
36.85253 234
36.87264 229
36.89275 230
36.91287 243
36.93298 263
36.9531 210
36.97321 219
36.99332 222
37.01344 217
37.03355 221
37.05366 235
37.07378 224
37.09389 212
37.11401 219
37.13412 208
37.15423 207
37.17435 212
37.19446 207
37.21457 208
37.23469 183
37.2548 175
37.27491 171
37.29503 199
37.31514 159
37.33526 180
37.35537 190
37.37548 178
37.3956 181
37.41571 185
37.43582 161
37.45594 206
37.47605 199
37.49617 173
37.51628 175
37.53639 180
37.55651 171
37.57662 202
37.59673 217
37.61685 213
37.63696 188
37.65708 170
37.67719 164
37.6973 191
37.71742 183
37.73753 176
37.75764 210
37.77776 201
37.79787 205
37.81798 173
37.8381 168
37.85821 184
37.87833 194
37.89844 182
37.91855 196
37.93867 150
37.95878 154
37.97889 179
37.99901 167
38.01912 166
38.03924 186
38.05935 186
38.07946 183
38.09958 169
38.11969 209
38.1398 201
38.15992 194
38.18003 165
38.20015 194
38.22026 196
38.24037 182
38.26049 177
38.2806 209
38.30071 224
38.32083 189
38.34094 192
38.36105 188
38.38117 195
38.40128 179
38.4214 181
38.44151 198
38.46162 183
38.48174 180
38.50185 217
38.52196 205
38.54208 188
38.56219 239
38.58231 224
38.60242 214
38.62253 190
38.64265 207
38.66276 201
38.68287 204
38.70299 184
38.7231 193
38.74321 197
38.76333 202
38.78344 181
38.80356 181
38.82367 185
38.84378 174
38.8639 193
38.88401 187
38.90412 200
38.92424 207
38.94435 180
38.96447 186
38.98458 209
39.00469 207
39.02481 209
39.04492 197
39.06503 216
39.08515 224
39.10526 203
39.12538 216
39.14549 214
39.1656 239
39.18572 257
39.20583 286
39.22594 292
39.24606 303
39.26617 351
39.28628 390
39.3064 497
39.32651 573
39.34663 735
39.36674 902
39.38685 1180
39.40697 1504
39.42708 1927
39.44719 2291
39.46731 2623
39.48742 2424
39.50754 1962
39.52765 1527
39.54776 1463
39.56788 1406
39.58799 1219
39.6081 893
39.62822 589
39.64833 355
39.66845 320
39.68856 280
39.70867 278
39.72879 273
39.7489 238
39.76901 252
39.78913 215
39.80924 233
39.82935 226
39.84947 195
39.86958 202
39.8897 207
39.90981 229
39.92992 220
39.95004 232
39.97015 205
39.99026 197
40.01038 199
40.03049 237
40.05061 259
40.07072 285
40.09083 290
40.11095 288
40.13106 330
40.15117 395
40.17129 450
40.1914 564
40.21152 758
40.23163 868
40.25174 1100
40.27186 1327
40.29197 1371
40.31208 1316
40.3322 1022
40.35231 832
40.37242 787
40.39254 761
40.41265 715
40.43277 524
40.45288 415
40.47299 300
40.49311 287
40.51322 250
40.53333 247
40.55345 232
40.57356 211
40.59368 187
40.61379 211
40.6339 217
40.65402 190
40.67413 198
40.69424 217
40.71436 176
40.73447 184
40.75458 194
40.7747 208
40.79481 190
40.81493 206
40.83504 205
40.85515 189
40.87527 210
40.89538 170
40.91549 200
40.93561 191
40.95572 201
40.97584 198
40.99595 191
41.01606 169
41.03618 171
41.05629 188
41.0764 182
41.09652 180
41.11663 192
41.13675 205
41.15686 184
41.17697 209
41.19709 207
41.2172 193
41.23731 187
41.25743 198
41.27754 178
41.29765 186
41.31777 180
41.33788 187
41.358 208
41.37811 181
41.39822 174
41.41834 163
41.43845 185
41.45856 185
41.47868 193
41.49879 193
41.51891 180
41.53902 180
41.55913 205
41.57925 195
41.59936 192
41.61947 186
41.63959 185
41.6597 177
41.67982 188
41.69993 190
41.72004 210
41.74016 219
41.76027 221
41.78038 235
41.8005 223
41.82061 238
41.84072 212
41.86084 213
41.88095 205
41.90107 200
41.92118 189
41.94129 206
41.96141 209
41.98152 179
42.00163 168
42.02175 205
42.04186 214
42.06198 198
42.08209 188
42.1022 238
42.12232 222
42.14243 213
42.16254 236
42.18266 218
42.20277 261
42.22289 282
42.243 321
42.26311 302
42.28323 369
42.30334 477
42.32345 583
42.34357 678
42.36368 889
42.38379 1108
42.40391 1386
42.42402 1631
42.44414 1844
42.46425 1831
42.48436 1560
42.50448 1195
42.52459 1054
42.5447 993
42.56482 982
42.58493 836
42.60505 599
42.62516 412
42.64527 293
42.66539 295
42.6855 279
42.70561 232
42.72573 224
42.74584 191
42.76595 205
42.78607 216
42.80618 196
42.8263 198
42.84641 197
42.86652 184
42.88664 199
42.90675 182
42.92686 186
42.94698 190
42.96709 168
42.98721 163
43.00732 171
43.02743 195
43.04755 186
43.06766 168
43.08777 177
43.10789 173
43.128 185
43.14812 178
43.16823 176
43.18834 161
43.20846 182
43.22857 169
43.24868 185
43.2688 150
43.28891 149
43.30902 163
43.32914 168
43.34925 151
43.36937 169
43.38948 175
43.40959 169
43.42971 185
43.44982 175
43.46993 170
43.49005 178
43.51016 179
43.53028 156
43.55039 179
43.5705 180
43.59062 183
43.61073 179
43.63084 168
43.65096 165
43.67107 172
43.69119 167
43.7113 164
43.73141 178
43.75153 175
43.77164 173
43.79175 175
43.81187 151
43.83198 157
43.85209 168
43.87221 181
43.89232 191
43.91244 163
43.93255 157
43.95266 156
43.97278 167
43.99289 165
44.013 167
44.03312 150
44.05323 174
44.07335 169
44.09346 161
44.11357 135
44.13369 163
44.1538 156
44.17391 152
44.19403 153
44.21414 168
44.23426 167
44.25437 161
44.27448 165
44.2946 157
44.31471 160
44.33482 170
44.35494 168
44.37505 172
44.39516 141
44.41528 157
44.43539 144
44.45551 142
44.47562 186
44.49573 171
44.51585 152
44.53596 171
44.55607 180
44.57619 159
44.5963 147
44.61642 153
44.63653 170
44.65664 178
44.67676 176
44.69687 152
44.71698 159
44.7371 152
44.75721 165
44.77732 160
44.79744 186
44.81755 142
44.83767 170
44.85778 154
44.87789 163
44.89801 170
44.91812 164
44.93823 171
44.95835 184
44.97846 170
44.99858 166
45.01869 167
45.0388 173
45.05892 136
45.07903 184
45.09914 185
45.11926 160
45.13937 163
45.15949 184
45.1796 169
45.19971 165
45.21983 174
45.23994 169
45.26005 147
45.28017 158
45.30028 173
45.32039 172
45.34051 188
45.36062 169
45.38074 173
45.40085 161
45.42096 201
45.44108 208
45.46119 207
45.4813 202
45.50142 217
45.52153 234
45.54165 248
45.56176 266
45.58187 266
45.60199 248
45.6221 313
45.64221 390
45.66233 392
45.68244 497
45.70256 611
45.72267 799
45.74278 941
45.7629 1134
45.78301 1199
45.80312 1161
45.82324 1014
45.84335 794
45.86346 722
45.88358 682
45.90369 680
45.92381 639
45.94392 535
45.96403 340
45.98415 275
46.00426 249
46.02437 216
46.04449 211
46.0646 203
46.08472 181
46.10483 181
46.12494 170
46.14506 162
46.16517 174
46.18528 162
46.2054 159
46.22551 145
46.24563 174
46.26574 171
46.28585 174
46.30597 161
46.32608 144
46.34619 178
46.36631 170
46.38642 166
46.40653 164
46.42665 159
46.44676 161
46.46688 166
46.48699 148
46.5071 170
46.52722 149
46.54733 136
46.56744 144
46.58756 154
46.60767 146
46.62779 151
46.6479 151
46.66801 152
46.68813 166
46.70824 157
46.72835 143
46.74847 157
46.76858 171
46.78869 157
46.80881 135
46.82892 136
46.84904 139
46.86915 130
46.88926 154
46.90938 164
46.92949 141
46.9496 154
46.96972 156
46.98983 155
47.00995 131
47.03006 172
47.05017 136
47.07029 175
47.0904 171
47.11051 162
47.13063 161
47.15074 159
47.17086 144
47.19097 142
47.21108 181
47.2312 175
47.25131 164
47.27142 156
47.29154 164
47.31165 157
47.33176 126
47.35188 142
47.37199 150
47.39211 154
47.41222 146
47.43233 154
47.45245 166
47.47256 157
47.49267 154
47.51279 170
47.5329 158
47.55302 163
47.57313 142
47.59324 128
47.61336 150
47.63347 154
47.65358 165
47.6737 143
47.69381 141
47.71393 142
47.73404 143
47.75415 149
47.77427 162
47.79438 169
47.81449 157
47.83461 150
47.85472 153
47.87483 154
47.89495 158
47.91506 158
47.93518 145
47.95529 159
47.9754 165
47.99552 173
48.01563 160
48.03574 160
48.05586 168
48.07597 160
48.09609 150
48.1162 158
48.13631 155
48.15643 134
48.17654 145
48.19665 148
48.21677 138
48.23688 128
48.257 129
48.27711 143
48.29722 162
48.31734 157
48.33745 150
48.35756 175
48.37768 150
48.39779 186
48.4179 162
48.43802 172
48.45813 154
48.47825 179
48.49836 151
48.51847 151
48.53859 155
48.5587 140
48.57881 163
48.59893 153
48.61904 163
48.63916 155
48.65927 153
48.67938 155
48.6995 145
48.71961 175
48.73972 161
48.75984 170
48.77995 161
48.80006 135
48.82018 148
48.84029 187
48.86041 155
48.88052 152
48.90063 174
48.92075 170
48.94086 156
48.96097 168
48.98109 162
49.0012 168
49.02132 163
49.04143 164
49.06154 185
49.08166 176
49.10177 177
49.12188 191
49.142 181
49.16211 161
49.18223 169
49.20234 185
49.22245 167
49.24257 169
49.26268 179
49.28279 153
49.30291 164
49.32302 172
49.34313 162
49.36325 200
49.38336 144
49.40348 184
49.42359 172
49.4437 170
49.46382 197
49.48393 188
49.50404 189
49.52416 186
49.54427 157
49.56439 189
49.5845 198
49.60461 174
49.62473 190
49.64484 216
49.66495 216
49.68507 229
49.70518 241
49.7253 247
49.74541 265
49.76552 252
49.78564 253
49.80575 279
49.82586 305
49.84598 368
49.86609 421
49.8862 443
49.90632 448
49.92643 511
49.94655 669
49.96666 804
49.98677 946
50.00689 1144
50.027 1508
50.04711 1995
50.06723 2369
50.08734 3009
50.10746 3597
50.12757 4043
50.14768 3780
50.1678 3164
50.18791 2438
50.20802 1995
50.22814 1946
50.24825 2014
50.26837 1957
50.28848 1755
50.30859 1264
50.32871 815
50.34882 530
50.36893 433
50.38905 382
50.40916 349
50.42927 309
50.44939 301
50.4695 316
50.48962 303
50.50973 277
50.52984 301
50.54996 290
50.57007 281
50.59018 292
50.6103 299
50.63041 277
50.65053 320
50.67064 232
50.69075 225
50.71087 207
50.73098 230
50.75109 231
50.77121 215
50.79132 206
50.81143 198
50.83155 186
50.85166 188
50.87178 194
50.89189 172
50.912 177
50.93212 179
50.95223 161
50.97234 167
50.99246 160
51.01257 170
51.03269 144
51.0528 148
51.07291 171
51.09303 153
51.11314 140
51.13325 160
51.15337 155
51.17348 133
51.1936 144
51.21371 163
51.23382 157
51.25394 138
51.27405 161
51.29416 127
51.31428 161
51.33439 126
51.3545 129
51.37462 123
51.39473 163
51.41485 156
51.43496 158
51.45507 155
51.47519 149
51.4953 143
51.51541 143
51.53553 129
51.55564 154
51.57576 130
51.59587 138
51.61598 143
51.6361 155
51.65621 136
51.67632 153
51.69644 149
51.71655 150
51.73667 144
51.75678 152
51.77689 144
51.79701 128
51.81712 129
51.83723 128
51.85735 150
51.87746 121
51.89757 122
51.91769 140
51.9378 144
51.95792 110
51.97803 141
51.99814 151
52.01826 169
52.03837 152
52.05848 134
52.0786 148
52.09871 168
52.11883 124
52.13894 164
52.15905 141
52.17917 153
52.19928 144
52.21939 144
52.23951 118
52.25962 147
52.27974 152
52.29985 151
52.31996 132
52.34008 148
52.36019 136
52.3803 145
52.40042 161
52.42053 139
52.44064 140
52.46076 160
52.48087 137
52.50099 135
52.5211 162
52.54121 143
52.56133 142
52.58144 150
52.60155 145
52.62167 153
52.64178 141
52.6619 153
52.68201 141
52.70212 129
52.72224 140
52.74235 152
52.76246 150
52.78258 160
52.80269 130
52.8228 139
52.84292 142
52.86303 139
52.88315 167
52.90326 161
52.92337 153
52.94349 128
52.9636 170
52.98371 146
53.00383 152
53.02394 132
53.04406 178
53.06417 132
53.08428 145
53.1044 141
53.12451 151
53.14462 158
53.16474 158
53.18485 144
53.20497 129
53.22508 146
53.24519 126
53.26531 145
53.28542 164
53.30553 151
53.32565 155
53.34576 154
53.36587 173
53.38599 189
53.4061 186
53.42622 205
53.44633 199
53.46644 153
53.48656 156
53.50667 163
53.52678 189
53.5469 161
53.56701 170
53.58713 178
53.60724 167
53.62735 154
53.64747 161
53.66758 151
53.68769 143
53.70781 166
53.72792 185
53.74804 151
53.76815 160
53.78826 169
53.80838 174
53.82849 176
53.8486 164
53.86872 186
53.88883 171
53.90894 170
53.92906 175
53.94917 161
53.96929 190
53.9894 173
54.00951 167
54.02963 174
54.04974 179
54.06985 143
54.08997 147
54.11008 174
54.1302 179
54.15031 169
54.17042 153
54.19054 166
54.21065 193
54.23076 172
54.25088 175
54.27099 178
54.29111 194
54.31122 203
54.33133 202
54.35145 179
54.37156 190
54.39167 183
54.41179 153
54.4319 183
54.45201 193
54.47213 202
54.49224 195
54.51236 182
54.53247 200
54.55258 213
54.5727 202
54.59281 252
54.61292 230
54.63304 245
54.65315 246
54.67327 299
54.69338 338
54.71349 426
54.73361 435
54.75372 548
54.77383 609
54.79395 769
54.81406 919
54.83417 1050
54.85429 1121
54.8744 1148
54.89452 963
54.91463 829
54.93474 667
54.95486 624
54.97497 595
54.99508 681
55.0152 633
55.03531 558
55.05543 502
55.07554 438
55.09565 298
55.11577 307
55.13588 251
55.15599 302
55.17611 316
55.19622 323
55.21634 377
55.23645 417
55.25656 448
55.27668 522
55.29679 566
55.3169 591
55.33702 550
55.35713 488
55.37724 414
55.39736 369
55.41747 403
55.43759 358
55.4577 361
55.47781 349
55.49793 332
55.51804 285
55.53815 234
55.55827 212
55.57838 177
55.5985 200
55.61861 183
55.63872 199
55.65884 190
55.67895 149
55.69906 170
55.71918 154
55.73929 149
55.75941 179
55.77952 147
55.79963 137
55.81975 141
55.83986 132
55.85997 155
55.88009 142
55.9002 159
55.92031 153
55.94043 148
55.96054 133
55.98066 101
56.00077 146
56.02088 146
56.041 144
56.06111 137
56.08122 160
56.10134 147
56.12145 136
56.14157 140
56.16168 133
56.18179 128
56.20191 125
56.22202 148
56.24213 142
56.26225 151
56.28236 150
56.30248 148
56.32259 147
56.3427 157
56.36282 129
56.38293 147
56.40304 152
56.42316 152
56.44327 142
56.46338 156
56.4835 139
56.50361 129
56.52373 134
56.54384 141
56.56395 149
56.58407 152
56.60418 146
56.62429 139
56.64441 136
56.66452 146
56.68464 175
56.70475 157
56.72486 159
56.74498 125
56.76509 153
56.7852 143
56.80532 152
56.82543 158
56.84554 146
56.86566 153
56.88577 138
56.90589 131
56.926 156
56.94611 141
56.96623 148
56.98634 124
57.00645 145
57.02657 146
57.04668 132
57.0668 165
57.08691 164
57.10702 186
57.12714 156
57.14725 165
57.16736 201
57.18748 201
57.20759 210
57.22771 183
57.24782 196
57.26793 168
57.28805 187
57.30816 155
57.32827 169
57.34839 181
57.3685 156
57.38861 169
57.40873 171
57.42884 167
57.44896 173
57.46907 136
57.48918 149
57.5093 147
57.52941 159
57.54952 144
57.56964 135
57.58975 140
57.60987 137
57.62998 136
57.65009 152
57.67021 141
57.69032 137
57.71043 135
57.73055 124
57.75066 133
57.77078 144
57.79089 152
57.811 144
57.83112 146
57.85123 154
57.87134 153
57.89146 153
57.91157 142
57.93168 158
57.9518 145
57.97191 135
57.99203 153
58.01214 129
58.03225 132
58.05237 153
58.07248 139
58.09259 138
58.11271 150
58.13282 133
58.15294 113
58.17305 132
58.19316 110
58.21328 165
58.23339 122
58.2535 144
58.27362 154
58.29373 139
58.31385 127
58.33396 128
58.35407 140
58.37419 156
58.3943 135
58.41441 162
58.43453 151
58.45464 153
58.47475 141
58.49487 164
58.51498 136
58.5351 154
58.55521 142
58.57532 141
58.59544 159
58.61555 130
58.63566 141
58.65578 151
58.67589 122
58.69601 143
58.71612 158
58.73623 136
58.75635 131
58.77646 133
58.79657 124
58.81669 139
58.8368 127
58.85691 142
58.87703 135
58.89714 137
58.91726 169
58.93737 163
58.95748 142
58.9776 132
58.99771 122
59.01782 161
59.03794 135
59.05805 139
59.07817 148
59.09828 143
59.11839 157
59.13851 137
59.15862 153
59.17873 134
59.19885 132
59.21896 165
59.23908 152
59.25919 162
59.2793 144
59.29942 160
59.31953 135
59.33964 155
59.35976 166
59.37987 182
59.39998 160
59.4201 187
59.44021 195
59.46033 195
59.48044 180
59.50055 159
59.52067 181
59.54078 213
59.56089 214
59.58101 245
59.60112 244
59.62124 273
59.64135 266
59.66146 273
59.68158 312
59.70169 361
59.7218 407
59.74192 431
59.76203 528
59.78215 705
59.80226 804
59.82237 945
59.84249 1088
59.8626 1478
59.88271 1682
59.90283 1980
59.92294 2109
59.94305 2298
59.96317 2269
59.98328 1862
60.0034 1523
60.02351 1214
60.04362 1150
60.06374 1119
60.08385 1215
60.10396 1227
60.12408 1182
60.14419 965
60.16431 746
60.18442 482
60.20453 367
60.22465 308
60.24476 287
60.26487 242
60.28499 199
60.3051 212
60.32522 216
60.34533 178
60.36544 166
60.38556 190
60.40567 163
60.42578 162
60.4459 164
60.46601 156
60.48612 160
60.50624 165
60.52635 161
60.54647 160
60.56658 140
60.58669 149
60.60681 162
60.62692 152
60.64703 143
60.66715 172
60.68726 147
60.70738 159
60.72749 173
60.7476 150
60.76772 131
60.78783 147
60.80794 159
60.82806 145
60.84817 148
60.86828 149
60.8884 119
60.90851 143
60.92863 144
60.94874 149
60.96885 139
60.98897 133
61.00908 137
61.02919 144
61.04931 126
61.06942 139
61.08954 153
61.10965 147
61.12976 143
61.14988 167
61.16999 162
61.1901 132
61.21022 152
61.23033 139
61.25045 144
61.27056 115
61.29067 134
61.31079 164
61.3309 163
61.35101 157
61.37113 143
61.39124 150
61.41135 140
61.43147 146
61.45158 148
61.4717 140
61.49181 133
61.51192 130
61.53204 141
61.55215 132
61.57226 149
61.59238 162
61.61249 130
61.63261 129
61.65272 147
61.67283 143
61.69295 138
61.71306 113
61.73317 136
61.75329 157
61.7734 156
61.79352 139
61.81363 147
61.83374 174
61.85386 160
61.87397 164
61.89408 167
61.9142 166
61.93431 161
61.95442 158
61.97454 129
61.99465 126
62.01477 143
62.03488 143
62.05499 150
62.07511 156
62.09522 150
62.11533 144
62.13545 159
62.15556 149
62.17568 141
62.19579 151
62.2159 156
62.23602 135
62.25613 162
62.27624 171
62.29636 133
62.31647 158
62.33659 160
62.3567 161
62.37681 133
62.39693 165
62.41704 146
62.43715 150
62.45727 149
62.47738 146
62.49749 139
62.51761 146
62.53772 154
62.55784 138
62.57795 130
62.59806 117
62.61818 150
62.63829 133
62.6584 166
62.67852 155
62.69863 161
62.71875 144
62.73886 142
62.75897 144
62.77909 152
62.7992 142
62.81931 154
62.83943 148
62.85954 135
62.87965 164
62.89977 166
62.91988 149
62.94 153
62.96011 152
62.98022 149
63.00034 144
63.02045 137
63.04056 154
63.06068 143
63.08079 148
63.10091 155
63.12102 131
63.14113 128
63.16125 133
63.18136 131
63.20147 141
63.22159 122
63.2417 141
63.26182 156
63.28193 150
63.30204 141
63.32216 154
63.34227 136
63.36238 141
63.3825 146
63.40261 137
63.42272 153
63.44284 141
63.46295 135
63.48307 140
63.50318 130
63.52329 125
63.54341 145
63.56352 139
63.58363 155
63.60375 117
63.62386 131
63.64398 142
63.66409 164
63.6842 159
63.70432 160
63.72443 153
63.74454 176
63.76466 166
63.78477 181
63.80489 169
63.825 196
63.84511 231
63.86523 259
63.88534 246
63.90545 289
63.92557 337
63.94568 363
63.96579 415
63.98591 468
64.00602 525
64.02614 507
64.04625 492
64.06636 417
64.08648 369
64.10659 298
64.1267 289
64.14682 297
64.16693 296
64.18705 346
64.20716 288
64.22727 286
64.24739 273
64.2675 233
64.28761 191
64.30773 184
64.32784 155
64.34796 166
64.36807 159
64.38818 154
64.4083 140
64.42841 156
64.44852 135
64.46864 118
64.48875 120
64.50886 134
64.52898 120
64.54909 145
64.56921 140
64.58932 119
64.60943 129
64.62955 137
64.64966 126
64.66977 138
64.68989 130
64.71 123
64.73012 112
64.75023 145
64.77034 137
64.79046 150
64.81057 144
64.83068 125
64.8508 121
64.87091 130
64.89102 139
64.91114 138
64.93125 111
64.95137 118
64.97148 108
64.99159 124
65.01171 132
65.03182 139
65.05193 125
65.07205 140
65.09216 132
65.11228 147
65.13239 126
65.1525 131
65.17262 145
65.19273 127
65.21284 145
65.23296 133
65.25307 135
65.27319 142
65.2933 143
65.31341 139
65.33353 133
65.35364 156
65.37375 142
65.39387 148
65.41398 158
65.43409 160
65.45421 166
65.47432 147
65.49444 139
65.51455 137
65.53466 125
65.55478 159
65.57489 145
65.595 163
65.61512 145
65.63523 143
65.65535 156
65.67546 201
65.69557 197
65.71569 217
65.7358 229
65.75591 241
65.77603 235
65.79614 233
65.81626 202
65.83637 167
65.85648 170
65.8766 192
65.89671 159
65.91682 173
65.93694 193
65.95705 172
65.97716 160
65.99728 193
66.01739 168
66.03751 148
66.05762 142
66.07773 126
66.09785 152
66.11796 151
66.13807 140
66.15819 122
66.1783 134
66.19842 141
66.21853 133
66.23864 146
66.25876 155
66.27887 146
66.29898 165
66.3191 143
66.33921 137
66.35933 132
66.37944 133
66.39955 132
66.41967 164
66.43978 155
66.45989 148
66.48001 149
66.50012 154
66.52023 145
66.54035 147
66.56046 128
66.58058 154
66.60069 149
66.6208 132
66.64092 144
66.66103 171
66.68114 117
66.70126 127
66.72137 121
66.74149 126
66.7616 134
66.78171 140
66.80183 138
66.82194 159
66.84205 138
66.86217 143
66.88228 139
66.90239 146
66.92251 154
66.94262 141
66.96274 160
66.98285 151
67.00296 142
67.02308 169
67.04319 153
67.0633 155
67.08342 158
67.10353 156
67.12365 162
67.14376 152
67.16387 157
67.18399 160
67.2041 171
67.22421 177
67.24433 180
67.26444 184
67.28456 164
67.30467 167
67.32478 169
67.3449 194
67.36501 195
67.38512 207
67.40524 238
67.42535 256
67.44546 256
67.46558 271
67.48569 308
67.50581 339
67.52592 340
67.54603 401
67.56615 440
67.58626 578
67.60637 602
67.62649 773
67.6466 891
67.66672 987
67.68683 1160
67.70694 1290
67.72706 1306
67.74717 1285
67.76728 1124
67.7874 935
67.80751 780
67.82763 812
67.84774 728
67.86785 810
67.88797 897
67.90808 874
67.92819 973
67.94831 938
67.96842 911
67.98853 898
68.00865 907
68.02876 1022
68.04888 1170
68.06899 1327
68.0891 1442
68.10922 1683
68.12933 1722
68.14944 1790
68.16956 1572
68.18967 1389
68.20979 1287
68.2299 1303
68.25001 1432
68.27013 1610
68.29024 1569
68.31035 1621
68.33047 1510
68.35058 1322
68.3707 973
68.39081 818
68.41092 676
68.43104 643
68.45115 650
68.47126 606
68.49138 615
68.51149 556
68.5316 477
68.55172 393
68.57183 325
68.59195 269
68.61206 232
68.63217 213
68.65229 210
68.6724 194
68.69251 173
68.71263 175
68.73274 156
68.75286 182
68.77297 187
68.79308 150
68.8132 148
68.83331 170
68.85342 150
68.87354 164
68.89365 149
68.91376 154
68.93388 134
68.95399 157
68.97411 155
68.99422 148
69.01433 111
69.03445 131
69.05456 127
69.07467 152
69.09479 158
69.1149 129
69.13502 136
69.15513 155
69.17524 144
69.19536 126
69.21547 143
69.23558 126
69.2557 136
69.27581 143
69.29593 128
69.31604 138
69.33615 116
69.35627 121
69.37638 117
69.39649 128
69.41661 144
69.43672 144
69.45683 132
69.47695 151
69.49706 118
69.51718 163
69.53729 128
69.5574 133
69.57752 132
69.59763 137
69.61774 119
69.63786 120
69.65797 124
69.67809 113
69.6982 118
69.71831 114
69.73843 128
69.75854 125
69.77865 132
69.79877 122
69.81888 133
69.839 123
69.85911 117
69.87922 137
69.89934 142
69.91945 135
69.93956 139
69.95968 118
69.97979 111
69.9999 124
70.02002 120
70.04013 139
70.06025 147
70.08036 128
70.10047 135
70.12059 131
70.1407 117
70.16081 135
70.18093 121
70.20104 121
70.22116 124
70.24127 131
70.26138 136
70.2815 127
70.30161 133
70.32172 134
70.34184 109
70.36195 118
70.38207 137
70.40218 109
70.42229 133
70.44241 136
70.46252 150
70.48263 103
70.50275 132
70.52286 147
70.54297 129
70.56309 122
70.5832 114
70.60332 129
70.62343 125
70.64354 117
70.66366 112
70.68377 104
70.70388 137
70.724 118
70.74411 124
70.76423 124
70.78434 130
70.80445 111
70.82457 119
70.84468 97
70.86479 137
70.88491 121
70.90502 151
70.92513 148
70.94525 118
70.96536 121
70.98548 110
71.00559 121
71.0257 121
71.04582 106
71.06593 111
71.08604 117
71.10616 117
71.12627 118
71.14639 113
71.1665 95
71.18661 113
71.20673 96
71.22684 130
71.24695 86
71.26707 101
71.28718 112
71.3073 121
71.32741 129
71.34752 146
71.36764 118
71.38775 137
71.40786 110
71.42798 130
71.44809 127
71.4682 100
71.48832 118
71.50843 111
71.52855 117
71.54866 110
71.56877 147
71.58889 130
71.609 112
71.62911 114
71.64923 130
71.66934 131
71.68946 135
71.70957 115
71.72968 121
71.7498 139
71.76991 144
71.79002 130
71.81014 132
71.83025 119
71.85037 116
71.87048 134
71.89059 132
71.91071 131
71.93082 116
71.95093 112
71.97105 137
71.99116 117
72.01127 129
72.03139 117
72.0515 122
72.07162 117
72.09173 120
72.11184 138
72.13196 131
72.15207 118
72.17218 133
72.1923 108
72.21241 117
72.23253 124
72.25264 119
72.27275 125
72.29287 110
72.31298 132
72.33309 119
72.35321 119
72.37332 125
72.39344 118
72.41355 122
72.43366 143
72.45378 121
72.47389 131
72.494 119
72.51412 124
72.53423 120
72.55434 136
72.57446 121
72.59457 120
72.61469 113
72.6348 116
72.65491 105
72.67503 107
72.69514 137
72.71525 121
72.73537 119
72.75548 137
72.7756 121
72.79571 119
72.81582 121
72.83594 123
72.85605 131
72.87616 128
72.89628 139
72.91639 130
72.9365 121
72.95662 104
72.97673 120
72.99685 120
73.01696 126
73.03707 138
73.05719 148
73.0773 145
73.09741 156
73.11753 147
73.13764 166
73.15776 160
73.17787 157
73.19798 181
73.2181 191
73.23821 173
73.25832 208
73.27844 217
73.29855 236
73.31867 268
73.33878 315
73.35889 334
73.37901 404
73.39912 433
73.41923 455
73.43935 498
73.45946 503
73.47957 496
73.49969 397
73.5198 326
73.53992 293
73.56003 296
73.58014 265
73.60026 300
73.62037 313
73.64048 349
73.6606 332
73.68071 315
73.70083 249
73.72094 246
73.74105 216
73.76117 184
73.78128 150
73.80139 137
73.82151 141
73.84162 156
73.86174 133
73.88185 124
73.90196 115
73.92208 136
73.94219 131
73.9623 143
73.98242 142
74.00253 114
74.02264 145
74.04276 115
74.06287 112
74.08299 125
74.1031 137
74.12321 108
74.14333 104
74.16344 94
74.18355 122
74.20367 103
74.22378 120
74.2439 110
74.26401 123
74.28412 133
74.30424 123
74.32435 127
74.34446 120
74.36458 105
74.38469 102
74.40481 105
74.42492 101
74.44503 129
74.46515 106
74.48526 109
74.50537 113
74.52549 130
74.5456 116
74.56571 109
74.58583 121
74.60594 119
74.62606 130
74.64617 127
74.66628 113
74.6864 109
74.70651 113
74.72662 134
74.74674 126
74.76685 139
74.78697 138
74.80708 141
74.82719 134
74.84731 137
74.86742 122
74.88753 136
74.90765 126
74.92776 141
74.94787 129
74.96799 119
74.9881 118
75.00822 127
