3.00117 20344
3.02128 19955
3.0414 19030
3.06151 19018
3.08162 18012
3.10174 17853
3.12185 17460
3.14197 16746
3.16208 16051
3.18219 15750
3.20231 15329
3.22242 15008
3.24253 14435
3.26265 14092
3.28276 13448
3.30288 13599
3.32299 13010
3.3431 12522
3.36322 12156
3.38333 11618
3.40344 11462
3.42356 10854
3.44367 10649
3.46379 10550
3.4839 9974
3.50401 9732
3.52413 9683
3.54424 9052
3.56435 8684
3.58447 8426
3.60458 8279
3.62469 8155
3.64481 7500
3.66492 7175
3.68504 7066
3.70515 6949
3.72526 6593
3.74538 6273
3.76549 6310
3.7856 5715
3.80572 5807
3.82583 5543
3.84595 5282
3.86606 5085
3.88617 5006
3.90629 4782
3.9264 4706
3.94651 4455
3.96663 4366
3.98674 3975
4.00686 4077
4.02697 3792
4.04708 3573
4.0672 3639
4.08731 3314
4.10742 3410
4.12754 3350
4.14765 2995
4.16776 3000
4.18788 2811
4.20799 2990
4.22811 2846
4.24822 2617
4.26833 2647
4.28845 2483
4.30856 2544
4.32867 2618
4.34879 2237
4.3689 2278
4.38902 2227
4.40913 2327
4.42924 2258
4.44936 2098
4.46947 2218
4.48958 2120
4.5097 2101
4.52981 2097
4.54992 1924
4.57004 1895
4.59015 1891
4.61027 1862
4.63038 1886
4.65049 1907
4.67061 1802
4.69072 1861
4.71083 1721
4.73095 1838
4.75106 1750
4.77118 1704
4.79129 1772
4.8114 1727
4.83152 1620
4.85163 1623
4.87174 1717
4.89186 1652
4.91197 1614
4.93209 1587
4.9522 1536
4.97231 1536
4.99243 1571
5.01254 1453
5.03265 1455
5.05277 1503
5.07288 1513
5.09299 1482
5.11311 1595
5.13322 1501
5.15334 1395
5.17345 1517
5.19356 1457
5.21368 1388
5.23379 1396
5.2539 1327
5.27402 1285
5.29413 1349
5.31425 1328
5.33436 1269
5.35447 1309
5.37459 1249
5.3947 1310
5.41481 1264
5.43493 1313
5.45504 1332
5.47516 1247
5.49527 1235
5.51538 1246
5.5355 1260
5.55561 1215
5.57572 1206
5.59584 1138
5.61595 1171
5.63606 1162
5.65618 1193
5.67629 1185
5.69641 1216
5.71652 1141
5.73663 1145
5.75675 1161
5.77686 1163
5.79697 1131
5.81709 1108
5.8372 1089
5.85732 1197
5.87743 1106
5.89754 1058
5.91766 1086
5.93777 1036
5.95788 1109
5.978 1070
5.99811 1032
6.01823 1072
6.03834 1059
6.05845 1062
6.07857 1046
6.09868 1111
6.11879 1084
6.13891 1111
6.15902 1109
6.17913 1029
6.19925 1011
6.21936 1047
6.23948 1023
6.25959 1017
6.2797 930
6.29982 969
6.31993 900
6.34004 936
6.36016 897
6.38027 936
6.40039 890
6.4205 893
6.44061 858
6.46073 800
6.48084 796
6.50095 842
6.52107 877
6.54118 816
6.56129 852
6.58141 775
6.60152 806
6.62164 787
6.64175 781
6.66186 752
6.68198 727
6.70209 759
6.7222 736
6.74232 777
6.76243 745
6.78255 725
6.80266 754
6.82277 726
6.84289 708
6.863 702
6.88311 653
6.90323 789
6.92334 713
6.94346 705
6.96357 715
6.98368 633
7.0038 674
7.02391 642
7.04402 691
7.06414 704
7.08425 695
7.10436 690
7.12448 698
7.14459 689
7.16471 587
7.18482 641
7.20493 639
7.22505 659
7.24516 609
7.26527 643
7.28539 628
7.3055 577
7.32562 643
7.34573 606
7.36584 593
7.38596 627
7.40607 585
7.42618 591
7.4463 583
7.46641 529
7.48653 602
7.50664 575
7.52675 603
7.54687 585
7.56698 559
7.58709 598
7.60721 571
7.62732 578
7.64743 567
7.66755 569
7.68766 544
7.70778 550
7.72789 536
7.748 578
7.76812 535
7.78823 522
7.80834 513
7.82846 516
7.84857 519
7.86869 553
7.8888 488
7.90891 530
7.92903 541
7.94914 551
7.96925 533
7.98937 502
8.00948 576
8.0296 529
8.04971 520
8.06982 512
8.08994 514
8.11005 513
8.13016 489
8.15028 508
8.17039 561
8.1905 464
8.21062 545
8.23073 534
8.25085 516
8.27096 552
8.29107 492
8.31119 525
8.3313 578
8.35141 511
8.37153 505
8.39164 552
8.41176 553
8.43187 516
8.45198 483
8.4721 543
8.49221 488
8.51232 479
8.53244 515
8.55255 533
8.57266 496
8.59278 467
8.61289 505
8.63301 507
8.65312 499
8.67323 475
8.69335 463
8.71346 522
8.73357 495
8.75369 522
8.7738 517
8.79392 513
8.81403 506
8.83414 463
8.85426 486
8.87437 512
8.89448 489
8.9146 458
8.93471 476
8.95483 444
8.97494 423
8.99505 475
9.01517 451
9.03528 445
9.05539 413
9.07551 433
9.09562 411
9.11573 473
9.13585 434
9.15596 390
9.17608 407
9.19619 429
9.2163 391
9.23642 412
9.25653 365
9.27664 382
9.29676 414
9.31687 403
9.33699 407
9.3571 402
9.37721 410
9.39733 452
9.41744 413
9.43755 374
9.45767 385
9.47778 421
9.4979 404
9.51801 364
9.53812 396
9.55824 363
9.57835 401
9.59846 401
9.61858 415
9.63869 391
9.6588 381
9.67892 392
9.69903 403
9.71915 412
9.73926 401
9.75937 400
9.77949 396
9.7996 374
9.81971 416
9.83983 390
9.85994 395
9.88006 346
9.90017 371
9.92028 357
9.9404 380
9.96051 390
9.98062 381
10.00074 393
10.02085 390
10.04097 354
10.06108 366
10.08119 393
10.10131 374
10.12142 394
10.14153 385
10.16165 356
10.18176 364
10.20187 384
10.22199 319
10.2421 403
10.26222 380
10.28233 368
10.30244 355
10.32256 368
10.34267 390
10.36278 360
10.3829 393
10.40301 384
10.42313 384
10.44324 380
10.46335 406
10.48347 379
10.50358 402
10.52369 370
10.54381 381
10.56392 357
10.58403 376
10.60415 336
10.62426 342
10.64438 399
10.66449 356
10.6846 342
10.70472 334
10.72483 346
10.74494 339
10.76506 353
10.78517 369
10.80529 370
10.8254 344
10.84551 367
10.86563 393
10.88574 322
10.90585 387
10.92597 352
10.94608 325
10.9662 366
10.98631 375
11.00642 384
11.02654 361
11.04665 341
11.06676 324
11.08688 352
11.10699 366
11.1271 342
11.14722 359
11.16733 352
11.18745 342
11.20756 344
11.22767 361
11.24779 319
11.2679 341
11.28801 312
11.30813 335
11.32824 364
11.34836 359
11.36847 367
11.38858 326
11.4087 342
11.42881 336
11.44892 355
11.46904 345
11.48915 372
11.50927 344
11.52938 336
11.54949 338
11.56961 329
11.58972 332
11.60983 360
11.62995 321
11.65006 307
11.67017 344
11.69029 387
11.7104 328
11.73052 340
11.75063 363
11.77074 330
11.79086 373
11.81097 360
11.83108 324
11.8512 334
11.87131 379
11.89143 359
11.91154 368
11.93165 369
11.95177 375
11.97188 343
11.99199 357
12.01211 358
12.03222 412
12.05234 353
12.07245 366
12.09256 371
12.11268 366
12.13279 386
12.1529 382
12.17302 360
12.19313 398
12.21324 447
12.23336 413
12.25347 412
12.27359 390
12.2937 418
12.31381 461
12.33393 402
12.35404 425
12.37415 420
12.39427 417
12.41438 444
12.4345 437
12.45461 415
12.47472 404
12.49484 405
12.51495 401
12.53506 413
12.55518 388
12.57529 385
12.5954 359
12.61552 336
12.63563 352
12.65575 352
12.67586 336
12.69597 339
12.71609 320
12.7362 360
12.75631 325
12.77643 324
12.79654 319
12.81666 332
12.83677 322
12.85688 286
12.877 332
12.89711 349
12.91722 331
12.93734 325
12.95745 344
12.97757 340
12.99768 351
13.01779 333
13.03791 332
13.05802 348
13.07813 339
13.09825 351
13.11836 311
13.13847 352
13.15859 350
13.1787 318
13.19882 305
13.21893 317
13.23904 326
13.25916 375
13.27927 315
13.29938 317
13.3195 364
13.33961 327
13.35973 342
13.37984 327
13.39995 309
13.42007 326
13.44018 326
13.46029 341
13.48041 305
13.50052 367
13.52064 330
13.54075 342
13.56086 321
13.58098 367
13.60109 342
13.6212 368
13.64132 322
13.66143 334
13.68154 354
13.70166 329
13.72177 365
13.74189 330
13.762 348
13.78211 341
13.80223 349
13.82234 352
13.84245 360
13.86257 372
13.88268 318
13.9028 342
13.92291 390
13.94302 312
13.96314 371
13.98325 336
14.00336 363
14.02348 362
14.04359 291
14.06371 335
14.08382 318
14.10393 335
14.12405 323
14.14416 357
14.16427 341
14.18439 338
14.2045 330
14.22461 324
14.24473 344
14.26484 365
14.28496 329
14.30507 341
14.32518 340
14.3453 339
14.36541 339
14.38552 325
14.40564 362
14.42575 332
14.44587 331
14.46598 317
14.48609 317
14.50621 294
14.52632 375
14.54643 313
14.56655 330
14.58666 315
14.60677 340
14.62689 342
14.647 334
14.66712 332
14.68723 346
14.70734 344
14.72746 341
14.74757 341
14.76768 300
14.7878 334
14.80791 314
14.82803 325
14.84814 327
14.86825 333
14.88837 368
14.90848 334
14.92859 312
14.94871 355
14.96882 334
14.98894 344
15.00905 357
15.02916 301
15.04928 300
15.06939 347
15.0895 322
15.10962 343
15.12973 341
15.14984 352
15.16996 326
15.19007 321
15.21019 349
15.2303 340
15.25041 316
15.27053 303
15.29064 362
15.31075 295
15.33087 331
15.35098 320
15.3711 313
15.39121 351
15.41132 317
15.43144 335
15.45155 314
15.47166 372
15.49178 345
15.51189 375
15.53201 311
15.55212 308
15.57223 353
15.59235 327
15.61246 341
15.63257 311
15.65269 336
15.6728 337
15.69291 345
15.71303 322
15.73314 328
15.75326 325
15.77337 308
15.79348 341
15.8136 360
15.83371 334
15.85382 312
15.87394 350
15.89405 322
15.91417 341
15.93428 328
15.95439 344
15.97451 344
15.99462 307
16.01473 303
16.03485 332
16.05496 312
16.07508 313
16.09519 323
16.1153 321
16.13542 345
16.15553 364
16.17564 321
16.19576 339
16.21587 330
16.23598 300
16.2561 305
16.27621 338
16.29633 343
16.31644 336
16.33655 348
16.35667 375
16.37678 322
16.39689 363
16.41701 357
16.43712 325
16.45724 333
16.47735 336
16.49746 332
16.51758 352
16.53769 357
16.5578 350
16.57792 368
16.59803 314
16.61814 309
16.63826 311
16.65837 353
16.67849 306
16.6986 367
16.71871 359
16.73883 343
16.75894 342
16.77905 335
16.79917 363
16.81928 317
16.8394 357
16.85951 344
16.87962 351
16.89974 360
16.91985 346
16.93996 340
16.96008 359
16.98019 348
17.00031 308
17.02042 310
17.04053 346
17.06065 367
17.08076 335
17.10087 365
17.12099 371
17.1411 370
17.16121 362
17.18133 360
17.20144 355
17.22156 378
17.24167 359
17.26178 366
17.2819 358
17.30201 366
17.32212 335
17.34224 331
17.36235 354
17.38247 374
17.40258 362
17.42269 355
17.44281 374
17.46292 400
17.48303 363
17.50315 344
17.52326 369
17.54338 382
17.56349 362
17.5836 362
17.60372 368
17.62383 363
17.64394 393
17.66406 361
17.68417 386
17.70428 371
17.7244 386
17.74451 402
17.76463 395
17.78474 400
17.80485 341
17.82497 370
17.84508 375
17.86519 429
17.88531 388
17.90542 357
17.92554 395
17.94565 368
17.96576 361
17.98588 407
18.00599 377
18.0261 360
18.04622 369
18.06633 334
18.08645 380
18.10656 327
18.12667 393
18.14679 336
18.1669 337
18.18701 351
18.20713 375
18.22724 358
18.24735 380
18.26747 349
18.28758 390
18.3077 365
18.32781 365
18.34792 391
18.36804 366
18.38815 331
18.40826 384
18.42838 349
18.44849 379
18.46861 388
18.48872 374
18.50883 352
18.52895 355
18.54906 354
18.56917 326
18.58929 370
18.6094 368
18.62951 377
18.64963 373
18.66974 360
18.68986 359
18.70997 375
18.73008 402
18.7502 408
18.77031 361
18.79042 371
18.81054 343
18.83065 370
18.85077 348
18.87088 351
18.89099 395
18.91111 377
18.93122 358
18.95133 404
18.97145 403
18.99156 381
19.01168 402
19.03179 379
19.0519 363
19.07202 396
19.09213 370
19.11224 395
19.13236 397
19.15247 426
19.17258 415
19.1927 442
19.21281 486
19.23293 475
19.25304 541
19.27315 489
19.29327 531
19.31338 497
19.33349 520
19.35361 521
19.37372 582
19.39384 567
19.41395 605
19.43406 628
19.45418 595
19.47429 625
19.4944 616
19.51452 679
19.53463 643
19.55475 707
19.57486 762
19.59497 755
19.61509 827
19.6352 876
19.65531 860
19.67543 885
19.69554 911
19.71565 913
19.73577 880
19.75588 916
19.776 913
19.79611 925
19.81622 877
19.83634 907
19.85645 885
19.87656 881
19.89668 820
19.91679 789
19.93691 794
19.95702 712
19.97713 750
19.99725 737
20.01736 732
20.03747 725
20.05759 681
20.0777 696
20.09782 704
20.11793 679
20.13804 662
20.15816 647
20.17827 692
20.19838 643
20.2185 635
20.23861 634
20.25872 645
20.27884 635
20.29895 616
20.31907 617
20.33918 601
20.35929 570
20.37941 602
20.39952 623
20.41963 641
20.43975 620
20.45986 622
20.47998 611
20.50009 585
20.5202 564
20.54032 565
20.56043 624
20.58054 566
20.60066 564
20.62077 645
20.64088 600
20.661 675
20.68111 727
20.70123 731
20.72134 803
20.74145 865
20.76157 1022
20.78168 1029
20.80179 1138
20.82191 1097
20.84202 1097
20.86214 1036
20.88225 895
20.90236 831
20.92248 680
20.94259 678
20.9627 598
20.98282 571
21.00293 605
21.02305 586
21.04316 565
21.06327 523
21.08339 543
21.1035 573
21.12361 537
21.14373 536
21.16384 568
21.18395 546
21.20407 549
21.22418 551
21.2443 499
21.26441 508
21.28452 504
21.30464 490
21.32475 509
21.34486 486
21.36498 507
21.38509 508
21.40521 497
21.42532 469
21.44543 488
21.46555 525
21.48566 501
21.50577 503
21.52589 522
21.546 495
21.56612 558
21.58623 492
21.60634 511
21.62646 462
21.64657 479
21.66668 452
21.6868 475
21.70691 456
21.72702 470
21.74714 511
21.76725 496
21.78737 502
21.80748 494
21.82759 476
21.84771 503
21.86782 465
21.88793 544
21.90805 546
21.92816 531
21.94828 598
21.96839 572
21.9885 550
22.00862 532
22.02873 509
22.04884 544
22.06896 520
22.08907 513
22.10919 451
22.1293 473
22.14941 498
22.16953 475
22.18964 440
22.20975 509
22.22987 467
22.24998 500
22.27009 445
22.29021 484
22.31032 489
22.33044 470
22.35055 480
22.37066 432
22.39078 497
22.41089 508
22.431 472
22.45112 450
22.47123 479
22.49135 483
22.51146 470
22.53157 468
22.55169 468
22.5718 447
22.59191 488
22.61203 494
22.63214 434
22.65225 426
22.67237 474
22.69248 471
22.7126 479
22.73271 474
22.75282 501
22.77294 480
22.79305 468
22.81316 509
22.83328 520
22.85339 525
22.87351 566
22.89362 517
22.91373 564
22.93385 641
22.95396 597
22.97407 668
22.99419 655
23.0143 702
23.03442 726
23.05453 687
23.07464 635
23.09476 620
23.11487 636
23.13498 571
23.1551 520
23.17521 470
23.19532 510
23.21544 506
23.23555 441
23.25567 485
23.27578 437
23.29589 435
23.31601 480
23.33612 438
23.35623 489
23.37635 456
23.39646 472
23.41658 532
23.43669 499
23.4568 502
23.47692 521
23.49703 506
23.51714 559
23.53726 506
23.55737 491
23.57749 515
23.5976 512
23.61771 545
23.63783 524
23.65794 504
23.67805 518
23.69817 470
23.71828 523
23.73839 535
23.75851 507
23.77862 493
23.79874 507
23.81885 539
23.83896 508
23.85908 469
23.87919 451
23.8993 478
23.91942 505
23.93953 499
23.95965 495
23.97976 500
23.99987 483
24.01999 513
24.0401 469
24.06021 445
24.08033 530
24.10044 531
24.12056 469
24.14067 539
24.16078 492
24.1809 452
24.20101 502
24.22112 506
24.24124 469
24.26135 488
24.28146 493
24.30158 495
24.32169 464
24.34181 470
24.36192 488
24.38203 472
24.40215 458
24.42226 505
24.44237 448
24.46249 460
24.4826 435
24.50272 500
24.52283 490
24.54294 455
24.56306 496
24.58317 505
24.60328 482
24.6234 471
24.64351 439
24.66362 473
24.68374 499
24.70385 506
24.72397 487
24.74408 504
24.76419 502
24.78431 474
24.80442 491
24.82453 456
24.84465 491
24.86476 504
24.88488 499
24.90499 505
24.9251 515
24.94522 504
24.96533 499
24.98544 516
25.00556 496
25.02567 541
25.04579 492
25.0659 506
25.08601 532
25.10613 499
25.12624 539
25.14635 516
25.16647 489
25.18658 508
25.20669 507
25.22681 528
25.24692 564
25.26704 541
25.28715 506
25.30726 522
25.32738 593
25.34749 557
25.3676 546
25.38772 550
25.40783 542
25.42795 557
25.44806 516
25.46817 510
25.48829 521
25.5084 502
25.52851 526
25.54863 571
25.56874 526
25.58886 531
25.60897 528
25.62908 517
25.6492 538
25.66931 493
25.68942 476
25.70954 501
25.72965 529
25.74976 516
25.76988 497
25.78999 503
25.81011 472
25.83022 494
25.85033 525
25.87045 473
25.89056 494
25.91067 484
25.93079 506
25.9509 492
25.97102 498
25.99113 477
26.01124 518
26.03136 504
26.05147 511
26.07158 512
26.0917 498
26.11181 525
26.13193 570
26.15204 537
26.17215 550
26.19227 563
26.21238 613
26.23249 578
26.25261 605
26.27272 628
26.29283 608
26.31295 682
26.33306 673
26.35318 729
26.37329 779
26.3934 857
26.41352 1004
26.43363 1192
26.45374 1309
26.47386 1617
26.49397 1972
26.51409 2360
26.5342 2907
26.55431 3139
26.57443 3424
26.59454 3429
26.61465 3092
26.63477 2782
26.65488 2363
26.67499 1915
26.69511 1487
26.71522 1135
26.73534 963
26.75545 842
26.77556 705
26.79568 641
26.81579 629
26.8359 664
26.85602 610
26.87613 592
26.89625 593
26.91636 599
26.93647 590
26.95659 583
26.9767 571
26.99681 562
27.01693 576
27.03704 546
27.05716 566
27.07727 555
27.09738 568
27.1175 570
27.13761 552
27.15772 519
27.17784 539
27.19795 555
27.21806 546
27.23818 562
27.25829 576
27.27841 531
27.29852 531
27.31863 529
27.33875 590
27.35886 579
27.37897 588
27.39909 609
27.4192 608
27.43932 597
27.45943 622
27.47954 576
27.49966 601
27.51977 612
27.53988 548
27.56 586
27.58011 556
27.60023 578
27.62034 610
27.64045 609
27.66057 647
27.68068 651
27.70079 664
27.72091 658
27.74102 638
27.76113 625
27.78125 619
27.80136 676
27.82148 659
27.84159 649
27.8617 674
27.88182 652
27.90193 657
27.92204 648
27.94216 554
27.96227 630
27.98239 587
28.0025 563
28.02261 577
28.04273 522
28.06284 521
28.08295 531
28.10307 550
28.12318 499
28.1433 547
28.16341 535
28.18352 489
28.20364 493
28.22375 521
28.24386 510
28.26398 509
28.28409 514
28.3042 453
28.32432 508
28.34443 523
28.36455 488
28.38466 508
28.40477 484
28.42489 476
28.445 511
28.46511 526
28.48523 489
28.50534 500
28.52546 491
28.54557 478
28.56568 502
28.5858 505
28.60591 531
28.62602 491
28.64614 484
28.66625 479
28.68636 459
28.70648 511
28.72659 476
28.74671 499
28.76682 503
28.78693 500
28.80705 515
28.82716 511
28.84727 500
28.86739 485
28.8875 456
28.90762 517
28.92773 533
28.94784 463
28.96796 536
28.98807 528
29.00818 517
29.0283 515
29.04841 552
29.06853 575
29.08864 534
29.10875 590
29.12887 635
29.14898 644
29.16909 752
29.18921 821
29.20932 820
29.22943 1030
29.24955 1248
29.26966 1448
29.28978 1652
29.30989 1946
29.33 2253
29.35012 2604
29.37023 2765
29.39034 2618
29.41046 2560
29.43057 2365
29.45069 1984
29.4708 1751
29.49091 1507
29.51103 1180
29.53114 1003
29.55125 824
29.57137 734
29.59148 659
29.6116 679
29.63171 671
29.65182 614
29.67194 594
29.69205 539
29.71216 581
29.73228 581
29.75239 581
29.7725 595
29.79262 548
29.81273 547
29.83285 532
29.85296 526
29.87307 506
29.89319 448
29.9133 485
29.93341 510
29.95353 509
29.97364 486
29.99376 475
30.01387 481
30.03398 508
30.0541 497
30.07421 524
30.09432 481
30.11444 480
30.13455 475
30.15467 470
30.17478 506
30.19489 478
30.21501 448
30.23512 451
30.25523 450
30.27535 508
30.29546 447
30.31557 481
30.33569 471
30.3558 499
30.37592 511
30.39603 478
30.41614 412
30.43626 475
30.45637 450
30.47648 462
30.4966 464
30.51671 461
30.53683 437
30.55694 458
30.57705 454
30.59717 452
30.61728 442
30.63739 479
30.65751 481
30.67762 498
30.69773 501
30.71785 467
30.73796 456
30.75808 471
30.77819 463
30.7983 461
30.81842 427
30.83853 465
30.85864 482
30.87876 434
30.89887 435
30.91899 468
30.9391 463
30.95921 411
30.97933 455
30.99944 448
31.01955 441
31.03967 459
31.05978 429
31.0799 483
31.10001 431
31.12012 466
31.14024 434
31.16035 453
31.18046 401
31.20058 468
31.22069 445
31.2408 445
31.26092 455
31.28103 452
31.30115 402
31.32126 493
31.34137 494
31.36149 457
31.3816 464
31.40171 450
31.42183 471
31.44194 452
31.46206 487
31.48217 493
31.50228 477
31.5224 452
31.54251 467
31.56262 437
31.58274 418
31.60285 415
31.62297 398
31.64308 432
31.66319 384
31.68331 407
31.70342 410
31.72353 377
31.74365 410
31.76376 399
31.78387 398
31.80399 402
31.8241 429
31.84422 442
31.86433 411
31.88444 443
31.90456 436
31.92467 417
31.94478 405
31.9649 423
31.98501 398
32.00513 406
32.02524 406
32.04535 409
32.06547 406
32.08558 389
32.10569 381
32.12581 386
32.14592 427
32.16604 407
32.18615 358
32.20626 373
32.22638 381
32.24649 390
32.2666 414
32.28672 400
32.30683 410
32.32694 342
32.34706 398
32.36717 421
32.38729 415
32.4074 446
32.42751 439
32.44763 438
32.46774 392
32.48785 398
32.50797 411
32.52808 386
32.5482 424
32.56831 438
32.58842 403
32.60854 381
32.62865 395
32.64876 420
32.66888 398
32.68899 416
32.7091 397
32.72922 394
32.74933 410
32.76945 371
32.78956 382
32.80967 358
32.82979 409
32.8499 379
32.87001 395
32.89013 372
32.91024 418
32.93036 383
32.95047 430
32.97058 440
32.9907 449
33.01081 436
33.03092 422
33.05104 437
33.07115 441
33.09127 394
33.11138 446
33.13149 401
33.15161 435
33.17172 465
33.19183 381
33.21195 446
33.23206 388
33.25217 429
33.27229 406
33.2924 409
33.31252 386
33.33263 432
33.35274 371
33.37286 362
33.39297 397
33.41308 388
33.4332 371
33.45331 411
33.47343 436
33.49354 398
33.51365 429
33.53377 393
33.55388 434
33.57399 372
33.59411 398
33.61422 418
33.63434 397
33.65445 414
33.67456 430
33.69468 419
33.71479 427
33.7349 396
33.75502 419
33.77513 423
33.79524 420
33.81536 407
33.83547 391
33.85559 399
33.8757 429
33.89581 442
33.91593 440
33.93604 418
33.95615 448
33.97627 424
33.99638 422
34.0165 467
34.03661 464
34.05672 471
34.07684 456
34.09695 477
34.11706 451
34.13718 483
34.15729 443
34.17741 499
34.19752 478
34.21763 482
34.23775 496
34.25786 565
34.27797 558
34.29809 543
34.3182 536
34.33831 573
34.35843 596
34.37854 630
34.39866 638
34.41877 600
34.43888 653
34.459 609
34.47911 649
34.49922 611
34.51934 705
34.53945 702
34.55957 642
34.57968 677
34.59979 667
34.61991 694
34.64002 666
34.66013 644
34.68025 663
34.70036 688
34.72047 711
34.74059 696
34.7607 667
34.78082 739
34.80093 747
34.82104 703
34.84116 754
34.86127 677
34.88138 787
34.9015 702
34.92161 716
34.94173 689
34.96184 710
34.98195 708
35.00207 714
35.02218 702
35.04229 675
35.06241 629
35.08252 659
35.10264 634
35.12275 634
35.14286 636
35.16298 626
35.18309 605
35.2032 627
35.22332 579
35.24343 592
35.26354 632
35.28366 567
35.30377 599
35.32389 514
35.344 585
35.36411 551
35.38423 534
35.40434 627
35.42445 582
35.44457 576
35.46468 579
35.4848 531
35.50491 557
35.52502 558
35.54514 532
35.56525 534
35.58536 525
35.60548 557
35.62559 561
35.64571 540
35.66582 556
35.68593 529
35.70605 525
35.72616 533
35.74627 600
35.76639 571
35.7865 591
35.80661 561
35.82673 656
35.84684 619
35.86696 733
35.88707 700
35.90718 734
35.9273 756
35.94741 804
35.96752 819
35.98764 747
36.00775 763
36.02787 727
36.04798 665
36.06809 657
36.08821 615
36.10832 558
36.12843 577
36.14855 505
36.16866 507
36.18878 522
36.20889 500
36.229 504
36.24912 513
36.26923 511
36.28934 581
36.30946 518
36.32957 546
36.34968 564
36.3698 625
36.38991 652
36.41003 675
36.43014 652
36.45025 722
36.47037 686
36.49048 726
36.51059 640
36.53071 647
36.55082 677
36.57094 633
36.59105 651
36.61116 616
36.63128 556
36.65139 558
36.6715 537
36.69162 519
36.71173 539
36.73184 526
36.75196 547
36.77207 493
36.79219 516
36.8123 534
36.83241 532
36.85253 530
36.87264 530
36.89275 494
36.91287 502
36.93298 532
36.9531 517
36.97321 495
36.99332 518
37.01344 509
37.03355 501
37.05366 509
37.07378 471
37.09389 488
37.11401 487
37.13412 476
37.15423 500
37.17435 466
37.19446 492
37.21457 525
37.23469 472
37.2548 511
37.27491 490
37.29503 526
37.31514 500
37.33526 512
37.35537 476
37.37548 523
37.3956 516
37.41571 490
37.43582 468
37.45594 467
37.47605 484
37.49617 544
37.51628 495
37.53639 504
37.55651 498
37.57662 482
37.59673 503
37.61685 483
37.63696 500
37.65708 518
37.67719 478
37.6973 505
37.71742 459
37.73753 535
37.75764 469
37.77776 491
37.79787 514
37.81798 459
37.8381 474
37.85821 412
37.87833 462
37.89844 409
37.91855 445
37.93867 452
37.95878 458
37.97889 433
37.99901 432
38.01912 400
38.03924 434
38.05935 414
38.07946 434
38.09958 418
38.11969 429
38.1398 446
38.15992 413
38.18003 382
38.20015 414
38.22026 447
38.24037 447
38.26049 428
38.2806 420
38.30071 397
38.32083 411
38.34094 425
38.36105 429
38.38117 412
38.40128 439
38.4214 454
38.44151 389
38.46162 416
38.48174 414
38.50185 394
38.52196 400
38.54208 388
38.56219 409
38.58231 418
38.60242 430
38.62253 409
38.64265 430
38.66276 402
38.68287 399
38.70299 411
38.7231 405
38.74321 400
38.76333 415
38.78344 459
38.80356 434
38.82367 365
38.84378 432
38.8639 411
38.88401 414
38.90412 442
38.92424 408
38.94435 393
38.96447 418
38.98458 446
39.00469 439
39.02481 390
39.04492 432
39.06503 456
39.08515 445
39.10526 441
39.12538 466
39.14549 460
39.1656 484
39.18572 496
39.20583 544
39.22594 525
39.24606 589
39.26617 590
39.28628 667
39.3064 782
39.32651 818
39.34663 844
39.36674 927
39.38685 927
39.40697 982
39.42708 910
39.44719 916
39.46731 820
39.48742 767
39.50754 670
39.52765 666
39.54776 578
39.56788 550
39.58799 502
39.6081 542
39.62822 448
39.64833 493
39.66845 488
39.68856 458
39.70867 472
39.72879 489
39.7489 442
39.76901 437
39.78913 453
39.80924 452
39.82935 448
39.84947 419
39.86958 470
39.8897 428
39.90981 436
39.92992 449
39.95004 454
39.97015 469
39.99026 451
40.01038 436
40.03049 403
40.05061 410
40.07072 441
40.09083 462
40.11095 462
40.13106 499
40.15117 487
40.17129 500
40.1914 491
40.21152 515
40.23163 511
40.25174 464
40.27186 500
40.29197 480
40.31208 480
40.3322 473
40.35231 470
40.37242 412
40.39254 401
40.41265 434
40.43277 431
40.45288 413
40.47299 431
40.49311 472
40.51322 406
40.53333 387
40.55345 419
40.57356 396
40.59368 414
40.61379 377
40.6339 394
40.65402 412
40.67413 397
40.69424 428
40.71436 405
40.73447 442
40.75458 415
40.7747 442
40.79481 442
40.81493 415
40.83504 442
40.85515 406
40.87527 369
40.89538 404
40.91549 431
40.93561 439
40.95572 396
40.97584 424
40.99595 383
41.01606 424
41.03618 413
41.05629 450
41.0764 408
41.09652 411
41.11663 446
41.13675 388
41.15686 417
41.17697 392
41.19709 409
41.2172 373
41.23731 419
41.25743 384
41.27754 419
41.29765 452
41.31777 397
41.33788 384
41.358 371
41.37811 425
41.39822 418
41.41834 392
41.43845 405
41.45856 387
41.47868 430
41.49879 413
41.51891 436
41.53902 399
41.55913 425
41.57925 450
41.59936 418
41.61947 430
41.63959 410
41.6597 442
41.67982 451
41.69993 404
41.72004 427
41.74016 423
41.76027 382
41.78038 415
41.8005 413
41.82061 366
41.84072 429
41.86084 407
41.88095 371
41.90107 414
41.92118 398
41.94129 359
41.96141 433
41.98152 374
42.00163 418
42.02175 391
42.04186 391
42.06198 414
42.08209 382
42.1022 388
42.12232 365
42.14243 427
42.16254 421
42.18266 428
42.20277 372
42.22289 439
42.243 426
42.26311 440
42.28323 449
42.30334 467
42.32345 485
42.34357 493
42.36368 518
42.38379 516
42.40391 455
42.42402 491
42.44414 501
42.46425 487
42.48436 474
42.50448 467
42.52459 414
42.5447 417
42.56482 444
42.58493 419
42.60505 407
42.62516 357
42.64527 380
42.66539 400
42.6855 416
42.70561 414
42.72573 401
42.74584 361
42.76595 393
42.78607 403
42.80618 402
42.8263 395
42.84641 438
42.86652 407
42.88664 399
42.90675 390
42.92686 408
42.94698 416
42.96709 493
42.98721 469
43.00732 540
43.02743 541
43.04755 532
43.06766 559
43.08777 700
43.10789 674
43.128 717
43.14812 647
43.16823 645
43.18834 690
43.20846 686
43.22857 569
43.24868 576
43.2688 577
43.28891 548
43.30902 512
43.32914 492
43.34925 466
43.36937 404
43.38948 417
43.40959 439
43.42971 417
43.44982 363
43.46993 410
43.49005 385
43.51016 383
43.53028 387
43.55039 380
43.5705 388
43.59062 372
43.61073 381
43.63084 362
43.65096 389
43.67107 381
43.69119 367
43.7113 353
43.73141 375
43.75153 409
43.77164 399
43.79175 341
43.81187 371
43.83198 374
43.85209 358
43.87221 387
43.89232 318
43.91244 380
43.93255 395
43.95266 372
43.97278 391
43.99289 353
44.013 373
44.03312 360
44.05323 364
44.07335 373
44.09346 370
44.11357 354
44.13369 425
44.1538 396
44.17391 379
44.19403 356
44.21414 362
44.23426 373
44.25437 363
44.27448 343
44.2946 355
44.31471 343
44.33482 344
44.35494 361
44.37505 399
44.39516 384
44.41528 369
44.43539 372
44.45551 384
44.47562 369
44.49573 330
44.51585 399
44.53596 384
44.55607 379
44.57619 334
44.5963 378
44.61642 397
44.63653 365
44.65664 379
44.67676 387
44.69687 370
44.71698 370
44.7371 366
44.75721 367
44.77732 348
44.79744 341
44.81755 393
44.83767 409
44.85778 349
44.87789 343
44.89801 383
44.91812 356
44.93823 375
44.95835 411
44.97846 375
44.99858 397
45.01869 414
45.0388 358
45.05892 359
45.07903 403
45.09914 375
45.11926 406
45.13937 380
45.15949 388
45.1796 399
45.19971 375
45.21983 401
45.23994 410
45.26005 399
45.28017 363
45.30028 404
45.32039 363
45.34051 397
45.36062 367
45.38074 406
45.40085 401
45.42096 346
45.44108 389
45.46119 398
45.4813 381
45.50142 390
45.52153 450
45.54165 405
45.56176 383
45.58187 357
45.60199 383
45.6221 400
45.64221 453
45.66233 438
45.68244 445
45.70256 484
45.72267 487
45.74278 481
45.7629 451
45.78301 419
45.80312 405
45.82324 385
45.84335 404
45.86346 403
45.88358 425
45.90369 399
45.92381 364
45.94392 355
45.96403 361
45.98415 381
46.00426 344
46.02437 360
46.04449 400
46.0646 348
46.08472 348
46.10483 366
46.12494 336
46.14506 351
46.16517 351
46.18528 343
46.2054 363
46.22551 380
46.24563 379
46.26574 365
46.28585 343
46.30597 394
46.32608 370
46.34619 374
46.36631 339
46.38642 351
46.40653 323
46.42665 360
46.44676 349
46.46688 312
46.48699 351
46.5071 357
46.52722 343
46.54733 349
46.56744 331
46.58756 352
46.60767 359
46.62779 362
46.6479 341
46.66801 351
46.68813 339
46.70824 321
46.72835 350
46.74847 320
46.76858 367
46.78869 376
46.80881 357
46.82892 388
46.84904 394
46.86915 352
46.88926 390
46.90938 402
46.92949 382
46.9496 412
46.96972 408
46.98983 445
47.00995 401
47.03006 408
47.05017 425
47.07029 447
47.0904 502
47.11051 459
47.13063 475
47.15074 468
47.17086 482
47.19097 496
47.21108 446
47.2312 471
47.25131 449
47.27142 410
47.29154 441
47.31165 450
47.33176 498
47.35188 462
47.37199 521
47.39211 560
47.41222 597
47.43233 602
47.45245 683
47.47256 660
47.49267 699
47.51279 605
47.5329 709
47.55302 650
47.57313 592
47.59324 605
47.61336 523
47.63347 517
47.65358 478
47.6737 461
47.69381 478
47.71393 421
47.73404 427
47.75415 379
47.77427 391
47.79438 399
47.81449 385
47.83461 413
47.85472 389
47.87483 383
47.89495 337
47.91506 400
47.93518 425
47.95529 372
47.9754 347
47.99552 357
48.01563 357
48.03574 377
48.05586 388
48.07597 353
48.09609 349
48.1162 368
48.13631 388
48.15643 373
48.17654 377
48.19665 403
48.21677 406
48.23688 424
48.257 420
48.27711 415
48.29722 502
48.31734 464
48.33745 497
48.35756 481
48.37768 510
48.39779 539
48.4179 615
48.43802 600
48.45813 641
48.47825 664
48.49836 663
48.51847 682
48.53859 653
48.5587 627
48.57881 613
48.59893 567
48.61904 570
48.63916 532
48.65927 471
48.67938 443
48.6995 442
48.71961 424
48.73972 388
48.75984 369
48.77995 400
48.80006 383
48.82018 386
48.84029 384
48.86041 404
48.88052 374
48.90063 346
48.92075 391
48.94086 366
48.96097 332
48.98109 352
49.0012 353
49.02132 365
49.04143 348
49.06154 350
49.08166 351
49.10177 307
49.12188 343
49.142 359
49.16211 297
49.18223 329
49.20234 376
49.22245 372
49.24257 353
49.26268 365
49.28279 331
49.30291 376
49.32302 353
49.34313 333
49.36325 359
49.38336 356
49.40348 352
49.42359 321
49.4437 343
49.46382 327
49.48393 338
49.50404 326
49.52416 348
49.54427 320
49.56439 353
49.5845 373
49.60461 326
49.62473 367
49.64484 332
49.66495 361
49.68507 331
49.70518 340
49.7253 345
49.74541 358
49.76552 364
49.78564 376
49.80575 353
49.82586 373
49.84598 401
49.86609 379
49.8862 412
49.90632 423
49.92643 405
49.94655 483
49.96666 520
49.98677 508
50.00689 531
50.027 550
50.04711 582
50.06723 566
50.08734 520
50.10746 592
50.12757 526
50.14768 498
50.1678 433
50.18791 500
50.20802 494
50.22814 425
50.24825 378
50.26837 381
50.28848 355
50.30859 398
50.32871 362
50.34882 325
50.36893 319
50.38905 359
50.40916 331
50.42927 312
50.44939 356
50.4695 324
50.48962 377
50.50973 354
50.52984 297
50.54996 331
50.57007 315
50.59018 313
50.6103 347
50.63041 345
50.65053 314
50.67064 359
50.69075 361
50.71087 311
50.73098 360
50.75109 363
50.77121 331
50.79132 326
50.81143 307
50.83155 352
50.85166 329
50.87178 316
50.89189 334
50.912 321
50.93212 305
50.95223 320
50.97234 322
50.99246 331
51.01257 332
51.03269 318
51.0528 322
51.07291 342
51.09303 303
51.11314 324
51.13325 317
51.15337 297
51.17348 339
51.1936 331
51.21371 307
51.23382 314
51.25394 316
51.27405 317
51.29416 334
51.31428 292
51.33439 289
51.3545 300
51.37462 314
51.39473 316
51.41485 360
51.43496 343
51.45507 323
51.47519 346
51.4953 308
51.51541 324
51.53553 305
51.55564 319
51.57576 305
51.59587 324
51.61598 308
51.6361 303
51.65621 324
51.67632 331
51.69644 312
51.71655 300
51.73667 298
51.75678 321
51.77689 331
51.79701 329
51.81712 304
51.83723 333
51.85735 330
51.87746 318
51.89757 328
51.91769 329
51.9378 306
51.95792 310
51.97803 311
51.99814 346
52.01826 304
52.03837 307
52.05848 338
52.0786 351
52.09871 317
52.11883 314
52.13894 329
52.15905 320
52.17917 292
52.19928 314
52.21939 350
52.23951 313
52.25962 301
52.27974 319
52.29985 335
52.31996 313
52.34008 321
52.36019 305
52.3803 318
52.40042 315
52.42053 304
52.44064 338
52.46076 300
52.48087 329
52.50099 337
52.5211 329
52.54121 304
52.56133 335
52.58144 335
52.60155 347
52.62167 339
52.64178 331
52.6619 343
52.68201 356
52.70212 320
52.72224 342
52.74235 318
52.76246 370
52.78258 342
52.80269 369
52.8228 345
52.84292 355
52.86303 346
52.88315 361
52.90326 366
52.92337 367
52.94349 323
52.9636 372
52.98371 337
53.00383 329
53.02394 342
53.04406 347
53.06417 355
53.08428 328
53.1044 372
53.12451 346
53.14462 351
53.16474 351
53.18485 361
53.20497 379
53.22508 331
53.24519 356
53.26531 361
53.28542 387
53.30553 384
53.32565 387
53.34576 367
53.36587 364
53.38599 393
53.4061 367
53.42622 398
53.44633 369
53.46644 392
53.48656 385
53.50667 384
53.52678 378
53.5469 377
53.56701 383
53.58713 417
53.60724 388
53.62735 392
53.64747 379
53.66758 367
53.68769 394
53.70781 441
53.72792 381
53.74804 393
53.76815 373
53.78826 415
53.80838 439
53.82849 401
53.8486 367
53.86872 395
53.88883 398
53.90894 379
53.92906 419
53.94917 389
53.96929 383
53.9894 411
54.00951 382
54.02963 393
54.04974 371
54.06985 403
54.08997 377
54.11008 385
54.1302 436
54.15031 425
54.17042 397
54.19054 393
54.21065 413
54.23076 433
54.25088 437
54.27099 370
54.29111 358
54.31122 386
54.33133 376
54.35145 417
54.37156 425
54.39167 381
54.41179 394
54.4319 393
54.45201 357
54.47213 406
54.49224 382
54.51236 388
54.53247 395
54.55258 371
54.5727 417
54.59281 415
54.61292 400
54.63304 404
54.65315 400
54.67327 441
54.69338 413
54.71349 378
54.73361 452
54.75372 443
54.77383 449
54.79395 436
54.81406 481
54.83417 501
54.85429 441
54.8744 423
54.89452 411
54.91463 446
54.93474 422
54.95486 434
54.97497 432
54.99508 414
55.0152 409
55.03531 424
55.05543 432
55.07554 405
55.09565 418
55.11577 415
55.13588 424
55.15599 389
55.17611 394
55.19622 407
55.21634 427
55.23645 429
55.25656 391
55.27668 427
55.29679 402
55.3169 444
55.33702 391
55.35713 405
55.37724 359
55.39736 381
55.41747 383
55.43759 385
55.4577 414
55.47781 378
55.49793 395
55.51804 398
55.53815 376
55.55827 361
55.57838 356
55.5985 393
55.61861 347
55.63872 379
55.65884 340
55.67895 379
55.69906 396
55.71918 367
55.73929 380
55.75941 360
55.77952 391
55.79963 387
55.81975 385
55.83986 404
55.85997 362
55.88009 371
55.9002 382
55.92031 406
55.94043 379
55.96054 392
55.98066 391
56.00077 384
56.02088 380
56.041 359
56.06111 353
56.08122 373
56.10134 388
56.12145 378
56.14157 366
56.16168 364
56.18179 383
56.20191 419
56.22202 329
56.24213 364
56.26225 326
56.28236 375
56.30248 374
56.32259 413
56.3427 363
56.36282 373
56.38293 381
56.40304 370
56.42316 385
56.44327 426
56.46338 417
56.4835 409
56.50361 409
56.52373 396
56.54384 389
56.56395 444
56.58407 438
56.60418 433
56.62429 409
56.64441 424
56.66452 434
56.68464 416
56.70475 390
56.72486 394
56.74498 368
56.76509 350
56.7852 358
56.80532 356
56.82543 363
56.84554 372
56.86566 349
56.88577 351
56.90589 349
56.926 362
56.94611 350
56.96623 396
56.98634 359
57.00645 382
57.02657 349
57.04668 327
57.0668 370
57.08691 344
57.10702 354
57.12714 376
57.14725 389
57.16736 387
57.18748 358
57.20759 362
57.22771 417
57.24782 390
57.26793 424
57.28805 426
57.30816 433
57.32827 454
57.34839 489
57.3685 500
57.38861 476
57.40873 506
57.42884 483
57.44896 448
57.46907 451
57.48918 513
57.5093 422
57.52941 414
57.54952 430
57.56964 417
57.58975 415
57.60987 393
57.62998 388
57.65009 374
57.67021 352
57.69032 365
57.71043 339
57.73055 371
57.75066 355
57.77078 331
57.79089 357
57.811 345
57.83112 346
57.85123 333
57.87134 333
57.89146 316
57.91157 336
57.93168 368
57.9518 341
57.97191 388
57.99203 347
58.01214 423
58.03225 340
58.05237 365
58.07248 376
58.09259 357
58.11271 348
58.13282 329
58.15294 368
58.17305 356
58.19316 359
58.21328 332
58.23339 333
58.2535 323
58.27362 334
58.29373 343
58.31385 349
58.33396 349
58.35407 332
58.37419 355
58.3943 360
58.41441 330
58.43453 340
58.45464 344
58.47475 326
58.49487 341
58.51498 304
58.5351 378
58.55521 354
58.57532 354
58.59544 352
58.61555 352
58.63566 318
58.65578 351
58.67589 338
58.69601 321
58.71612 341
58.73623 343
58.75635 337
58.77646 316
58.79657 309
58.81669 370
58.8368 375
58.85691 379
58.87703 320
58.89714 354
58.91726 340
58.93737 330
58.95748 342
58.9776 322
58.99771 341
59.01782 305
59.03794 327
59.05805 349
59.07817 360
59.09828 353
59.11839 341
59.13851 329
59.15862 335
59.17873 330
59.19885 336
59.21896 361
59.23908 388
59.25919 341
59.2793 343
59.29942 342
59.31953 307
59.33964 335
59.35976 356
59.37987 333
59.39998 305
59.4201 359
59.44021 339
59.46033 353
59.48044 358
59.50055 355
59.52067 347
59.54078 337
59.56089 364
59.58101 379
59.60112 358
59.62124 385
59.64135 379
59.66146 370
59.68158 384
59.70169 411
59.7218 417
59.74192 455
59.76203 455
59.78215 475
59.80226 458
59.82237 505
59.84249 490
59.8626 513
59.88271 508
59.90283 482
59.92294 508
59.94305 510
59.96317 502
59.98328 504
60.0034 419
60.02351 477
60.04362 476
60.06374 468
60.08385 435
60.10396 385
60.12408 392
60.14419 416
60.16431 382
60.18442 392
60.20453 387
60.22465 413
60.24476 371
60.26487 365
60.28499 359
60.3051 348
60.32522 365
60.34533 371
60.36544 415
60.38556 399
60.40567 413
60.42578 358
60.4459 358
60.46601 382
60.48612 383
60.50624 381
60.52635 409
60.54647 399
60.56658 407
60.58669 462
60.60681 444
60.62692 429
60.64703 452
60.66715 465
60.68726 414
60.70738 424
60.72749 443
60.7476 440
60.76772 434
60.78783 384
60.80794 438
60.82806 430
60.84817 424
60.86828 438
60.8884 418
60.90851 441
60.92863 433
60.94874 430
60.96885 447
60.98897 442
61.00908 436
61.02919 431
61.04931 427
61.06942 450
61.08954 479
61.10965 450
61.12976 467
61.14988 445
61.16999 465
61.1901 450
61.21022 445
61.23033 445
61.25045 459
61.27056 464
61.29067 475
61.31079 470
61.3309 483
61.35101 507
61.37113 515
61.39124 529
61.41135 499
61.43147 530
61.45158 477
61.4717 499
61.49181 541
61.51192 496
61.53204 515
61.55215 514
61.57226 502
61.59238 504
61.61249 494
61.63261 507
61.65272 502
61.67283 489
61.69295 483
61.71306 468
61.73317 485
61.75329 481
61.7734 492
61.79352 445
61.81363 441
61.83374 466
61.85386 449
61.87397 455
61.89408 443
61.9142 475
61.93431 431
61.95442 387
61.97454 439
61.99465 409
62.01477 417
62.03488 417
62.05499 413
62.07511 420
62.09522 381
62.11533 423
62.13545 400
62.15556 402
62.17568 402
62.19579 388
62.2159 414
62.23602 361
62.25613 374
62.27624 400
62.29636 395
62.31647 392
62.33659 435
62.3567 381
62.37681 384
62.39693 390
62.41704 336
62.43715 393
62.45727 360
62.47738 378
62.49749 372
62.51761 347
62.53772 380
62.55784 346
62.57795 359
62.59806 328
62.61818 383
62.63829 359
62.6584 350
62.67852 342
62.69863 364
62.71875 329
62.73886 348
62.75897 351
62.77909 362
62.7992 344
62.81931 337
62.83943 332
62.85954 336
62.87965 344
62.89977 365
62.91988 349
62.94 349
62.96011 342
62.98022 368
63.00034 404
63.02045 365
63.04056 335
63.06068 348
63.08079 367
63.10091 342
63.12102 341
63.14113 351
63.16125 369
63.18136 325
63.20147 363
63.22159 360
63.2417 351
63.26182 348
63.28193 337
63.30204 359
63.32216 324
63.34227 337
63.36238 308
63.3825 331
63.40261 342
63.42272 316
63.44284 305
63.46295 322
63.48307 308
63.50318 330
63.52329 309
63.54341 330
63.56352 352
63.58363 342
63.60375 335
63.62386 354
63.64398 324
63.66409 328
63.6842 351
63.70432 331
63.72443 355
63.74454 300
63.76466 329
63.78477 349
63.80489 349
63.825 381
63.84511 377
63.86523 348
63.88534 347
63.90545 346
63.92557 346
63.94568 368
63.96579 354
63.98591 342
64.00602 391
64.02614 361
64.04625 351
64.06636 344
64.08648 346
64.10659 377
64.1267 350
64.14682 361
64.16693 334
64.18705 362
64.20716 305
64.22727 306
64.24739 346
64.2675 343
64.28761 303
64.30773 325
64.32784 299
64.34796 328
64.36807 311
64.38818 324
64.4083 332
64.42841 318
64.44852 323
64.46864 364
64.48875 367
64.50886 344
64.52898 351
64.54909 347
64.56921 358
64.58932 388
64.60943 402
64.62955 401
64.64966 376
64.66977 408
64.68989 429
64.71 413
64.73012 416
64.75023 388
64.77034 396
64.79046 372
64.81057 394
64.83068 359
64.8508 389
64.87091 393
64.89102 321
64.91114 348
64.93125 369
64.95137 314
64.97148 311
64.99159 335
65.01171 330
65.03182 325
65.05193 353
65.07205 327
65.09216 343
65.11228 287
65.13239 347
65.1525 348
65.17262 315
65.19273 320
65.21284 323
65.23296 329
65.25307 302
65.27319 326
65.2933 313
65.31341 336
65.33353 331
65.35364 309
65.37375 325
65.39387 323
65.41398 336
65.43409 343
65.45421 340
65.47432 353
65.49444 344
65.51455 373
65.53466 357
65.55478 335
65.57489 351
65.595 372
65.61512 377
65.63523 373
65.65535 368
65.67546 343
65.69557 350
65.71569 365
65.7358 374
65.75591 368
65.77603 365
65.79614 341
65.81626 320
65.83637 345
65.85648 342
65.8766 380
65.89671 338
65.91682 331
65.93694 316
65.95705 314
65.97716 333
65.99728 300
66.01739 318
66.03751 291
66.05762 325
66.07773 311
66.09785 320
66.11796 325
66.13807 287
66.15819 321
66.1783 327
66.19842 303
66.21853 292
66.23864 304
66.25876 296
66.27887 307
66.29898 323
66.3191 306
66.33921 322
66.35933 309
66.37944 352
66.39955 267
66.41967 321
66.43978 290
66.45989 321
66.48001 300
66.50012 295
66.52023 314
66.54035 297
66.56046 294
66.58058 316
66.60069 333
66.6208 317
66.64092 307
66.66103 313
66.68114 302
66.70126 323
66.72137 317
66.74149 303
66.7616 315
66.78171 287
66.80183 304
66.82194 306
66.84205 294
66.86217 296
66.88228 320
66.90239 319
66.92251 328
66.94262 317
66.96274 317
66.98285 304
67.00296 289
67.02308 349
67.04319 318
67.0633 333
67.08342 334
67.10353 330
67.12365 303
67.14376 301
67.16387 343
67.18399 293
67.2041 347
67.22421 279
67.24433 316
67.26444 342
67.28456 310
67.30467 343
67.32478 290
67.3449 320
67.36501 323
67.38512 337
67.40524 332
67.42535 341
67.44546 348
67.46558 389
67.48569 347
67.50581 350
67.52592 373
67.54603 337
67.56615 368
67.58626 405
67.60637 394
67.62649 431
67.6466 454
67.66672 410
67.68683 428
67.70694 348
67.72706 393
67.74717 368
67.76728 390
67.7874 359
67.80751 365
67.82763 364
67.84774 402
67.86785 398
67.88797 455
67.90808 398
67.92819 375
67.94831 404
67.96842 396
67.98853 419
68.00865 399
68.02876 405
68.04888 428
68.06899 467
68.0891 478
68.10922 479
68.12933 455
68.14944 442
68.16956 434
68.18967 476
68.20979 463
68.2299 427
68.25001 410
68.27013 414
68.29024 422
68.31035 385
68.33047 377
68.35058 373
68.3707 371
68.39081 374
68.41092 349
68.43104 344
68.45115 331
68.47126 378
68.49138 333
68.51149 353
68.5316 355
68.55172 304
68.57183 342
68.59195 324
68.61206 314
68.63217 352
68.65229 289
68.6724 326
68.69251 299
68.71263 302
68.73274 307
68.75286 285
68.77297 308
68.79308 346
68.8132 314
68.83331 331
68.85342 308
68.87354 323
68.89365 298
68.91376 307
68.93388 305
68.95399 323
68.97411 319
68.99422 329
69.01433 316
69.03445 334
69.05456 317
69.07467 345
69.09479 307
69.1149 329
69.13502 333
69.15513 315
69.17524 344
69.19536 338
69.21547 355
69.23558 300
69.2557 367
69.27581 352
69.29593 327
69.31604 332
69.33615 338
69.35627 342
69.37638 317
69.39649 337
69.41661 322
69.43672 376
69.45683 347
69.47695 328
69.49706 344
69.51718 335
69.53729 329
69.5574 338
69.57752 302
69.59763 286
69.61774 305
69.63786 306
69.65797 305
69.67809 341
69.6982 318
69.71831 309
69.73843 336
69.75854 348
69.77865 303
69.79877 308
69.81888 323
69.839 300
69.85911 352
69.87922 287
69.89934 307
69.91945 333
69.93956 330
69.95968 334
69.97979 320
69.9999 325
70.02002 349
70.04013 308
70.06025 335
70.08036 305
70.10047 334
70.12059 333
70.1407 342
70.16081 323
70.18093 316
70.20104 334
70.22116 365
70.24127 350
70.26138 307
70.2815 324
70.30161 323
70.32172 331
70.34184 377
70.36195 361
70.38207 292
70.40218 315
70.42229 324
70.44241 326
70.46252 336
70.48263 305
70.50275 323
70.52286 316
70.54297 336
70.56309 330
70.5832 309
70.60332 323
70.62343 329
70.64354 334
70.66366 321
70.68377 348
70.70388 306
70.724 334
70.74411 338
70.76423 310
70.78434 320
70.80445 286
70.82457 318
70.84468 314
70.86479 314
70.88491 292
70.90502 307
70.92513 331
70.94525 336
70.96536 305
70.98548 322
71.00559 329
71.0257 282
71.04582 308
71.06593 294
71.08604 306
71.10616 350
71.12627 293
71.14639 299
71.1665 304
71.18661 311
71.20673 341
71.22684 305
71.24695 275
71.26707 334
71.28718 334
71.3073 341
71.32741 289
71.34752 315
71.36764 348
71.38775 306
71.40786 291
71.42798 337
71.44809 323
71.4682 298
71.48832 336
71.50843 300
71.52855 327
71.54866 326
71.56877 319
71.58889 306
71.609 348
71.62911 333
71.64923 322
71.66934 334
71.68946 316
71.70957 333
71.72968 318
71.7498 315
71.76991 330
71.79002 321
71.81014 336
71.83025 312
71.85037 354
71.87048 321
71.89059 325
71.91071 326
71.93082 372
71.95093 331
71.97105 325
71.99116 371
72.01127 325
72.03139 347
72.0515 318
72.07162 332
72.09173 344
72.11184 348
72.13196 335
72.15207 315
72.17218 385
72.1923 312
72.21241 361
72.23253 353
72.25264 316
72.27275 342
72.29287 347
72.31298 387
72.33309 386
72.35321 321
72.37332 373
72.39344 360
72.41355 348
72.43366 385
72.45378 364
72.47389 383
72.494 345
72.51412 347
72.53423 353
72.55434 359
72.57446 361
72.59457 360
72.61469 393
72.6348 367
72.65491 358
72.67503 374
72.69514 372
72.71525 360
72.73537 344
72.75548 413
72.7756 391
72.79571 390
72.81582 378
72.83594 374
72.85605 382
72.87616 394
72.89628 355
72.91639 390
72.9365 414
72.95662 423
72.97673 395
72.99685 377
73.01696 373
73.03707 393
73.05719 391
73.0773 342
73.09741 393
73.11753 377
73.13764 375
73.15776 402
73.17787 396
73.19798 368
73.2181 381
73.23821 400
73.25832 369
73.27844 399
73.29855 375
73.31867 366
73.33878 380
73.35889 384
73.37901 368
73.39912 369
73.41923 376
73.43935 370
73.45946 389
73.47957 380
73.49969 345
73.5198 353
73.53992 351
73.56003 359
73.58014 367
73.60026 354
73.62037 351
73.64048 354
73.6606 373
73.68071 345
73.70083 334
73.72094 349
73.74105 325
73.76117 343
73.78128 309
73.80139 329
73.82151 346
73.84162 318
73.86174 305
73.88185 333
73.90196 345
73.92208 335
73.94219 340
73.9623 345
73.98242 295
74.00253 325
74.02264 334
74.04276 336
74.06287 321
74.08299 309
74.1031 336
74.12321 350
74.14333 319
74.16344 321
74.18355 325
74.20367 309
74.22378 340
74.2439 345
74.26401 369
74.28412 327
74.30424 333
74.32435 342
74.34446 304
74.36458 309
74.38469 313
74.40481 341
74.42492 324
74.44503 336
74.46515 316
74.48526 334
74.50537 314
74.52549 314
74.5456 331
74.56571 277
74.58583 322
74.60594 320
74.62606 332
74.64617 305
74.66628 314
74.6864 303
74.70651 332
74.72662 306
74.74674 323
74.76685 311
74.78697 322
74.80708 328
74.82719 328
74.84731 352
74.86742 329
74.88753 330
74.90765 298
74.92776 320
74.94787 327
74.96799 312
74.9881 327
75.00822 338
