3.00117 22212
3.02128 21945
3.0414 21181
3.06151 20666
3.08162 20103
3.10174 19382
3.12185 19449
3.14197 18309
3.16208 18032
3.18219 17685
3.20231 16774
3.22242 16341
3.24253 15941
3.26265 15461
3.28276 15095
3.30288 14365
3.32299 14033
3.3431 13360
3.36322 13296
3.38333 13114
3.40344 12122
3.42356 12210
3.44367 11506
3.46379 11041
3.4839 10851
3.50401 10055
3.52413 10144
3.54424 9721
3.56435 9396
3.58447 9007
3.60458 8510
3.62469 8465
3.64481 7759
3.66492 7882
3.68504 7457
3.70515 6948
3.72526 6799
3.74538 6480
3.76549 6485
3.7856 6178
3.80572 5681
3.82583 5702
3.84595 5383
3.86606 5102
3.88617 5063
3.90629 4686
3.9264 4520
3.94651 4307
3.96663 4181
3.98674 3943
4.00686 3603
4.02697 3607
4.04708 3414
4.0672 3445
4.08731 3417
4.10742 2969
4.12754 2957
4.14765 2817
4.16776 2798
4.18788 2745
4.20799 2424
4.22811 2490
4.24822 2306
4.26833 2376
4.28845 2392
4.30856 2051
4.32867 2014
4.34879 2080
4.3689 1981
4.38902 2072
4.40913 1837
4.42924 1789
4.44936 1783
4.46947 1763
4.48958 1794
4.5097 1661
4.52981 1541
4.54992 1594
4.57004 1585
4.59015 1583
4.61027 1378
4.63038 1394
4.65049 1485
4.67061 1364
4.69072 1485
4.71083 1283
4.73095 1294
4.75106 1278
4.77118 1298
4.79129 1308
4.8114 1127
4.83152 1141
4.85163 1086
4.87174 1116
4.89186 1158
4.91197 1069
4.93209 1078
4.9522 1066
4.97231 1096
4.99243 1046
5.01254 978
5.03265 979
5.05277 1062
5.07288 905
5.09299 937
5.11311 886
5.13322 867
5.15334 897
5.17345 844
5.19356 881
5.21368 829
5.23379 792
5.2539 858
5.27402 820
5.29413 807
5.31425 782
5.33436 713
5.35447 731
5.37459 767
5.3947 703
5.41481 674
5.43493 702
5.45504 718
5.47516 662
5.49527 631
5.51538 701
5.5355 674
5.55561 622
5.57572 632
5.59584 619
5.61595 573
5.63606 599
5.65618 593
5.67629 588
5.69641 566
5.71652 566
5.73663 557
5.75675 547
5.77686 599
5.79697 581
5.81709 553
5.8372 504
5.85732 505
5.87743 567
5.89754 527
5.91766 494
5.93777 465
5.95788 507
5.978 519
5.99811 514
6.01823 442
6.03834 512
6.05845 461
6.07857 526
6.09868 463
6.11879 482
6.13891 465
6.15902 482
6.17913 452
6.19925 459
6.21936 474
6.23948 462
6.25959 470
6.2797 465
6.29982 447
6.31993 450
6.34004 469
6.36016 445
6.38027 468
6.40039 430
6.4205 436
6.44061 444
6.46073 430
6.48084 443
6.50095 411
6.52107 419
6.54118 416
6.56129 430
6.58141 427
6.60152 433
6.62164 451
6.64175 391
6.66186 437
6.68198 429
6.70209 422
6.7222 394
6.74232 410
6.76243 406
6.78255 373
6.80266 406
6.82277 386
6.84289 407
6.863 382
6.88311 394
6.90323 408
6.92334 392
6.94346 387
6.96357 371
6.98368 432
7.0038 407
7.02391 377
7.04402 419
7.06414 390
7.08425 388
7.10436 401
7.12448 372
7.14459 381
7.16471 385
7.18482 410
7.20493 390
7.22505 366
7.24516 381
7.26527 378
7.28539 386
7.3055 414
7.32562 374
7.34573 353
7.36584 374
7.38596 376
7.40607 392
7.42618 390
7.4463 379
7.46641 390
7.48653 339
7.50664 390
7.52675 406
7.54687 364
7.56698 356
7.58709 358
7.60721 370
7.62732 387
7.64743 388
7.66755 359
7.68766 363
7.70778 367
7.72789 442
7.748 357
7.76812 358
7.78823 437
7.80834 367
7.82846 338
7.84857 395
7.86869 352
7.8888 369
7.90891 338
7.92903 357
7.94914 365
7.96925 321
7.98937 378
8.00948 371
8.0296 338
8.04971 369
8.06982 342
8.08994 411
8.11005 325
8.13016 344
8.15028 379
8.17039 370
8.1905 351
8.21062 337
8.23073 366
8.25085 325
8.27096 361
8.29107 346
8.31119 332
8.3313 350
8.35141 355
8.37153 327
8.39164 393
8.41176 367
8.43187 373
8.45198 347
8.4721 368
8.49221 352
8.51232 376
8.53244 333
8.55255 343
8.57266 336
8.59278 346
8.61289 389
8.63301 369
8.65312 344
8.67323 355
8.69335 332
8.71346 341
8.73357 343
8.75369 380
8.7738 319
8.79392 371
8.81403 374
8.83414 379
8.85426 345
8.87437 370
8.89448 354
8.9146 387
8.93471 388
8.95483 372
8.97494 331
8.99505 329
9.01517 341
9.03528 315
9.05539 368
9.07551 339
9.09562 324
9.11573 331
9.13585 342
9.15596 323
9.17608 310
9.19619 314
9.2163 344
9.23642 313
9.25653 311
9.27664 339
9.29676 341
9.31687 335
9.33699 352
9.3571 337
9.37721 339
9.39733 324
9.41744 327
9.43755 344
9.45767 344
9.47778 325
9.4979 307
9.51801 312
9.53812 343
9.55824 334
9.57835 333
9.59846 353
9.61858 367
9.63869 354
9.6588 340
9.67892 344
9.69903 301
9.71915 336
9.73926 332
9.75937 329
9.77949 331
9.7996 297
9.81971 323
9.83983 358
9.85994 312
9.88006 351
9.90017 333
9.92028 331
9.9404 325
9.96051 351
9.98062 305
10.00074 355
10.02085 334
10.04097 310
10.06108 325
10.08119 317
10.10131 336
10.12142 339
10.14153 352
10.16165 313
10.18176 314
10.20187 369
10.22199 344
10.2421 318
10.26222 298
10.28233 337
10.30244 315
10.32256 333
10.34267 325
10.36278 292
10.3829 297
10.40301 357
10.42313 313
10.44324 335
10.46335 330
10.48347 330
10.50358 314
10.52369 359
10.54381 359
10.56392 392
10.58403 375
10.60415 286
10.62426 325
10.64438 353
10.66449 321
10.6846 305
10.70472 330
10.72483 324
10.74494 304
10.76506 325
10.78517 331
10.80529 309
10.8254 377
10.84551 309
10.86563 335
10.88574 302
10.90585 305
10.92597 342
10.94608 310
10.9662 328
10.98631 334
11.00642 337
11.02654 335
11.04665 286
11.06676 331
11.08688 350
11.10699 327
11.1271 332
11.14722 309
11.16733 339
11.18745 401
11.20756 331
11.22767 337
11.24779 324
11.2679 343
11.28801 344
11.30813 362
11.32824 363
11.34836 353
11.36847 332
11.38858 366
11.4087 376
11.42881 365
11.44892 349
11.46904 368
11.48915 357
11.50927 348
11.52938 336
11.54949 334
11.56961 366
11.58972 377
11.60983 363
11.62995 357
11.65006 397
11.67017 357
11.69029 348
11.7104 363
11.73052 363
11.75063 382
11.77074 390
11.79086 380
11.81097 406
11.83108 361
11.8512 404
11.87131 388
11.89143 410
11.91154 435
11.93165 408
11.95177 416
11.97188 442
11.99199 480
12.01211 450
12.03222 492
12.05234 486
12.07245 482
12.09256 529
12.11268 586
12.13279 598
12.1529 606
12.17302 632
12.19313 711
12.21324 688
12.23336 732
12.25347 791
12.27359 784
12.2937 806
12.31381 773
12.33393 780
12.35404 774
12.37415 759
12.39427 747
12.41438 658
12.4345 633
12.45461 608
12.47472 511
12.49484 492
12.51495 484
12.53506 482
12.55518 476
12.57529 431
12.5954 439
12.61552 416
12.63563 415
12.65575 404
12.67586 386
12.69597 343
12.71609 351
12.7362 371
12.75631 378
12.77643 380
12.79654 375
12.81666 330
12.83677 311
12.85688 323
12.877 317
12.89711 336
12.91722 347
12.93734 327
12.95745 300
12.97757 344
12.99768 325
13.01779 299
13.03791 324
13.05802 331
13.07813 332
13.09825 335
13.11836 317
13.13847 329
13.15859 314
13.1787 312
13.19882 340
13.21893 327
13.23904 293
13.25916 313
13.27927 303
13.29938 310
13.3195 332
13.33961 322
13.35973 307
13.37984 284
13.39995 347
13.42007 307
13.44018 325
13.46029 298
13.48041 317
13.50052 312
13.52064 356
13.54075 341
13.56086 330
13.58098 383
13.60109 346
13.6212 329
13.64132 322
13.66143 328
13.68154 335
13.70166 325
13.72177 332
13.74189 348
13.762 294
13.78211 328
13.80223 340
13.82234 327
13.84245 314
13.86257 331
13.88268 315
13.9028 320
13.92291 280
13.94302 296
13.96314 304
13.98325 327
14.00336 349
14.02348 331
14.04359 321
14.06371 305
14.08382 304
14.10393 288
14.12405 284
14.14416 305
14.16427 319
14.18439 286
14.2045 274
14.22461 298
14.24473 304
14.26484 314
14.28496 288
14.30507 309
14.32518 321
14.3453 300
14.36541 299
14.38552 309
14.40564 292
14.42575 309
14.44587 328
14.46598 336
14.48609 305
14.50621 296
14.52632 270
14.54643 322
14.56655 329
14.58666 288
14.60677 305
14.62689 310
14.647 282
14.66712 273
14.68723 306
14.70734 318
14.72746 303
14.74757 293
14.76768 307
14.7878 301
14.80791 335
14.82803 301
14.84814 284
14.86825 306
14.88837 287
14.90848 330
14.92859 313
14.94871 322
14.96882 292
14.98894 349
15.00905 291
15.02916 333
15.04928 314
15.06939 329
15.0895 303
15.10962 282
15.12973 323
15.14984 304
15.16996 321
15.19007 312
15.21019 309
15.2303 314
15.25041 303
15.27053 291
15.29064 313
15.31075 322
15.33087 320
15.35098 291
15.3711 293
15.39121 349
15.41132 287
15.43144 303
15.45155 311
15.47166 306
15.49178 324
15.51189 345
15.53201 299
15.55212 303
15.57223 313
15.59235 331
15.61246 298
15.63257 325
15.65269 312
15.6728 284
15.69291 335
15.71303 306
15.73314 299
15.75326 333
15.77337 315
15.79348 315
15.8136 301
15.83371 362
15.85382 299
15.87394 339
15.89405 295
15.91417 323
15.93428 311
15.95439 288
15.97451 324
15.99462 342
16.01473 287
16.03485 335
16.05496 285
16.07508 291
16.09519 301
16.1153 359
16.13542 332
16.15553 307
16.17564 294
16.19576 323
16.21587 328
16.23598 301
16.2561 326
16.27621 278
16.29633 309
16.31644 348
16.33655 309
16.35667 331
16.37678 318
16.39689 290
16.41701 334
16.43712 304
16.45724 300
16.47735 337
16.49746 303
16.51758 363
16.53769 329
16.5578 311
16.57792 339
16.59803 355
16.61814 313
16.63826 309
16.65837 362
16.67849 328
16.6986 316
16.71871 316
16.73883 338
16.75894 330
16.77905 339
16.79917 331
16.81928 355
16.8394 351
16.85951 312
16.87962 339
16.89974 381
16.91985 351
16.93996 356
16.96008 343
16.98019 344
17.00031 333
17.02042 331
17.04053 383
17.06065 328
17.08076 336
17.10087 340
17.12099 355
17.1411 346
17.16121 312
17.18133 358
17.20144 363
17.22156 371
17.24167 339
17.26178 384
17.2819 324
17.30201 328
17.32212 367
17.34224 352
17.36235 368
17.38247 334
17.40258 365
17.42269 358
17.44281 353
17.46292 397
17.48303 378
17.50315 370
17.52326 366
17.54338 384
17.56349 363
17.5836 359
17.60372 366
17.62383 332
17.64394 387
17.66406 382
17.68417 359
17.70428 388
17.7244 371
17.74451 388
17.76463 385
17.78474 358
17.80485 357
17.82497 352
17.84508 405
17.86519 388
17.88531 341
17.90542 374
17.92554 382
17.94565 380
17.96576 355
17.98588 382
18.00599 391
18.0261 392
18.04622 387
18.06633 366
18.08645 399
18.10656 380
18.12667 338
18.14679 359
18.1669 389
18.18701 372
18.20713 382
18.22724 414
18.24735 339
18.26747 404
18.28758 401
18.3077 463
18.32781 390
18.34792 389
18.36804 377
18.38815 388
18.40826 414
18.42838 392
18.44849 421
18.46861 440
18.48872 437
18.50883 404
18.52895 399
18.54906 398
18.56917 401
18.58929 393
18.6094 388
18.62951 403
18.64963 420
18.66974 412
18.68986 418
18.70997 399
18.73008 421
18.7502 417
18.77031 427
18.79042 407
18.81054 410
18.83065 411
18.85077 435
18.87088 394
18.89099 388
18.91111 442
18.93122 414
18.95133 398
18.97145 429
18.99156 455
19.01168 429
19.03179 437
19.0519 429
19.07202 454
19.09213 441
19.11224 459
19.13236 442
19.15247 461
19.17258 428
19.1927 446
19.21281 458
19.23293 462
19.25304 490
19.27315 473
19.29327 470
19.31338 452
19.33349 487
19.35361 457
19.37372 478
19.39384 484
19.41395 504
19.43406 493
19.45418 494
19.47429 511
19.4944 485
19.51452 526
19.53463 577
19.55475 557
19.57486 559
19.59497 586
19.61509 587
19.6352 644
19.65531 608
19.67543 710
19.69554 730
19.71565 744
19.73577 767
19.75588 845
19.776 803
19.79611 874
19.81622 876
19.83634 884
19.85645 843
19.87656 908
19.89668 881
19.91679 820
19.93691 833
19.95702 850
19.97713 857
19.99725 853
20.01736 817
20.03747 803
20.05759 801
20.0777 789
20.09782 811
20.11793 860
20.13804 816
20.15816 764
20.17827 828
20.19838 765
20.2185 813
20.23861 847
20.25872 806
20.27884 849
20.29895 867
20.31907 878
20.33918 847
20.35929 839
20.37941 897
20.39952 888
20.41963 831
20.43975 897
20.45986 924
20.47998 868
20.50009 980
20.5202 965
20.54032 952
20.56043 1061
20.58054 1042
20.60066 1101
20.62077 1145
20.64088 1293
20.661 1521
20.68111 1701
20.70123 1996
20.72134 2435
20.74145 2968
20.76157 3354
20.78168 3885
20.80179 4005
20.82191 4161
20.84202 3813
20.86214 3477
20.88225 2954
20.90236 2381
20.92248 1831
20.94259 1413
20.9627 1295
20.98282 1178
21.00293 1139
21.02305 1048
21.04316 960
21.06327 944
21.08339 910
21.1035 930
21.12361 853
21.14373 794
21.16384 810
21.18395 790
21.20407 774
21.22418 761
21.2443 817
21.26441 748
21.28452 758
21.30464 753
21.32475 791
21.34486 764
21.36498 747
21.38509 759
21.40521 764
21.42532 748
21.44543 728
21.46555 749
21.48566 722
21.50577 743
21.52589 746
21.546 701
21.56612 699
21.58623 728
21.60634 714
21.62646 689
21.64657 658
21.66668 735
21.6868 740
21.70691 712
21.72702 696
21.74714 670
21.76725 671
21.78737 676
21.80748 648
21.82759 676
21.84771 714
21.86782 672
21.88793 761
21.90805 674
21.92816 679
21.94828 668
21.96839 694
21.9885 740
22.00862 704
22.02873 668
22.04884 717
22.06896 653
22.08907 647
22.10919 686
22.1293 665
22.14941 709
22.16953 638
22.18964 721
22.20975 730
22.22987 647
22.24998 653
22.27009 731
22.29021 710
22.31032 633
22.33044 668
22.35055 655
22.37066 706
22.39078 634
22.41089 656
22.431 582
22.45112 595
22.47123 607
22.49135 623
22.51146 653
22.53157 619
22.55169 621
22.5718 648
22.59191 636
22.61203 650
22.63214 683
22.65225 663
22.67237 602
22.69248 631
22.7126 621
22.73271 633
22.75282 647
22.77294 629
22.79305 626
22.81316 642
22.83328 688
22.85339 646
22.87351 637
22.89362 633
22.91373 638
22.93385 615
22.95396 699
22.97407 630
22.99419 585
23.0143 640
23.03442 609
23.05453 635
23.07464 639
23.09476 649
23.11487 650
23.13498 643
23.1551 652
23.17521 681
23.19532 677
23.21544 636
23.23555 613
23.25567 620
23.27578 597
23.29589 563
23.31601 601
23.33612 616
23.35623 581
23.37635 552
23.39646 586
23.41658 602
23.43669 556
23.4568 599
23.47692 574
23.49703 582
23.51714 608
23.53726 571
23.55737 596
23.57749 588
23.5976 599
23.61771 646
23.63783 586
23.65794 645
23.67805 571
23.69817 604
23.71828 594
23.73839 558
23.75851 609
23.77862 577
23.79874 613
23.81885 612
23.83896 615
23.85908 648
23.87919 652
23.8993 652
23.91942 623
23.93953 687
23.95965 660
23.97976 635
23.99987 631
24.01999 628
24.0401 613
24.06021 637
24.08033 600
24.10044 606
24.12056 626
24.14067 538
24.16078 616
24.1809 606
24.20101 597
24.22112 599
24.24124 581
24.26135 616
24.28146 589
24.30158 606
24.32169 627
24.34181 635
24.36192 626
24.38203 633
24.40215 632
24.42226 608
24.44237 650
24.46249 564
24.4826 631
24.50272 628
24.52283 635
24.54294 639
24.56306 697
24.58317 654
24.60328 721
24.6234 738
24.64351 745
24.66362 701
24.68374 771
24.70385 818
24.72397 827
24.74408 817
24.76419 789
24.78431 828
24.80442 853
24.82453 953
24.84465 847
24.86476 829
24.88488 887
24.90499 853
24.9251 774
24.94522 751
24.96533 778
24.98544 753
25.00556 721
25.02567 698
25.04579 693
25.0659 678
25.08601 686
25.10613 693
25.12624 686
25.14635 668
25.16647 660
25.18658 699
25.20669 701
25.22681 714
25.24692 698
25.26704 669
25.28715 653
25.30726 661
25.32738 654
25.34749 598
25.3676 612
25.38772 687
25.40783 680
25.42795 679
25.44806 611
25.46817 647
25.48829 633
25.5084 643
25.52851 659
25.54863 607
25.56874 694
25.58886 658
25.60897 702
25.62908 682
25.6492 681
25.66931 667
25.68942 654
25.70954 661
25.72965 680
25.74976 679
25.76988 672
25.78999 654
25.81011 677
25.83022 640
25.85033 623
25.87045 669
25.89056 652
25.91067 703
25.93079 656
25.9509 688
25.97102 687
25.99113 737
26.01124 759
26.03136 769
26.05147 766
26.07158 776
26.0917 785
26.11181 826
26.13193 883
26.15204 941
26.17215 956
26.19227 1037
26.21238 1136
26.23249 1194
26.25261 1214
26.27272 1354
26.29283 1575
26.31295 1765
26.33306 2015
26.35318 2224
26.37329 2672
26.3934 3231
26.41352 3950
26.43363 4842
26.45374 5837
26.47386 7309
26.49397 9269
26.51409 11309
26.5342 13428
26.55431 15238
26.57443 16119
26.59454 16439
26.61465 15603
26.63477 13544
26.65488 11212
26.67499 8676
26.69511 6347
26.71522 4485
26.73534 3084
26.75545 2304
26.77556 1778
26.79568 1527
26.81579 1382
26.8359 1276
26.85602 1112
26.87613 1027
26.89625 980
26.91636 1021
26.93647 993
26.95659 899
26.9767 918
26.99681 891
27.01693 855
27.03704 807
27.05716 781
27.07727 764
27.09738 713
27.1175 706
27.13761 692
27.15772 725
27.17784 694
27.19795 687
27.21806 668
27.23818 660
27.25829 636
27.27841 764
27.29852 774
27.31863 815
27.33875 836
27.35886 870
27.37897 829
27.39909 838
27.4192 815
27.43932 789
27.45943 693
27.47954 695
27.49966 674
27.51977 641
27.53988 577
27.56 548
27.58011 579
27.60023 540
27.62034 543
27.64045 512
27.66057 508
27.68068 474
27.70079 548
27.72091 542
27.74102 438
27.76113 495
27.78125 502
27.80136 521
27.82148 485
27.84159 534
27.8617 499
27.88182 503
27.90193 471
27.92204 491
27.94216 457
27.96227 482
27.98239 477
28.0025 461
28.02261 460
28.04273 434
28.06284 443
28.08295 450
28.10307 458
28.12318 450
28.1433 458
28.16341 434
28.18352 434
28.20364 434
28.22375 407
28.24386 405
28.26398 408
28.28409 416
28.3042 444
28.32432 467
28.34443 429
28.36455 394
28.38466 449
28.40477 420
28.42489 388
28.445 436
28.46511 403
28.48523 431
28.50534 441
28.52546 433
28.54557 347
28.56568 364
28.5858 420
28.60591 377
28.62602 407
28.64614 378
28.66625 463
28.68636 402
28.70648 405
28.72659 397
28.74671 430
28.76682 410
28.78693 411
28.80705 393
28.82716 418
28.84727 409
28.86739 359
28.8875 358
28.90762 386
28.92773 426
28.94784 393
28.96796 434
28.98807 386
29.00818 415
29.0283 374
29.04841 398
29.06853 361
29.08864 428
29.10875 413
29.12887 406
29.14898 360
29.16909 389
29.18921 365
29.20932 371
29.22943 386
29.24955 398
29.26966 401
29.28978 411
29.30989 429
29.33 418
29.35012 406
29.37023 406
29.39034 382
29.41046 408
29.43057 415
29.45069 382
29.4708 380
29.49091 379
29.51103 371
29.53114 369
29.55125 377
29.57137 388
29.59148 414
29.6116 383
29.63171 381
29.65182 386
29.67194 393
29.69205 363
29.71216 354
29.73228 365
29.75239 385
29.7725 379
29.79262 374
29.81273 389
29.83285 397
29.85296 389
29.87307 340
29.89319 383
29.9133 383
29.93341 380
29.95353 374
29.97364 384
29.99376 390
30.01387 394
30.03398 358
30.0541 391
30.07421 417
30.09432 375
30.11444 401
30.13455 397
30.15467 385
30.17478 409
30.19489 411
30.21501 403
30.23512 399
30.25523 368
30.27535 385
30.29546 404
30.31557 380
30.33569 386
30.3558 335
30.37592 322
30.39603 385
30.41614 364
30.43626 383
30.45637 381
30.47648 351
30.4966 320
30.51671 354
30.53683 374
30.55694 384
30.57705 346
30.59717 358
30.61728 341
30.63739 394
30.65751 418
30.67762 370
30.69773 356
30.71785 362
30.73796 382
30.75808 381
30.77819 390
30.7983 370
30.81842 382
30.83853 371
30.85864 377
30.87876 354
30.89887 333
30.91899 394
30.9391 339
30.95921 352
30.97933 348
30.99944 347
31.01955 354
31.03967 308
31.05978 339
31.0799 372
31.10001 317
31.12012 339
31.14024 322
31.16035 320
31.18046 352
31.20058 356
31.22069 312
31.2408 356
31.26092 332
31.28103 343
31.30115 332
31.32126 388
31.34137 334
31.36149 313
31.3816 351
31.40171 320
31.42183 337
31.44194 304
31.46206 321
31.48217 265
31.50228 298
31.5224 322
31.54251 289
31.56262 285
31.58274 302
31.60285 307
31.62297 299
31.64308 291
31.66319 304
31.68331 320
31.70342 340
31.72353 305
31.74365 340
31.76376 291
31.78387 345
31.80399 316
31.8241 316
31.84422 290
31.86433 322
31.88444 356
31.90456 334
31.92467 326
31.94478 317
31.9649 321
31.98501 331
32.00513 320
32.02524 308
32.04535 334
32.06547 346
32.08558 325
32.10569 326
32.12581 348
32.14592 337
32.16604 290
32.18615 320
32.20626 328
32.22638 298
32.24649 312
32.2666 323
32.28672 319
32.30683 320
32.32694 304
32.34706 315
32.36717 299
32.38729 326
32.4074 314
32.42751 333
32.44763 337
32.46774 347
32.48785 360
32.50797 334
32.52808 322
32.5482 326
32.56831 310
32.58842 284
32.60854 302
32.62865 303
32.64876 303
32.66888 308
32.68899 317
32.7091 308
32.72922 297
32.74933 313
32.76945 292
32.78956 275
32.80967 338
32.82979 306
32.8499 323
32.87001 345
32.89013 311
32.91024 302
32.93036 303
32.95047 273
32.97058 291
32.9907 283
33.01081 302
33.03092 294
33.05104 302
33.07115 307
33.09127 313
33.11138 296
33.13149 298
33.15161 294
33.17172 332
33.19183 297
33.21195 270
33.23206 286
33.25217 309
33.27229 298
33.2924 262
33.31252 333
33.33263 290
33.35274 279
33.37286 274
33.39297 285
33.41308 295
33.4332 270
33.45331 260
33.47343 287
33.49354 299
33.51365 322
33.53377 288
33.55388 303
33.57399 301
33.59411 301
33.61422 296
33.63434 281
33.65445 283
33.67456 281
33.69468 290
33.71479 255
33.7349 300
33.75502 294
33.77513 274
33.79524 293
33.81536 297
33.83547 286
33.85559 303
33.8757 282
33.89581 301
33.91593 285
33.93604 302
33.95615 316
33.97627 304
33.99638 284
34.0165 314
34.03661 329
34.05672 322
34.07684 355
34.09695 309
34.11706 332
34.13718 317
34.15729 331
34.17741 334
34.19752 351
34.21763 337
34.23775 322
34.25786 334
34.27797 309
34.29809 336
34.3182 329
34.33831 300
34.35843 339
34.37854 338
34.39866 351
34.41877 343
34.43888 364
34.459 386
34.47911 377
34.49922 345
34.51934 408
34.53945 387
34.55957 367
34.57968 369
34.59979 389
34.61991 380
34.64002 364
34.66013 405
34.68025 435
34.70036 450
34.72047 438
34.74059 453
34.7607 436
34.78082 456
34.80093 460
34.82104 500
34.84116 551
34.86127 552
34.88138 505
34.9015 506
34.92161 480
34.94173 439
34.96184 511
34.98195 472
35.00207 502
35.02218 458
35.04229 483
35.06241 470
35.08252 418
35.10264 439
35.12275 455
35.14286 442
35.16298 466
35.18309 386
35.2032 420
35.22332 470
35.24343 438
35.26354 433
35.28366 432
35.30377 421
35.32389 494
35.344 422
35.36411 393
35.38423 445
35.40434 409
35.42445 464
35.44457 422
35.46468 482
35.4848 445
35.50491 439
35.52502 419
35.54514 425
35.56525 436
35.58536 408
35.60548 455
35.62559 417
35.64571 415
35.66582 484
35.68593 414
35.70605 430
35.72616 398
35.74627 463
35.76639 468
35.7865 412
35.80661 458
35.82673 455
35.84684 483
35.86696 449
35.88707 469
35.90718 510
35.9273 518
35.94741 434
35.96752 402
35.98764 445
36.00775 458
36.02787 464
36.04798 429
36.06809 411
36.08821 390
36.10832 423
36.12843 435
36.14855 422
36.16866 422
36.18878 436
36.20889 450
36.229 455
36.24912 511
36.26923 575
36.28934 567
36.30946 608
36.32957 674
36.34968 815
36.3698 913
36.38991 970
36.41003 1111
36.43014 1185
36.45025 1329
36.47037 1303
36.49048 1386
36.51059 1300
36.53071 1174
36.55082 1016
36.57094 921
36.59105 806
36.61116 721
36.63128 601
36.65139 560
36.6715 471
36.69162 401
36.71173 403
36.73184 391
36.75196 413
36.77207 355
36.79219 378
36.8123 345
36.83241 392
36.85253 358
36.87264 404
36.89275 369
36.91287 359
36.93298 359
36.9531 337
36.97321 363
36.99332 366
37.01344 374
37.03355 346
37.05366 321
37.07378 316
37.09389 375
37.11401 317
37.13412 316
37.15423 354
37.17435 320
37.19446 343
37.21457 324
37.23469 352
37.2548 313
37.27491 333
37.29503 309
37.31514 319
37.33526 313
37.35537 359
37.37548 375
37.3956 347
37.41571 335
37.43582 319
37.45594 366
37.47605 368
37.49617 390
37.51628 361
37.53639 362
37.55651 396
37.57662 374
37.59673 371
37.61685 385
37.63696 383
37.65708 395
37.67719 390
37.6973 362
37.71742 381
37.73753 376
37.75764 389
37.77776 401
37.79787 370
37.81798 377
37.8381 331
37.85821 392
37.87833 358
37.89844 358
37.91855 363
37.93867 372
37.95878 395
37.97889 336
37.99901 396
38.01912 351
38.03924 382
38.05935 367
38.07946 378
38.09958 380
38.11969 417
38.1398 408
38.15992 420
38.18003 453
38.20015 470
38.22026 450
38.24037 464
38.26049 474
38.2806 431
38.30071 430
38.32083 449
38.34094 482
38.36105 470
38.38117 524
38.40128 461
38.4214 429
38.44151 492
38.46162 455
38.48174 459
38.50185 438
38.52196 454
38.54208 451
38.56219 400
38.58231 412
38.60242 431
38.62253 444
38.64265 354
38.66276 417
38.68287 409
38.70299 371
38.7231 345
38.74321 384
38.76333 363
38.78344 369
38.80356 367
38.82367 396
38.84378 370
38.8639 348
38.88401 364
38.90412 381
38.92424 407
38.94435 401
38.96447 351
38.98458 415
39.00469 392
39.02481 418
39.04492 446
39.06503 442
39.08515 453
39.10526 501
39.12538 462
39.14549 503
39.1656 485
39.18572 598
39.20583 607
39.22594 652
39.24606 688
39.26617 777
39.28628 852
39.3064 908
39.32651 912
39.34663 1107
39.36674 1178
39.38685 1256
39.40697 1192
39.42708 1201
39.44719 1070
39.46731 1018
39.48742 885
39.50754 753
39.52765 690
39.54776 634
39.56788 552
39.58799 481
39.6081 426
39.62822 388
39.64833 330
39.66845 337
39.68856 314
39.70867 336
39.72879 344
39.7489 321
39.76901 294
39.78913 305
39.80924 343
39.82935 291
39.84947 326
39.86958 350
39.8897 331
39.90981 354
39.92992 337
39.95004 338
39.97015 388
39.99026 384
40.01038 408
40.03049 405
40.05061 419
40.07072 453
40.09083 489
40.11095 522
40.13106 536
40.15117 640
40.17129 651
40.1914 716
40.21152 742
40.23163 753
40.25174 669
40.27186 690
40.29197 626
40.31208 550
40.3322 554
40.35231 440
40.37242 443
40.39254 344
40.41265 393
40.43277 327
40.45288 323
40.47299 338
40.49311 299
40.51322 298
40.53333 317
40.55345 282
40.57356 309
40.59368 323
40.61379 279
40.6339 271
40.65402 263
40.67413 278
40.69424 318
40.71436 279
40.73447 327
40.75458 246
40.7747 311
40.79481 302
40.81493 314
40.83504 306
40.85515 290
40.87527 278
40.89538 294
40.91549 280
40.93561 295
40.95572 312
40.97584 281
40.99595 293
41.01606 283
41.03618 278
41.05629 279
41.0764 290
41.09652 270
41.11663 330
41.13675 288
41.15686 296
41.17697 279
41.19709 272
41.2172 253
41.23731 272
41.25743 324
41.27754 282
41.29765 297
41.31777 286
41.33788 296
41.358 268
41.37811 285
41.39822 276
41.41834 316
41.43845 266
41.45856 298
41.47868 315
41.49879 262
41.51891 285
41.53902 310
41.55913 299
41.57925 311
41.59936 294
41.61947 301
41.63959 337
41.6597 340
41.67982 335
41.69993 360
41.72004 336
41.74016 334
41.76027 329
41.78038 330
41.8005 337
41.82061 324
41.84072 281
41.86084 293
41.88095 303
41.90107 319
41.92118 304
41.94129 296
41.96141 305
41.98152 304
42.00163 305
42.02175 297
42.04186 324
42.06198 342
42.08209 318
42.1022 356
42.12232 349
42.14243 393
42.16254 403
42.18266 440
42.20277 422
42.22289 466
42.243 555
42.26311 578
42.28323 701
42.30334 756
42.32345 864
42.34357 863
42.36368 882
42.38379 910
42.40391 863
42.42402 853
42.44414 762
42.46425 710
42.48436 628
42.50448 575
42.52459 558
42.5447 473
42.56482 374
42.58493 356
42.60505 334
42.62516 322
42.64527 293
42.66539 283
42.6855 280
42.70561 284
42.72573 265
42.74584 276
42.76595 295
42.78607 311
42.80618 278
42.8263 296
42.84641 269
42.86652 286
42.88664 271
42.90675 277
42.92686 233
42.94698 259
42.96709 268
42.98721 254
43.00732 264
43.02743 275
43.04755 274
43.06766 264
43.08777 264
43.10789 242
43.128 245
43.14812 277
43.16823 243
43.18834 279
43.20846 270
43.22857 263
43.24868 257
43.2688 271
43.28891 209
43.30902 269
43.32914 237
43.34925 249
43.36937 253
43.38948 256
43.40959 259
43.42971 289
43.44982 247
43.46993 256
43.49005 241
43.51016 250
43.53028 262
43.55039 266
43.5705 265
43.59062 244
43.61073 261
43.63084 215
43.65096 267
43.67107 268
43.69119 248
43.7113 254
43.73141 235
43.75153 239
43.77164 240
43.79175 253
43.81187 252
43.83198 240
43.85209 254
43.87221 234
43.89232 263
43.91244 249
43.93255 262
43.95266 262
43.97278 239
43.99289 254
44.013 268
44.03312 245
44.05323 270
44.07335 265
44.09346 265
44.11357 252
44.13369 244
44.1538 302
44.17391 255
44.19403 244
44.21414 262
44.23426 272
44.25437 267
44.27448 269
44.2946 258
44.31471 250
44.33482 238
44.35494 249
44.37505 240
44.39516 250
44.41528 257
44.43539 262
44.45551 234
44.47562 239
44.49573 259
44.51585 260
44.53596 237
44.55607 265
44.57619 240
44.5963 260
44.61642 267
44.63653 258
44.65664 224
44.67676 289
44.69687 262
44.71698 241
44.7371 255
44.75721 232
44.77732 266
44.79744 232
44.81755 268
44.83767 289
44.85778 281
44.87789 271
44.89801 245
44.91812 248
44.93823 258
44.95835 270
44.97846 269
44.99858 274
45.01869 297
45.0388 258
45.05892 247
45.07903 263
45.09914 294
45.11926 286
45.13937 305
45.15949 279
45.1796 285
45.19971 293
45.21983 314
45.23994 297
45.26005 346
45.28017 323
45.30028 330
45.32039 317
45.34051 321
45.36062 313
45.38074 323
45.40085 311
45.42096 379
45.44108 343
45.46119 366
45.4813 369
45.50142 404
45.52153 410
45.54165 439
45.56176 435
45.58187 486
45.60199 549
45.6221 545
45.64221 631
45.66233 584
45.68244 709
45.70256 657
45.72267 712
45.74278 692
45.7629 646
45.78301 609
45.80312 569
45.82324 479
45.84335 494
45.86346 444
45.88358 382
45.90369 395
45.92381 337
45.94392 309
45.96403 289
45.98415 273
46.00426 308
46.02437 252
46.04449 299
46.0646 259
46.08472 275
46.10483 268
46.12494 305
46.14506 273
46.16517 281
46.18528 273
46.2054 250
46.22551 266
46.24563 271
46.26574 253
46.28585 259
46.30597 267
46.32608 288
46.34619 265
46.36631 269
46.38642 291
46.40653 265
46.42665 265
46.44676 263
46.46688 249
46.48699 274
46.5071 268
46.52722 276
46.54733 287
46.56744 279
46.58756 262
46.60767 253
46.62779 246
46.6479 266
46.66801 249
46.68813 286
46.70824 269
46.72835 277
46.74847 251
46.76858 289
46.78869 262
46.80881 266
46.82892 267
46.84904 297
46.86915 272
46.88926 267
46.90938 282
46.92949 254
46.9496 261
46.96972 248
46.98983 269
47.00995 274
47.03006 277
47.05017 272
47.07029 288
47.0904 284
47.11051 238
47.13063 284
47.15074 255
47.17086 296
47.19097 268
47.21108 293
47.2312 290
47.25131 291
47.27142 242
47.29154 258
47.31165 249
47.33176 269
47.35188 255
47.37199 247
47.39211 252
47.41222 299
47.43233 262
47.45245 249
47.47256 280
47.49267 244
47.51279 285
47.5329 250
47.55302 263
47.57313 282
47.59324 261
47.61336 263
47.63347 244
47.65358 269
47.6737 265
47.69381 270
47.71393 278
47.73404 270
47.75415 257
47.77427 285
47.79438 244
47.81449 301
47.83461 299
47.85472 273
47.87483 296
47.89495 253
47.91506 275
47.93518 290
47.95529 293
47.9754 240
47.99552 267
48.01563 241
48.03574 265
48.05586 245
48.07597 280
48.09609 269
48.1162 299
48.13631 248
48.15643 256
48.17654 247
48.19665 231
48.21677 254
48.23688 245
48.257 298
48.27711 290
48.29722 234
48.31734 263
48.33745 285
48.35756 287
48.37768 236
48.39779 228
48.4179 257
48.43802 259
48.45813 242
48.47825 248
48.49836 233
48.51847 240
48.53859 234
48.5587 243
48.57881 228
48.59893 262
48.61904 225
48.63916 247
48.65927 250
48.67938 270
48.6995 265
48.71961 269
48.73972 250
48.75984 225
48.77995 274
48.80006 256
48.82018 273
48.84029 246
48.86041 254
48.88052 273
48.90063 273
48.92075 272
48.94086 273
48.96097 273
48.98109 268
49.0012 240
49.02132 229
49.04143 287
49.06154 259
49.08166 266
49.10177 242
49.12188 250
49.142 272
49.16211 293
49.18223 253
49.20234 238
49.22245 276
49.24257 271
49.26268 287
49.28279 251
49.30291 255
49.32302 251
49.34313 261
49.36325 256
49.38336 241
49.40348 295
49.42359 257
49.4437 277
49.46382 262
49.48393 300
49.50404 292
49.52416 318
49.54427 286
49.56439 290
49.5845 307
49.60461 317
49.62473 327
49.64484 300
49.66495 341
49.68507 342
49.70518 355
49.7253 383
49.74541 423
49.76552 433
49.78564 483
49.80575 529
49.82586 545
49.84598 634
49.86609 685
49.8862 775
49.90632 820
49.92643 982
49.94655 1066
49.96666 1249
49.98677 1351
50.00689 1523
50.027 1653
50.04711 1694
50.06723 1732
50.08734 1592
50.10746 1487
50.12757 1369
50.14768 1276
50.1678 1134
50.18791 1059
50.20802 952
50.22814 869
50.24825 733
50.26837 587
50.28848 541
50.30859 467
50.32871 391
50.34882 361
50.36893 371
50.38905 363
50.40916 382
50.42927 365
50.44939 344
50.4695 387
50.48962 367
50.50973 337
50.52984 362
50.54996 357
50.57007 305
50.59018 346
50.6103 287
50.63041 300
50.65053 307
50.67064 297
50.69075 306
50.71087 262
50.73098 294
50.75109 283
50.77121 282
50.79132 287
50.81143 294
50.83155 287
50.85166 304
50.87178 277
50.89189 284
50.912 300
50.93212 305
50.95223 231
50.97234 307
50.99246 263
51.01257 237
51.03269 272
51.0528 260
51.07291 248
51.09303 241
51.11314 243
51.13325 238
51.15337 247
51.17348 256
51.1936 242
51.21371 222
51.23382 215
51.25394 211
51.27405 203
51.29416 239
51.31428 241
51.33439 234
51.3545 250
51.37462 234
51.39473 251
51.41485 262
51.43496 237
51.45507 240
51.47519 216
51.4953 210
51.51541 213
51.53553 230
51.55564 251
51.57576 228
51.59587 221
51.61598 215
51.6361 208
51.65621 245
51.67632 202
51.69644 224
51.71655 237
51.73667 237
51.75678 213
51.77689 241
51.79701 234
51.81712 263
51.83723 231
51.85735 231
51.87746 232
51.89757 234
51.91769 194
51.9378 230
51.95792 225
51.97803 212
51.99814 241
52.01826 237
52.03837 234
52.05848 228
52.0786 231
52.09871 252
52.11883 251
52.13894 218
52.15905 222
52.17917 208
52.19928 245
52.21939 203
52.23951 194
52.25962 234
52.27974 216
52.29985 230
52.31996 242
52.34008 211
52.36019 210
52.3803 240
52.40042 246
52.42053 263
52.44064 211
52.46076 240
52.48087 227
52.50099 244
52.5211 246
52.54121 216
52.56133 233
52.58144 226
52.60155 233
52.62167 218
52.64178 237
52.6619 228
52.68201 219
52.70212 230
52.72224 234
52.74235 230
52.76246 236
52.78258 214
52.80269 220
52.8228 217
52.84292 209
52.86303 233
52.88315 226
52.90326 246
52.92337 250
52.94349 237
52.9636 207
52.98371 225
53.00383 247
53.02394 244
53.04406 249
53.06417 250
53.08428 238
53.1044 235
53.12451 245
53.14462 237
53.16474 242
53.18485 243
53.20497 230
53.22508 261
53.24519 235
53.26531 251
53.28542 240
53.30553 252
53.32565 220
53.34576 233
53.36587 234
53.38599 240
53.4061 251
53.42622 265
53.44633 263
53.46644 254
53.48656 248
53.50667 240
53.52678 268
53.5469 205
53.56701 256
53.58713 251
53.60724 234
53.62735 256
53.64747 228
53.66758 274
53.68769 265
53.70781 258
53.72792 263
53.74804 250
53.76815 249
53.78826 253
53.80838 232
53.82849 254
53.8486 261
53.86872 276
53.88883 275
53.90894 251
53.92906 253
53.94917 268
53.96929 243
53.9894 273
54.00951 291
54.02963 260
54.04974 263
54.06985 272
54.08997 261
54.11008 295
54.1302 270
54.15031 266
54.17042 323
54.19054 334
54.21065 298
54.23076 319
54.25088 256
54.27099 325
54.29111 299
54.31122 327
54.33133 313
54.35145 289
54.37156 304
54.39167 331
54.41179 316
54.4319 287
54.45201 363
54.47213 345
54.49224 339
54.51236 377
54.53247 370
54.55258 377
54.5727 386
54.59281 423
54.61292 452
54.63304 435
54.65315 518
54.67327 521
54.69338 613
54.71349 600
54.73361 664
54.75372 684
54.77383 724
54.79395 705
54.81406 737
54.83417 637
54.85429 608
54.8744 634
54.89452 546
54.91463 529
54.93474 543
54.95486 549
54.97497 513
54.99508 481
55.0152 477
55.03531 435
55.05543 445
55.07554 414
55.09565 408
55.11577 412
55.13588 468
55.15599 465
55.17611 482
55.19622 467
55.21634 498
55.23645 521
55.25656 489
55.27668 450
55.29679 484
55.3169 438
55.33702 400
55.35713 399
55.37724 392
55.39736 409
55.41747 373
55.43759 323
55.4577 313
55.47781 341
55.49793 296
55.51804 325
55.53815 307
55.55827 288
55.57838 264
55.5985 259
55.61861 318
55.63872 286
55.65884 306
55.67895 280
55.69906 271
55.71918 298
55.73929 298
55.75941 279
55.77952 267
55.79963 286
55.81975 289
55.83986 276
55.85997 298
55.88009 264
55.9002 273
55.92031 247
55.94043 246
55.96054 268
55.98066 258
56.00077 251
56.02088 255
56.041 269
56.06111 252
56.08122 266
56.10134 250
56.12145 223
56.14157 255
56.16168 257
56.18179 241
56.20191 291
56.22202 255
56.24213 229
56.26225 254
56.28236 266
56.30248 263
56.32259 238
56.3427 268
56.36282 257
56.38293 263
56.40304 282
56.42316 265
56.44327 247
56.46338 284
56.4835 269
56.50361 266
56.52373 260
56.54384 252
56.56395 255
56.58407 251
56.60418 269
56.62429 244
56.64441 293
56.66452 297
56.68464 267
56.70475 248
56.72486 238
56.74498 240
56.76509 254
56.7852 260
56.80532 277
56.82543 284
56.84554 260
56.86566 269
56.88577 262
56.90589 270
56.926 254
56.94611 254
56.96623 254
56.98634 243
57.00645 251
57.02657 268
57.04668 243
57.0668 296
57.08691 250
57.10702 255
57.12714 287
57.14725 278
57.16736 249
57.18748 259
57.20759 269
57.22771 251
57.24782 271
57.26793 243
57.28805 266
57.30816 248
57.32827 276
57.34839 275
57.3685 210
57.38861 244
57.40873 244
57.42884 235
57.44896 234
57.46907 215
57.48918 209
57.5093 243
57.52941 254
57.54952 275
57.56964 237
57.58975 237
57.60987 243
57.62998 222
57.65009 230
57.67021 227
57.69032 238
57.71043 232
57.73055 241
57.75066 238
57.77078 233
57.79089 223
57.811 227
57.83112 222
57.85123 248
57.87134 247
57.89146 237
57.91157 245
57.93168 249
57.9518 242
57.97191 264
57.99203 232
58.01214 223
58.03225 238
58.05237 218
58.07248 231
58.09259 226
58.11271 247
58.13282 233
58.15294 230
58.17305 237
58.19316 226
58.21328 212
58.23339 231
58.2535 247
58.27362 239
58.29373 226
58.31385 230
58.33396 246
58.35407 239
58.37419 261
58.3943 247
58.41441 235
58.43453 226
58.45464 227
58.47475 243
58.49487 225
58.51498 235
58.5351 207
58.55521 284
58.57532 220
58.59544 252
58.61555 261
58.63566 229
58.65578 231
58.67589 238
58.69601 269
58.71612 255
58.73623 244
58.75635 221
58.77646 237
58.79657 224
58.81669 241
58.8368 223
58.85691 226
58.87703 244
58.89714 239
58.91726 244
58.93737 230
58.95748 225
58.9776 213
58.99771 245
59.01782 224
59.03794 228
59.05805 252
59.07817 224
59.09828 247
59.11839 232
59.13851 237
59.15862 260
59.17873 248
59.19885 246
59.21896 241
59.23908 244
59.25919 279
59.2793 250
59.29942 254
59.31953 263
59.33964 273
59.35976 251
59.37987 267
59.39998 335
59.4201 297
59.44021 327
59.46033 313
59.48044 306
59.50055 367
59.52067 341
59.54078 383
59.56089 387
59.58101 400
59.60112 412
59.62124 440
59.64135 446
59.66146 515
59.68158 569
59.70169 590
59.7218 641
59.74192 710
59.76203 804
59.78215 916
59.80226 925
59.82237 1064
59.84249 1136
59.8626 1114
59.88271 1148
59.90283 1050
59.92294 932
59.94305 960
59.96317 881
59.98328 788
60.0034 740
60.02351 682
60.04362 686
60.06374 608
60.08385 593
60.10396 482
60.12408 402
60.14419 367
60.16431 325
60.18442 297
60.20453 303
60.22465 302
60.24476 270
60.26487 295
60.28499 263
60.3051 231
60.32522 280
60.34533 284
60.36544 268
60.38556 269
60.40567 246
60.42578 226
60.4459 252
60.46601 226
60.48612 229
60.50624 253
60.52635 262
60.54647 233
60.56658 243
60.58669 264
60.60681 263
60.62692 263
60.64703 248
60.66715 256
60.68726 250
60.70738 248
60.72749 227
60.7476 261
60.76772 224
60.78783 252
60.80794 231
60.82806 247
60.84817 241
60.86828 242
60.8884 282
60.90851 257
60.92863 241
60.94874 225
60.96885 236
60.98897 264
61.00908 221
61.02919 242
61.04931 255
61.06942 252
61.08954 221
61.10965 240
61.12976 251
61.14988 267
61.16999 275
61.1901 254
61.21022 244
61.23033 261
61.25045 260
61.27056 280
61.29067 253
61.31079 230
61.3309 260
61.35101 251
61.37113 243
61.39124 236
61.41135 305
61.43147 246
61.45158 285
61.4717 254
61.49181 263
61.51192 249
61.53204 255
61.55215 246
61.57226 263
61.59238 269
61.61249 269
61.63261 293
61.65272 273
61.67283 275
61.69295 295
61.71306 258
61.73317 285
61.75329 258
61.7734 280
61.79352 269
61.81363 299
61.83374 305
61.85386 313
61.87397 294
61.89408 300
61.9142 316
61.93431 279
61.95442 300
61.97454 345
61.99465 326
62.01477 320
62.03488 361
62.05499 344
62.07511 351
62.09522 367
62.11533 370
62.13545 366
62.15556 348
62.17568 342
62.19579 364
62.2159 363
62.23602 358
62.25613 347
62.27624 346
62.29636 347
62.31647 313
62.33659 331
62.3567 310
62.37681 321
62.39693 317
62.41704 289
62.43715 312
62.45727 291
62.47738 300
62.49749 273
62.51761 258
62.53772 269
62.55784 292
62.57795 281
62.59806 253
62.61818 264
62.63829 228
62.6584 254
62.67852 262
62.69863 248
62.71875 216
62.73886 235
62.75897 242
62.77909 271
62.7992 218
62.81931 226
62.83943 232
62.85954 267
62.87965 247
62.89977 275
62.91988 250
62.94 262
62.96011 268
62.98022 249
63.00034 256
63.02045 257
63.04056 226
63.06068 243
63.08079 251
63.10091 222
63.12102 244
63.14113 235
63.16125 239
63.18136 265
63.20147 255
63.22159 223
63.2417 232
63.26182 241
63.28193 224
63.30204 261
63.32216 243
63.34227 259
63.36238 253
63.3825 247
63.40261 234
63.42272 221
63.44284 229
63.46295 247
63.48307 237
63.50318 264
63.52329 221
63.54341 241
63.56352 272
63.58363 252
63.60375 228
63.62386 260
63.64398 249
63.66409 282
63.6842 272
63.70432 274
63.72443 287
63.74454 298
63.76466 314
63.78477 341
63.80489 354
63.825 354
63.84511 343
63.86523 337
63.88534 375
63.90545 363
63.92557 384
63.94568 404
63.96579 410
63.98591 403
64.00602 404
64.02614 363
64.04625 346
64.06636 349
64.08648 332
64.10659 323
64.1267 319
64.14682 292
64.16693 275
64.18705 272
64.20716 243
64.22727 270
64.24739 257
64.2675 234
64.28761 256
64.30773 248
64.32784 207
64.34796 220
64.36807 217
64.38818 236
64.4083 215
64.42841 218
64.44852 239
64.46864 200
64.48875 211
64.50886 235
64.52898 232
64.54909 236
64.56921 186
64.58932 226
64.60943 227
64.62955 241
64.64966 231
64.66977 215
64.68989 227
64.71 192
64.73012 229
64.75023 221
64.77034 217
64.79046 238
64.81057 213
64.83068 214
64.8508 224
64.87091 221
64.89102 205
64.91114 226
64.93125 225
64.95137 230
64.97148 220
64.99159 256
65.01171 214
65.03182 211
65.05193 214
65.07205 242
65.09216 243
65.11228 240
65.13239 226
65.1525 210
65.17262 242
65.19273 266
65.21284 196
65.23296 226
65.25307 234
65.27319 234
65.2933 231
65.31341 245
65.33353 235
65.35364 219
65.37375 225
65.39387 222
65.41398 256
65.43409 226
65.45421 234
65.47432 238
65.49444 217
65.51455 242
65.53466 248
65.55478 224
65.57489 249
65.595 237
65.61512 236
65.63523 227
65.65535 244
65.67546 273
65.69557 250
65.71569 250
65.7358 266
65.75591 237
65.77603 266
65.79614 231
65.81626 266
65.83637 238
65.85648 226
65.8766 253
65.89671 220
65.91682 225
65.93694 231
65.95705 194
65.97716 217
65.99728 229
66.01739 217
66.03751 200
66.05762 237
66.07773 216
66.09785 240
66.11796 221
66.13807 237
66.15819 214
66.1783 206
66.19842 240
66.21853 205
66.23864 241
66.25876 225
66.27887 234
66.29898 235
66.3191 221
66.33921 225
66.35933 231
66.37944 223
66.39955 204
66.41967 199
66.43978 198
66.45989 224
66.48001 222
66.50012 243
66.52023 224
66.54035 240
66.56046 217
66.58058 214
66.60069 232
66.6208 231
66.64092 243
66.66103 219
66.68114 228
66.70126 229
66.72137 245
66.74149 240
66.7616 227
66.78171 234
66.80183 220
66.82194 224
66.84205 248
66.86217 233
66.88228 247
66.90239 248
66.92251 199
66.94262 256
66.96274 229
66.98285 232
67.00296 241
67.02308 229
67.04319 212
67.0633 236
67.08342 236
67.10353 237
67.12365 257
67.14376 243
67.16387 268
67.18399 292
67.2041 286
67.22421 267
67.24433 275
67.26444 270
67.28456 296
67.30467 335
67.32478 299
67.3449 315
67.36501 363
67.38512 348
67.40524 393
67.42535 380
67.44546 414
67.46558 435
67.48569 459
67.50581 503
67.52592 550
67.54603 591
67.56615 599
67.58626 708
67.60637 757
67.62649 797
67.6466 778
67.66672 779
67.68683 721
67.70694 752
67.72706 715
67.74717 680
67.76728 631
67.7874 652
67.80751 670
67.82763 689
67.84774 721
67.86785 678
67.88797 759
67.90808 773
67.92819 759
67.94831 761
67.96842 830
67.98853 887
68.00865 905
68.02876 971
68.04888 901
68.06899 975
68.0891 1012
68.10922 915
68.12933 893
68.14944 887
68.16956 864
68.18967 914
68.20979 881
68.2299 856
68.25001 804
68.27013 809
68.29024 706
68.31035 652
68.33047 587
68.35058 523
68.3707 501
68.39081 447
68.41092 401
68.43104 411
68.45115 377
68.47126 353
68.49138 329
68.51149 291
68.5316 301
68.55172 292
68.57183 284
68.59195 252
68.61206 241
68.63217 240
68.65229 294
68.6724 232
68.69251 254
68.71263 234
68.73274 226
68.75286 246
68.77297 236
68.79308 214
68.8132 248
68.83331 246
68.85342 250
68.87354 234
68.89365 222
68.91376 229
68.93388 226
68.95399 234
68.97411 249
68.99422 235
69.01433 216
69.03445 226
69.05456 219
69.07467 210
69.09479 212
69.1149 222
69.13502 196
69.15513 212
69.17524 241
69.19536 224
69.21547 212
69.23558 234
69.2557 210
69.27581 213
69.29593 226
69.31604 224
69.33615 217
69.35627 182
69.37638 203
69.39649 210
69.41661 211
69.43672 219
69.45683 203
69.47695 202
69.49706 204
69.51718 184
69.53729 242
69.5574 216
69.57752 210
69.59763 224
69.61774 186
69.63786 220
69.65797 191
69.67809 202
69.6982 198
69.71831 224
69.73843 190
69.75854 211
69.77865 206
69.79877 212
69.81888 224
69.839 228
69.85911 202
69.87922 216
69.89934 200
69.91945 208
69.93956 204
69.95968 213
69.97979 221
69.9999 223
70.02002 224
70.04013 192
70.06025 224
70.08036 218
70.10047 226
70.12059 216
70.1407 219
70.16081 213
70.18093 195
70.20104 235
70.22116 213
70.24127 176
70.26138 198
70.2815 203
70.30161 231
70.32172 192
70.34184 221
70.36195 220
70.38207 227
70.40218 220
70.42229 191
70.44241 211
70.46252 189
70.48263 194
70.50275 214
70.52286 212
70.54297 218
70.56309 204
70.5832 214
70.60332 227
70.62343 200
70.64354 200
70.66366 213
70.68377 207
70.70388 196
70.724 210
70.74411 190
70.76423 210
70.78434 201
70.80445 205
70.82457 202
70.84468 197
70.86479 219
70.88491 200
70.90502 203
70.92513 199
70.94525 177
70.96536 196
70.98548 226
71.00559 209
71.0257 199
71.04582 200
71.06593 194
71.08604 201
71.10616 223
71.12627 203
71.14639 202
71.1665 196
71.18661 203
71.20673 216
71.22684 198
71.24695 188
71.26707 189
71.28718 179
71.3073 201
71.32741 191
71.34752 195
71.36764 194
71.38775 209
71.40786 206
71.42798 216
71.44809 207
71.4682 203
71.48832 198
71.50843 207
71.52855 220
71.54866 217
71.56877 229
71.58889 223
71.609 211
71.62911 203
71.64923 199
71.66934 202
71.68946 210
71.70957 200
71.72968 207
71.7498 227
71.76991 203
71.79002 210
71.81014 197
71.83025 215
71.85037 209
71.87048 208
71.89059 217
71.91071 258
71.93082 226
71.95093 226
71.97105 218
71.99116 236
72.01127 216
72.03139 214
72.0515 226
72.07162 228
72.09173 203
72.11184 209
72.13196 217
72.15207 210
72.17218 220
72.1923 220
72.21241 219
72.23253 200
72.25264 219
72.27275 211
72.29287 213
72.31298 215
72.33309 232
72.35321 207
72.37332 215
72.39344 229
72.41355 216
72.43366 184
72.45378 225
72.47389 226
72.494 183
72.51412 196
72.53423 196
72.55434 237
72.57446 202
72.59457 207
72.61469 233
72.6348 219
72.65491 224
72.67503 223
72.69514 201
72.71525 234
72.73537 221
72.75548 205
72.7756 235
72.79571 212
72.81582 223
72.83594 192
72.85605 230
72.87616 239
72.89628 232
72.91639 224
72.9365 216
72.95662 255
72.97673 216
72.99685 248
73.01696 237
73.03707 253
73.05719 267
73.0773 262
73.09741 294
73.11753 267
73.13764 279
73.15776 278
73.17787 294
73.19798 290
73.2181 328
73.23821 316
73.25832 317
73.27844 360
73.29855 359
73.31867 351
73.33878 402
73.35889 380
73.37901 409
73.39912 389
73.41923 352
73.43935 360
73.45946 364
73.47957 342
73.49969 340
73.5198 351
73.53992 313
73.56003 319
73.58014 321
73.60026 307
73.62037 295
73.64048 274
73.6606 293
73.68071 279
73.70083 257
73.72094 236
73.74105 228
73.76117 226
73.78128 226
73.80139 227
73.82151 228
73.84162 210
73.86174 225
73.88185 206
73.90196 217
73.92208 224
73.94219 222
73.9623 202
73.98242 232
74.00253 205
74.02264 220
74.04276 203
74.06287 212
74.08299 212
74.1031 212
74.12321 197
74.14333 202
74.16344 215
74.18355 198
74.20367 198
74.22378 216
74.2439 205
74.26401 227
74.28412 221
74.30424 228
74.32435 207
74.34446 203
74.36458 214
74.38469 205
74.40481 211
74.42492 211
74.44503 221
74.46515 216
74.48526 186
74.50537 201
74.52549 213
74.5456 216
74.56571 223
74.58583 221
74.60594 217
74.62606 201
74.64617 194
74.66628 203
74.6864 196
74.70651 227
74.72662 205
74.74674 224
74.76685 217
74.78697 220
74.80708 212
74.82719 213
74.84731 204
74.86742 203
74.88753 224
74.90765 217
74.92776 213
74.94787 232
74.96799 210
74.9881 222
75.00822 227
