3.00117 20435
3.02128 20075
3.0414 19766
3.06151 18781
3.08162 18642
3.10174 17867
3.12185 17279
3.14197 16943
3.16208 16371
3.18219 16050
3.20231 15465
3.22242 14912
3.24253 14730
3.26265 13959
3.28276 13859
3.30288 13334
3.32299 12566
3.3431 12552
3.36322 11973
3.38333 11710
3.40344 11134
3.42356 10967
3.44367 10503
3.46379 10005
3.4839 9991
3.50401 9517
3.52413 9050
3.54424 8895
3.56435 8386
3.58447 8318
3.60458 7827
3.62469 7473
3.64481 7407
3.66492 7113
3.68504 6948
3.70515 6488
3.72526 6246
3.74538 6098
3.76549 5586
3.7856 5624
3.80572 5226
3.82583 4974
3.84595 4918
3.86606 4568
3.88617 4498
3.90629 4222
3.9264 4049
3.94651 3794
3.96663 3662
3.98674 3664
4.00686 3407
4.02697 3249
4.04708 3141
4.0672 2946
4.08731 2825
4.10742 2651
4.12754 2489
4.14765 2554
4.16776 2341
4.18788 2390
4.20799 2048
4.22811 1945
4.24822 1999
4.26833 1937
4.28845 1829
4.30856 1718
4.32867 1837
4.34879 1723
4.3689 1632
4.38902 1600
4.40913 1505
4.42924 1368
4.44936 1450
4.46947 1415
4.48958 1372
4.5097 1241
4.52981 1219
4.54992 1265
4.57004 1280
4.59015 1147
4.61027 1194
4.63038 1132
4.65049 1149
4.67061 1125
4.69072 1065
4.71083 982
4.73095 961
4.75106 985
4.77118 1025
4.79129 933
4.8114 911
4.83152 901
4.85163 877
4.87174 871
4.89186 790
4.91197 769
4.93209 721
4.9522 758
4.97231 711
4.99243 727
5.01254 658
5.03265 699
5.05277 695
5.07288 659
5.09299 696
5.11311 626
5.13322 575
5.15334 554
5.17345 605
5.19356 539
5.21368 526
5.23379 494
5.2539 549
5.27402 533
5.29413 505
5.31425 479
5.33436 445
5.35447 429
5.37459 432
5.3947 424
5.41481 459
5.43493 425
5.45504 426
5.47516 441
5.49527 415
5.51538 396
5.5355 387
5.55561 357
5.57572 365
5.59584 307
5.61595 360
5.63606 363
5.65618 336
5.67629 326
5.69641 327
5.71652 276
5.73663 262
5.75675 300
5.77686 295
5.79697 269
5.81709 277
5.8372 263
5.85732 285
5.87743 286
5.89754 257
5.91766 257
5.93777 236
5.95788 278
5.978 259
5.99811 262
6.01823 242
6.03834 245
6.05845 242
6.07857 237
6.09868 219
6.11879 258
6.13891 234
6.15902 238
6.17913 238
6.19925 212
6.21936 219
6.23948 220
6.25959 235
6.2797 256
6.29982 227
6.31993 221
6.34004 234
6.36016 227
6.38027 229
6.40039 223
6.4205 195
6.44061 189
6.46073 189
6.48084 176
6.50095 220
6.52107 208
6.54118 200
6.56129 235
6.58141 192
6.60152 236
6.62164 169
6.64175 196
6.66186 221
6.68198 200
6.70209 221
6.7222 219
6.74232 186
6.76243 197
6.78255 190
6.80266 214
6.82277 195
6.84289 214
6.863 199
6.88311 208
6.90323 195
6.92334 188
6.94346 201
6.96357 239
6.98368 197
7.0038 212
7.02391 189
7.04402 212
7.06414 195
7.08425 209
7.10436 219
7.12448 194
7.14459 180
7.16471 189
7.18482 198
7.20493 185
7.22505 200
7.24516 204
7.26527 214
7.28539 243
7.3055 246
7.32562 187
7.34573 222
7.36584 203
7.38596 203
7.40607 194
7.42618 183
7.4463 211
7.46641 220
7.48653 244
7.50664 235
7.52675 188
7.54687 214
7.56698 244
7.58709 216
7.60721 208
7.62732 210
7.64743 211
7.66755 230
7.68766 188
7.70778 210
7.72789 204
7.748 195
7.76812 207
7.78823 188
7.80834 221
7.82846 240
7.84857 212
7.86869 209
7.8888 215
7.90891 216
7.92903 211
7.94914 236
7.96925 221
7.98937 211
8.00948 206
8.0296 215
8.04971 250
8.06982 211
8.08994 214
8.11005 212
8.13016 215
8.15028 198
8.17039 223
8.1905 243
8.21062 215
8.23073 216
8.25085 245
8.27096 255
8.29107 203
8.31119 236
8.3313 231
8.35141 213
8.37153 215
8.39164 237
8.41176 237
8.43187 212
8.45198 202
8.4721 218
8.49221 216
8.51232 208
8.53244 233
8.55255 213
8.57266 208
8.59278 216
8.61289 211
8.63301 206
8.65312 233
8.67323 216
8.69335 208
8.71346 217
8.73357 208
8.75369 248
8.7738 254
8.79392 234
8.81403 221
8.83414 227
8.85426 191
8.87437 224
8.89448 230
8.9146 245
8.93471 229
8.95483 204
8.97494 224
8.99505 239
9.01517 211
9.03528 216
9.05539 229
9.07551 215
9.09562 210
9.11573 248
9.13585 215
9.15596 249
9.17608 224
9.19619 221
9.2163 228
9.23642 215
9.25653 253
9.27664 223
9.29676 240
9.31687 230
9.33699 236
9.3571 250
9.37721 215
9.39733 215
9.41744 249
9.43755 275
9.45767 243
9.47778 250
9.4979 228
9.51801 226
9.53812 253
9.55824 254
9.57835 221
9.59846 227
9.61858 239
9.63869 258
9.6588 240
9.67892 223
9.69903 236
9.71915 226
9.73926 250
9.75937 229
9.77949 228
9.7996 205
9.81971 234
9.83983 218
9.85994 211
9.88006 213
9.90017 223
9.92028 277
9.9404 228
9.96051 212
9.98062 248
10.00074 229
10.02085 257
10.04097 246
10.06108 235
10.08119 226
10.10131 245
10.12142 209
10.14153 255
10.16165 236
10.18176 231
10.20187 255
10.22199 227
10.2421 211
10.26222 211
10.28233 237
10.30244 232
10.32256 196
10.34267 235
10.36278 210
10.3829 242
10.40301 190
10.42313 254
10.44324 214
10.46335 226
10.48347 246
10.50358 234
10.52369 269
10.54381 258
10.56392 232
10.58403 211
10.60415 210
10.62426 238
10.64438 242
10.66449 218
10.6846 226
10.70472 232
10.72483 240
10.74494 227
10.76506 227
10.78517 245
10.80529 226
10.8254 227
10.84551 233
10.86563 272
10.88574 224
10.90585 254
10.92597 230
10.94608 207
10.9662 226
10.98631 215
11.00642 232
11.02654 223
11.04665 234
11.06676 267
11.08688 233
11.10699 222
11.1271 250
11.14722 203
11.16733 261
11.18745 242
11.20756 247
11.22767 215
11.24779 226
11.2679 242
11.28801 234
11.30813 221
11.32824 228
11.34836 229
11.36847 257
11.38858 232
11.4087 242
11.42881 221
11.44892 234
11.46904 260
11.48915 230
11.50927 230
11.52938 235
11.54949 212
11.56961 248
11.58972 244
11.60983 235
11.62995 222
11.65006 273
11.67017 233
11.69029 241
11.7104 235
11.73052 264
11.75063 226
11.77074 232
11.79086 269
11.81097 241
11.83108 295
11.8512 267
11.87131 268
11.89143 266
11.91154 286
11.93165 275
11.95177 280
11.97188 276
11.99199 278
12.01211 298
12.03222 298
12.05234 337
12.07245 353
12.09256 333
12.11268 318
12.13279 358
12.1529 372
12.17302 333
12.19313 390
12.21324 378
12.23336 421
12.25347 459
12.27359 406
12.2937 398
12.31381 441
12.33393 444
12.35404 416
12.37415 348
12.39427 407
12.41438 354
12.4345 346
12.45461 323
12.47472 341
12.49484 317
12.51495 311
12.53506 314
12.55518 283
12.57529 255
12.5954 280
12.61552 236
12.63563 261
12.65575 236
12.67586 251
12.69597 241
12.71609 221
12.7362 225
12.75631 247
12.77643 245
12.79654 232
12.81666 227
12.83677 216
12.85688 222
12.877 221
12.89711 237
12.91722 235
12.93734 204
12.95745 220
12.97757 194
12.99768 262
13.01779 216
13.03791 203
13.05802 239
13.07813 208
13.09825 226
13.11836 229
13.13847 239
13.15859 232
13.1787 217
13.19882 224
13.21893 241
13.23904 207
13.25916 212
13.27927 211
13.29938 190
13.3195 212
13.33961 193
13.35973 191
13.37984 223
13.39995 185
13.42007 194
13.44018 234
13.46029 197
13.48041 205
13.50052 192
13.52064 205
13.54075 221
13.56086 208
13.58098 213
13.60109 202
13.6212 229
13.64132 198
13.66143 231
13.68154 189
13.70166 214
13.72177 201
13.74189 213
13.762 193
13.78211 212
13.80223 194
13.82234 166
13.84245 197
13.86257 228
13.88268 193
13.9028 204
13.92291 198
13.94302 206
13.96314 240
13.98325 230
14.00336 210
14.02348 176
14.04359 222
14.06371 211
14.08382 219
14.10393 191
14.12405 206
14.14416 205
14.16427 211
14.18439 181
14.2045 221
14.22461 198
14.24473 189
14.26484 188
14.28496 242
14.30507 204
14.32518 188
14.3453 194
14.36541 185
14.38552 187
14.40564 208
14.42575 174
14.44587 200
14.46598 202
14.48609 201
14.50621 246
14.52632 207
14.54643 197
14.56655 211
14.58666 192
14.60677 210
14.62689 185
14.647 188
14.66712 191
14.68723 186
14.70734 211
14.72746 220
14.74757 177
14.76768 206
14.7878 195
14.80791 187
14.82803 187
14.84814 171
14.86825 176
14.88837 191
14.90848 184
14.92859 193
14.94871 209
14.96882 188
14.98894 164
15.00905 184
15.02916 154
15.04928 204
15.06939 183
15.0895 193
15.10962 201
15.12973 187
15.14984 188
15.16996 222
15.19007 224
15.21019 184
15.2303 190
15.25041 204
15.27053 225
15.29064 167
15.31075 180
15.33087 163
15.35098 211
15.3711 192
15.39121 191
15.41132 207
15.43144 170
15.45155 168
15.47166 195
15.49178 178
15.51189 178
15.53201 161
15.55212 181
15.57223 197
15.59235 170
15.61246 165
15.63257 180
15.65269 192
15.6728 161
15.69291 186
15.71303 189
15.73314 179
15.75326 185
15.77337 215
15.79348 174
15.8136 193
15.83371 172
15.85382 193
15.87394 218
15.89405 200
15.91417 186
15.93428 164
15.95439 196
15.97451 198
15.99462 194
16.01473 175
16.03485 189
16.05496 181
16.07508 180
16.09519 187
16.1153 201
16.13542 184
16.15553 198
16.17564 170
16.19576 199
16.21587 179
16.23598 182
16.2561 185
16.27621 177
16.29633 161
16.31644 180
16.33655 195
16.35667 169
16.37678 204
16.39689 163
16.41701 194
16.43712 182
16.45724 171
16.47735 168
16.49746 181
16.51758 193
16.53769 164
16.5578 181
16.57792 163
16.59803 190
16.61814 186
16.63826 183
16.65837 208
16.67849 174
16.6986 178
16.71871 192
16.73883 175
16.75894 189
16.77905 181
16.79917 198
16.81928 188
16.8394 166
16.85951 191
16.87962 182
16.89974 179
16.91985 199
16.93996 180
16.96008 165
16.98019 178
17.00031 192
17.02042 174
17.04053 167
17.06065 177
17.08076 183
17.10087 181
17.12099 175
17.1411 181
17.16121 167
17.18133 178
17.20144 213
17.22156 163
17.24167 188
17.26178 160
17.2819 185
17.30201 166
17.32212 178
17.34224 169
17.36235 175
17.38247 157
17.40258 180
17.42269 174
17.44281 169
17.46292 178
17.48303 175
17.50315 182
17.52326 183
17.54338 158
17.56349 174
17.5836 143
17.60372 201
17.62383 164
17.64394 179
17.66406 178
17.68417 165
17.70428 197
17.7244 182
17.74451 184
17.76463 175
17.78474 187
17.80485 189
17.82497 174
17.84508 175
17.86519 196
17.88531 208
17.90542 184
17.92554 197
17.94565 179
17.96576 167
17.98588 166
18.00599 162
18.0261 190
18.04622 205
18.06633 155
18.08645 155
18.10656 159
18.12667 179
18.14679 165
18.1669 192
18.18701 191
18.20713 200
18.22724 185
18.24735 174
18.26747 179
18.28758 180
18.3077 186
18.32781 176
18.34792 149
18.36804 165
18.38815 171
18.40826 199
18.42838 157
18.44849 198
18.46861 171
18.48872 170
18.50883 185
18.52895 167
18.54906 171
18.56917 177
18.58929 186
18.6094 172
18.62951 165
18.64963 169
18.66974 189
18.68986 159
18.70997 192
18.73008 182
18.7502 175
18.77031 188
18.79042 187
18.81054 179
18.83065 200
18.85077 181
18.87088 191
18.89099 181
18.91111 166
18.93122 211
18.95133 184
18.97145 196
18.99156 162
19.01168 193
19.03179 158
19.0519 169
19.07202 157
19.09213 161
19.11224 188
19.13236 185
19.15247 191
19.17258 197
19.1927 169
19.21281 178
19.23293 190
19.25304 180
19.27315 172
19.29327 195
19.31338 175
19.33349 180
19.35361 197
19.37372 181
19.39384 198
19.41395 178
19.43406 203
19.45418 176
19.47429 194
19.4944 190
19.51452 213
19.53463 223
19.55475 214
19.57486 198
19.59497 197
19.61509 213
19.6352 243
19.65531 213
19.67543 249
19.69554 233
19.71565 233
19.73577 260
19.75588 249
19.776 296
19.79611 313
19.81622 306
19.83634 367
19.85645 334
19.87656 334
19.89668 368
19.91679 371
19.93691 355
19.95702 368
19.97713 332
19.99725 341
20.01736 323
20.03747 347
20.05759 357
20.0777 367
20.09782 377
20.11793 337
20.13804 356
20.15816 330
20.17827 345
20.19838 343
20.2185 359
20.23861 354
20.25872 384
20.27884 372
20.29895 385
20.31907 355
20.33918 390
20.35929 382
20.37941 397
20.39952 411
20.41963 401
20.43975 462
20.45986 434
20.47998 450
20.50009 465
20.5202 479
20.54032 556
20.56043 534
20.58054 591
20.60066 627
20.62077 743
20.64088 831
20.661 1042
20.68111 1326
20.70123 1683
20.72134 2285
20.74145 3085
20.76157 4109
20.78168 5206
20.80179 6129
20.82191 6860
20.84202 7064
20.86214 6641
20.88225 5562
20.90236 4260
20.92248 2855
20.94259 1878
20.9627 1277
20.98282 928
21.00293 694
21.02305 582
21.04316 555
21.06327 533
21.08339 504
21.1035 457
21.12361 411
21.14373 413
21.16384 418
21.18395 410
21.20407 405
21.22418 405
21.2443 329
21.26441 384
21.28452 316
21.30464 324
21.32475 340
21.34486 344
21.36498 331
21.38509 322
21.40521 292
21.42532 320
21.44543 313
21.46555 291
21.48566 280
21.50577 273
21.52589 290
21.546 275
21.56612 266
21.58623 302
21.60634 259
21.62646 292
21.64657 271
21.66668 276
21.6868 282
21.70691 261
21.72702 282
21.74714 265
21.76725 268
21.78737 274
21.80748 260
21.82759 238
21.84771 281
21.86782 254
21.88793 265
21.90805 276
21.92816 280
21.94828 248
21.96839 281
21.9885 259
22.00862 231
22.02873 258
22.04884 272
22.06896 274
22.08907 250
22.10919 249
22.1293 244
22.14941 234
22.16953 264
22.18964 278
22.20975 241
22.22987 257
22.24998 254
22.27009 248
22.29021 232
22.31032 261
22.33044 230
22.35055 241
22.37066 248
22.39078 226
22.41089 258
22.431 240
22.45112 226
22.47123 239
22.49135 236
22.51146 244
22.53157 249
22.55169 246
22.5718 246
22.59191 230
22.61203 223
22.63214 244
22.65225 218
22.67237 243
22.69248 251
22.7126 202
22.73271 229
22.75282 239
22.77294 244
22.79305 218
22.81316 204
22.83328 217
22.85339 245
22.87351 245
22.89362 238
22.91373 255
22.93385 241
22.95396 232
22.97407 233
22.99419 256
23.0143 252
23.03442 226
23.05453 232
23.07464 208
23.09476 213
23.11487 221
23.13498 228
23.1551 226
23.17521 213
23.19532 220
23.21544 243
23.23555 231
23.25567 210
23.27578 211
23.29589 236
23.31601 187
23.33612 212
23.35623 230
23.37635 195
23.39646 201
23.41658 222
23.43669 230
23.4568 217
23.47692 244
23.49703 251
23.51714 206
23.53726 243
23.55737 219
23.57749 237
23.5976 232
23.61771 225
23.63783 231
23.65794 222
23.67805 237
23.69817 224
23.71828 236
23.73839 226
23.75851 252
23.77862 223
23.79874 257
23.81885 217
23.83896 226
23.85908 274
23.87919 276
23.8993 255
23.91942 265
23.93953 257
23.95965 307
23.97976 308
23.99987 304
24.01999 291
24.0401 311
24.06021 268
24.08033 273
24.10044 221
24.12056 253
24.14067 246
24.16078 228
24.1809 235
24.20101 217
24.22112 221
24.24124 236
24.26135 220
24.28146 218
24.30158 223
24.32169 260
24.34181 267
24.36192 242
24.38203 258
24.40215 224
24.42226 245
24.44237 246
24.46249 239
24.4826 214
24.50272 283
24.52283 255
24.54294 275
24.56306 287
24.58317 258
24.60328 296
24.6234 278
24.64351 309
24.66362 331
24.68374 329
24.70385 323
24.72397 320
24.74408 336
24.76419 380
24.78431 357
24.80442 328
24.82453 379
24.84465 326
24.86476 367
24.88488 331
24.90499 328
24.9251 338
24.94522 315
24.96533 307
24.98544 336
25.00556 297
25.02567 294
25.04579 279
25.0659 252
25.08601 286
25.10613 292
25.12624 261
25.14635 291
25.16647 251
25.18658 289
25.20669 283
25.22681 277
25.24692 264
25.26704 268
25.28715 257
25.30726 252
25.32738 278
25.34749 290
25.3676 255
25.38772 256
25.40783 279
25.42795 289
25.44806 285
25.46817 260
25.48829 260
25.5084 287
25.52851 271
25.54863 293
25.56874 308
25.58886 332
25.60897 329
25.62908 372
25.6492 380
25.66931 466
25.68942 416
25.70954 439
25.72965 478
25.74976 463
25.76988 429
25.78999 494
25.81011 477
25.83022 471
25.85033 467
25.87045 466
25.89056 489
25.91067 519
25.93079 551
25.9509 558
25.97102 559
25.99113 559
26.01124 573
26.03136 602
26.05147 638
26.07158 659
26.0917 702
26.11181 698
26.13193 827
26.15204 801
26.17215 848
26.19227 923
26.21238 986
26.23249 1132
26.25261 1182
26.27272 1362
26.29283 1425
26.31295 1543
26.33306 1863
26.35318 2161
26.37329 2411
26.3934 2986
26.41352 3824
26.43363 4980
26.45374 6352
26.47386 8640
26.49397 11321
26.51409 14644
26.5342 18967
26.55431 23439
26.57443 27701
26.59454 30824
26.61465 31786
26.63477 30329
26.65488 26149
26.67499 20660
26.69511 15569
26.71522 11322
26.73534 7362
26.75545 4698
26.77556 2992
26.79568 2183
26.81579 1843
26.8359 1588
26.85602 1438
26.87613 1307
26.89625 1198
26.91636 1118
26.93647 915
26.95659 863
26.9767 821
26.99681 758
27.01693 715
27.03704 680
27.05716 597
27.07727 557
27.09738 555
27.1175 527
27.13761 472
27.15772 487
27.17784 505
27.19795 485
27.21806 479
27.23818 418
27.25829 425
27.27841 423
27.29852 461
27.31863 462
27.33875 434
27.35886 421
27.37897 410
27.39909 404
27.4192 350
27.43932 362
27.45943 380
27.47954 336
27.49966 380
27.51977 348
27.53988 362
27.56 324
27.58011 389
27.60023 372
27.62034 299
27.64045 329
27.66057 304
27.68068 296
27.70079 334
27.72091 324
27.74102 330
27.76113 310
27.78125 331
27.80136 273
27.82148 323
27.84159 297
27.8617 296
27.88182 284
27.90193 297
27.92204 280
27.94216 316
27.96227 287
27.98239 302
28.0025 267
28.02261 270
28.04273 295
28.06284 307
28.08295 266
28.10307 293
28.12318 258
28.1433 277
28.16341 280
28.18352 266
28.20364 252
28.22375 259
28.24386 288
28.26398 240
28.28409 256
28.3042 264
28.32432 264
28.34443 267
28.36455 248
28.38466 264
28.40477 264
28.42489 246
28.445 279
28.46511 256
28.48523 262
28.50534 220
28.52546 274
28.54557 247
28.56568 221
28.5858 232
28.60591 263
28.62602 224
28.64614 245
28.66625 231
28.68636 231
28.70648 233
28.72659 243
28.74671 243
28.76682 265
28.78693 242
28.80705 240
28.82716 239
28.84727 248
28.86739 242
28.8875 252
28.90762 243
28.92773 236
28.94784 237
28.96796 221
28.98807 216
29.00818 221
29.0283 245
29.04841 238
29.06853 264
29.08864 221
29.10875 236
29.12887 242
29.14898 229
29.16909 235
29.18921 252
29.20932 218
29.22943 223
29.24955 189
29.26966 231
29.28978 198
29.30989 238
29.33 242
29.35012 226
29.37023 212
29.39034 232
29.41046 252
29.43057 227
29.45069 231
29.4708 222
29.49091 220
29.51103 211
29.53114 217
29.55125 216
29.57137 225
29.59148 230
29.6116 197
29.63171 225
29.65182 242
29.67194 218
29.69205 188
29.71216 207
29.73228 214
29.75239 216
29.7725 204
29.79262 228
29.81273 246
29.83285 205
29.85296 221
29.87307 221
29.89319 209
29.9133 234
29.93341 205
29.95353 222
29.97364 237
29.99376 203
30.01387 244
30.03398 202
30.0541 194
30.07421 221
30.09432 194
30.11444 211
30.13455 179
30.15467 221
30.17478 223
30.19489 261
30.21501 208
30.23512 217
30.25523 177
30.27535 181
30.29546 242
30.31557 210
30.33569 203
30.3558 221
30.37592 221
30.39603 233
30.41614 201
30.43626 213
30.45637 213
30.47648 191
30.4966 213
30.51671 207
30.53683 213
30.55694 185
30.57705 211
30.59717 212
30.61728 221
30.63739 194
30.65751 199
30.67762 194
30.69773 212
30.71785 248
30.73796 243
30.75808 209
30.77819 224
30.7983 203
30.81842 209
30.83853 208
30.85864 226
30.87876 180
30.89887 203
30.91899 220
30.9391 212
30.95921 178
30.97933 174
30.99944 166
31.01955 192
31.03967 193
31.05978 195
31.0799 172
31.10001 172
31.12012 165
31.14024 216
31.16035 189
31.18046 203
31.20058 192
31.22069 198
31.2408 190
31.26092 209
31.28103 185
31.30115 196
31.32126 208
31.34137 203
31.36149 194
31.3816 210
31.40171 189
31.42183 205
31.44194 199
31.46206 187
31.48217 186
31.50228 182
31.5224 187
31.54251 177
31.56262 211
31.58274 184
31.60285 185
31.62297 186
31.64308 184
31.66319 191
31.68331 194
31.70342 195
31.72353 159
31.74365 171
31.76376 168
31.78387 189
31.80399 181
31.8241 188
31.84422 178
31.86433 193
31.88444 206
31.90456 170
31.92467 157
31.94478 159
31.9649 187
31.98501 161
32.00513 170
32.02524 159
32.04535 187
32.06547 212
32.08558 198
32.10569 191
32.12581 187
32.14592 166
32.16604 194
32.18615 181
32.20626 203
32.22638 187
32.24649 199
32.2666 170
32.28672 181
32.30683 194
32.32694 175
32.34706 207
32.36717 208
32.38729 186
32.4074 198
32.42751 184
32.44763 210
32.46774 185
32.48785 206
32.50797 205
32.52808 196
32.5482 212
32.56831 181
32.58842 175
32.60854 230
32.62865 214
32.64876 194
32.66888 184
32.68899 145
32.7091 206
32.72922 183
32.74933 182
32.76945 187
32.78956 191
32.80967 187
32.82979 187
32.8499 175
32.87001 169
32.89013 198
32.91024 187
32.93036 196
32.95047 180
32.97058 167
32.9907 156
33.01081 168
33.03092 169
33.05104 177
33.07115 186
33.09127 172
33.11138 178
33.13149 168
33.15161 176
33.17172 160
33.19183 195
33.21195 166
33.23206 154
33.25217 210
33.27229 173
33.2924 171
33.31252 195
33.33263 191
33.35274 196
33.37286 174
33.39297 192
33.41308 166
33.4332 173
33.45331 168
33.47343 187
33.49354 174
33.51365 165
33.53377 140
33.55388 167
33.57399 162
33.59411 174
33.61422 168
33.63434 151
33.65445 178
33.67456 160
33.69468 173
33.71479 177
33.7349 165
33.75502 174
33.77513 186
33.79524 151
33.81536 176
33.83547 159
33.85559 149
33.8757 160
33.89581 165
33.91593 151
33.93604 173
33.95615 168
33.97627 173
33.99638 176
34.0165 159
34.03661 165
34.05672 161
34.07684 161
34.09695 158
34.11706 171
34.13718 157
34.15729 167
34.17741 180
34.19752 165
34.21763 136
34.23775 168
34.25786 158
34.27797 150
34.29809 151
34.3182 181
34.33831 167
34.35843 165
34.37854 153
34.39866 155
34.41877 164
34.43888 165
34.459 165
34.47911 183
34.49922 179
34.51934 174
34.53945 145
34.55957 166
34.57968 155
34.59979 179
34.61991 168
34.64002 170
34.66013 184
34.68025 198
34.70036 171
34.72047 201
34.74059 196
34.7607 219
34.78082 197
34.80093 210
34.82104 207
34.84116 216
34.86127 213
34.88138 212
34.9015 184
34.92161 208
34.94173 212
34.96184 230
34.98195 224
35.00207 236
35.02218 225
35.04229 240
35.06241 202
35.08252 211
35.10264 214
35.12275 230
35.14286 218
35.16298 218
35.18309 208
35.2032 211
35.22332 209
35.24343 231
35.26354 216
35.28366 238
35.30377 232
35.32389 231
35.344 177
35.36411 237
35.38423 206
35.40434 231
35.42445 225
35.44457 216
35.46468 219
35.4848 235
35.50491 209
35.52502 202
35.54514 226
35.56525 216
35.58536 238
35.60548 222
35.62559 231
35.64571 232
35.66582 214
35.68593 249
35.70605 257
35.72616 212
35.74627 241
35.76639 234
35.7865 251
35.80661 225
35.82673 243
35.84684 262
35.86696 227
35.88707 255
35.90718 244
35.9273 242
35.94741 247
35.96752 290
35.98764 242
36.00775 258
36.02787 268
36.04798 245
36.06809 241
36.08821 242
36.10832 278
36.12843 273
36.14855 263
36.16866 319
36.18878 296
36.20889 322
36.229 364
36.24912 314
36.26923 416
36.28934 472
36.30946 523
36.32957 588
36.34968 746
36.3698 892
36.38991 1012
36.41003 1279
36.43014 1483
36.45025 1788
36.47037 2036
36.49048 2125
36.51059 2200
36.53071 2065
36.55082 1869
36.57094 1673
36.59105 1373
36.61116 1123
36.63128 926
36.65139 756
36.6715 549
36.69162 458
36.71173 383
36.73184 305
36.75196 280
36.77207 295
36.79219 275
36.8123 256
36.83241 239
36.85253 246
36.87264 213
36.89275 226
36.91287 241
36.93298 275
36.9531 230
36.97321 251
36.99332 220
37.01344 220
37.03355 214
37.05366 198
37.07378 208
37.09389 206
37.11401 190
37.13412 194
37.15423 202
37.17435 184
37.19446 196
37.21457 189
37.23469 187
37.2548 206
37.27491 167
37.29503 195
37.31514 212
37.33526 215
37.35537 193
37.37548 189
37.3956 220
37.41571 202
37.43582 192
37.45594 228
37.47605 193
37.49617 215
37.51628 226
37.53639 218
37.55651 218
37.57662 203
37.59673 208
37.61685 217
37.63696 212
37.65708 209
37.67719 181
37.6973 199
37.71742 200
37.73753 207
37.75764 189
37.77776 205
37.79787 193
37.81798 200
37.8381 194
37.85821 174
37.87833 192
37.89844 220
37.91855 230
37.93867 203
37.95878 221
37.97889 196
37.99901 218
38.01912 223
38.03924 195
38.05935 202
38.07946 224
38.09958 236
38.11969 232
38.1398 262
38.15992 206
38.18003 215
38.20015 206
38.22026 242
38.24037 209
38.26049 217
38.2806 233
38.30071 208
38.32083 226
38.34094 248
38.36105 222
38.38117 250
38.40128 201
38.4214 234
38.44151 255
38.46162 246
38.48174 235
38.50185 257
38.52196 231
38.54208 203
38.56219 244
38.58231 257
38.60242 211
38.62253 210
38.64265 195
38.66276 217
38.68287 213
38.70299 207
38.7231 206
38.74321 214
38.76333 223
38.78344 201
38.80356 228
38.82367 233
38.84378 204
38.8639 236
38.88401 210
38.90412 226
38.92424 223
38.94435 244
38.96447 262
38.98458 230
39.00469 253
39.02481 228
39.04492 278
39.06503 245
39.08515 302
39.10526 290
39.12538 314
39.14549 319
39.1656 365
39.18572 388
39.20583 448
39.22594 506
39.24606 563
39.26617 642
39.28628 743
39.3064 954
39.32651 1190
39.34663 1329
39.36674 1609
39.38685 1841
39.40697 1949
39.42708 2067
39.44719 1915
39.46731 1788
39.48742 1564
39.50754 1341
39.52765 1184
39.54776 977
39.56788 845
39.58799 636
39.6081 473
39.62822 361
39.64833 307
39.66845 301
39.68856 287
39.70867 289
39.72879 220
39.7489 238
39.76901 260
39.78913 247
39.80924 239
39.82935 237
39.84947 235
39.86958 240
39.8897 249
39.90981 213
39.92992 240
39.95004 254
39.97015 283
39.99026 259
40.01038 305
40.03049 329
40.05061 335
40.07072 415
40.09083 420
40.11095 523
40.13106 623
40.15117 628
40.17129 765
40.1914 900
40.21152 1020
40.23163 1092
40.25174 1077
40.27186 1044
40.29197 926
40.31208 823
40.3322 702
40.35231 663
40.37242 551
40.39254 469
40.41265 427
40.43277 322
40.45288 265
40.47299 237
40.49311 265
40.51322 205
40.53333 208
40.55345 222
40.57356 209
40.59368 214
40.61379 179
40.6339 214
40.65402 155
40.67413 184
40.69424 206
40.71436 202
40.73447 184
40.75458 184
40.7747 185
40.79481 182
40.81493 173
40.83504 203
40.85515 215
40.87527 188
40.89538 190
40.91549 181
40.93561 192
40.95572 180
40.97584 191
40.99595 173
41.01606 216
41.03618 205
41.05629 168
41.0764 176
41.09652 217
41.11663 211
41.13675 193
41.15686 188
41.17697 171
41.19709 191
41.2172 191
41.23731 176
41.25743 180
41.27754 206
41.29765 217
41.31777 189
41.33788 196
41.358 198
41.37811 191
41.39822 188
41.41834 166
41.43845 161
41.45856 192
41.47868 211
41.49879 216
41.51891 212
41.53902 189
41.55913 195
41.57925 214
41.59936 172
41.61947 175
41.63959 201
41.6597 177
41.67982 175
41.69993 184
41.72004 187
41.74016 175
41.76027 199
41.78038 187
41.8005 190
41.82061 183
41.84072 186
41.86084 189
41.88095 203
41.90107 194
41.92118 195
41.94129 194
41.96141 205
41.98152 193
42.00163 238
42.02175 236
42.04186 248
42.06198 225
42.08209 209
42.1022 282
42.12232 252
42.14243 286
42.16254 326
42.18266 351
42.20277 391
42.22289 461
42.243 514
42.26311 620
42.28323 713
42.30334 828
42.32345 1007
42.34357 1080
42.36368 1349
42.38379 1407
42.40391 1504
42.42402 1396
42.44414 1347
42.46425 1195
42.48436 1026
42.50448 896
42.52459 756
42.5447 660
42.56482 549
42.58493 455
42.60505 374
42.62516 295
42.64527 265
42.66539 224
42.6855 221
42.70561 222
42.72573 186
42.74584 192
42.76595 182
42.78607 205
42.80618 174
42.8263 200
42.84641 181
42.86652 174
42.88664 201
42.90675 168
42.92686 167
42.94698 190
42.96709 179
42.98721 187
43.00732 181
43.02743 195
43.04755 188
43.06766 147
43.08777 161
43.10789 168
43.128 139
43.14812 173
43.16823 160
43.18834 180
43.20846 167
43.22857 185
43.24868 158
43.2688 157
43.28891 168
43.30902 175
43.32914 153
43.34925 161
43.36937 144
43.38948 158
43.40959 159
43.42971 170
43.44982 149
43.46993 162
43.49005 175
43.51016 176
43.53028 174
43.55039 134
43.5705 138
43.59062 176
43.61073 173
43.63084 175
43.65096 174
43.67107 159
43.69119 178
43.7113 153
43.73141 178
43.75153 164
43.77164 182
43.79175 176
43.81187 150
43.83198 136
43.85209 161
43.87221 151
43.89232 134
43.91244 154
43.93255 172
43.95266 169
43.97278 140
43.99289 176
44.013 153
44.03312 155
44.05323 145
44.07335 168
44.09346 149
44.11357 157
44.13369 157
44.1538 159
44.17391 146
44.19403 153
44.21414 166
44.23426 164
44.25437 155
44.27448 162
44.2946 143
44.31471 171
44.33482 153
44.35494 187
44.37505 160
44.39516 183
44.41528 150
44.43539 163
44.45551 167
44.47562 176
44.49573 176
44.51585 176
44.53596 144
44.55607 178
44.57619 155
44.5963 150
44.61642 170
44.63653 119
44.65664 173
44.67676 157
44.69687 177
44.71698 164
44.7371 176
44.75721 169
44.77732 173
44.79744 186
44.81755 151
44.83767 143
44.85778 158
44.87789 167
44.89801 176
44.91812 167
44.93823 175
44.95835 163
44.97846 166
44.99858 157
45.01869 153
45.0388 163
45.05892 176
45.07903 185
45.09914 176
45.11926 169
45.13937 188
45.15949 167
45.1796 186
45.19971 171
45.21983 163
45.23994 207
45.26005 169
45.28017 166
45.30028 207
45.32039 171
45.34051 211
45.36062 173
45.38074 203
45.40085 187
45.42096 214
45.44108 228
45.46119 222
45.4813 255
45.50142 246
45.52153 307
45.54165 337
45.56176 365
45.58187 363
45.60199 486
45.6221 560
45.64221 599
45.66233 725
45.68244 800
45.70256 892
45.72267 927
45.74278 986
45.7629 923
45.78301 898
45.80312 794
45.82324 714
45.84335 641
45.86346 565
45.88358 549
45.90369 524
45.92381 399
45.94392 331
45.96403 251
45.98415 228
46.00426 200
46.02437 216
46.04449 214
46.0646 204
46.08472 175
46.10483 178
46.12494 183
46.14506 178
46.16517 190
46.18528 178
46.2054 188
46.22551 149
46.24563 168
46.26574 166
46.28585 155
46.30597 173
46.32608 183
46.34619 167
46.36631 154
46.38642 157
46.40653 155
46.42665 172
46.44676 149
46.46688 178
46.48699 162
46.5071 161
46.52722 153
46.54733 157
46.56744 164
46.58756 167
46.60767 157
46.62779 165
46.6479 146
46.66801 138
46.68813 170
46.70824 158
46.72835 155
46.74847 144
46.76858 162
46.78869 164
46.80881 157
46.82892 144
46.84904 130
46.86915 157
46.88926 150
46.90938 157
46.92949 144
46.9496 149
46.96972 149
46.98983 158
47.00995 152
47.03006 155
47.05017 174
47.07029 144
47.0904 173
47.11051 153
47.13063 145
47.15074 143
47.17086 148
47.19097 149
47.21108 161
47.2312 180
47.25131 148
47.27142 156
47.29154 170
47.31165 149
47.33176 142
47.35188 146
47.37199 142
47.39211 151
47.41222 149
47.43233 175
47.45245 147
47.47256 132
47.49267 148
47.51279 151
47.5329 155
47.55302 129
47.57313 152
47.59324 163
47.61336 176
47.63347 159
47.65358 146
47.6737 154
47.69381 169
47.71393 157
47.73404 131
47.75415 179
47.77427 148
47.79438 135
47.81449 158
47.83461 152
47.85472 167
47.87483 153
47.89495 151
47.91506 147
47.93518 146
47.95529 162
47.9754 150
47.99552 164
48.01563 143
48.03574 155
48.05586 150
48.07597 133
48.09609 169
48.1162 151
48.13631 161
48.15643 149
48.17654 160
48.19665 153
48.21677 166
48.23688 159
48.257 144
48.27711 171
48.29722 141
48.31734 158
48.33745 172
48.35756 159
48.37768 160
48.39779 158
48.4179 124
48.43802 137
48.45813 176
48.47825 161
48.49836 166
48.51847 156
48.53859 160
48.5587 170
48.57881 191
48.59893 172
48.61904 167
48.63916 160
48.65927 183
48.67938 182
48.6995 180
48.71961 177
48.73972 191
48.75984 168
48.77995 174
48.80006 169
48.82018 183
48.84029 172
48.86041 179
48.88052 166
48.90063 196
48.92075 161
48.94086 188
48.96097 172
48.98109 180
49.0012 169
49.02132 172
49.04143 167
49.06154 169
49.08166 175
49.10177 164
49.12188 184
49.142 168
49.16211 183
49.18223 180
49.20234 187
49.22245 184
49.24257 166
49.26268 167
49.28279 170
49.30291 193
49.32302 174
49.34313 198
49.36325 182
49.38336 186
49.40348 165
49.42359 179
49.4437 205
49.46382 200
49.48393 200
49.50404 220
49.52416 226
49.54427 205
49.56439 209
49.5845 235
49.60461 261
49.62473 224
49.64484 264
49.66495 233
49.68507 274
49.70518 307
49.7253 328
49.74541 345
49.76552 394
49.78564 431
49.80575 490
49.82586 499
49.84598 566
49.86609 689
49.8862 780
49.90632 902
49.92643 1050
49.94655 1292
49.96666 1491
49.98677 1831
50.00689 2153
50.027 2419
50.04711 2768
50.06723 3052
50.08734 3239
50.10746 3054
50.12757 2821
50.14768 2485
50.1678 2081
50.18791 1856
50.20802 1752
50.22814 1562
50.24825 1443
50.26837 1105
50.28848 901
50.30859 651
50.32871 525
50.34882 383
50.36893 344
50.38905 330
50.40916 320
50.42927 281
50.44939 271
50.4695 303
50.48962 283
50.50973 285
50.52984 245
50.54996 286
50.57007 288
50.59018 250
50.6103 256
50.63041 265
50.65053 239
50.67064 216
50.69075 226
50.71087 230
50.73098 179
50.75109 217
50.77121 190
50.79132 184
50.81143 172
50.83155 172
50.85166 198
50.87178 200
50.89189 181
50.912 165
50.93212 160
50.95223 172
50.97234 185
50.99246 163
51.01257 161
51.03269 157
51.0528 153
51.07291 168
51.09303 199
51.11314 151
51.13325 151
51.15337 140
51.17348 159
51.1936 143
51.21371 133
51.23382 133
51.25394 156
51.27405 152
51.29416 133
51.31428 158
51.33439 157
51.3545 137
51.37462 147
51.39473 159
51.41485 136
51.43496 151
51.45507 155
51.47519 145
51.4953 150
51.51541 159
51.53553 162
51.55564 151
51.57576 133
51.59587 121
51.61598 119
51.6361 142
51.65621 139
51.67632 130
51.69644 125
51.71655 134
51.73667 140
51.75678 144
51.77689 142
51.79701 138
51.81712 141
51.83723 148
51.85735 161
51.87746 156
51.89757 136
51.91769 135
51.9378 146
51.95792 119
51.97803 127
51.99814 152
52.01826 144
52.03837 140
52.05848 147
52.0786 150
52.09871 159
52.11883 138
52.13894 133
52.15905 140
52.17917 138
52.19928 151
52.21939 130
52.23951 133
52.25962 168
52.27974 132
52.29985 153
52.31996 140
52.34008 120
52.36019 142
52.3803 156
52.40042 137
52.42053 152
52.44064 121
52.46076 154
52.48087 143
52.50099 155
52.5211 150
52.54121 120
52.56133 124
52.58144 132
52.60155 160
52.62167 140
52.64178 126
52.6619 151
52.68201 149
52.70212 133
52.72224 145
52.74235 158
52.76246 133
52.78258 143
52.80269 145
52.8228 133
52.84292 161
52.86303 140
52.88315 144
52.90326 141
52.92337 145
52.94349 145
52.9636 159
52.98371 168
53.00383 152
53.02394 158
53.04406 185
53.06417 145
53.08428 151
53.1044 161
53.12451 164
53.14462 159
53.16474 152
53.18485 161
53.20497 138
53.22508 179
53.24519 151
53.26531 146
53.28542 148
53.30553 154
53.32565 182
53.34576 163
53.36587 161
53.38599 157
53.4061 177
53.42622 170
53.44633 145
53.46644 146
53.48656 148
53.50667 167
53.52678 145
53.5469 140
53.56701 158
53.58713 167
53.60724 174
53.62735 163
53.64747 172
53.66758 168
53.68769 181
53.70781 170
53.72792 143
53.74804 183
53.76815 176
53.78826 164
53.80838 155
53.82849 164
53.8486 189
53.86872 156
53.88883 148
53.90894 156
53.92906 135
53.94917 180
53.96929 152
53.9894 158
54.00951 180
54.02963 175
54.04974 157
54.06985 174
54.08997 192
54.11008 174
54.1302 177
54.15031 164
54.17042 172
54.19054 187
54.21065 192
54.23076 209
54.25088 157
54.27099 188
54.29111 186
54.31122 206
54.33133 213
54.35145 214
54.37156 200
54.39167 205
54.41179 216
54.4319 236
54.45201 229
54.47213 235
54.49224 213
54.51236 235
54.53247 295
54.55258 294
54.5727 297
54.59281 314
54.61292 377
54.63304 384
54.65315 426
54.67327 469
54.69338 576
54.71349 654
54.73361 751
54.75372 801
54.77383 885
54.79395 973
54.81406 1031
54.83417 954
54.85429 907
54.8744 847
54.89452 738
54.91463 672
54.93474 586
54.95486 681
54.97497 597
54.99508 593
55.0152 479
55.03531 414
55.05543 383
55.07554 338
55.09565 339
55.11577 347
55.13588 322
55.15599 377
55.17611 401
55.19622 468
55.21634 466
55.23645 536
55.25656 549
55.27668 510
55.29679 497
55.3169 476
55.33702 436
55.35713 398
55.37724 364
55.39736 335
55.41747 362
55.43759 307
55.4577 301
55.47781 272
55.49793 244
55.51804 202
55.53815 211
55.55827 213
55.57838 209
55.5985 173
55.61861 186
55.63872 177
55.65884 167
55.67895 202
55.69906 181
55.71918 152
55.73929 167
55.75941 190
55.77952 174
55.79963 175
55.81975 144
55.83986 171
55.85997 164
55.88009 163
55.9002 156
55.92031 164
55.94043 148
55.96054 166
55.98066 150
56.00077 161
56.02088 150
56.041 138
56.06111 137
56.08122 139
56.10134 151
56.12145 135
56.14157 136
56.16168 138
56.18179 141
56.20191 140
56.22202 153
56.24213 125
56.26225 174
56.28236 171
56.30248 148
56.32259 159
56.3427 136
56.36282 146
56.38293 155
56.40304 147
56.42316 134
56.44327 142
56.46338 168
56.4835 150
56.50361 145
56.52373 156
56.54384 140
56.56395 167
56.58407 149
56.60418 129
56.62429 151
56.64441 146
56.66452 141
56.68464 124
56.70475 142
56.72486 148
56.74498 145
56.76509 145
56.7852 159
56.80532 142
56.82543 125
56.84554 135
56.86566 137
56.88577 149
56.90589 158
56.926 159
56.94611 156
56.96623 162
56.98634 139
57.00645 173
57.02657 148
57.04668 169
57.0668 171
57.08691 174
57.10702 170
57.12714 197
57.14725 181
57.16736 185
57.18748 192
57.20759 152
57.22771 186
57.24782 190
57.26793 165
57.28805 190
57.30816 144
57.32827 160
57.34839 156
57.3685 169
57.38861 152
57.40873 141
57.42884 140
57.44896 134
57.46907 122
57.48918 116
57.5093 133
57.52941 114
57.54952 143
57.56964 120
57.58975 131
57.60987 144
57.62998 157
57.65009 149
57.67021 159
57.69032 166
57.71043 129
57.73055 166
57.75066 157
57.77078 150
57.79089 143
57.811 147
57.83112 145
57.85123 127
57.87134 154
57.89146 188
57.91157 144
57.93168 139
57.9518 143
57.97191 139
57.99203 133
58.01214 137
58.03225 128
58.05237 136
58.07248 168
58.09259 153
58.11271 146
58.13282 143
58.15294 133
58.17305 120
58.19316 147
58.21328 140
58.23339 123
58.2535 126
58.27362 133
58.29373 127
58.31385 147
58.33396 149
58.35407 120
58.37419 133
58.3943 147
58.41441 129
58.43453 159
58.45464 133
58.47475 147
58.49487 152
58.51498 143
58.5351 153
58.55521 136
58.57532 149
58.59544 155
58.61555 153
58.63566 163
58.65578 140
58.67589 160
58.69601 152
58.71612 150
58.73623 146
58.75635 145
58.77646 143
58.79657 124
58.81669 163
58.8368 131
58.85691 140
58.87703 155
58.89714 141
58.91726 152
58.93737 163
58.95748 133
58.9776 136
58.99771 170
59.01782 137
59.03794 130
59.05805 144
59.07817 150
59.09828 141
59.11839 171
59.13851 149
59.15862 154
59.17873 144
59.19885 170
59.21896 164
59.23908 154
59.25919 136
59.2793 154
59.29942 159
59.31953 180
59.33964 188
59.35976 192
59.37987 206
59.39998 234
59.4201 204
59.44021 225
59.46033 215
59.48044 233
59.50055 250
59.52067 290
59.54078 298
59.56089 269
59.58101 309
59.60112 335
59.62124 402
59.64135 414
59.66146 482
59.68158 516
59.70169 604
59.7218 682
59.74192 848
59.76203 941
59.78215 1092
59.80226 1248
59.82237 1490
59.84249 1676
59.8626 1757
59.88271 1848
59.90283 1930
59.92294 1805
59.94305 1655
59.96317 1438
59.98328 1306
60.0034 1187
60.02351 1161
60.04362 1044
60.06374 1063
60.08385 946
60.10396 818
60.12408 661
60.14419 518
60.16431 452
60.18442 324
60.20453 282
60.22465 269
60.24476 235
60.26487 212
60.28499 212
60.3051 188
60.32522 188
60.34533 217
60.36544 188
60.38556 183
60.40567 165
60.42578 151
60.4459 160
60.46601 161
60.48612 161
60.50624 140
60.52635 185
60.54647 154
60.56658 154
60.58669 165
60.60681 176
60.62692 144
60.64703 147
60.66715 161
60.68726 156
60.70738 165
60.72749 152
60.7476 154
60.76772 141
60.78783 166
60.80794 158
60.82806 144
60.84817 157
60.86828 159
60.8884 136
60.90851 153
60.92863 133
60.94874 155
60.96885 123
60.98897 132
61.00908 139
61.02919 146
61.04931 130
61.06942 143
61.08954 158
61.10965 134
61.12976 151
61.14988 150
61.16999 135
61.1901 179
61.21022 128
61.23033 138
61.25045 144
61.27056 130
61.29067 128
61.31079 140
61.3309 140
61.35101 159
61.37113 144
61.39124 133
61.41135 164
61.43147 167
61.45158 139
61.4717 150
61.49181 155
61.51192 145
61.53204 156
61.55215 134
61.57226 146
61.59238 150
61.61249 155
61.63261 150
61.65272 148
61.67283 135
61.69295 140
61.71306 149
61.73317 152
61.75329 145
61.7734 147
61.79352 157
61.81363 133
61.83374 159
61.85386 163
61.87397 150
61.89408 135
61.9142 168
61.93431 162
61.95442 155
61.97454 142
61.99465 153
62.01477 155
62.03488 156
62.05499 159
62.07511 164
62.09522 170
62.11533 179
62.13545 183
62.15556 166
62.17568 172
62.19579 181
62.2159 174
62.23602 213
62.25613 177
62.27624 183
62.29636 184
62.31647 223
62.33659 169
62.3567 199
62.37681 184
62.39693 188
62.41704 162
62.43715 170
62.45727 177
62.47738 141
62.49749 153
62.51761 155
62.53772 151
62.55784 144
62.57795 132
62.59806 136
62.61818 151
62.63829 145
62.6584 155
62.67852 134
62.69863 144
62.71875 115
62.73886 159
62.75897 157
62.77909 150
62.7992 130
62.81931 125
62.83943 157
62.85954 132
62.87965 126
62.89977 137
62.91988 140
62.94 142
62.96011 133
62.98022 126
63.00034 158
63.02045 132
63.04056 112
63.06068 119
63.08079 134
63.10091 154
63.12102 137
63.14113 142
63.16125 135
63.18136 128
63.20147 153
63.22159 151
63.2417 151
63.26182 146
63.28193 145
63.30204 133
63.32216 145
63.34227 171
63.36238 139
63.3825 142
63.40261 175
63.42272 135
63.44284 129
63.46295 151
63.48307 141
63.50318 138
63.52329 165
63.54341 151
63.56352 157
63.58363 168
63.60375 167
63.62386 161
63.64398 188
63.66409 187
63.6842 192
63.70432 205
63.72443 186
63.74454 221
63.76466 198
63.78477 239
63.80489 264
63.825 268
63.84511 285
63.86523 306
63.88534 335
63.90545 377
63.92557 373
63.94568 474
63.96579 433
63.98591 443
64.00602 418
64.02614 380
64.04625 344
64.06636 300
64.08648 310
64.10659 281
64.1267 316
64.14682 269
64.16693 294
64.18705 259
64.20716 224
64.22727 212
64.24739 181
64.2675 170
64.28761 155
64.30773 132
64.32784 162
64.34796 160
64.36807 147
64.38818 127
64.4083 129
64.42841 154
64.44852 149
64.46864 114
64.48875 143
64.50886 152
64.52898 141
64.54909 120
64.56921 121
64.58932 157
64.60943 147
64.62955 135
64.64966 128
64.66977 116
64.68989 140
64.71 131
64.73012 150
64.75023 141
64.77034 156
64.79046 135
64.81057 138
64.83068 133
64.8508 133
64.87091 129
64.89102 133
64.91114 126
64.93125 122
64.95137 135
64.97148 143
64.99159 128
65.01171 157
65.03182 127
65.05193 114
65.07205 135
65.09216 126
65.11228 150
65.13239 121
65.1525 135
65.17262 154
65.19273 147
65.21284 149
65.23296 153
65.25307 138
65.27319 137
65.2933 129
65.31341 137
65.33353 146
65.35364 149
65.37375 133
65.39387 144
65.41398 136
65.43409 154
65.45421 151
65.47432 158
65.49444 165
65.51455 141
65.53466 155
65.55478 152
65.57489 177
65.595 185
65.61512 180
65.63523 189
65.65535 202
65.67546 192
65.69557 208
65.71569 220
65.7358 204
65.75591 229
65.77603 187
65.79614 171
65.81626 174
65.83637 201
65.85648 157
65.8766 169
65.89671 167
65.91682 171
65.93694 167
65.95705 171
65.97716 162
65.99728 150
66.01739 144
66.03751 146
66.05762 159
66.07773 148
66.09785 145
66.11796 144
66.13807 138
66.15819 153
66.1783 119
66.19842 149
66.21853 150
66.23864 137
66.25876 159
66.27887 130
66.29898 137
66.3191 129
66.33921 148
66.35933 141
66.37944 168
66.39955 130
66.41967 152
66.43978 132
66.45989 145
66.48001 159
66.50012 147
66.52023 114
66.54035 168
66.56046 156
66.58058 143
66.60069 140
66.6208 130
66.64092 138
66.66103 133
66.68114 143
66.70126 154
66.72137 139
66.74149 134
66.7616 132
66.78171 166
66.80183 159
66.82194 131
66.84205 128
66.86217 139
66.88228 153
66.90239 150
66.92251 148
66.94262 148
66.96274 161
66.98285 147
67.00296 169
67.02308 165
67.04319 147
67.0633 152
67.08342 165
67.10353 171
67.12365 149
67.14376 185
67.16387 176
67.18399 169
67.2041 202
67.22421 200
67.24433 226
67.26444 221
67.28456 222
67.30467 261
67.32478 279
67.3449 282
67.36501 281
67.38512 308
67.40524 318
67.42535 345
67.44546 402
67.46558 419
67.48569 489
67.50581 506
67.52592 570
67.54603 665
67.56615 777
67.58626 845
67.60637 906
67.62649 1021
67.6466 1135
67.66672 1184
67.68683 1105
67.70694 1111
67.72706 1064
67.74717 979
67.76728 886
67.7874 930
67.80751 854
67.82763 868
67.84774 886
67.86785 941
67.88797 998
67.90808 975
67.92819 985
67.94831 1003
67.96842 1094
67.98853 1207
68.00865 1224
68.02876 1400
68.04888 1609
68.06899 1550
68.0891 1628
68.10922 1560
68.12933 1524
68.14944 1464
68.16956 1404
68.18967 1381
68.20979 1399
68.2299 1465
68.25001 1463
68.27013 1439
68.29024 1301
68.31035 1105
68.33047 1000
68.35058 838
68.3707 755
68.39081 627
68.41092 626
68.43104 561
68.45115 537
68.47126 486
68.49138 445
68.51149 354
68.5316 362
68.55172 298
68.57183 270
68.59195 231
68.61206 199
68.63217 193
68.65229 193
68.6724 195
68.69251 177
68.71263 162
68.73274 173
68.75286 170
68.77297 174
68.79308 183
68.8132 166
68.83331 169
68.85342 173
68.87354 139
68.89365 156
68.91376 171
68.93388 159
68.95399 156
68.97411 156
68.99422 147
69.01433 167
69.03445 146
69.05456 128
69.07467 140
69.09479 143
69.1149 114
69.13502 131
69.15513 149
69.17524 131
69.19536 147
69.21547 142
69.23558 156
69.2557 153
69.27581 136
69.29593 119
69.31604 127
69.33615 114
69.35627 152
69.37638 132
69.39649 135
69.41661 129
69.43672 110
69.45683 129
69.47695 126
69.49706 121
69.51718 143
69.53729 134
69.5574 123
69.57752 126
69.59763 141
69.61774 122
69.63786 148
69.65797 133
69.67809 136
69.6982 132
69.71831 125
69.73843 115
69.75854 113
69.77865 132
69.79877 133
69.81888 146
69.839 148
69.85911 119
69.87922 139
69.89934 129
69.91945 141
69.93956 134
69.95968 132
69.97979 117
69.9999 127
70.02002 148
70.04013 130
70.06025 118
70.08036 141
70.10047 127
70.12059 144
70.1407 136
70.16081 115
70.18093 120
70.20104 148
70.22116 133
70.24127 132
70.26138 142
70.2815 136
70.30161 102
70.32172 134
70.34184 138
70.36195 141
70.38207 119
70.40218 139
70.42229 113
70.44241 141
70.46252 127
70.48263 103
70.50275 124
70.52286 127
70.54297 116
70.56309 137
70.5832 145
70.60332 116
70.62343 148
70.64354 131
70.66366 114
70.68377 116
70.70388 132
70.724 128
70.74411 111
70.76423 121
70.78434 148
70.80445 121
70.82457 138
70.84468 121
70.86479 120
70.88491 121
70.90502 121
70.92513 113
70.94525 126
70.96536 133
70.98548 109
71.00559 111
71.0257 135
71.04582 126
71.06593 123
71.08604 113
71.10616 133
71.12627 129
71.14639 122
71.1665 122
71.18661 109
71.20673 132
71.22684 88
71.24695 123
71.26707 116
71.28718 137
71.3073 124
71.32741 120
71.34752 116
71.36764 141
71.38775 116
71.40786 112
71.42798 130
71.44809 125
71.4682 121
71.48832 125
71.50843 119
71.52855 130
71.54866 118
71.56877 116
71.58889 115
71.609 104
71.62911 112
71.64923 129
71.66934 129
71.68946 124
71.70957 114
71.72968 129
71.7498 99
71.76991 122
71.79002 110
71.81014 121
71.83025 144
71.85037 113
71.87048 133
71.89059 121
71.91071 114
71.93082 133
71.95093 126
71.97105 136
71.99116 130
72.01127 105
72.03139 105
72.0515 126
72.07162 111
72.09173 138
72.11184 110
72.13196 140
72.15207 129
72.17218 94
72.1923 123
72.21241 133
72.23253 116
72.25264 117
72.27275 116
72.29287 105
72.31298 119
72.33309 123
72.35321 116
72.37332 124
72.39344 119
72.41355 135
72.43366 126
72.45378 119
72.47389 139
72.494 125
72.51412 111
72.53423 127
72.55434 102
72.57446 140
72.59457 112
72.61469 143
72.6348 119
72.65491 124
72.67503 109
72.69514 139
72.71525 125
72.73537 135
72.75548 122
72.7756 133
72.79571 145
72.81582 124
72.83594 134
72.85605 137
72.87616 138
72.89628 141
72.91639 117
72.9365 134
72.95662 135
72.97673 148
72.99685 142
73.01696 158
73.03707 150
73.05719 160
73.0773 176
73.09741 184
73.11753 168
73.13764 177
73.15776 188
73.17787 204
73.19798 214
73.2181 235
73.23821 247
73.25832 282
73.27844 296
73.29855 329
73.31867 335
73.33878 445
73.35889 461
73.37901 449
73.39912 450
73.41923 462
73.43935 480
73.45946 418
73.47957 348
73.49969 318
73.5198 274
73.53992 274
73.56003 277
73.58014 300
73.60026 289
73.62037 276
73.64048 259
73.6606 257
73.68071 218
73.70083 195
73.72094 147
73.74105 172
73.76117 146
73.78128 142
73.80139 134
73.82151 142
73.84162 129
73.86174 116
73.88185 126
73.90196 124
73.92208 106
73.94219 129
73.9623 123
73.98242 130
74.00253 117
74.02264 142
74.04276 133
74.06287 133
74.08299 128
74.1031 109
74.12321 138
74.14333 113
74.16344 122
74.18355 120
74.20367 127
74.22378 134
74.2439 132
74.26401 122
74.28412 118
74.30424 119
74.32435 132
74.34446 117
74.36458 122
74.38469 128
74.40481 119
74.42492 130
74.44503 125
74.46515 125
74.48526 131
74.50537 109
74.52549 140
74.5456 126
74.56571 116
74.58583 140
74.60594 124
74.62606 120
74.64617 107
74.66628 122
74.6864 124
74.70651 127
74.72662 123
74.74674 114
74.76685 121
74.78697 138
74.80708 128
74.82719 113
74.84731 121
74.86742 119
74.88753 119
74.90765 132
74.92776 112
74.94787 134
74.96799 129
74.9881 130
75.00822 137
