3.00117 20070.3129244126
3.02128 19853.2305068477
3.0414 19461
3.06151 18622.6539094479
3.08162 18198.689547122
3.10174 17807.0018024956
3.12185 17283.0592387697
3.14197 16825.1043322774
3.16208 15989.4892690601
3.18219 15816.1588307467
3.20231 15185.6817396496
3.22242 14783.7841559297
3.24253 14559.4472256462
3.26265 14056.8040322644
3.28276 13566.3592494356
3.30288 12832.4545863277
3.32299 12718.0159716013
3.3431 12516
3.36322 12114.6768891271
3.38333 11747.0416115712
3.40344 11024.2475682732
3.42356 11024.0301242375
3.44367 10674.9124196239
3.46379 10105.1467126283
3.4839 9983
3.50401 9468.76026003261
3.52413 9155.59672562214
3.54424 8789.05484940609
3.56435 8369.46343872342
3.58447 8274.4821736301
3.60458 7777.29432257322
3.62469 7759.01994202755
3.64481 7426.70451705756
3.66492 6905.85785420444
3.68504 6971.60494006161
3.70515 6483.17224658373
3.72526 6425.2155774133
3.74538 6087.41942153872
3.76549 5784.06378870473
3.7856 5714
3.80572 5400.72125435255
3.82583 5262.93063980209
3.84595 5153.31540126752
3.86606 4790.53354663359
3.88617 4657.2077965299
3.90629 4425.13416682554
3.9264 4259
3.94651 4287.88157066138
3.96663 3891.74162426042
3.98674 3956.88028921127
4.00686 3676.46025525875
4.02697 3593.15550017066
4.04708 3369.2711409679
4.0672 3174
4.08731 3175.97209914556
4.10742 3035.87333919322
4.12754 3004.09897756483
4.14765 2965.70340831637
4.16776 2586.34025603278
4.18788 2688.86487282375
4.20799 2657.07929528465
4.22811 2535.02002690785
4.24822 2631.92396061917
4.26833 2383.71850221464
4.28845 2350.97235071127
4.30856 2279.16133816161
4.32867 2274.83902595381
4.34879 2354.06274112739
4.3689 2099
4.38902 2147.02843883633
4.40913 2070.89830635428
4.42924 2102.21805640083
4.44936 2171.14002467083
4.46947 1998.20981797579
4.48958 1943.05151687645
4.5097 1850
4.52981 1869.10697953992
4.54992 2076.91753593157
4.57004 1800.82379701309
4.59015 1947.87552297868
4.61027 1766.32208269977
4.63038 1730.83878996149
4.65049 1889.03191308301
4.67061 1660.94299636954
4.69072 1747.0967888434
4.71083 1738.9388526648
4.73095 1725.00165617721
4.75106 1702.14355101464
4.77118 1640.96392100778
4.79129 1719.01112638908
4.8114 1602
4.83152 1649.06609629574
4.85163 1624.80047764044
4.87174 1474.89227532789
4.89186 1535.8350896973
4.91197 1553.06498318704
4.93209 1504.00213313721
4.9522 1535
4.97231 1498.98155601133
4.99243 1477.95632594528
5.01254 1465.10382339797
5.03265 1571.74766727943
5.05277 1601.07587269531
5.07288 1506.09498341805
5.09299 1453.00566828097
5.11311 1466.01039942286
5.13322 1484.02064962953
5.15334 1495.97219759698
5.17345 1483.07964390033
5.19356 1553.88193915631
5.21368 1564.02681195153
5.23379 1516.03249461891
5.2539 1463
5.27402 1493.05503374611
5.29413 1550.08137795645
5.31425 1572.91632407675
5.33436 1527.97208559034
5.35447 1590.95256871382
5.37459 1572.00436288341
5.3947 1593
5.41481 1583.00222123779
5.43493 1618.07150268416
5.45504 1673.14719410028
5.47516 1763.81494655137
5.49527 1814.03585190719
5.51538 1769.9785119124
5.5355 1836
5.55561 1800.02765598125
5.57572 1913.00559569367
5.59584 1855.17242936056
5.61595 2069.70851983061
5.63606 2016.14628376775
5.65618 2025.95560178085
5.67629 2075.9627867937
5.69641 2148.01097675482
5.71652 2167.10937021012
5.73663 2379.34606185757
5.75675 2520.05243843616
5.77686 2486.98564580969
5.79697 2577.81519794852
5.81709 2644.01570857247
5.8372 2617
5.85732 2848.16346329169
5.87743 2873.98990281554
5.89754 2897.01962186117
5.91766 2900.90443523569
5.93777 2946.08223991196
5.95788 2809.10226458992
5.978 2778
5.99811 2689.9492700823
6.01823 2624.98076274169
6.03834 2618.88200713256
6.05845 2462.58878708887
6.07857 2233.22349249746
6.09868 2141.12732491785
6.11879 1991.0319501201
6.13891 1991.96889985057
6.15902 1840.86458134068
6.17913 1777.94812539079
6.19925 1709.7063996595
6.21936 1598.06393510706
6.23948 1628.99532575635
6.25959 1552.06193966651
6.2797 1474
6.29982 1512.89397993356
6.31993 1312.87170557083
6.34004 1385.13465282526
6.36016 1328.27619394174
6.38027 1226.97935293856
6.40039 1308.98732629927
6.4205 1217
6.44061 1101.96829783165
6.46073 1112.12806084326
6.48084 1186.95153099461
6.50095 1080.20783402512
6.52107 1069.98777790667
6.54118 1056.02120576662
6.56129 1036.01239349607
6.58141 1006.98705232522
6.60152 983.973159027662
6.62164 959.985966659209
6.64175 977.085678909501
6.66186 991.074924895027
6.68198 937.003875875556
6.70209 957.024372324649
6.7222 876
6.74232 970.019527677242
6.76243 880.878705469751
6.78255 865.984674097464
6.80266 850.96828196126
6.82277 885.996379358436
6.84289 854.008115226757
6.863 863
6.88311 845.006992256837
6.90323 895.068734727935
6.92334 876.795631017477
6.94346 771.012880164991
6.96357 854.905151371339
6.98368 835.055075122533
7.0038 804
7.02391 818.993686350048
7.04402 781.979791161061
7.06414 782.972189048175
7.08425 741.115194289798
7.10436 729.919401216967
7.12448 788.97234122402
7.14459 764.024629041098
7.16471 736.005632801998
7.18482 766.010219541867
7.20493 750.988735481697
7.22505 744.892816929433
7.24516 675.094563131909
7.26527 679.942122363317
7.28539 715.992441211219
7.3055 704
7.32562 679.986894291616
7.34573 675.994388442668
7.36584 672.00837701675
7.38596 675.031866993272
7.40607 655.982321687172
7.42618 687.992645897818
7.4463 671
7.46641 697.002268542989
7.48653 662.931166285453
7.50664 657.119701994101
7.52675 725.021888501159
7.54687 649.073379412653
7.56698 663.977926478766
7.58709 658.006249409627
7.60721 660.008003809141
7.62732 660.957371367057
7.64743 598.958400218408
7.66755 626.123766154982
7.68766 647.05420788688
7.70778 609.989090710842
7.72789 652.999425444764
7.748 624
7.76812 690.003554628667
7.78823 625.947316940656
7.80834 647.017990450936
7.82846 621.031123429982
7.84857 626.013949927499
7.86869 597.009358387672
7.8888 609
7.90891 645.014156247328
7.92903 638.914126960693
7.94914 575.989070463927
7.96925 621.929626155693
7.98937 583.129317486264
8.00948 527.963668150798
8.0296 618
8.04971 587.981719252344
8.06982 589.014987379997
8.08994 599.018896142698
8.11005 601.964951666787
8.13016 594.93097175777
8.15028 624.058387671984
8.17039 522.00922813299
8.1905 586
8.21062 539.998107409175
8.23073 599.04240106417
8.25085 572.967389327944
8.27096 590.999782087288
8.29107 565.016838160201
8.31119 585.985161588859
8.3313 594
8.35141 556.983824411734
8.37153 554.046615309952
8.39164 582.971463499634
8.41176 539.036958914171
8.43187 565.943416969082
8.45198 591.974229082354
8.4721 606
8.49221 561.985173060162
8.51232 554.987858435269
8.53244 533.989221611463
8.55255 559.879274274362
8.57266 599.982051261814
8.59278 581.02113475812
8.61289 577.995048802828
8.63301 590.004173903397
8.65312 579.96261811527
8.67323 548.023685584156
8.69335 594.04072163735
8.71346 570.030676853425
8.73357 588.954816944725
8.75369 597.012287428174
8.7738 557
8.79392 563.032090737674
8.81403 599.036431792296
8.83414 602.980010127102
8.85426 587.039900689983
8.87437 567.026167803603
8.89448 551.017750738791
8.9146 539
8.93471 560.012550008997
8.95483 556.922500617145
8.97494 501.010559715131
8.99505 565.857731763198
9.01517 568.049842879722
9.03528 542.992427554017
9.05539 567.000107970811
9.07551 549.005655796107
9.09562 588.017770391071
9.11573 565.952216110685
9.13585 574.170274450395
9.15596 629.105025129065
9.17608 514.037396616246
9.19619 585.963333841927
9.2163 592
9.23642 572.980315248252
9.25653 569.049872830233
9.27664 622.066373353208
9.29676 615.057317433252
9.31687 601.967504283771
9.33699 660.960499212946
9.3571 744
9.37721 819.024062399324
9.39733 866.128387534176
9.41744 987.222690724672
9.43755 1067.82313861127
9.45767 1126.96652779552
9.47778 1110.03430219728
9.4979 1069
9.51801 994.961843310647
9.53812 891.834984065125
9.55824 708.76509662989
9.57835 666.910210270609
9.59846 604.103018947244
9.61858 586.996230345303
9.63869 586.008704979683
9.6588 571
9.67892 627.067165359693
9.69903 642.89179286961
9.71915 545.948185976517
9.73926 595.970071170464
9.75937 547.054251846277
9.77949 553.997947136549
9.7996 535
9.81971 541.010781327359
9.83983 561.01118437011
9.85994 550.956635041594
9.88006 538.972709662013
9.90017 553.040145020612
9.92028 513.980939620735
9.9404 565
9.96051 504.003614240055
9.98062 568.99724216089
10.00074 490.929279407551
10.02085 535.886242211217
10.04097 524.072125147114
10.06108 488.993252924567
10.08119 526.985091108078
10.10131 527.995213714654
10.12142 530.017485607821
10.14153 533.936254933015
10.16165 464.895540002219
10.18176 474.932697078731
10.20187 508.942144553235
10.22199 547.985030128866
10.2421 560
10.26222 536.961493483775
10.28233 504.993896580817
10.30244 527.050338908965
10.32256 528.055771110043
10.34267 499.991417083592
10.36278 530.986322548604
10.3829 525
10.40301 547.989877736528
10.42313 490.947627393241
10.44324 497.016044857203
10.46335 494.96325702257
10.48347 524.975138678897
10.50358 511.033084030448
10.52369 486.998799446351
10.54381 514.016174820783
10.56392 545.041308530657
10.58403 566.940830903048
10.60415 500.962138891518
10.62426 533.002483762911
10.64438 482.036504165475
10.66449 488.992078767074
10.6846 493
10.70472 524.064916030452
10.72483 580.995627630372
10.74494 520.874542657193
10.76506 514.886493223705
10.78517 575.004370879176
10.80529 520.014796539863
10.8254 539
10.84551 526.997604492844
10.86563 542.021533506699
10.88574 558.079786562422
10.90585 594.047175412322
10.92597 531.06757082223
10.94608 525.007081064348
10.9662 509
10.98631 541.011939648144
11.00642 544.001151966602
11.02654 536.919008789606
11.04665 488.014996192596
11.06676 527.924264842029
11.08688 536.002035148728
11.10699 539.996922879406
11.1271 536
11.14722 506.985727448782
11.16733 518.039143010684
11.18745 535.991093800364
11.20756 518.023591926427
11.22767 523.977460274211
11.24779 524.015215783186
11.2679 487
11.28801 518.013576171602
11.30813 516.97677353497
11.32824 496.944099288361
11.34836 493.883112908294
11.36847 581.928300381761
11.38858 554.070074763098
11.4087 500
11.42881 519.006950605581
11.44892 522.022113013312
11.46904 552.998342678415
11.48915 522.046599017089
11.50927 531.980827461087
11.52938 528.01457036934
11.54949 522.990666402578
11.56961 547.999752092582
11.58972 527.998164671546
11.60983 551.025395156493
11.62995 552.014140622365
11.65006 572.948226713566
11.67017 571.078914361616
11.69029 511.998576550592
11.7104 566
11.73052 544.991069524458
11.75063 565.01018100364
11.77074 555.022985292077
11.79086 571.069558546227
11.81097 509.014532640957
11.83108 565.941901242169
11.8512 568
11.87131 512.984951883346
11.89143 523.049063239878
11.91154 565.109156637314
11.93165 600.053507107699
11.95177 540.065587926817
11.97188 541.977016387992
11.99199 555.001756007711
12.01211 549.006014086288
12.03222 574.012165509278
12.05234 553.908125458871
12.07245 514.988549629575
12.09256 526.038147179553
12.11268 492.984693007622
12.13279 545.991343522667
12.1529 514
12.17302 514.977199190322
12.19313 485.039451137767
12.21324 552.05690853329
12.23336 522.059025320651
12.25347 523.990870523919
12.27359 516.006361628025
12.2937 513
12.31381 516.983843771051
12.33393 466.969888554159
12.35404 488.052815679433
12.37415 495.997735579482
12.39427 503.973731569772
12.41438 511.026206569596
12.4345 477
12.45461 519.011210522854
12.47472 498.968939767713
12.49484 491.036678250055
12.51495 505.060767495253
12.53506 467.979543718842
12.55518 523.960482609596
12.57529 511.019920788325
12.5954 494
12.61552 542.010781106609
12.63563 509.960966960815
12.65575 508.987375196075
12.67586 498.973302821616
12.69597 527.987446357141
12.71609 521.988984049876
12.7362 568
12.75631 566.008952877719
12.77643 611.050911104758
12.79654 626.050515387258
12.81666 658.984034348623
12.83677 635.045885901086
12.85688 621.996080812354
12.877 628
12.89711 599.977339689972
12.91722 546.945542500777
12.93734 520.049005414752
12.95745 554.056577667816
12.97757 479.084371503017
12.99768 476.982440255824
13.01779 493.984650847878
13.03791 520.99545765322
13.05802 496.01154931774
13.07813 517.93104964906
13.09825 445.049555049409
13.11836 535.959378058144
13.13847 481.986667608403
13.15859 561.98946531612
13.1787 493
13.19882 478.972205175901
13.21893 458.100369079489
13.23904 570.064627623058
13.25916 496.164335551633
13.27927 474.98020815444
13.29938 494.973818985681
13.3195 517
13.33961 511.997441801254
13.35973 511.997195977263
13.37984 501.965366480961
13.39995 496.934307463634
13.42007 531.00194389721
13.44018 502.005900728569
13.46029 525.995086942427
13.48041 517.005722009949
13.50052 540.989239919139
13.52064 494.931489769203
13.54075 508.12429339596
13.56086 541.054679493777
13.58098 473.045037342139
13.60109 488.973938007371
13.6212 525
13.64132 488.981302610001
13.66143 509.05340811167
13.68154 522.95537150321
13.70166 490.999826163991
13.72177 526.94881935273
13.74189 528.013011143023
13.762 495
13.78211 488.004225171059
13.80223 492.97848154018
13.82234 479.044010361592
13.84245 523.953644052342
13.86257 498.059454199504
13.88268 478.994268832854
13.9028 508
13.92291 551.01172741817
13.94302 547.979081303127
13.96314 520.941229610919
13.98325 503.981819094212
14.00336 519.011003565981
14.02348 492.020821455407
14.04359 481.012331479173
14.06371 461.013510617382
14.08382 522.039085250306
14.10393 495.881188297223
14.12405 429.000273736001
14.14416 480.932133307964
14.16427 470.020587212572
14.18439 473.9999893501
14.2045 464
14.22461 470.002579506543
14.24473 476.029217961385
14.26484 491.965246175828
14.28496 459.001071411484
14.30507 486.992752932863
14.32518 463.006626205843
14.3453 491
14.36541 499.991552091251
14.38552 468.968396611149
14.40564 452.0002000594
14.42575 464.952146926785
14.44587 469.039006405496
14.46598 440.986581182057
14.48609 484.990070042248
14.50621 469.996903069454
14.52632 492.025933821304
14.54643 488.938577307035
14.56655 444.993683801125
14.58666 491.880574808222
14.60677 525.992351649821
14.62689 508.0160547577
14.647 481
14.66712 488.016135240738
14.68723 495.986695047096
14.70734 485.02065337224
14.72746 494.07652199924
14.74757 431.027620109057
14.76768 468.9631445217
14.7878 476
14.80791 483.993213634545
14.82803 460.001720040087
14.84814 486.030402261615
14.86825 471.072364223244
14.88837 455.983359892843
14.90848 483.976828305305
14.92859 491.998136887712
14.94871 505.012314817278
14.96882 514.966364843887
14.98894 469.004764968907
15.00905 525.136513721045
15.02916 528.089407820835
15.04928 478.016212521257
15.06939 498.988598562053
15.0895 505
15.10962 510.990634174789
15.12973 490.985002680304
15.14984 504.057259260411
15.16996 518.047878953938
15.19007 468.060614951101
15.21019 455.999818952514
15.2303 450
15.25041 446.014565385098
15.27053 477.972767333746
15.29064 430.996731792581
15.31075 479.924117609794
15.33087 469.00971760124
15.35098 481.998510953214
15.3711 463
15.39121 464.007002179193
15.41132 470.985136883084
15.43144 445.983321283008
15.45155 461.946891538692
15.47166 479.950520025268
15.49178 499.00980619366
15.51189 472.00462507371
15.53201 480.996498949382
15.55212 447.965513584565
15.57223 431.998139758636
15.59235 445.076576847663
15.61246 477.968530133725
15.63257 480.979729851228
15.65269 497.006586231348
15.6728 471
15.69291 515.014659657606
15.71303 499.939638309023
15.73314 482.066453940861
15.75326 542.929656122064
15.77337 528.055682387864
15.79348 526.934422044849
15.8136 606
15.83371 553.992993545603
15.85382 601.034057351614
15.87394 599.023925925586
15.89405 628.996204981494
15.91417 608.982388533444
15.93428 672.917445873133
15.95439 728.99189647939
15.97451 736.020416812272
15.99462 781.978708268129
16.01473 694.882328952418
16.03485 653.88304067701
16.05496 588.106110775105
16.07508 559.023838961248
16.09519 526.018346922455
16.1153 498
16.13542 496.995964464323
16.15553 481.969669142453
16.17564 469.002726816858
16.19576 471.035908839823
16.21587 445.001710117964
16.23598 472.971749405134
16.2561 489
16.27621 504.994622798907
16.29633 473.96804027633
16.31644 482.055103175035
16.33655 504.991327372919
16.35667 495.999752272275
16.37678 508.992265142752
16.39689 496.015525198949
16.41701 468.998569802842
16.43712 491.027648294182
16.45724 507.011303404097
16.47735 494.903786473989
16.49746 463.959976695235
16.51758 500.026404462334
16.53769 429.009286516238
16.5578 485
16.57792 496.998441697893
16.59803 505.015343852169
16.61814 502.956971239563
16.63826 475.0269322233
16.65837 478.993969700607
16.67849 474.002784634349
16.6986 473
16.71871 478.008043639314
16.73883 490.983490886911
16.75894 472.019798242977
16.77905 497.026770848604
16.79917 459.008731722434
16.81928 493.975232111453
16.8394 477
16.85951 463.020225042987
16.87962 515.994067754737
16.89974 460.954116269375
16.91985 492.92768802809
16.93996 491.00642549132
16.96008 498.998216031913
16.98019 498.990013117002
17.00031 522.994933672778
17.02042 477.957746034505
17.04053 474.049582558919
17.06065 505.984205426631
17.08076 480.974046245584
17.10087 521.996651578183
17.12099 479.013736915582
17.1411 495
17.16121 510.005843400285
17.18133 512.969800790229
17.20144 476.940342968048
17.22156 470.971686697455
17.24167 493.963920835558
17.26178 497.032699964145
17.2819 463
17.30201 515.014380310688
17.32212 486.942010359202
17.34224 457.060380158485
17.36235 516.933998215388
17.38247 499.016107984351
17.40258 504.022294545703
17.42269 465.000714392562
17.44281 497.003480618138
17.46292 482.024219247077
17.48303 543.050545689409
17.50315 531.974804075403
17.52326 536.028287015548
17.54338 520.966075963714
17.56349 589.980302192206
17.5836 584
17.60372 613.042740361848
17.62383 645.021651288266
17.64394 647.001778297522
17.66406 659.946884591166
17.68417 687.9773640075
17.70428 686.00918117386
17.7244 690
17.74451 727.010505706868
17.76463 726.998072018115
17.78474 700.812775391194
17.80485 598.021510277231
17.82497 665.963808071156
17.84508 596.093434831164
17.86519 537.017704363018
17.88531 525.01154153652
17.90542 547.975905823619
17.92554 502.009060169919
17.94565 556.076233168331
17.96576 526.109340947036
17.98588 492.002722044774
18.00599 497.010582231139
18.0261 466
18.04622 517.041452545999
18.06633 516.964506575083
18.08645 495.976164495795
18.10656 496.995621979114
18.12667 492.016643543641
18.14679 484.996795827694
18.1669 498
18.18701 500.012519318096
18.20713 543.046306261081
18.22724 535.917311264734
18.24735 498.991575543969
18.26747 527.993688152327
18.28758 498.022974977826
18.3077 504
18.32781 518.009373943054
18.34792 522.965712091904
18.36804 480.009851086481
18.38815 520.978744904085
18.40826 489.02426112397
18.42838 516.972266209988
18.44849 526.992692082535
18.46861 537.988221498671
18.48872 489.969078606372
18.50883 494.024121163475
18.52895 490.923719998827
18.54906 471.919655682779
18.56917 540.97128535295
18.58929 515.992456276382
18.6094 552
18.62951 443.978436066279
18.64963 496.07844592792
18.66974 480.88778514136
18.68986 436.013237336168
18.70997 466.938110609447
18.73008 489.997233065341
18.7502 488
18.77031 516.016489292423
18.79042 539.009823152554
18.81054 531.950772336274
18.83065 502.053741118495
18.85077 497.985910391605
18.87088 512.983347090232
18.89099 534.982786259459
18.91111 566.001891783138
18.93122 562.03100212896
18.95133 614.023455059371
18.97145 588.966824518302
18.99156 602.990662092238
19.01168 591.996408238485
19.03179 620.982692458053
19.0519 632
19.07202 612.029286026478
19.09213 664.001860571089
19.11224 632.050210983476
19.13236 706.947741675586
19.15247 649.118980255986
19.17258 617.974535816914
19.1927 665
19.21281 654.992649350137
19.23293 647.974740211343
19.25304 651.140393317812
19.27315 746.922907766741
19.29327 716.995721332022
19.31338 778.947019145348
19.33349 772.025234056931
19.35361 717.983477035625
19.37372 714.009617837997
19.39384 727.042964502908
19.41395 766.149613339898
19.43406 796.109823906944
19.45418 723.965766416976
19.47429 832.9860453781
19.4944 761
19.51452 810.044186836181
19.53463 802.975229103853
19.55475 800.987628503029
19.57486 790.998938817359
19.59497 810.950968205824
19.61509 835.99851232664
19.6352 803
19.65531 754.012980606505
19.67543 836.094785819157
19.69554 836.937093900374
19.71565 819.962885966759
19.73577 850.979089844052
19.75588 842.004789300463
19.776 851
19.79611 866.027883335122
19.81622 923.989682422124
19.83634 868.988457419234
19.85645 926.894949355755
19.87656 921.014567442292
19.89668 924.021906716389
19.91679 880.01367783889
19.93691 863.976069218941
19.95702 813.018765969061
19.97713 881.03580028281
19.99725 832.862344840574
20.01736 832.89384677328
20.03747 886.993867005538
20.05759 843.019556416477
20.0777 837
20.09782 830.990687241236
20.11793 824.997454273287
20.13804 824.996427709495
20.15816 832.934964161665
20.17827 854.062691715219
20.19838 783.014133153347
20.2185 840
20.23861 846.990234806039
20.25872 834.004089485056
20.27884 861.090195120467
20.29895 879.125200856628
20.31907 795.062499300421
20.33918 820.956787175531
20.35929 834.007399790534
20.37941 808.990128744653
20.39952 808.016226253347
20.41963 856.142954413583
20.43975 981.298190070426
20.45986 1084.78104025924
20.47998 1214.86041028181
20.50009 1346.94289864657
20.5202 1457
20.54032 1564.0292828468
20.56043 1518.91215780331
20.58054 1427.59752169778
20.60066 1170.35075741026
20.62077 1097.12348659583
20.64088 953.142844962249
20.661 862
20.68111 833.989482275416
20.70123 810.969629498095
20.72134 793.965302793937
20.74145 775.043880692656
20.76157 772.962400848495
20.78168 790.038075290715
20.80179 720.015340188483
20.82191 742.008683074913
20.84202 713.943115815078
20.86214 684.074333769832
20.88225 763.137752218984
20.90236 771.99063636803
20.92248 781.020498641315
20.94259 729.025442790123
20.9627 715
20.98282 758.029300213078
21.00293 750.944550205872
21.02305 713.967894158674
21.04316 733.925019970225
21.06327 752.035662092194
21.08339 711.005354853468
21.1035 727
21.12361 715.027482826093
21.14373 780.923971688326
21.16384 653.929638314144
21.18395 730.895325250227
21.20407 692.028165134597
21.22418 728.97292927235
21.2443 724
21.26441 738.989137227465
21.28452 689.97919398993
21.30464 701.989314067666
21.32475 680.961781584878
21.34486 718.016163766632
21.36498 672.009266614555
21.38509 710.987963600272
21.40521 699.998313257965
21.42532 712.99547857525
21.44543 677.933438609871
21.46555 655.02251211905
21.48566 678.977420591398
21.50577 667.02773453296
21.52589 659.997017762965
21.546 673
21.56612 669.973853951141
21.58623 643.003749090929
21.60634 681.098565575664
21.62646 703.04137181882
21.64657 671.9905647418
21.66668 691.040555124717
21.6868 620
21.70691 692.019593698999
21.72702 661.967313207273
21.74714 688.159803749696
21.76725 754.03177049746
21.78737 672.11568074188
21.80748 659.959557726486
21.82759 717.973797750656
21.84771 736.989892043884
21.86782 699.974692057805
21.88793 694.9942742534
21.90805 682.97447779383
21.92816 698.887442665241
21.94828 753.006204540829
21.96839 697.018557708481
21.9885 703
22.00862 680.967890590308
22.02873 652.9607793995
22.04884 643.046733270455
22.06896 675.003645625601
22.08907 636.055769438851
22.10919 637.980007356349
22.1293 684
22.14941 660.973545031575
22.16953 618.995931383065
22.18964 642.014642164508
22.20975 634.947376420439
22.22987 674.989863868057
22.24998 657.979189209207
22.27009 717.980934763159
22.29021 693.967091820447
22.31032 652.028232475168
22.33044 714.025554967575
22.35055 668.926744208309
22.37066 673.035370170821
22.39078 627.025011337052
22.41089 647.97850999141
22.431 685
22.45112 674.932901438056
22.47123 588.933260226505
22.49135 603.076512728251
22.51146 625.935693817444
22.53157 655.006570875614
22.55169 629.002690900914
22.5718 645
22.59191 617.994216226928
22.61203 646.080027061503
22.63214 665.882590980071
22.65225 587.978344201523
22.67237 666.959109896003
22.69248 606.063496529361
22.7126 595
22.73271 604.00526165359
22.75282 606.981974130601
22.77294 585.009686847212
22.79305 619.907153124397
22.81316 643.955159299682
22.83328 657.016343537809
22.85339 636.988905160232
22.87351 682.001016130869
22.89362 642.987426044405
22.91373 704.171453790732
22.93385 799.052536366608
22.95396 769.009332650299
22.97407 811.945437623011
22.99419 809.010636579344
23.0143 781
23.03442 738.987312956871
23.05453 741.967287385558
23.07464 681.858942264045
23.09476 635.029821890141
23.11487 635.014197879385
23.13498 616.003859784334
23.1551 623
23.17521 597.997104215709
23.19532 613.004400816361
23.21544 606.024053247068
23.23555 631.989820823678
23.25567 604.051471960912
23.27578 595.974287567436
23.29589 632.991067657278
23.31601 625.996224715014
23.33612 632.009417277078
23.35623 628.968179483086
23.37635 615.061786907558
23.39646 658.976538750096
23.41658 632.021171983975
23.43669 642.987418196405
23.4568 655
23.47692 635.997455682556
23.49703 646.995898740661
23.51714 632.002854077292
23.53726 652.970477648502
23.55737 634.081859274165
23.57749 602.972754089454
23.5976 704
23.61771 669.982086763013
23.63783 664.972440376844
23.65794 634.003408455415
23.67805 661.001103190399
23.69817 637.981981060755
23.71828 675.006061293449
23.73839 624.014649805583
23.75851 635.001882747345
23.77862 628.026102249686
23.79874 661.944884233577
23.81885 599.999948762137
23.83896 662.939069268224
23.85908 626.044445652884
23.87919 627.978566438124
23.8993 668
23.91942 641.003092502919
23.93953 668.988873572098
23.95965 623.938854691398
23.97976 645.926908074397
23.99987 670.972261241239
24.01999 676.010452204909
24.0401 656
24.06021 699.003913385655
24.08033 659.940133608508
24.10044 656.047431671425
24.12056 672.038242471363
24.14067 640.988230228971
24.16078 686.967833013343
24.1809 674
24.20101 647.000020183888
24.22112 667.01688341625
24.24124 662.960167625003
24.26135 651.955028660894
24.28146 669.068055472703
24.30158 616.985821248068
24.32169 683.989117348074
24.34181 643.989770529452
24.36192 678.042392951297
24.38203 696.009021135673
24.40215 697.982964707762
24.42226 676.076329832347
24.44237 653.957476508077
24.46249 701.99901615815
24.4826 648
24.50272 632.005277758588
24.52283 638.004621405517
24.54294 660.132168274135
24.56306 717.06382154935
24.58317 623.073980111711
24.60328 644.986210938464
24.6234 616
24.64351 638.035930269116
24.66362 713.02872660793
24.68374 705.026077968073
24.70385 735.038124366778
24.72397 689.995142211137
24.74408 751.947366448625
24.76419 759.003846860908
24.78431 765.00849758647
24.80442 778.999397317868
24.82453 793.103561368542
24.84465 869.990518553513
24.86476 797.083597958795
24.88488 817.983887148293
24.90499 796.012811780039
24.9251 784
24.94522 758.975571570338
24.96533 751.021585974045
24.98544 750.885932323542
25.00556 687.947998318605
25.02567 763.015944786918
25.04579 651.046525347975
25.0659 658
25.08601 714.001590955751
25.10613 651.849562707536
25.12624 588.044027244876
25.14635 666.858811787818
25.16647 654.076940454738
25.18658 610.021193841744
25.20669 609.997703518684
25.22681 601.989460451425
25.24692 596.037983391703
25.26704 650.025033523652
25.28715 620.965117509392
25.30726 639.973183217031
25.32738 628.01877108036
25.34749 628.985568586791
25.3676 665
25.38772 648.976097002513
25.40783 631.975197642013
25.42795 619.001311262678
25.44806 626.006834522726
25.46817 603.051863656552
25.48829 580.996276581039
25.5084 605
25.52851 593.99432741326
25.54863 596.011821679511
25.56874 593.959538093726
25.58886 579.949470877336
25.60897 631.951036520847
25.62908 627.015308978485
25.6492 627
25.66931 636.995167419908
25.68942 632.039902319863
25.70954 696.05260018279
25.72965 676.034541156245
25.74976 700.912591021438
25.76988 718.035688027386
25.78999 690.965290118601
25.81011 808.013132585461
25.83022 761.034164987625
25.85033 875.056326454614
25.87045 792.775665741014
25.89056 755.072000685632
25.91067 733.912454538597
25.93079 821.000549112212
25.9509 722
25.97102 727.079060118751
25.99113 779.919645769544
26.01124 651.821158474776
26.03136 662.875998221243
26.05147 699.027050096168
26.07158 644.046152700947
26.0917 617
26.11181 572.00005782261
26.13193 610.03141470177
26.15204 604.022754301546
26.17215 627.039372318928
26.19227 586.003066336182
26.21238 630.964461186735
26.23249 613.029696380491
26.25261 577.020513335787
26.27272 653.014807242295
26.29283 592.920621405596
26.31295 600.097599877375
26.33306 621.039386404298
26.35318 594.975412616812
26.37329 645.003623525905
26.3934 600
26.41352 676.021704771896
26.43363 622.942766713011
26.45374 636.023726109743
26.47386 616.059847203288
26.49397 603.981371938662
26.51409 627.99206181595
26.5342 630
26.55431 648.018532194074
26.57443 689.039240522446
26.59454 710.086565326799
26.61465 758.976880947551
26.63477 730.031291604859
26.65488 752.943850497037
26.67499 779.028786027893
26.69511 670.964836745086
26.71522 681.046648541651
26.73534 700.946373260776
26.75545 655.964095858259
26.77556 670.01616627928
26.79568 637.009889450827
26.81579 661.988179288722
26.8359 650
26.85602 605.992749406353
26.87613 622.991676247791
26.89625 609.095852357195
26.91636 664.050870119553
26.93647 568.088817060139
26.95659 580.992973790994
26.9767 562
26.99681 581.022961839104
27.01693 630.051398833977
27.03704 630.932029129215
27.05716 593.016978483234
27.07727 622.933429708309
27.09738 648.004881003458
27.1175 606
27.13761 559.020519577663
27.15772 640.012883427101
27.17784 571.891648842446
27.19795 583.908338835132
27.21806 603.993616980675
27.23818 592.025363469182
27.25829 573.995616253175
27.27841 614.027943012225
27.29852 650.997459394234
27.31863 621.966970469975
27.33875 611.935681437955
27.35886 596.899735938233
27.37897 671.993535491433
27.39909 604.022891457454
27.4192 625
27.43932 638.996031299876
27.45943 641.037667034273
27.47954 677.034178308622
27.49966 684.924923673301
27.51977 739.96920745326
27.53988 727.99099219429
27.56 784
27.58011 828.996956228062
27.60023 809.036556092883
27.62034 858.996952706127
27.64045 803.089546155714
27.66057 799.051088199103
27.68068 739.018781100261
27.70079 765.99478791313
27.72091 729.975138540492
27.74102 703.0005150838
27.76113 716.00895205789
27.78125 695.886324133736
27.80136 669.92279105012
27.82148 730.007303070383
27.84159 672.001550331104
27.8617 731
27.88182 679.936839739963
27.90193 656.009685562462
27.92204 678.063089297246
27.94216 705.96742950659
27.96227 701.042510304814
27.98239 680.988699408232
28.0025 727
28.02261 708.999621844185
28.04273 729.994865752439
28.06284 689.914815531271
28.08295 670.012616489197
28.10307 663.026199649243
28.12318 649.984743327789
28.1433 666
28.16341 600.988806134775
28.18352 639.043916807575
28.20364 630.872039647907
28.22375 561.954728800837
28.24386 606.870886129413
28.26398 627.046337301159
28.28409 567.997649587701
28.3042 616
28.32432 555.981509626617
28.34443 602.05712830295
28.36455 604.023045503495
28.38466 627.994912631184
28.40477 600.047141357023
28.42489 590.993658287521
28.445 608
28.46511 599.998094395305
28.48523 608.016167927326
28.50534 620.040806325323
28.52546 622.100841779543
28.54557 551.036898155051
28.56568 586.95611700861
28.5858 609
28.60591 624.990362635266
28.62602 581.974222455641
28.64614 570.922496016264
28.66625 526.958017633843
28.68636 586.961051890163
28.70648 555.010530508273
28.72659 591.981265801255
28.74671 593.98853291197
28.76682 566.979652562726
28.78693 561.008835960568
28.80705 590.164097186843
28.82716 636.089327980953
28.84727 547.023552763273
28.86739 606.989916372165
28.8875 557
28.90762 567.000813684213
28.92773 549.011715384016
28.94784 587.05580549117
28.96796 584.029913692481
28.98807 576.001495042933
29.00818 588.966214110468
29.0283 621
29.04841 589.984472638966
29.06853 573.975846375359
29.08864 556.993872797563
29.10875 573.929598785818
29.12887 593.998940801815
29.14898 588.986078680478
29.16909 618.990936496941
29.18921 606.983665691032
29.20932 568.963297969223
29.22943 554.032050462556
29.24955 602.124991503732
29.26966 624.025351990638
29.28978 590.035389880337
29.30989 579.988559276028
29.33 615
29.35012 601.969194123795
29.37023 582.009551339175
29.39034 605.02893585939
29.41046 602.009118146072
29.43057 607.981017544743
29.45069 617.999169170664
29.4708 626
29.49091 665.000395795988
29.51103 630.965845935915
29.53114 633.995950890519
29.55125 628.938013923557
29.57137 672.971410418519
29.59148 657.017230153518
29.6116 677
29.63171 755.031306709285
29.65182 794.036954144596
29.67194 838.07469875495
29.69205 889.243228886117
29.71216 991.935391576426
29.73228 992.917150911461
29.75239 1115.99695280574
29.7725 1030
29.79262 1134.03325925844
29.81273 1038.83417265752
29.83285 987.933574572904
29.85296 957.054842962787
29.87307 928.063618489189
29.89319 868.034234207387
29.9133 807
29.93341 790.007563522059
29.95353 802.958562530386
29.97364 737.879577435996
29.99376 711.01151000535
30.01387 715.972997282899
30.03398 729.012583664367
30.0541 712
30.07421 750.998019259441
30.09432 699.959332513214
30.11444 716.124880541376
30.13455 771.986475749404
30.15467 737.032676822946
30.17478 755.966185791065
30.19489 770.00750092808
30.21501 760.019132644211
30.23512 806.97243292325
30.25523 736.000085723145
30.27535 829.234322009021
30.29546 853.052372961813
30.31557 832.966473241143
30.33569 900.960166318693
30.3558 946
30.37592 923.001209425267
30.39603 970.106285605381
30.41614 1046.16525368664
30.43626 1138.79649896312
30.45637 1241.8588702762
30.47648 1321.93173439819
30.4966 1397
30.51671 1463.98657900798
30.53683 1374.91896993639
30.55694 1346.78801283461
30.57705 1178.27090141128
30.59717 1152.06185981928
30.61728 1043.12946152967
30.63739 933.047290636286
30.65751 851.968802073978
30.67762 826.024865843056
30.69773 845.917613586499
30.71785 772.083542544335
30.73796 886.913358947803
30.75808 838.01031570334
30.77819 906.971268213404
30.7983 885
30.81842 812.978908541229
30.83853 839.039843503458
30.85864 846.026469023438
30.87876 862.021882084985
30.89887 822.061734803786
30.91899 795.012236042368
30.9391 779
30.95921 802.00133990101
30.97933 790.017155016677
30.99944 809.951201166271
31.01955 743.133781076424
31.03967 748.914862715129
31.05978 789.036493195421
31.0799 694
31.10001 688.016545030488
31.12012 694.945034285681
31.14024 619.967349016689
31.16035 656.982812078529
31.18046 618.034081354047
31.20058 623.04052229113
31.22069 563.990938695246
31.2408 652
31.26092 622.940455198064
31.28103 588.993830458533
31.30115 605.056176133998
31.32126 619.986839803419
31.34137 605.073400437237
31.36149 546.015738429366
31.3816 559
31.40171 588.00346131578
31.42183 585.018663695943
31.44194 592.916539512819
31.46206 525.048129523786
31.48217 563.922060729561
31.50228 586.001672512347
31.5224 586
31.54251 613.000078978602
31.56262 575.948882260228
31.58274 539.972928485193
31.60285 550.923675479456
31.62297 570.028669802521
31.64308 524.034374762906
31.66319 525.987418196561
31.68331 548.00263904165
31.70342 548.01937490198
31.72353 586.046150013369
31.74365 597.009225480321
31.76376 591.060914744911
31.78387 538.086668582919
31.80399 526.96476152343
31.8241 617
31.84422 542.931549438021
31.86433 533.017955077827
31.88444 539.017319249246
31.90456 553.968247018579
31.92467 561.009979889084
31.94478 548.007073813139
31.9649 553
31.98501 565.00685432874
32.00513 566.96381654734
32.02524 533.980223893732
32.04535 548.975226028962
32.06547 550.968520895119
32.08558 582.992490045603
32.10569 566.003052131051
32.12581 579.002458517993
32.14592 560.971419680492
32.16604 545.015939666775
32.18615 566.02957260884
32.20626 567.973614271639
32.22638 586.005051227002
32.24649 569.993457357961
32.2666 603
32.28672 570.976438155495
32.30683 562.957394213222
32.32694 513.933690979799
32.34706 523.911052282287
32.36717 564.988796606161
32.38729 539.014630899173
32.4074 533
32.42751 543.993881621143
32.44763 526.020957370328
32.46774 566.044585873374
32.48785 546.10803091665
32.50797 515.002329833472
32.52808 542.9597903171
32.5482 558
32.56831 510.994113523122
32.58842 539.02147178109
32.60854 530.970907917815
32.62865 520.04947967116
32.64876 504.967423566593
32.66888 545.968112808692
32.68899 552.001744262375
32.7091 545
32.72922 528.015463424509
32.74933 557.996950787169
32.76945 518.913774719751
32.78956 522.928966831746
32.80967 554.004536195963
32.82979 523.011556645533
32.8499 527
32.87001 532.996690125703
32.89013 514.963602790929
32.91024 520.13007324785
32.93036 593.007083715589
32.95047 534.014598866278
32.97058 585.978899413709
32.9907 554
33.01081 577.005479645657
33.03092 546.949853946148
33.05104 519.033186090388
33.07115 563.914564531067
33.09127 563.03333954415
33.11138 547.992900730724
33.13149 564.001648725213
33.15161 565.028473839816
33.17172 653.041293403985
33.19183 622.92593787733
33.21195 611.077553821584
33.23206 632.095236025231
33.25217 557.998251835063
33.27229 643.960985465339
33.2924 640
33.31252 581.008365180593
33.33263 627.999376670955
33.35274 577.967812553149
33.37286 624.889241459783
33.39297 634.057773561708
33.41308 583.026369625041
33.4332 603
33.45331 635.989663166815
33.47343 582.957475785953
33.49354 592.006135786625
33.51365 568.07103233791
33.53377 555.995094559763
33.55388 552.032507326221
33.57399 516.994763815923
33.59411 572.025078752805
33.61422 583.988737236468
33.63434 572.995707836973
33.65445 568.9377518396
33.67456 535.022912618237
33.69468 564.9409877456
33.71479 607.004899335205
33.7349 556
33.75502 547.01686759657
33.77513 562.999946089896
33.79524 542.942339342023
33.81536 537.918738054243
33.83547 590.985577990495
33.85559 568.993074799806
33.8757 618
33.89581 590.994858089477
33.91593 612.011650031115
33.93604 593.975884470438
33.95615 609.914346346277
33.97627 626.044345429728
33.99638 574.023136258011
34.0165 593
34.03661 589.988618255828
34.05672 585.043832567036
34.07684 660.113132169075
34.09695 664.085987840688
34.11706 620.077000864787
34.13718 620.940138354083
34.15729 691.993155252754
34.17741 634.963680360008
34.19752 624.074128746109
34.21763 714.018212127747
34.23775 659.960534734783
34.25786 719.862823266213
34.27797 738.039062543204
34.29809 704.00593571591
34.3182 743
34.33831 826.011172231938
34.35843 797.979426417748
34.37854 809.970019582378
34.39866 786.918412996393
34.41877 862.984919554817
34.43888 793.062467983087
34.459 790
34.47911 800.999560685524
34.49922 782.960786304129
34.51934 738.945250028224
34.53945 732.008258136804
34.55957 740.929939988111
34.57968 799.980793181698
34.59979 773.013882898096
34.61991 776.010109522506
34.64002 784.982654924616
34.66013 764.019927667802
34.68025 794.985543656594
34.70036 756.027928970696
34.72047 790.925247650177
34.74059 828.983758850836
34.7607 851
34.78082 828.970060149627
34.80093 821.046417776531
34.82104 863.015665222403
34.84116 844.981354990599
34.86127 882.978156022417
34.88138 868.995707343112
34.9015 903
34.92161 896.983964320945
34.94173 874.020933712773
34.96184 901.98275131455
34.98195 851.11910499714
35.00207 811.107994893976
35.02218 750.962746999553
35.04229 853.974594504464
35.06241 822.987314429257
35.08252 842.015068773897
35.10264 801.804255642093
35.12275 710.962989711464
35.14286 765.90087577134
35.16298 769.010549746017
35.18309 767.002145492954
35.2032 754
35.22332 752.027787623399
35.24343 777.966373877119
35.26354 730.997811873657
35.28366 799.816612246301
35.30377 844.043417043176
35.32389 786.008565682363
35.344 824
35.36411 851.03018046865
35.38423 926.0379868739
35.40434 911.034037930888
35.42445 975.862005984061
35.44457 1007.92316632069
35.46468 1073.96767647318
35.4848 1060
35.50491 1052.00116822849
35.52502 1056.00378109119
35.54514 1084.15641366377
35.56525 1158.03146279996
35.58536 1073.12210475479
35.60548 1078.97952049873
35.62559 1065.0224094021
35.64571 1001.96451890915
35.66582 950.988443021375
35.68593 980.077636904297
35.70605 1005.92143601506
35.72616 957.983403062011
35.74627 998.03794654651
35.76639 925.002497090352
35.7865 996
35.80661 977.001724083596
35.82673 1011.992236883
35.84684 954.902206934282
35.86696 927.104763948314
35.88707 875.965286843779
35.90718 933.02281764132
35.9273 839
35.94741 872.003970521597
35.96752 817.947135772067
35.98764 801.989439230683
36.00775 768.186541241259
36.02787 705.973452635363
36.04798 768.993773286475
36.06809 696.036042548023
36.08821 680.008222258566
36.10832 701.021205954318
36.12843 702.950954278867
36.14855 675.079881455021
36.16866 731.02310686225
36.18878 653.051602532149
36.20889 669.98213332874
36.229 687
36.24912 681.959625116699
36.26923 628.967223132241
36.28934 646.041281839841
36.30946 647.013972464903
36.32957 644.993670357871
36.34968 658.974137951972
36.3698 685
36.38991 682.999551882879
36.41003 691.014777821861
36.43014 693.988562510644
36.45025 675.086127690474
36.47037 637.039473037989
36.49048 646.94403741878
36.51059 694.013789060986
36.53071 624.994488996278
36.55082 684.042093171088
36.57094 673.97736876977
36.59105 678.971026398832
36.61116 651.0216309682
36.63128 672.962914264015
36.65139 699.995668203534
36.6715 685
36.69162 651.991570765154
36.71173 669.032969523196
36.73184 675.984155408893
36.75196 657.05178127246
36.77207 639.993649597591
36.79219 659.991135773053
36.8123 654
36.83241 632.016106675587
36.85253 694.035928206903
36.87264 656.892162736894
36.89275 635.953230424604
36.91287 673.954968826274
36.93298 675.022262732985
36.9531 652
36.97321 661.003279201654
36.99332 656.995180092362
37.01344 648.953743273763
37.03355 628.965459293217
37.05366 671.926946693386
37.07378 681.004528699362
37.09389 665.019604722033
37.11401 631.006112702244
37.13412 676.023258444241
37.15423 659.97165046684
37.17435 659.004214716346
37.19446 653.017335559898
37.21457 643.022068904107
37.23469 618.018453777979
37.2548 584
37.27491 604.025041435035
37.29503 652.024529876054
37.31514 630.929543487245
37.33526 627.894517549197
37.35537 684.026217769341
37.37548 611.03297160325
37.3956 645
37.41571 641.997425042447
37.43582 655.017869264655
37.45594 655.950757479391
37.47605 626.014374294739
37.49617 637.013350065314
37.51628 610.006265446418
37.53639 633.987565370078
37.55651 628.981742704174
37.57662 594.001805108488
37.59673 636.075635207197
37.61685 654.946009116734
37.63696 613.064856828878
37.65708 613.970716896602
37.67719 647.990189456342
37.6973 649
37.71742 651.002335613487
37.73753 645.977368659866
37.75764 617.918801491054
37.77776 586.002613248744
37.79787 602.002346046785
37.81798 591.974397333337
37.8381 655
37.85821 663.980362403803
37.87833 617.984322094844
37.89844 638.00756343354
37.91855 614.041091983138
37.93867 613.018874484182
37.95878 598.977955035193
37.97889 638.000578124078
37.99901 597.989876488825
38.01912 612.004682613071
38.03924 585.931103383507
38.05935 575.057065288525
38.07946 614.941124563798
38.09958 622.000657358688
38.11969 616.011881361074
38.1398 593
38.15992 641.061616878442
38.18003 662.929657241083
38.20015 600.008372724407
38.22026 654.980659162982
38.24037 594.090113618459
38.26049 582.992220630275
38.2806 593
38.30071 587.008719324508
38.32083 613.997278921648
38.34094 579.937243322799
38.36105 585.891067056607
38.38117 626.008511542754
38.40128 582.032449556746
38.4214 592
38.44151 615.999193281974
38.46162 596.987458756428
38.48174 595.984251303331
38.50185 580.01645583431
38.52196 591.955373046906
38.54208 606.005114360019
38.56219 596.993420389564
38.58231 624.003057664704
38.60242 599.97122116805
38.62253 589.006892430454
38.64265 592.973830569435
38.66276 569.044446818811
38.68287 569.953671257599
38.70299 599.005989873095
38.7231 556
38.74321 573.016509703483
38.76333 587.982040859833
38.78344 569.005628522484
38.80356 587.00465804784
38.82367 566.999335175235
38.84378 589.990677161604
38.8639 570
38.88401 562.010920090524
38.90412 597.021944229639
38.92424 602.019407339446
38.94435 616.010274432628
38.96447 590.04359539877
38.98458 578.990098674535
39.00469 599.99040036491
39.02481 615.010388643093
39.04492 623.96930528314
39.06503 576.982656314778
39.08515 626.208460426357
39.10526 672.077282682272
39.12538 601.003880016789
39.14549 670.974583894989
39.1656 654
39.18572 634.003534765945
39.20583 655.045199069316
39.22594 666.948721570479
39.24606 623.045467506475
39.26617 645.918667071846
39.28628 681.021148997183
39.3064 624
39.32651 628.001414852782
39.34663 619.013047607935
39.36674 656.092399582981
39.38685 673.080853988744
39.40697 628.000740532623
39.42708 666.983941604174
39.44719 629.0302862116
39.46731 583.989276672826
39.48742 592.035994967173
39.50754 622.987739072691
39.52765 601.037740519834
39.54776 650.941907708458
39.56788 627.053953821205
39.58799 587.002062327559
39.6081 608
39.62822 601.994374484928
39.64833 599.977542713755
39.66845 576.977040359411
39.68856 578.027540128561
39.70867 554.00641312303
39.72879 576.986160123017
39.7489 605
39.76901 628.972229608672
39.78913 550.018390028148
39.80924 636.056346803863
39.82935 576.117472561465
39.84947 585.984149886697
39.86958 578.98632977715
39.8897 617
39.90981 601.973178202425
39.92992 545.975489334999
39.95004 563.070996724805
39.97015 588.973516608447
39.99026 583.036888420176
40.01038 572.98450142538
40.03049 589.012875029946
40.05061 547.005036851589
40.07072 605.033400484979
40.09083 594.99906598299
40.11095 597.870471017003
40.13106 529.971953183952
40.15117 616.920743782755
40.17129 598.010970018848
40.1914 590
40.21152 536.019369456586
40.23163 615.064745739746
40.25174 574.847583788157
40.27186 537.935984041071
40.29197 606.933845412497
40.31208 601.020064462679
40.3322 589
40.35231 573.003311607351
40.37242 593.003022369203
40.39254 586.040109763292
40.41265 610.081046855731
40.43277 549.00105043142
40.45288 613.953335667927
40.47299 595.024232456966
40.49311 558.991558469967
40.51322 558.005593689847
40.53333 555.978293448896
40.55345 543.018764141913
40.57356 563.983473086346
40.59368 559.989952097849
40.61379 589.985458255277
40.6339 597
40.65402 576.995883503691
40.67413 596.044326702661
40.69424 610.974697805068
40.71436 579.058779941391
40.73447 582.929690977291
40.75458 639.976296770425
40.7747 609
40.79481 568.008446565588
40.81493 619.039282541068
40.83504 606.988848790003
40.85515 620.002376584679
40.87527 591.057387950039
40.89538 582.956473973497
40.91549 633.005356136286
40.93561 587.005759155366
40.95572 648.009625435167
40.97584 599.977033640964
40.99595 647.084985829198
41.01606 610.188333658071
41.03618 545.958527762624
41.05629 648.977922174344
41.0764 605
41.09652 611.009664168806
41.11663 592.950739776423
41.13675 569.998350782052
41.15686 585.970895981015
41.17697 588.005868524887
41.19709 585.000927281904
41.2172 583
41.23731 574.993196832042
41.25743 561.993020698897
41.27754 565.004881718429
41.29765 566.975641898122
41.31777 588.954857147893
41.33788 600.031616524818
41.358 552
41.37811 575.006154044297
41.39822 550.96149484311
41.41834 522.973047016403
41.43845 526.948172433229
41.45856 557.930138763196
41.47868 580.999252188018
41.49879 561.014417856639
41.51891 550.011054176972
41.53902 585.012080747998
41.55913 563.956767050121
41.57925 561.079293583789
41.59936 600.975652034158
41.61947 574.062875793924
41.63959 543.008787485588
41.6597 550
41.67982 596.01358185913
41.69993 559.902052205653
41.72004 503.94590943464
41.74016 522.874408846657
41.76027 579.9961449264
41.78038 537.030825998448
41.8005 550
41.82061 574.008482700058
41.84072 575.978646605069
41.86084 557.035425961025
41.88095 598.952779339717
41.90107 593.974583390519
41.92118 618.030066752406
41.94129 555.006402421603
41.96141 599.012186629127
41.98152 569.959863076435
42.00163 549.984969444341
42.02175 547.02911050745
42.04186 574.924484130882
42.06198 604.989880806451
42.08209 594.010700216052
42.1022 569
42.12232 552.023889074838
42.14243 589.998811809905
42.16254 553.969850188173
42.18266 572.979484220485
42.20277 577.931631838617
42.22289 635.003921982313
42.243 591
42.26311 679.020083552855
42.28323 638.936490747191
42.30334 634.996295103315
42.32345 634.905908187083
42.34357 659.115805229099
42.36368 535.026625044538
42.38379 606.98605025216
42.40391 556.99044927538
42.42402 602.033864127464
42.44414 586.945949003265
42.46425 576.999317354901
42.48436 585.949971967624
42.50448 608.007386464658
42.52459 568.024515687685
42.5447 547
42.56482 582.004943149924
42.58493 568.031959951634
42.60505 617.036323943629
42.62516 573.128449203007
42.64527 550.931633182937
42.66539 604.013027899034
42.6855 524
42.70561 580.020746678648
42.72573 560.949107247786
42.74584 549.003644960945
42.76595 553.98566354453
42.78607 569.943269676607
42.80618 602.013844076348
42.8263 561
42.84641 595.014543173087
42.86652 600.009020171474
42.88664 622.030961829115
42.90675 608.117025279631
42.92686 561.020277115482
42.94698 578.999633077779
42.96709 549.013531367899
42.98721 558.022603599494
43.00732 599.998444833958
43.02743 573.008417085643
43.04755 605.993077620526
43.06766 571.995150714037
43.08777 604.01915620558
43.10789 553.003808106309
43.128 594
43.14812 566.996171133547
43.16823 597.016788649623
43.18834 582.007247060393
43.20846 615.938637610164
43.22857 619.024231621725
43.24868 605.995809620223
43.2688 617
43.28891 605.009783626106
43.30902 646.015046535976
43.32914 620.935606024736
43.34925 598.072860515781
43.36937 568.013497416608
43.38948 579.988770083339
43.40959 588.986614106068
43.42971 612.990047543732
43.44982 558.963175682918
43.46993 561.018266155713
43.49005 557.962662711101
43.51016 549.970603228246
43.53028 572.002029869487
43.55039 544.012181297727
43.5705 536
43.59062 530.014565695758
43.61073 553.000828822805
43.63084 523.930142810882
43.65096 515.942573430284
43.67107 550.998802690961
43.69119 526.999378093603
43.7113 562
43.73141 546.975155011081
43.75153 507.011442283025
43.77164 550.05699536273
43.79175 541.050235142191
43.81187 533.993946436195
43.83198 528.034898020655
43.85209 492.993351095836
43.87221 544.014642150616
43.89232 530.982823838588
43.91244 534.01930037961
43.93255 534.976160552931
43.95266 532.949261555948
43.97278 570.984562895486
43.99289 551.016628351628
44.013 529
44.03312 537.022448886388
44.05323 552.98436071486
44.07335 519.920773543658
44.09346 512.964212851392
44.11357 530.014795507993
44.13369 501.007009502164
44.1538 524
44.17391 564.004992344488
44.19403 550.988893309988
44.21414 553.979773123934
44.23426 535.993617482023
44.25437 554.003784797029
44.27448 536.989948349644
44.2946 571
44.31471 552.993082729594
44.33482 569.036583000495
44.35494 592.973698372579
44.37505 563.004493066962
44.39516 580.036652557223
44.41528 533.014012802478
44.43539 578.964399634206
44.45551 621.997386023827
44.47562 574.937651116632
44.49573 540.014920997195
44.51585 557.929863158405
44.53596 505.99821693489
44.55607 558.958352321227
44.57619 527.024462880588
44.5963 510
44.61642 561.063318807392
44.63653 580.905044182585
44.65664 487.943126654845
44.67676 546.849844729586
44.69687 579.000899657988
44.71698 565.01871381237
44.7371 551
44.75721 554.009160658375
44.77732 557.955676847682
44.79744 510.055233231559
44.81755 586.949845157314
44.83767 535.050147566018
44.85778 547.005902982321
44.87789 517.996794135215
44.89801 556.003485044298
44.91812 519.971503720904
44.93823 530.044379373045
44.95835 547.984260231524
44.97846 525.038430740229
44.99858 530.967438070905
45.01869 572.983946689787
45.0388 579
45.05892 548.96697517638
45.07903 520.965004728433
45.09914 513.03797631303
45.11926 542.974371444501
45.13937 536.002801766872
45.15949 540.007183601459
45.1796 518
45.19971 536.991404815074
45.21983 492.982682509519
45.23994 531.091786757668
45.26005 561.916328683717
45.28017 583.037578340845
45.30028 528.034399400838
45.32039 531.994868683952
45.34051 539.013093361045
45.36062 554.953629464527
45.38074 486.001946827041
45.40085 544.026082446788
45.42096 493.043440829844
45.44108 541.929468992519
45.46119 573.01084737263
45.4813 524
45.50142 517.003860475766
45.52153 509.97005462475
45.54165 492.003396177382
45.56176 507.982922599719
45.58187 502.008616512626
45.60199 504.997272931575
45.6221 501
45.64221 490.013046302193
45.66233 534.019834456372
45.68244 525.050473100182
45.70256 562.061384549272
45.72267 479.059877287686
45.74278 514.950414433236
45.7629 528
45.78301 510.99360221613
45.80312 516.027583429018
45.82324 542.995973106281
45.84335 507.115093729252
45.86346 484.973416379779
45.88358 522.959750619948
45.90369 546.994612138311
45.92381 530.970268718471
45.94392 471.000212962594
45.96403 528.074997137156
45.98415 533.968937359798
46.00426 527.006502148965
46.02437 525.00198055937
46.04449 512.018115156641
46.0646 473
46.08472 504.048012602694
46.10483 528.97587626068
46.12494 499.002374860055
46.14506 519.036973395743
46.16517 477.984961243039
46.18528 532.980262661999
46.2054 510
46.22551 540.988459152531
46.24563 467.940066239631
46.26574 495.092307526174
46.28585 512.033508287866
46.30597 496.980214273894
46.32608 530.982856239685
46.34619 525.997545271478
46.36631 541.997999700348
46.38642 512.972191891033
46.40653 502.99834505683
46.42665 504.013494606807
46.44676 509.005179333586
46.46688 511.971218164781
46.48699 538.013037244239
46.5071 476
46.52722 497.030869732
46.54733 511.019022394682
46.56744 523.997997426514
46.58756 513.999387294275
46.60767 524.995791164939
46.62779 509.013175923686
46.6479 490
46.66801 503.00788218306
46.68813 518.033542177944
46.70824 528.944720674048
46.72835 479.069539350671
46.74847 483.992638384208
46.76858 484.97392507769
46.78869 521.997951528116
46.80881 502.004210692808
46.82892 532.995158290415
46.84904 489.949875160616
46.86915 499.009946746749
46.88926 485.011422204653
46.90938 494.993056941098
46.92949 493.997593537413
46.9496 506
46.96972 495.974638609269
46.98983 476.007919819154
47.00995 493.995992172409
47.03006 480.968150357816
47.05017 523.958898069658
47.07029 520.004457909196
47.0904 520
47.11051 505.990827396799
47.13063 487.972240914685
47.15074 479.0236539464
47.17086 509.926962583653
47.19097 524.035800959214
47.21108 490.000495484695
47.2312 513
47.25131 478.998238098401
47.27142 499.982574649956
47.29154 460.032835807052
47.31165 522.949740918024
47.33176 483.056711416513
47.35188 497.981604855074
47.37199 497.001730689827
47.39211 492.99025859003
47.41222 484.042610855002
47.43233 540.9886948874
47.45245 470.870539503189
47.47256 475.958216401924
47.49267 488.96677240061
47.51279 521.986141371516
47.5329 522
47.55302 488.008929235814
47.57313 531.038843857364
47.59324 508.89967576197
47.61336 464.049552306
47.63347 460.990199051772
47.65358 474.968602827872
47.6737 516
47.69381 514.980076710528
47.71393 485.052481005314
47.73404 555.039446023475
47.75415 506.127121549201
47.77427 490.015273272074
47.79438 480.983118924676
47.81449 507.003362540451
47.83461 466.984175060079
47.85472 481.055885643638
47.87483 520.953938039796
47.89495 452.957503473427
47.91506 509.868735518537
47.93518 528.021953565123
47.95529 490.018644953312
47.9754 468
47.99552 462.988640213571
48.01563 461.048843993383
48.03574 504.00732286829
48.05586 472.028426482082
48.07597 491.973724781342
48.09609 488.004003843778
48.1162 501
48.13631 538.997277556624
48.15643 490.925616013293
48.17654 460.942240108228
48.19665 435.004443613185
48.21677 459.95028102795
48.23688 475.01142078093
48.257 464
48.27711 492.98330152485
48.29722 426.998413642069
48.31734 498.11007163467
48.33745 493.95213250147
48.35756 491.992758484879
48.37768 497.983295967844
48.39779 512.005388195291
48.4179 495
48.43802 524.979412764562
48.45813 457.931093012657
48.47825 466.071493233267
48.49836 480.99983521769
48.51847 475.998960258353
48.53859 474.011898373256
48.5587 450
48.57881 496.010847490789
48.59893 477.969643489327
48.61904 488.071173376228
48.63916 520.988047927691
48.65927 495.058349339553
48.67938 477.978723782192
48.6995 517
48.71961 501.986676455671
48.73972 498.030698653566
48.75984 543.052660148302
48.77995 522.160185590882
48.80006 479.915955483494
48.82018 565.973572483636
48.84029 503.039374993842
48.86041 477.011485451448
48.88052 509.004775088074
48.90063 488.990397966546
48.92075 504.015133458239
48.94086 500.964327673745
48.96097 524.026656074897
48.98109 464.028404681316
49.0012 455
49.02132 505.022820468211
49.04143 491.969803831468
49.06154 493.043972904796
49.08166 518.974897522421
49.10177 505.054893205764
49.12188 473.003361594057
49.142 502
49.16211 516.985497160075
49.18223 470.973847085017
49.20234 492.048928419932
49.22245 505.940525329561
49.24257 526.027663829543
49.26268 481.024353994847
49.28279 488.997364500604
49.30291 482.003141201378
49.32302 496.993524585529
49.34313 481.02483974102
49.36325 514.985299650634
49.38336 478.004027353871
49.40348 518.974043149886
49.42359 498.021012711829
49.4437 482
49.46382 524.995474865627
49.48393 478.965642947929
49.50404 506.07958600585
49.52416 513.069440384645
49.54427 473.994851925259
49.56439 517.982241767302
49.5845 506
49.60461 459.99569585642
49.62473 496.082059948042
49.64484 540.057087766679
49.66495 529.175210864578
49.68507 461.971167030465
49.70518 551.938830540874
49.7253 539
49.74541 529.002742157728
49.76552 528.981990807085
49.78564 510.019667850959
49.80575 530.962175061346
49.82586 491.011834243277
49.84598 528.967006856118
49.86609 525.012265856146
49.8862 511
49.90632 525.981594545942
49.92643 483.972079849238
49.94655 501.046244311382
49.96666 506.973838577401
49.98677 524.999053221769
50.00689 511.001750427398
50.027 528
50.04711 523.976498016297
50.06723 467.979923510896
50.08734 493.016777200272
50.10746 482.950983816213
50.12757 534.97174268387
50.14768 517.995080015509
50.1678 560
50.18791 545.967415210521
50.20802 477.979963031361
50.22814 495.992529429339
50.24825 470.964843131865
50.26837 522.958109707637
50.28848 504.027029675165
50.30859 503.988264309906
50.32871 534.011307988583
50.34882 535.981515581396
50.36893 512.98287731103
50.38905 532.131094741429
50.40916 569.062518805035
50.42927 514.967755770945
50.44939 598.982943808347
50.4695 555
50.48962 556.994462833181
50.50973 528.974293504559
50.52984 540.047082605696
50.54996 558.975366629315
50.57007 553.051310435546
50.59018 518.994724274301
50.6103 548
50.63041 520.002987509491
50.65053 557.007627858355
50.67064 520.952567291063
50.69075 534.940004616652
50.71087 539.027748669382
50.73098 515.009544313311
50.75109 524.992603999836
50.77121 527.994579988646
50.79132 523.022620275242
50.81143 558.015010569731
50.83155 524.857472876353
50.85166 486.987194203931
50.87178 521.977160028719
50.89189 508.01750085239
50.912 491
50.93212 526.992854832197
50.95223 483.974104693654
50.97234 505.021663605606
50.99246 485.045752126271
51.01257 479.990781089626
51.03269 490.991937584783
51.0528 503
51.07291 487.991473181029
51.09303 484.020331402565
51.11314 503.015385301379
51.13325 491.058234709358
51.15337 488.934412093947
51.17348 533.026505682536
51.1936 454
51.21371 491.034082208986
51.23382 524.980905069244
51.25394 478.944453763052
51.27405 478.024676031321
51.29416 456.996338020076
51.31428 483.979843961731
51.33439 477.011355579093
51.3545 472
51.37462 520.011327743543
51.39473 494.982275307238
51.41485 496.918404856262
51.43496 448.989584124651
51.45507 510.91922448149
51.47519 515.011700592008
51.4953 497
51.51541 502.997622386113
51.53553 492.009024030839
51.55564 508.997463776182
51.57576 482.061023490921
51.59587 480.940140040349
51.61598 524.003994558538
51.6361 489
51.65621 527.005984753613
51.67632 493.966655502527
51.69644 488.010219789626
51.71655 497.938340041589
51.73667 532.954534827124
51.75678 542.014482751795
51.77689 509.021944261774
51.79701 477.999524149019
51.81712 490.994007402264
51.83723 474.019356748057
51.85735 495.923466386261
51.87746 447.936320459753
51.89757 532.97915556417
51.91769 456.031396649784
51.9378 478
51.95792 530.993907229855
51.97803 493.998117441017
51.99814 532.028875049353
52.01826 506.040988342715
52.03837 509.001511367444
52.05848 505.975445671665
52.0786 538
52.09871 500.000410944664
52.11883 537.006912176145
52.13894 499.960700497178
52.15905 509.023714910661
52.17917 481.993871095645
52.19928 525.956382453652
52.21939 528.020589878822
52.23951 490.006908655044
52.25962 551.054729558743
52.27974 551.904135498389
52.29985 504.998762517275
52.31996 544.942175090142
52.34008 535.025791406203
52.36019 511.013570375519
52.3803 486
52.40042 496.03000486498
52.42053 517.981083934755
52.44064 492.016630898112
52.46076 530.964253941771
52.48087 517.008181286954
52.50099 533.993616861062
52.5211 528
52.54121 518.996810470738
52.56133 518.012712665178
52.58144 520.956887315488
52.60155 496.962223463943
52.62167 539.973274100435
52.64178 520.017500955194
52.6619 520
52.68201 498.992528554983
52.70212 504.019637951232
52.72224 525.028046146521
52.74235 518.084474422046
52.76246 488.972500776322
52.78258 535.967974159651
52.80269 521.023117207347
52.8228 491
52.84292 544.040132486309
52.86303 544.972629335389
52.88315 526.955135430758
52.90326 524.939476948467
52.92337 559.011346955847
52.94349 520.007274118835
52.9636 540
52.98371 529.002676909691
53.00383 564.061942014593
53.02394 582.981041994046
53.04406 565.000680235111
53.06417 583.979094329422
53.08428 593.968799568869
53.1044 619
53.12451 562.00546028474
53.14462 632.029702048733
53.16474 584.877098251914
53.18485 564.959190631241
53.20497 582.018710108445
53.22508 560.978184991577
53.24519 607.000193459759
53.26531 551.976519816321
53.28542 562.054127809435
53.30553 612.014399981204
53.32565 586.954492560927
53.34576 595.969060893933
53.36587 573.127964283505
53.38599 488.996588847097
53.4061 578
53.42622 570.946977400078
53.44633 535.016617112039
53.46644 575.041924253897
53.48656 556.064138418412
53.50667 529.044808701309
53.52678 505.997697457853
53.5469 538
53.56701 573.004073366409
53.58713 566.00539418385
53.60724 574.967045470456
53.62735 530.111667875034
53.64747 522.939621859462
53.66758 576.976378798177
53.68769 566.003096100553
53.70781 567.987118020975
53.72792 532.007703459569
53.74804 563.966245647161
53.76815 486.811912323269
53.78826 482.848040770691
53.80838 573.968898244347
53.82849 538.017942640708
53.8486 538
53.86872 542.027933842575
53.88883 575.995193705767
53.90894 533.921322696109
53.92906 526.971232183722
53.94917 547.964368013302
53.96929 566.99500434328
53.9894 567
54.00951 554.991048381901
54.02963 549.037377543079
54.04974 585.01588551302
54.06985 550.133310733919
54.08997 525.955782706837
54.11008 580.972447817566
54.1302 567
54.15031 568.001052067225
54.17042 556.978791496631
54.19054 536.980384864994
54.21065 535.012799072737
54.23076 535.945309754271
54.25088 567.008992275426
54.27099 528.007528411764
54.29111 574.045028943908
54.31122 628.956173973355
54.33133 523.903360385377
54.35145 540.09109999848
54.37156 554.978062352722
54.39167 555.053713623932
54.41179 498.018787995851
54.4319 509
54.45201 545.992847392636
54.47213 509.012655300772
54.49224 547.973778643618
54.51236 495.98912881656
54.53247 553.985675315841
54.55258 513.98946831587
54.5727 579
54.59281 533.979378518712
54.61292 542.032095908617
54.63304 557.968883198133
54.65315 530.013873866083
54.67327 547.987983896666
54.69338 527.035331268316
54.71349 503.998991448871
54.73361 523.007618083973
54.75372 532.020582921003
54.77383 557.005941977223
54.79395 543.998124281916
54.81406 556.007798615339
54.83417 539.993422373426
54.85429 566.990506305743
54.8744 560
54.89452 542.99194671679
54.91463 545.012197481711
54.93474 540.939005233709
54.95486 519.921590980155
54.97497 601.916284806086
54.99508 591.050151499603
55.0152 555
55.03531 586.008235947289
55.05543 562.92977994821
55.07554 530.00731348661
55.09565 558.949786814505
55.11577 549.041063207276
55.13588 530.994068652011
55.15599 550.995253704894
55.17611 532.981046645054
55.19622 504.001880031656
55.21634 529.037155129969
55.23645 526.98064669735
55.25656 524.999093327491
55.27668 531.979113080821
55.29679 548.007699409066
55.3169 510
55.33702 526.049260479655
55.35713 564.98797884831
55.37724 523.952980402008
55.39736 531.992832363575
55.41747 518.01296447015
55.43759 539.972618258897
55.4577 573
55.47781 488.989218040094
55.49793 530.006541155158
55.51804 479.953486247394
55.53815 522.831764910723
55.55827 554.037877476845
55.57838 515.9868023207
55.5985 564
55.61861 529.008844630144
55.63872 594.016966776097
55.65884 529.83403421728
55.67895 492.96533155795
55.69906 530.938135169741
55.71918 537.006090493401
55.73929 542.985347425488
55.75941 571.996621333287
55.77952 535.976724588693
55.79963 547.038106198302
55.81975 555.953215373013
55.83986 531.990586263068
55.85997 567.946258607034
55.88009 568.020235075885
55.9002 526
55.92031 563.011135191999
55.94043 552.985929424442
55.96054 555.988927083967
55.98066 538.026129931612
56.00077 537.993678108208
56.02088 547.973984929758
56.041 569
56.06111 520.978362769236
56.08122 516.030839139347
56.10134 544.983136863796
56.12145 513.014907940729
56.14157 550.924728670567
56.16168 573.015682425735
56.18179 535.017505536791
56.20191 517.995769327217
56.22202 532.059954244996
56.24213 590.97992704057
56.26225 513.848241612428
56.28236 529.851901768124
56.30248 593.996696418942
56.32259 554.007653294772
56.3427 580
56.36282 565.986879089706
56.38293 574.02796084428
56.40304 585.996504042055
56.42316 578.993463176255
56.44327 601.945384004384
56.46338 620.026548581724
56.4835 585
56.50361 650.019447694327
56.52373 627.929940696961
56.54384 593.961632633827
56.56395 599.900674290599
56.58407 637.017259226002
56.60418 581.050022612896
56.62429 565.001702630399
56.64441 551.988516972977
56.66452 550.05056040898
56.68464 620.047637344669
56.70475 580.864969640769
56.72486 551.026745109579
56.74498 547.990520848622
56.76509 559.998871021498
56.7852 555
56.80532 564.000015073969
56.82543 536.915475389264
56.84554 493.026861262837
56.86566 548.923944111889
56.88577 532.07425877094
56.90589 494.00199806819
56.926 514
56.94611 518.014492809523
56.96623 568.050436040105
56.98634 563.947060606193
57.00645 536.057452668427
57.02657 534.951840116316
57.04668 572.995217625237
57.0668 541
57.08691 543.019089832995
57.10702 579.996801310285
57.12714 536.912973063945
57.14725 536.878010882915
57.16736 589.986921858699
57.18748 548.041530834316
57.20759 543.988869239709
57.22771 550.980661954591
57.24782 495.989103779174
57.26793 535.052181868213
57.28805 537.99231371475
57.30816 543.991353697842
57.32827 532.048143697874
57.34839 498.006553177514
57.3685 512
57.38861 517.986842165364
57.40873 478.972962278506
57.42884 496.066076024202
57.44896 509.0491722129
57.46907 475.991834712141
57.48918 518.967677330822
57.5093 515
57.52941 516.015823064603
57.54952 537.960254465897
57.56964 463.943860184419
57.58975 489.977915588785
57.60987 474.961430688501
57.62998 525.007478714002
57.65009 458.023099720249
57.67021 470.01401162135
57.69032 482.005650444627
57.71043 485.995678993623
57.73055 485.037082206722
57.75066 502.017412900598
57.77078 480.992036527745
57.79089 513.993733317411
57.811 496
57.83112 501.001709112134
57.85123 494.000584978846
57.87134 494.957692295248
57.89146 470.968673503885
57.91157 513.976955719652
57.93168 491.017135185864
57.9518 502
57.97191 501.990392332693
57.99203 468.941548484638
58.01214 454.063876435136
58.03225 505.946746389683
58.05237 497.979214339877
58.07248 538.978393471547
58.09259 528.005298170369
58.11271 529.996948884436
58.13282 500.954323804932
58.15294 475.049463334208
58.17305 517.994656130576
58.19316 478.014421626846
58.21328 507.998756787721
58.23339 472.007769857117
58.2535 483
58.27362 459.031903433876
58.29373 527.026674118993
58.31385 484.93529518924
58.33396 514.900474659779
58.35407 534.040469243797
58.37419 484.017006553829
58.3943 482
58.41441 473.986479331789
58.43453 451.011816134489
58.45464 485.057250771561
58.47475 483.067006919159
58.49487 468.953857105064
58.51498 514.004006939114
58.5351 473
58.55521 518.012936005388
58.57532 491.955537821148
58.59544 465.993643225302
58.61555 477.961695757497
58.63566 485.996958941612
58.65578 477.024304040366
58.67589 461.987944306368
58.69601 503.002655143726
58.71612 463.960451627838
58.73623 453.005634817466
58.75635 470.106434729351
58.77646 520.943055993902
58.79657 511.051843154375
58.81669 482.003246059029
58.8368 484
58.85691 457.006199633379
58.87703 516.099263697169
58.89714 538.934790078516
58.91726 481.079486877651
58.93737 488.935746373302
58.95748 511.042193103402
58.9776 441
58.99771 480.00876254474
59.01782 472.039313551409
59.03794 545.038802620309
59.05805 498.097772950029
59.07817 499.000298185218
59.09828 492.975036696532
59.11839 522.015571094015
59.13851 449.985744728232
59.15862 504.091760274729
59.17873 554.962163052402
59.19885 481.857489388383
59.21896 489.881512138276
59.23908 555.959055619636
59.25919 554.015910267508
59.2793 523
59.29942 533.01745797039
59.31953 553.047707367259
59.33964 573.955361725123
59.35976 526.045513709469
59.37987 539.981623676261
59.39998 543.972480550814
59.4201 561
59.44021 461.983472493739
59.46033 517.091356598886
59.48044 520.930302022496
59.50055 488.019697829129
59.52067 501.985142631556
59.54078 498.998865735548
59.56089 509.995297258409
59.58101 513.001521356115
59.60112 515.996340362908
59.62124 508.999277934782
59.64135 515.005505208999
59.66146 511.999015420531
59.68158 520.986287932369
59.70169 531.997831125926
59.7218 526
59.74192 507.988512010489
59.76203 502.990185451875
59.78215 505.071933310355
59.80226 539.002467568782
59.82237 512.004830384115
59.84249 534.999039233165
59.8626 515
59.88271 537.994480785958
59.90283 500.996725385458
59.92294 540.052263739612
59.94305 521.106031644581
59.96317 498.968210976093
59.98328 540.982974227758
60.0034 534
60.02351 573.008541107996
60.04362 548.96096218492
60.06374 535.051505645851
60.08385 573.973948499023
60.10396 548.057628899234
60.12408 549.966904775159
60.14419 592.984703449371
60.16431 608.008856835311
60.18442 629.006041377699
60.20453 615.972841340048
60.22465 605.994404675084
60.24476 606.999527999105
60.26487 610.975691287431
60.28499 632.993774753276
60.3051 632
60.32522 631.997782266385
60.34533 633.022748945413
60.36544 637.918891724338
60.38556 583.997730110771
60.40567 639.936430027176
60.42578 632.027141316151
60.4459 613
60.46601 604.000452777028
60.48612 603.983847194178
60.50624 587.025923491415
60.52635 619.970299719049
60.54647 598.041613545146
60.56658 581.017295507252
60.58669 563.003775272556
60.60681 577.017768616415
60.62692 609.002693433741
60.64703 587.979563430809
60.66715 584.950564348815
60.68726 551.034955293185
60.70738 564.969762726522
60.72749 588.995062566555
60.7476 590
60.76772 591.979321303419
60.78783 565.004629046097
60.80794 590.005168119905
60.82806 577.949428146743
60.84817 635.949768398112
60.86828 620.033571533625
60.8884 592
60.90851 572.006110060414
60.92863 597.999276681494
60.94874 580.026759716725
60.96885 619.969043241306
60.98897 600.005007630172
61.00908 628.972318339521
61.02919 621.022321561016
61.04931 582.005374088712
61.06942 629.025657440364
61.08954 605.916040200052
61.10965 592.079942748226
61.12976 628.040448986104
61.14988 572.010935909147
61.16999 612.99051430269
61.1901 591
61.21022 611.007725670434
61.23033 593.979086927906
61.25045 595.000928697877
61.27056 596.957452150782
61.29067 626.985078401299
61.31079 594.034894522305
61.3309 536
61.35101 581.020083203219
61.37113 591.00859941724
61.39124 600.99328790526
61.41135 599.914142450332
61.43147 641.022234220508
61.45158 584.02238961096
61.4717 615
61.49181 613.001422395474
61.51192 622.986017457251
61.53204 586.950723532205
61.55215 590.957407610316
61.57226 600.009249472082
61.59238 582.025243623226
61.61249 572.987489859591
61.63261 614.010277735466
61.65272 592.952309820323
61.67283 551.97768222526
61.69295 555.992325486833
61.71306 539.023083358912
61.73317 546.966319559618
61.75329 574.985457144068
61.7734 587
61.79352 546.96497105639
61.81363 544.046999154603
61.83374 582.028633181112
61.85386 568.033797803898
61.87397 555.040851441536
61.89408 530.98453620863
61.9142 576
61.93431 566.990337453501
61.95442 555.989809685114
61.97454 545.994818342302
61.99465 557.934133005571
62.01477 583.984307904059
62.03488 569.035195961279
62.05499 538.003453338584
62.07511 553.007489595951
62.09522 558.006639842824
62.11533 567.000398060109
62.13545 566.040408126355
62.15556 579.05796731529
62.17568 530.007657495549
62.19579 565.989700731785
62.2159 544
62.23602 539.030484082017
62.25613 587.059163153182
62.27624 603.005253867374
62.29636 601.01634657615
62.31647 582.048823232155
62.33659 553.002411223558
62.3567 571
62.37681 573.995863308785
62.39693 567.0033395214
62.41704 589.088584340612
62.43715 623.03107742504
62.45727 580.032385157064
62.47738 585.014806817699
62.49749 545.011767109027
62.51761 562.020120709996
62.53772 599.023723746684
62.55784 611.022129577869
62.57795 602.859557190123
62.59806 544.96634710977
62.61818 619.960036077485
62.63829 586.027051464308
62.6584 562
62.67852 569.992795038642
62.69863 546.970847336827
62.71875 559.130828737614
62.73886 606.027920453669
62.75897 542.071382956231
62.77909 563.960669915184
62.7992 619
62.81931 530.986270393853
62.83943 568.997176880003
62.85954 497.871732651517
62.87965 501.85428628466
62.89977 563.957978352024
62.91988 542.050610376783
62.94 516
62.96011 567.00003293759
62.98022 507.94440058355
63.00034 498.033148827092
63.02045 513.982240840602
63.04056 521.947116052159
63.06068 546.017515608885
63.08079 501.009428954492
63.10091 509.992684925704
63.12102 472.993690740342
63.14113 499.010831713402
63.16125 479.995345607556
63.18136 504.963917965746
63.20147 505.989252832298
63.22159 518.003983748659
63.2417 498
63.26182 520.010438179663
63.28193 500.949236795985
63.30204 473.975228204269
63.32216 490.893476235491
63.34227 540.005750628031
63.36238 492.034496597733
63.3825 494
63.40261 483.996523978048
63.42272 485.999577274439
63.44284 482.005323164408
63.46295 492.973580547552
63.48307 499.98694546815
63.50318 508.000607516308
63.52329 499.004603588431
63.54341 497.002302054986
63.56352 493.975838840503
63.58363 467.003666811122
63.60375 507.133736247924
63.62386 535.027393654311
63.64398 506.999047522238
63.66409 525.010044961081
63.6842 478
63.70432 517.024366971609
63.72443 506.993876328487
63.74454 514.972164378732
63.76466 486.999539116032
63.78477 516.971293071022
63.80489 506.009953010004
63.825 502
63.84511 516.994831424823
63.86523 487.975642731644
63.88534 489.989728235211
63.90545 478.975176404389
63.92557 507.97139567822
63.94568 508.996566524007
63.96579 515.005961344907
63.98591 498.005752821435
64.00602 524.995815878715
64.02614 492.980341254982
64.04625 509.997655401053
64.06636 491.97890308688
64.08648 521.008435715793
64.10659 480.006223816597
64.1267 516
64.14682 527.982795611587
64.16693 500.971132721384
64.18705 495.996915033041
64.20716 489.023052834875
64.22727 472.036287197312
64.24739 469.97420231503
64.2675 531
64.28761 460.973224273199
64.30773 476.084696729373
64.32784 521.013609261687
64.34796 497.04176620157
64.36807 491.018994574062
64.38818 470.008997098881
64.4083 486
64.42841 509.996889988458
64.44852 475.961306079572
64.46864 453.987813796605
64.48875 466.909993710326
64.50886 500.995590079157
64.52898 480.005650324034
64.54909 489.007742139792
64.56921 456.999521288034
64.58932 493.031395734435
64.60943 499.000940588177
64.62955 493.922522258974
64.64966 462.968117985683
64.66977 504.004032989489
64.68989 457.011329831992
64.71 477
64.73012 470.010618888603
64.75023 494.997990663913
64.77034 469.989040923888
64.79046 487.001348587719
64.81057 472.974406072804
64.83068 510.996181507961
64.8508 466
64.87091 449.011591092427
64.89102 481.005064563329
64.91114 459.978524026697
64.93125 475.942918226266
64.95137 485.009035841021
64.97148 472.010561110308
64.99159 467.002740989058
65.01171 459.998337003293
65.03182 467.018819951486
65.05193 485.004030039674
65.07205 473.978026973937
65.09216 470.024319665178
65.11228 456.993191024024
65.13239 489.977745676441
65.1525 506
65.17262 440.963745282603
65.19273 460.069967071036
65.21284 486.973907873065
65.23296 446.071793777693
65.25307 449.930257292734
65.27319 508.981170652517
65.2933 502
65.31341 467.002246820404
65.33353 506.053871064936
65.35364 500.906108744323
65.37375 455.992842502707
65.39387 493.977740818795
65.41398 474.008294492995
65.43409 493.990877828133
65.45421 489.991540748852
65.47432 476.998710927985
65.49444 478.978513745857
65.51455 464.013394424611
65.53466 477.03310843773
65.55478 447.986881643465
65.57489 507.971803277254
65.595 513
65.61512 470.008910224865
65.63523 513.013896379339
65.65535 481.973884964445
65.67546 503.988585751595
65.69557 489.982809930774
65.71569 524.994558811045
65.7358 511
65.75591 531.98953309692
65.77603 488.011007860033
65.79614 545.061762166709
65.81626 522.058451816505
65.83637 535.911343758056
65.85648 584.022352008856
65.8766 512
65.89671 535.019888814406
65.91682 559.022035683149
65.93694 564.923042498541
65.95705 512.02023784904
65.97716 549.947302943779
65.99728 546.992579646181
66.01739 563.008624613438
66.03751 517.987570982472
66.05762 520.991428677004
66.07773 495.990072005566
66.09785 510.005914661216
66.11796 502.964200589795
66.13807 539.976751240358
66.15819 528.002519903654
66.1783 543
66.19842 528.9534661808
66.21853 496.048353032731
66.23864 566.056915677621
66.25876 522.136067086377
66.27887 491.965464868994
66.29898 521.027378334364
66.3191 466
66.33921 543.028061095994
66.35933 536.96704956268
66.37944 522.944196577357
66.39955 486.045732673635
66.41967 497.959953230886
66.43978 516.99604844865
66.45989 499.019709692971
66.48001 464.999297892374
66.50012 491.021247690558
66.52023 496.013306355399
66.54035 499.925214529906
66.56046 456.016817023769
66.58058 490.963034142918
66.60069 496.010027713096
66.6208 481
66.64092 509.004891295386
66.66103 483.963575323053
66.68114 484.03552219872
66.70126 497.015990059448
66.72137 479.001248692054
66.74149 491.00337531486
66.7616 454
66.78171 429.004377631484
66.80183 466.071457578775
66.82194 498.013153493636
66.84205 490.99849670424
66.86217 490.049315486063
66.88228 447.00023077939
66.90239 487.986210988292
66.92251 478.992746623803
66.94262 473.988719963829
66.96274 451.95795812759
66.98285 441.999847320929
67.00296 444.005110956566
67.02308 443.983751685545
67.04319 459.00886348694
67.0633 433
67.08342 487.013544330049
67.10353 448.956981324912
67.12365 458.037110633001
67.14376 463.972168637481
67.16387 484.985140381505
67.18399 472.014766041151
67.2041 452
67.22421 478.004154321317
67.24433 452.939811538384
67.26444 429.012004416028
67.28456 449.985863433621
67.30467 451.948731220942
67.32478 500.991782053414
67.3449 466
67.36501 477.010079103025
67.38512 486.004018060488
67.40524 486.987187159786
67.42535 478.005532728736
67.44546 486.969427215779
67.46558 491.020141581981
67.48569 460.007596907322
67.50581 468.006103038753
67.52592 472.002144930446
67.54603 475.000166154305
67.56615 479.045835738562
67.58626 505.96229743218
67.60637 507.015623151401
67.62649 490.012433944233
67.6466 463
67.66672 458.015093804128
67.68683 481.022266923596
67.70694 476.964215477798
67.72706 463.987913838525
67.74717 481.98684944992
67.76728 473.014138038367
67.7874 468
67.80751 478.002504708209
67.82763 474.992238717535
67.84774 473.001562627839
67.86785 474.002321257119
67.88797 473.991132798648
67.90808 489.975019346082
67.92819 506.005169380844
67.94831 474.985844703475
67.96842 471.019197797149
67.98853 487.985524678406
68.00865 457.951043260353
68.02876 460.985014801995
68.04888 451.031161418542
68.06899 436.977206347992
68.0891 505
68.10922 459.983815869411
68.12933 495.038095594987
68.14944 481.960020814694
68.16956 479.98045588317
68.18967 488.997182659208
68.20979 478.01159020882
68.2299 467
68.25001 493.98501510605
68.27013 427.967301071512
68.29024 464.056294197851
68.31035 455.025446013817
68.33047 466.967985351075
68.35058 478.006579505128
68.3707 470
68.39081 497.003580768655
68.41092 473.969171158863
68.43104 466.047454095471
68.45115 490.967025702394
68.47126 453.019348090404
68.49138 472.004624234513
68.51149 437.009739781147
68.5316 455
68.55172 465.97897241014
68.57183 436.997826004434
68.59195 455.992865258386
68.61206 443.932965853196
68.63217 514.93286045993
68.65229 499.024021421339
68.6724 460
68.69251 468.011009328414
68.71263 482.995761369388
68.73274 473.008224820688
68.75286 486.009422257215
68.77297 461.031682271016
68.79308 462.979550952938
68.8132 477
68.83331 447.993412170658
68.85342 458.00906527388
68.87354 454.995522939388
68.89365 458.000279255301
68.91376 457.976733120528
68.93388 481.974926830796
68.95399 492.005213934759
68.97411 477.000896314561
68.99422 492.003309377965
69.01433 480.995243414601
69.03445 497.061090936605
69.05456 511.010281687501
69.07467 481.077604103224
69.09479 454.977483899509
69.1149 529
69.13502 478.967896407624
69.15513 489.996399978907
69.17524 473.047333049162
69.19536 515.035616536973
69.21547 446.049854204556
69.23558 471.977993440613
69.2557 468
69.27581 493.999918023573
69.29593 456.935135223066
69.31604 446.060120156926
69.33615 488.954438218009
69.35627 469.051822215742
69.37638 448.002343052805
69.39649 461.988541263422
69.41661 485.010546159591
69.43672 486.967282247737
69.45683 438.95851906785
69.47695 450.082947919999
69.49706 472.013358799313
69.51718 449.0096643983
69.53729 461.992292065916
69.5574 468
69.57752 471.995587810216
69.59763 466.010418462524
69.61774 472.959306839849
69.63786 438.017752845738
69.65797 459.974022008997
69.67809 462.992841424598
69.6982 477
69.71831 433.997282071019
69.73843 476.064098017628
69.75854 482.961038262986
69.77865 460.031019066653
69.79877 466.96771656616
69.81888 483.005106984372
69.839 465
69.85911 469.997028137879
69.87922 456.003819263514
69.89934 478.029277163229
69.91945 468.940505622429
69.93956 453.982077323454
69.95968 487.955236596719
69.97979 510.010442404847
69.9999 469
70.02002 486.020498213416
70.04013 494.015544869347
70.06025 510.024305153994
70.08036 507.020919534453
70.10047 486.059217227787
70.12059 451.997838701114
70.1407 475
70.16081 441.002926064447
70.18093 481.007951688875
70.20104 455.028788587236
70.22116 510.947554577282
70.24127 483.054103328663
70.26138 476.983480592699
70.2815 502
70.30161 502.977337984998
70.32172 434.954637281273
70.34184 441.083947350647
70.36195 479.971314864514
70.38207 468.011404931384
70.40218 479.98111983736
70.42229 482.013066078668
70.44241 466.021997927594
70.46252 529.993510859631
70.48263 469.990336528737
70.50275 511.947220791564
70.52286 441.985362919206
70.54297 524.953629341597
70.56309 481.006978648488
70.5832 521
70.60332 480.962048054256
70.62343 486.051905919637
70.64354 503.936363341844
70.66366 452.016971794368
70.68377 487.972386935962
70.70388 473.9992767138
70.724 504
70.74411 511.002170782929
70.76423 516.992651293021
70.78434 504.994525981456
70.80445 506.042161631176
70.82457 482.993003597632
70.84468 506.999009687744
70.86479 482.005734690668
70.88491 492.000025264317
70.90502 484.017187233805
70.92513 509.977512606435
70.94525 460.934594633624
70.96536 476.957570428683
70.98548 489.972115499829
71.00559 529.987306546822
71.0257 523
71.04582 492.987745829535
71.06593 508.052916784819
71.08604 542.034926926429
71.10616 535.048965977299
71.12627 513.009103237794
71.14639 519.998080383458
71.1665 508
71.18661 493.00623515438
71.20673 523.028719248669
71.22684 511.934854491944
71.24695 496.916344514316
71.26707 549.9818338905
71.28718 512.036776588493
71.3073 516
71.32741 545.000710522269
71.34752 522.981695092275
71.36764 514.96456668453
71.38775 496.970948081535
71.40786 521.021559245551
71.42798 490.986015556432
71.44809 537.997308342094
71.4682 493
71.48832 514.040717216656
71.50843 531.974290270651
71.52855 507.017077046035
71.54866 536.990550685626
71.56877 515.002997473575
71.58889 533.00444325966
71.609 502
71.62911 536.011353869505
71.64923 513.919092457451
71.66934 475.021958635167
71.68946 515.968471066994
71.70957 492.035330316343
71.72968 482.023085451303
71.7498 467
71.76991 537.010886988361
71.79002 500.972857395321
71.81014 510.012707361407
71.83025 497.025325140116
71.85037 491.033760317935
71.87048 470.977375599498
71.89059 518.992318354299
71.91071 495.995339292475
71.93082 501.971266597821
71.95093 461.029507138624
71.97105 523.032742570416
71.99116 486.989331710644
72.01127 528.029215758751
72.03139 447.02311068571
72.0515 472
72.07162 480.998964467166
72.09173 493.044582541628
72.11184 514.967295370243
72.13196 488.952507525283
72.15207 547.970047523646
72.17218 501.067368009653
72.1923 467
72.21241 491.003174217556
72.23253 480.008408944045
72.25264 504.020435311054
72.27275 490.041315475727
72.29287 482.014614851448
72.31298 480.971391271478
72.33309 507.015096692526
72.35321 457.01038513686
72.37332 529.012990452932
72.39344 471.943413527416
72.41355 502.050575572766
72.43366 487.015720087639
72.45378 498.000804769859
72.47389 475.012340254527
72.494 475
72.51412 502.98466903853
72.53423 456.964746658554
72.55434 477.064107289536
72.57446 492.994822283921
72.59457 489.01024996194
72.61469 485.998070329414
72.6348 486
72.65491 466.003391237935
72.67503 495.026039265257
72.69514 482.948577606997
72.71525 468.980150447369
72.73537 491.968652121724
72.75548 493.019836897181
72.7756 475
72.79571 495.99875647338
72.81582 473.999087332828
72.83594 488.970614867432
72.85605 456.977491794975
72.87616 501.964998733928
72.89628 483.000991445402
72.91639 497.014258988414
72.9365 439
72.95662 474.024452026255
72.97673 463.989119537201
72.99685 480.056536475961
73.01696 493.987671263049
73.03707 492.017468925833
73.05719 485.991700384818
73.0773 511
73.09741 496.00282312859
73.11753 503.931853284559
73.13764 441.023215903451
73.15776 524.877989651922
73.17787 513.061937554233
73.19798 481.027034675717
73.2181 471
73.23821 492.983329490164
73.25832 433.998804786708
73.27844 485.028996635747
73.29855 445.059535920508
73.31867 465.963972132221
73.33878 462.021491251202
73.35889 451.989891730516
73.37901 478.995621290938
73.39912 453.017722710187
73.41923 507.032512666505
73.43935 469.864725184908
73.45946 453.926739867684
73.47957 504.981548755824
73.49969 462.030775072226
73.5198 429
73.53992 458.021022762844
73.56003 466.02868846495
73.58014 497.037991790509
73.60026 493.02901896972
73.62037 479.022054253558
73.64048 467.004294695939
73.6606 469
73.68071 469.001159604203
73.70083 483.045863195126
73.72094 506.977636380167
73.74105 469.068376519057
73.76117 466.997883163813
73.78128 475.957464891892
73.80139 522.003763938182
73.82151 467.981947744045
73.84162 492.062627461663
73.86174 533.965051712177
73.88185 483.957184262416
73.90196 513.947538414222
73.92208 511.007261801684
73.94219 501.017969857465
73.9623 462
73.98242 504.02553186794
74.00253 494.986990050527
74.02264 502.006570902951
74.04276 494.014751958019
74.06287 496.983020649275
74.08299 499.011509543762
74.1031 475
74.12321 509.997599652929
74.14333 455.920813135113
74.16344 456.110277676816
74.18355 517.957807904813
74.20367 481.072590901569
74.22378 456.008329438191
74.2439 455
74.26401 463.006577097886
74.28412 472.997088930363
74.30424 474.06270435513
74.32435 507.052690913121
74.34446 448.049407061434
74.36458 480.958252419518
74.38469 495.001019543406
74.40481 495.004127318349
74.42492 494.968998015795
74.44503 452.985428277092
74.46515 486.10833323838
74.48526 493.088369092606
74.50537 439.010513090224
74.52549 471.995454220425
74.5456 439
74.56571 449.01982809459
74.58583 484.007499727235
74.60594 461.957781757653
74.62606 456.00806207152
74.64617 456.966354570397
74.66628 487.990320918327
74.6864 478
74.70651 495.002252691378
74.72662 469.956324730664
74.74674 447.054032289786
74.76685 490.012057254008
74.78697 445.020666326901
74.80708 477.976157286282
74.82719 462.015373641825
74.84731 435.986907385399
74.86742 421.013128734717
74.88753 449.018876263955
74.90765 444.012648436619
74.92776 462.98225164449
74.94787 453.020691569583
74.96799 456.985810882809
74.9881 485
75.00822 437.931988011186
