3.00117 20886
3.02128 20743
3.0414 19700
3.06151 19608
3.08162 19236
3.10174 18579
3.12185 18311
3.14197 17224
3.16208 16689
3.18219 16769
3.20231 16114
3.22242 15860
3.24253 15167
3.26265 14646
3.28276 14381
3.30288 13615
3.32299 13456
3.3431 12852
3.36322 12595
3.38333 12376
3.40344 11584
3.42356 11473
3.44367 10920
3.46379 11018
3.4839 10516
3.50401 9831
3.52413 9948
3.54424 9096
3.56435 9059
3.58447 8659
3.60458 8279
3.62469 8218
3.64481 7601
3.66492 7311
3.68504 7413
3.70515 6676
3.72526 6667
3.74538 6447
3.76549 6138
3.7856 6104
3.80572 5579
3.82583 5549
3.84595 5154
3.86606 5013
3.88617 5000
3.90629 4583
3.9264 4509
3.94651 4246
3.96663 4189
3.98674 4039
4.00686 3652
4.02697 3675
4.04708 3319
4.0672 3277
4.08731 3349
4.10742 2942
4.12754 2979
4.14765 2770
4.16776 2744
4.18788 2692
4.20799 2334
4.22811 2338
4.24822 2342
4.26833 2278
4.28845 2232
4.30856 2013
4.32867 2035
4.34879 1903
4.3689 1947
4.38902 1969
4.40913 1814
4.42924 1862
4.44936 1758
4.46947 1695
4.48958 1723
4.5097 1568
4.52981 1625
4.54992 1508
4.57004 1556
4.59015 1565
4.61027 1384
4.63038 1395
4.65049 1476
4.67061 1382
4.69072 1367
4.71083 1242
4.73095 1238
4.75106 1228
4.77118 1247
4.79129 1285
4.8114 1186
4.83152 1164
4.85163 1183
4.87174 1090
4.89186 1097
4.91197 1022
4.93209 969
4.9522 1053
4.97231 1018
4.99243 1001
5.01254 959
5.03265 925
5.05277 957
5.07288 930
5.09299 889
5.11311 854
5.13322 941
5.15334 911
5.17345 836
5.19356 875
5.21368 767
5.23379 771
5.2539 783
5.27402 758
5.29413 746
5.31425 748
5.33436 717
5.35447 748
5.37459 697
5.3947 713
5.41481 680
5.43493 705
5.45504 716
5.47516 754
5.49527 670
5.51538 640
5.5355 605
5.55561 616
5.57572 653
5.59584 626
5.61595 584
5.63606 636
5.65618 609
5.67629 613
5.69641 608
5.71652 622
5.73663 593
5.75675 568
5.77686 529
5.79697 583
5.81709 524
5.8372 572
5.85732 541
5.87743 492
5.89754 556
5.91766 519
5.93777 548
5.95788 524
5.978 545
5.99811 513
6.01823 502
6.03834 540
6.05845 566
6.07857 512
6.09868 524
6.11879 518
6.13891 565
6.15902 558
6.17913 508
6.19925 544
6.21936 523
6.23948 542
6.25959 577
6.2797 535
6.29982 485
6.31993 515
6.34004 545
6.36016 487
6.38027 498
6.40039 459
6.4205 514
6.44061 533
6.46073 484
6.48084 485
6.50095 482
6.52107 530
6.54118 482
6.56129 481
6.58141 471
6.60152 484
6.62164 486
6.64175 438
6.66186 491
6.68198 470
6.70209 471
6.7222 435
6.74232 488
6.76243 477
6.78255 465
6.80266 449
6.82277 432
6.84289 463
6.863 445
6.88311 458
6.90323 500
6.92334 457
6.94346 484
6.96357 426
6.98368 472
7.0038 480
7.02391 443
7.04402 477
7.06414 476
7.08425 465
7.10436 484
7.12448 446
7.14459 435
7.16471 417
7.18482 439
7.20493 459
7.22505 439
7.24516 463
7.26527 427
7.28539 449
7.3055 471
7.32562 484
7.34573 459
7.36584 413
7.38596 425
7.40607 467
7.42618 431
7.4463 449
7.46641 437
7.48653 433
7.50664 459
7.52675 414
7.54687 448
7.56698 460
7.58709 453
7.60721 423
7.62732 446
7.64743 427
7.66755 391
7.68766 420
7.70778 400
7.72789 471
7.748 422
7.76812 434
7.78823 430
7.80834 464
7.82846 430
7.84857 416
7.86869 440
7.8888 379
7.90891 452
7.92903 424
7.94914 412
7.96925 457
7.98937 470
8.00948 416
8.0296 442
8.04971 407
8.06982 454
8.08994 428
8.11005 442
8.13016 450
8.15028 442
8.17039 446
8.1905 403
8.21062 426
8.23073 414
8.25085 422
8.27096 415
8.29107 445
8.31119 407
8.3313 441
8.35141 415
8.37153 449
8.39164 406
8.41176 469
8.43187 471
8.45198 426
8.4721 466
8.49221 385
8.51232 386
8.53244 392
8.55255 445
8.57266 424
8.59278 427
8.61289 449
8.63301 441
8.65312 407
8.67323 491
8.69335 384
8.71346 493
8.73357 457
8.75369 458
8.7738 460
8.79392 456
8.81403 443
8.83414 510
8.85426 501
8.87437 450
8.89448 476
8.9146 455
8.93471 458
8.95483 416
8.97494 442
8.99505 437
9.01517 430
9.03528 426
9.05539 398
9.07551 395
9.09562 395
9.11573 384
9.13585 386
9.15596 364
9.17608 401
9.19619 406
9.2163 406
9.23642 415
9.25653 393
9.27664 385
9.29676 391
9.31687 399
9.33699 392
9.3571 397
9.37721 418
9.39733 381
9.41744 421
9.43755 440
9.45767 422
9.47778 415
9.4979 401
9.51801 387
9.53812 417
9.55824 418
9.57835 416
9.59846 399
9.61858 420
9.63869 398
9.6588 415
9.67892 398
9.69903 409
9.71915 398
9.73926 427
9.75937 395
9.77949 376
9.7996 411
9.81971 423
9.83983 376
9.85994 381
9.88006 390
9.90017 433
9.92028 418
9.9404 429
9.96051 427
9.98062 416
10.00074 419
10.02085 408
10.04097 403
10.06108 417
10.08119 370
10.10131 410
10.12142 402
10.14153 426
10.16165 385
10.18176 371
10.20187 421
10.22199 405
10.2421 397
10.26222 404
10.28233 363
10.30244 411
10.32256 406
10.34267 390
10.36278 408
10.3829 392
10.40301 384
10.42313 380
10.44324 398
10.46335 388
10.48347 420
10.50358 391
10.52369 424
10.54381 402
10.56392 398
10.58403 378
10.60415 438
10.62426 360
10.64438 422
10.66449 375
10.6846 433
10.70472 390
10.72483 409
10.74494 395
10.76506 446
10.78517 408
10.80529 426
10.8254 452
10.84551 373
10.86563 437
10.88574 464
10.90585 417
10.92597 405
10.94608 386
10.9662 375
10.98631 433
11.00642 396
11.02654 403
11.04665 416
11.06676 439
11.08688 407
11.10699 464
11.1271 431
11.14722 416
11.16733 380
11.18745 389
11.20756 398
11.22767 429
11.24779 404
11.2679 441
11.28801 383
11.30813 442
11.32824 427
11.34836 420
11.36847 396
11.38858 446
11.4087 441
11.42881 410
11.44892 429
11.46904 463
11.48915 454
11.50927 431
11.52938 475
11.54949 426
11.56961 410
11.58972 424
11.60983 398
11.62995 480
11.65006 453
11.67017 448
11.69029 471
11.7104 467
11.73052 474
11.75063 481
11.77074 475
11.79086 438
11.81097 512
11.83108 492
11.8512 494
11.87131 523
11.89143 489
11.91154 532
11.93165 494
11.95177 475
11.97188 496
11.99199 518
12.01211 496
12.03222 510
12.05234 566
12.07245 549
12.09256 570
12.11268 579
12.13279 631
12.1529 631
12.17302 663
12.19313 686
12.21324 695
12.23336 697
12.25347 679
12.27359 710
12.2937 761
12.31381 786
12.33393 775
12.35404 778
12.37415 679
12.39427 720
12.41438 707
12.4345 676
12.45461 630
12.47472 646
12.49484 582
12.51495 543
12.53506 522
12.55518 496
12.57529 508
12.5954 506
12.61552 466
12.63563 427
12.65575 437
12.67586 418
12.69597 449
12.71609 432
12.7362 423
12.75631 467
12.77643 411
12.79654 380
12.81666 438
12.83677 395
12.85688 436
12.877 438
12.89711 414
12.91722 395
12.93734 371
12.95745 358
12.97757 401
12.99768 357
13.01779 380
13.03791 393
13.05802 381
13.07813 352
13.09825 366
13.11836 428
13.13847 377
13.15859 380
13.1787 407
13.19882 375
13.21893 356
13.23904 376
13.25916 386
13.27927 389
13.29938 393
13.3195 372
13.33961 377
13.35973 374
13.37984 363
13.39995 389
13.42007 352
13.44018 344
13.46029 320
13.48041 370
13.50052 417
13.52064 377
13.54075 380
13.56086 381
13.58098 361
13.60109 400
13.6212 334
13.64132 390
13.66143 356
13.68154 332
13.70166 408
13.72177 373
13.74189 389
13.762 343
13.78211 331
13.80223 318
13.82234 317
13.84245 324
13.86257 341
13.88268 353
13.9028 373
13.92291 372
13.94302 376
13.96314 349
13.98325 373
14.00336 340
14.02348 389
14.04359 341
14.06371 363
14.08382 363
14.10393 309
14.12405 373
14.14416 357
14.16427 365
14.18439 348
14.2045 373
14.22461 355
14.24473 359
14.26484 357
14.28496 358
14.30507 361
14.32518 373
14.3453 348
14.36541 357
14.38552 343
14.40564 367
14.42575 349
14.44587 357
14.46598 389
14.48609 332
14.50621 323
14.52632 335
14.54643 332
14.56655 353
14.58666 346
14.60677 371
14.62689 364
14.647 346
14.66712 348
14.68723 326
14.70734 356
14.72746 374
14.74757 365
14.76768 363
14.7878 356
14.80791 328
14.82803 373
14.84814 346
14.86825 305
14.88837 347
14.90848 358
14.92859 374
14.94871 380
14.96882 383
14.98894 347
15.00905 366
15.02916 349
15.04928 349
15.06939 344
15.0895 338
15.10962 368
15.12973 374
15.14984 373
15.16996 388
15.19007 331
15.21019 375
15.2303 322
15.25041 324
15.27053 343
15.29064 359
15.31075 322
15.33087 360
15.35098 340
15.3711 329
15.39121 355
15.41132 312
15.43144 327
15.45155 338
15.47166 359
15.49178 335
15.51189 337
15.53201 348
15.55212 366
15.57223 325
15.59235 344
15.61246 324
15.63257 360
15.65269 340
15.6728 313
15.69291 337
15.71303 341
15.73314 358
15.75326 354
15.77337 339
15.79348 323
15.8136 364
15.83371 353
15.85382 389
15.87394 428
15.89405 392
15.91417 373
15.93428 383
15.95439 410
15.97451 428
15.99462 404
16.01473 373
16.03485 366
16.05496 371
16.07508 354
16.09519 382
16.1153 376
16.13542 372
16.15553 357
16.17564 381
16.19576 327
16.21587 356
16.23598 395
16.2561 324
16.27621 367
16.29633 335
16.31644 333
16.33655 330
16.35667 331
16.37678 344
16.39689 327
16.41701 343
16.43712 309
16.45724 346
16.47735 355
16.49746 326
16.51758 359
16.53769 346
16.5578 331
16.57792 327
16.59803 324
16.61814 366
16.63826 359
16.65837 336
16.67849 355
16.6986 324
16.71871 353
16.73883 378
16.75894 319
16.77905 385
16.79917 352
16.81928 339
16.8394 361
16.85951 357
16.87962 307
16.89974 365
16.91985 350
16.93996 369
16.96008 345
16.98019 342
17.00031 371
17.02042 357
17.04053 331
17.06065 339
17.08076 356
17.10087 327
17.12099 336
17.1411 333
17.16121 352
17.18133 386
17.20144 343
17.22156 365
17.24167 369
17.26178 325
17.2819 382
17.30201 348
17.32212 341
17.34224 393
17.36235 340
17.38247 377
17.40258 324
17.42269 360
17.44281 363
17.46292 350
17.48303 346
17.50315 349
17.52326 332
17.54338 312
17.56349 343
17.5836 367
17.60372 365
17.62383 369
17.64394 416
17.66406 355
17.68417 370
17.70428 410
17.7244 396
17.74451 377
17.76463 403
17.78474 379
17.80485 367
17.82497 351
17.84508 415
17.86519 406
17.88531 399
17.90542 381
17.92554 349
17.94565 381
17.96576 378
17.98588 385
18.00599 405
18.0261 386
18.04622 358
18.06633 376
18.08645 414
18.10656 401
18.12667 420
18.14679 458
18.1669 500
18.18701 448
18.20713 500
18.22724 561
18.24735 570
18.26747 544
18.28758 713
18.3077 588
18.32781 565
18.34792 534
18.36804 462
18.38815 480
18.40826 437
18.42838 382
18.44849 435
18.46861 365
18.48872 395
18.50883 387
18.52895 412
18.54906 462
18.56917 409
18.58929 381
18.6094 392
18.62951 400
18.64963 386
18.66974 374
18.68986 378
18.70997 380
18.73008 371
18.7502 365
18.77031 393
18.79042 413
18.81054 341
18.83065 374
18.85077 370
18.87088 385
18.89099 352
18.91111 389
18.93122 388
18.95133 368
18.97145 369
18.99156 432
19.01168 407
19.03179 385
19.0519 370
19.07202 388
19.09213 416
19.11224 379
19.13236 340
19.15247 379
19.17258 350
19.1927 390
19.21281 422
19.23293 379
19.25304 416
19.27315 419
19.29327 432
19.31338 432
19.33349 392
19.35361 438
19.37372 431
19.39384 443
19.41395 420
19.43406 472
19.45418 449
19.47429 528
19.4944 522
19.51452 526
19.53463 588
19.55475 602
19.57486 627
19.59497 598
19.61509 608
19.6352 611
19.65531 589
19.67543 624
19.69554 628
19.71565 635
19.73577 702
19.75588 754
19.776 762
19.79611 833
19.81622 902
19.83634 820
19.85645 892
19.87656 876
19.89668 900
19.91679 882
19.93691 804
19.95702 847
19.97713 830
19.99725 840
20.01736 774
20.03747 763
20.05759 731
20.0777 802
20.09782 822
20.11793 701
20.13804 726
20.15816 726
20.17827 767
20.19838 800
20.2185 789
20.23861 751
20.25872 774
20.27884 762
20.29895 800
20.31907 820
20.33918 778
20.35929 766
20.37941 740
20.39952 812
20.41963 767
20.43975 727
20.45986 729
20.47998 756
20.50009 793
20.5202 778
20.54032 797
20.56043 837
20.58054 795
20.60066 839
20.62077 854
20.64088 874
20.661 963
20.68111 1016
20.70123 1217
20.72134 1469
20.74145 1762
20.76157 2115
20.78168 2654
20.80179 3115
20.82191 3471
20.84202 3616
20.86214 3306
20.88225 2837
20.90236 2230
20.92248 1722
20.94259 1319
20.9627 1054
20.98282 822
21.00293 851
21.02305 808
21.04316 749
21.06327 729
21.08339 790
21.1035 761
21.12361 757
21.14373 751
21.16384 739
21.18395 739
21.20407 719
21.22418 833
21.2443 774
21.26441 741
21.28452 709
21.30464 730
21.32475 784
21.34486 790
21.36498 729
21.38509 748
21.40521 762
21.42532 768
21.44543 729
21.46555 753
21.48566 746
21.50577 654
21.52589 699
21.546 648
21.56612 683
21.58623 638
21.60634 662
21.62646 664
21.64657 658
21.66668 681
21.6868 697
21.70691 644
21.72702 625
21.74714 593
21.76725 581
21.78737 656
21.80748 553
21.82759 590
21.84771 600
21.86782 531
21.88793 537
21.90805 575
21.92816 559
21.94828 575
21.96839 561
21.9885 562
22.00862 575
22.02873 567
22.04884 545
22.06896 558
22.08907 553
22.10919 506
22.1293 522
22.14941 553
22.16953 544
22.18964 495
22.20975 543
22.22987 539
22.24998 543
22.27009 574
22.29021 542
22.31032 490
22.33044 534
22.35055 571
22.37066 512
22.39078 497
22.41089 536
22.431 515
22.45112 564
22.47123 518
22.49135 507
22.51146 510
22.53157 553
22.55169 591
22.5718 565
22.59191 573
22.61203 555
22.63214 572
22.65225 502
22.67237 523
22.69248 526
22.7126 530
22.73271 533
22.75282 505
22.77294 483
22.79305 523
22.81316 492
22.83328 495
22.85339 522
22.87351 520
22.89362 484
22.91373 533
22.93385 572
22.95396 518
22.97407 490
22.99419 494
23.0143 476
23.03442 491
23.05453 515
23.07464 477
23.09476 549
23.11487 487
23.13498 471
23.1551 487
23.17521 480
23.19532 490
23.21544 491
23.23555 521
23.25567 501
23.27578 489
23.29589 500
23.31601 465
23.33612 498
23.35623 505
23.37635 453
23.39646 477
23.41658 513
23.43669 507
23.4568 497
23.47692 484
23.49703 475
23.51714 483
23.53726 478
23.55737 467
23.57749 482
23.5976 471
23.61771 476
23.63783 500
23.65794 498
23.67805 508
23.69817 489
23.71828 510
23.73839 529
23.75851 539
23.77862 518
23.79874 530
23.81885 540
23.83896 569
23.85908 530
23.87919 539
23.8993 486
23.91942 556
23.93953 529
23.95965 546
23.97976 475
23.99987 510
24.01999 533
24.0401 547
24.06021 498
24.08033 482
24.10044 493
24.12056 451
24.14067 515
24.16078 481
24.1809 481
24.20101 524
24.22112 496
24.24124 492
24.26135 513
24.28146 509
24.30158 477
24.32169 512
24.34181 536
24.36192 520
24.38203 545
24.40215 525
24.42226 521
24.44237 508
24.46249 534
24.4826 522
24.50272 546
24.52283 540
24.54294 586
24.56306 528
24.58317 592
24.60328 555
24.6234 590
24.64351 578
24.66362 615
24.68374 638
24.70385 600
24.72397 673
24.74408 654
24.76419 701
24.78431 670
24.80442 740
24.82453 741
24.84465 699
24.86476 760
24.88488 736
24.90499 758
24.9251 730
24.94522 684
24.96533 686
24.98544 668
25.00556 612
25.02567 648
25.04579 640
25.0659 639
25.08601 631
25.10613 611
25.12624 584
25.14635 640
25.16647 631
25.18658 595
25.20669 588
25.22681 646
25.24692 685
25.26704 624
25.28715 668
25.30726 583
25.32738 580
25.34749 622
25.3676 562
25.38772 603
25.40783 597
25.42795 608
25.44806 594
25.46817 598
25.48829 561
25.5084 571
25.52851 517
25.54863 535
25.56874 583
25.58886 555
25.60897 551
25.62908 548
25.6492 540
25.66931 558
25.68942 548
25.70954 564
25.72965 547
25.74976 592
25.76988 551
25.78999 576
25.81011 549
25.83022 586
25.85033 583
25.87045 547
25.89056 565
25.91067 578
25.93079 605
25.9509 597
25.97102 575
25.99113 589
26.01124 621
26.03136 598
26.05147 673
26.07158 583
26.0917 622
26.11181 631
26.13193 650
26.15204 734
26.17215 744
26.19227 754
26.21238 777
26.23249 812
26.25261 846
26.27272 869
26.29283 942
26.31295 962
26.33306 998
26.35318 1209
26.37329 1288
26.3934 1506
26.41352 1756
26.43363 2170
26.45374 2615
26.47386 3468
26.49397 4550
26.51409 6199
26.5342 7977
26.55431 10275
26.57443 12531
26.59454 13942
26.61465 14131
26.63477 13264
26.65488 11619
26.67499 8982
26.69511 6867
26.71522 4936
26.73534 3320
26.75545 2269
26.77556 1647
26.79568 1237
26.81579 1134
26.8359 1089
26.85602 957
26.87613 910
26.89625 850
26.91636 848
26.93647 773
26.95659 780
26.9767 745
26.99681 639
27.01693 653
27.03704 614
27.05716 616
27.07727 578
27.09738 616
27.1175 568
27.13761 554
27.15772 562
27.17784 502
27.19795 547
27.21806 545
27.23818 567
27.25829 530
27.27841 548
27.29852 542
27.31863 523
27.33875 580
27.35886 555
27.37897 583
27.39909 562
27.4192 616
27.43932 552
27.45943 511
27.47954 524
27.49966 558
27.51977 487
27.53988 536
27.56 527
27.58011 501
27.60023 481
27.62034 491
27.64045 467
27.66057 526
27.68068 516
27.70079 486
27.72091 472
27.74102 494
27.76113 438
27.78125 510
27.80136 521
27.82148 507
27.84159 516
27.8617 500
27.88182 512
27.90193 492
27.92204 497
27.94216 504
27.96227 510
27.98239 467
28.0025 506
28.02261 496
28.04273 482
28.06284 454
28.08295 510
28.10307 444
28.12318 473
28.1433 438
28.16341 438
28.18352 449
28.20364 442
28.22375 396
28.24386 435
28.26398 465
28.28409 405
28.3042 436
28.32432 446
28.34443 384
28.36455 424
28.38466 416
28.40477 385
28.42489 419
28.445 434
28.46511 417
28.48523 454
28.50534 469
28.52546 425
28.54557 430
28.56568 428
28.5858 426
28.60591 404
28.62602 418
28.64614 415
28.66625 434
28.68636 432
28.70648 432
28.72659 405
28.74671 415
28.76682 420
28.78693 466
28.80705 423
28.82716 403
28.84727 398
28.86739 409
28.8875 432
28.90762 423
28.92773 418
28.94784 392
28.96796 445
28.98807 386
29.00818 399
29.0283 445
29.04841 408
29.06853 400
29.08864 399
29.10875 402
29.12887 414
29.14898 371
29.16909 413
29.18921 406
29.20932 393
29.22943 416
29.24955 400
29.26966 367
29.28978 390
29.30989 389
29.33 376
29.35012 436
29.37023 388
29.39034 403
29.41046 423
29.43057 354
29.45069 365
29.4708 391
29.49091 400
29.51103 442
29.53114 435
29.55125 362
29.57137 408
29.59148 426
29.6116 427
29.63171 413
29.65182 418
29.67194 420
29.69205 407
29.71216 398
29.73228 425
29.75239 441
29.7725 462
29.79262 434
29.81273 441
29.83285 438
29.85296 425
29.87307 408
29.89319 398
29.9133 402
29.93341 401
29.95353 426
29.97364 410
29.99376 390
30.01387 376
30.03398 412
30.0541 390
30.07421 426
30.09432 407
30.11444 390
30.13455 384
30.15467 413
30.17478 437
30.19489 412
30.21501 404
30.23512 466
30.25523 387
30.27535 412
30.29546 409
30.31557 407
30.33569 399
30.3558 376
30.37592 389
30.39603 402
30.41614 420
30.43626 385
30.45637 367
30.47648 393
30.4966 426
30.51671 444
30.53683 373
30.55694 382
30.57705 396
30.59717 380
30.61728 412
30.63739 385
30.65751 392
30.67762 384
30.69773 366
30.71785 361
30.73796 335
30.75808 385
30.77819 394
30.7983 427
30.81842 398
30.83853 379
30.85864 403
30.87876 421
30.89887 388
30.91899 391
30.9391 378
30.95921 357
30.97933 380
30.99944 377
31.01955 384
31.03967 393
31.05978 373
31.0799 411
31.10001 399
31.12012 400
31.14024 421
31.16035 395
31.18046 401
31.20058 402
31.22069 407
31.2408 394
31.26092 380
31.28103 387
31.30115 427
31.32126 379
31.34137 409
31.36149 356
31.3816 390
31.40171 363
31.42183 384
31.44194 355
31.46206 383
31.48217 375
31.50228 380
31.5224 382
31.54251 371
31.56262 418
31.58274 359
31.60285 379
31.62297 358
31.64308 375
31.66319 364
31.68331 360
31.70342 375
31.72353 387
31.74365 340
31.76376 348
31.78387 417
31.80399 394
31.8241 374
31.84422 397
31.86433 401
31.88444 404
31.90456 388
31.92467 376
31.94478 416
31.9649 429
31.98501 393
32.00513 388
32.02524 433
32.04535 416
32.06547 426
32.08558 402
32.10569 378
32.12581 441
32.14592 426
32.16604 415
32.18615 448
32.20626 436
32.22638 425
32.24649 472
32.2666 457
32.28672 430
32.30683 442
32.32694 415
32.34706 444
32.36717 433
32.38729 469
32.4074 404
32.42751 434
32.44763 420
32.46774 468
32.48785 422
32.50797 452
32.52808 444
32.5482 475
32.56831 492
32.58842 450
32.60854 426
32.62865 436
32.64876 447
32.66888 417
32.68899 390
32.7091 397
32.72922 431
32.74933 419
32.76945 398
32.78956 392
32.80967 400
32.82979 396
32.8499 376
32.87001 394
32.89013 388
32.91024 414
32.93036 380
32.95047 404
32.97058 388
32.9907 383
33.01081 429
33.03092 441
33.05104 389
33.07115 402
33.09127 424
33.11138 423
33.13149 405
33.15161 421
33.17172 379
33.19183 428
33.21195 405
33.23206 414
33.25217 371
33.27229 400
33.2924 462
33.31252 395
33.33263 459
33.35274 413
33.37286 405
33.39297 434
33.41308 384
33.4332 443
33.45331 425
33.47343 396
33.49354 423
33.51365 413
33.53377 382
33.55388 420
33.57399 414
33.59411 380
33.61422 400
33.63434 413
33.65445 423
33.67456 420
33.69468 431
33.71479 401
33.7349 381
33.75502 391
33.77513 382
33.79524 375
33.81536 395
33.83547 381
33.85559 371
33.8757 417
33.89581 384
33.91593 404
33.93604 404
33.95615 368
33.97627 391
33.99638 416
34.0165 371
34.03661 415
34.05672 383
34.07684 410
34.09695 398
34.11706 379
34.13718 413
34.15729 384
34.17741 403
34.19752 353
34.21763 407
34.23775 414
34.25786 387
34.27797 413
34.29809 414
34.3182 398
34.33831 396
34.35843 472
34.37854 388
34.39866 420
34.41877 438
34.43888 455
34.459 405
34.47911 464
34.49922 464
34.51934 495
34.53945 485
34.55957 481
34.57968 483
34.59979 468
34.61991 486
34.64002 510
34.66013 501
34.68025 472
34.70036 536
34.72047 549
34.74059 549
34.7607 579
34.78082 609
34.80093 610
34.82104 602
34.84116 611
34.86127 648
34.88138 679
34.9015 706
34.92161 660
34.94173 696
34.96184 692
34.98195 670
35.00207 703
35.02218 616
35.04229 653
35.06241 607
35.08252 684
35.10264 590
35.12275 586
35.14286 608
35.16298 595
35.18309 636
35.2032 587
35.22332 608
35.24343 590
35.26354 630
35.28366 591
35.30377 542
35.32389 605
35.344 626
35.36411 590
35.38423 576
35.40434 577
35.42445 587
35.44457 545
35.46468 620
35.4848 524
35.50491 583
35.52502 569
35.54514 533
35.56525 606
35.58536 577
35.60548 565
35.62559 561
35.64571 574
35.66582 549
35.68593 543
35.70605 559
35.72616 589
35.74627 595
35.76639 556
35.7865 616
35.80661 550
35.82673 587
35.84684 603
35.86696 548
35.88707 630
35.90718 593
35.9273 581
35.94741 584
35.96752 601
35.98764 600
36.00775 582
36.02787 589
36.04798 610
36.06809 618
36.08821 560
36.10832 577
36.12843 600
36.14855 551
36.16866 587
36.18878 559
36.20889 576
36.229 566
36.24912 619
36.26923 543
36.28934 595
36.30946 668
36.32957 635
36.34968 691
36.3698 821
36.38991 820
36.41003 995
36.43014 1065
36.45025 1193
36.47037 1338
36.49048 1345
36.51059 1411
36.53071 1325
36.55082 1160
36.57094 1100
36.59105 982
36.61116 904
36.63128 774
36.65139 687
36.6715 683
36.69162 615
36.71173 566
36.73184 506
36.75196 554
36.77207 533
36.79219 532
36.8123 534
36.83241 517
36.85253 552
36.87264 510
36.89275 506
36.91287 573
36.93298 540
36.9531 546
36.97321 523
36.99332 587
37.01344 549
37.03355 518
37.05366 509
37.07378 550
37.09389 522
37.11401 553
37.13412 511
37.15423 528
37.17435 530
37.19446 522
37.21457 510
37.23469 471
37.2548 498
37.27491 580
37.29503 539
37.31514 490
37.33526 508
37.35537 478
37.37548 468
37.3956 550
37.41571 486
37.43582 501
37.45594 498
37.47605 515
37.49617 518
37.51628 499
37.53639 526
37.55651 487
37.57662 504
37.59673 518
37.61685 544
37.63696 513
37.65708 546
37.67719 514
37.6973 547
37.71742 529
37.73753 506
37.75764 516
37.77776 544
37.79787 547
37.81798 514
37.8381 539
37.85821 544
37.87833 502
37.89844 480
37.91855 503
37.93867 480
37.95878 525
37.97889 515
37.99901 479
38.01912 499
38.03924 447
38.05935 506
38.07946 514
38.09958 507
38.11969 517
38.1398 512
38.15992 524
38.18003 531
38.20015 518
38.22026 535
38.24037 509
38.26049 545
38.2806 548
38.30071 539
38.32083 551
38.34094 620
38.36105 563
38.38117 577
38.40128 564
38.4214 575
38.44151 550
38.46162 520
38.48174 549
38.50185 602
38.52196 514
38.54208 528
38.56219 535
38.58231 512
38.60242 527
38.62253 555
38.64265 551
38.66276 487
38.68287 476
38.70299 514
38.7231 500
38.74321 477
38.76333 474
38.78344 473
38.80356 445
38.82367 461
38.84378 453
38.8639 463
38.88401 499
38.90412 446
38.92424 470
38.94435 476
38.96447 462
38.98458 481
39.00469 483
39.02481 487
39.04492 455
39.06503 457
39.08515 527
39.10526 518
39.12538 530
39.14549 501
39.1656 534
39.18572 526
39.20583 546
39.22594 576
39.24606 614
39.26617 651
39.28628 671
39.3064 744
39.32651 848
39.34663 933
39.36674 1037
39.38685 1147
39.40697 1194
39.42708 1231
39.44719 1194
39.46731 1099
39.48742 1012
39.50754 942
39.52765 808
39.54776 745
39.56788 712
39.58799 584
39.6081 516
39.62822 501
39.64833 517
39.66845 457
39.68856 438
39.70867 486
39.72879 439
39.7489 433
39.76901 440
39.78913 446
39.80924 438
39.82935 442
39.84947 438
39.86958 428
39.8897 434
39.90981 431
39.92992 449
39.95004 445
39.97015 464
39.99026 463
40.01038 440
40.03049 502
40.05061 485
40.07072 481
40.09083 548
40.11095 550
40.13106 580
40.15117 632
40.17129 633
40.1914 729
40.21152 763
40.23163 807
40.25174 824
40.27186 813
40.29197 763
40.31208 675
40.3322 641
40.35231 650
40.37242 563
40.39254 551
40.41265 536
40.43277 474
40.45288 450
40.47299 450
40.49311 454
40.51322 473
40.53333 432
40.55345 468
40.57356 407
40.59368 414
40.61379 440
40.6339 396
40.65402 443
40.67413 444
40.69424 416
40.71436 462
40.73447 430
40.75458 417
40.7747 423
40.79481 429
40.81493 426
40.83504 434
40.85515 451
40.87527 405
40.89538 458
40.91549 437
40.93561 413
40.95572 420
40.97584 436
40.99595 423
41.01606 430
41.03618 444
41.05629 432
41.0764 412
41.09652 415
41.11663 425
41.13675 426
41.15686 417
41.17697 433
41.19709 445
41.2172 429
41.23731 441
41.25743 438
41.27754 473
41.29765 471
41.31777 455
41.33788 455
41.358 450
41.37811 456
41.39822 459
41.41834 453
41.43845 435
41.45856 472
41.47868 457
41.49879 439
41.51891 444
41.53902 441
41.55913 442
41.57925 456
41.59936 434
41.61947 445
41.63959 470
41.6597 401
41.67982 387
41.69993 414
41.72004 431
41.74016 425
41.76027 416
41.78038 405
41.8005 434
41.82061 408
41.84072 403
41.86084 411
41.88095 403
41.90107 394
41.92118 405
41.94129 430
41.96141 411
41.98152 408
42.00163 395
42.02175 405
42.04186 420
42.06198 422
42.08209 425
42.1022 405
42.12232 443
42.14243 400
42.16254 439
42.18266 444
42.20277 448
42.22289 482
42.243 494
42.26311 548
42.28323 590
42.30334 648
42.32345 712
42.34357 768
42.36368 864
42.38379 930
42.40391 887
42.42402 962
42.44414 842
42.46425 826
42.48436 712
42.50448 665
42.52459 612
42.5447 564
42.56482 492
42.58493 484
42.60505 429
42.62516 405
42.64527 398
42.66539 380
42.6855 367
42.70561 365
42.72573 330
42.74584 380
42.76595 358
42.78607 370
42.80618 351
42.8263 362
42.84641 339
42.86652 348
42.88664 342
42.90675 361
42.92686 390
42.94698 340
42.96709 360
42.98721 351
43.00732 343
43.02743 340
43.04755 381
43.06766 335
43.08777 317
43.10789 331
43.128 385
43.14812 366
43.16823 369
43.18834 314
43.20846 370
43.22857 345
43.24868 365
43.2688 325
43.28891 348
43.30902 308
43.32914 365
43.34925 385
43.36937 351
43.38948 347
43.40959 344
43.42971 320
43.44982 336
43.46993 354
43.49005 371
43.51016 360
43.53028 337
43.55039 352
43.5705 372
43.59062 362
43.61073 349
43.63084 334
43.65096 353
43.67107 390
43.69119 330
43.7113 359
43.73141 350
43.75153 353
43.77164 368
43.79175 351
43.81187 331
43.83198 340
43.85209 393
43.87221 364
43.89232 355
43.91244 353
43.93255 329
43.95266 353
43.97278 357
43.99289 343
44.013 370
44.03312 376
44.05323 344
44.07335 391
44.09346 378
44.11357 367
44.13369 364
44.1538 331
44.17391 353
44.19403 333
44.21414 347
44.23426 377
44.25437 385
44.27448 350
44.2946 370
44.31471 353
44.33482 336
44.35494 368
44.37505 353
44.39516 325
44.41528 340
44.43539 386
44.45551 362
44.47562 407
44.49573 341
44.51585 342
44.53596 366
44.55607 365
44.57619 324
44.5963 343
44.61642 366
44.63653 348
44.65664 339
44.67676 362
44.69687 356
44.71698 334
44.7371 348
44.75721 339
44.77732 397
44.79744 342
44.81755 393
44.83767 380
44.85778 363
44.87789 334
44.89801 345
44.91812 382
44.93823 400
44.95835 356
44.97846 329
44.99858 345
45.01869 364
45.0388 374
45.05892 369
45.07903 397
45.09914 368
45.11926 404
45.13937 420
45.15949 427
45.1796 415
45.19971 409
45.21983 382
45.23994 410
45.26005 424
45.28017 418
45.30028 401
45.32039 422
45.34051 415
45.36062 390
45.38074 363
45.40085 409
45.42096 430
45.44108 418
45.46119 439
45.4813 406
45.50142 454
45.52153 410
45.54165 449
45.56176 450
45.58187 452
45.60199 502
45.6221 544
45.64221 547
45.66233 648
45.68244 681
45.70256 702
45.72267 752
45.74278 767
45.7629 735
45.78301 645
45.80312 637
45.82324 633
45.84335 619
45.86346 551
45.88358 553
45.90369 511
45.92381 437
45.94392 395
45.96403 391
45.98415 367
46.00426 401
46.02437 385
46.04449 423
46.0646 370
46.08472 400
46.10483 374
46.12494 347
46.14506 368
46.16517 361
46.18528 393
46.2054 381
46.22551 355
46.24563 349
46.26574 382
46.28585 378
46.30597 350
46.32608 347
46.34619 363
46.36631 347
46.38642 351
46.40653 343
46.42665 365
46.44676 356
46.46688 320
46.48699 386
46.5071 388
46.52722 373
46.54733 377
46.56744 363
46.58756 375
46.60767 372
46.62779 377
46.6479 375
46.66801 368
46.68813 373
46.70824 375
46.72835 373
46.74847 356
46.76858 342
46.78869 362
46.80881 399
46.82892 348
46.84904 403
46.86915 348
46.88926 359
46.90938 356
46.92949 374
46.9496 352
46.96972 339
46.98983 371
47.00995 361
47.03006 355
47.05017 309
47.07029 391
47.0904 359
47.11051 342
47.13063 362
47.15074 353
47.17086 359
47.19097 373
47.21108 333
47.2312 340
47.25131 375
47.27142 324
47.29154 358
47.31165 367
47.33176 367
47.35188 356
47.37199 336
47.39211 355
47.41222 340
47.43233 323
47.45245 374
47.47256 356
47.49267 375
47.51279 361
47.5329 319
47.55302 371
47.57313 359
47.59324 340
47.61336 372
47.63347 314
47.65358 350
47.6737 340
47.69381 333
47.71393 332
47.73404 324
47.75415 368
47.77427 314
47.79438 365
47.81449 374
47.83461 344
47.85472 358
47.87483 351
47.89495 350
47.91506 364
47.93518 384
47.95529 407
47.9754 370
47.99552 362
48.01563 365
48.03574 360
48.05586 356
48.07597 357
48.09609 326
48.1162 350
48.13631 332
48.15643 382
48.17654 343
48.19665 333
48.21677 357
48.23688 327
48.257 350
48.27711 375
48.29722 385
48.31734 335
48.33745 359
48.35756 337
48.37768 371
48.39779 379
48.4179 323
48.43802 362
48.45813 343
48.47825 360
48.49836 343
48.51847 357
48.53859 336
48.5587 332
48.57881 384
48.59893 385
48.61904 390
48.63916 359
48.65927 408
48.67938 329
48.6995 357
48.71961 372
48.73972 334
48.75984 354
48.77995 384
48.80006 328
48.82018 357
48.84029 339
48.86041 371
48.88052 365
48.90063 354
48.92075 337
48.94086 355
48.96097 352
48.98109 395
49.0012 342
49.02132 391
49.04143 381
49.06154 359
49.08166 336
49.10177 371
49.12188 366
49.142 344
49.16211 368
49.18223 340
49.20234 359
49.22245 345
49.24257 338
49.26268 387
49.28279 364
49.30291 341
49.32302 341
49.34313 360
49.36325 354
49.38336 380
49.40348 344
49.42359 340
49.4437 364
49.46382 363
49.48393 385
49.50404 324
49.52416 411
49.54427 368
49.56439 372
49.5845 372
49.60461 353
49.62473 336
49.64484 429
49.66495 331
49.68507 345
49.70518 409
49.7253 363
49.74541 365
49.76552 425
49.78564 426
49.80575 418
49.82586 435
49.84598 463
49.86609 508
49.8862 587
49.90632 613
49.92643 654
49.94655 772
49.96666 892
49.98677 996
50.00689 1139
50.027 1277
50.04711 1487
50.06723 1627
50.08734 1699
50.10746 1574
50.12757 1441
50.14768 1268
50.1678 1155
50.18791 1029
50.20802 1065
50.22814 947
50.24825 874
50.26837 747
50.28848 650
50.30859 502
50.32871 467
50.34882 415
50.36893 461
50.38905 414
50.40916 415
50.42927 413
50.44939 391
50.4695 442
50.48962 389
50.50973 386
50.52984 374
50.54996 422
50.57007 420
50.59018 416
50.6103 386
50.63041 366
50.65053 384
50.67064 365
50.69075 390
50.71087 404
50.73098 402
50.75109 423
50.77121 339
50.79132 342
50.81143 379
50.83155 372
50.85166 380
50.87178 374
50.89189 328
50.912 352
50.93212 358
50.95223 359
50.97234 354
50.99246 345
51.01257 385
51.03269 357
51.0528 352
51.07291 349
51.09303 346
51.11314 347
51.13325 357
51.15337 353
51.17348 337
51.1936 348
51.21371 361
51.23382 360
51.25394 343
51.27405 351
51.29416 332
51.31428 357
51.33439 328
51.3545 317
51.37462 301
51.39473 306
51.41485 325
51.43496 344
51.45507 302
51.47519 333
51.4953 338
51.51541 357
51.53553 332
51.55564 304
51.57576 345
51.59587 301
51.61598 320
51.6361 311
51.65621 344
51.67632 277
51.69644 355
51.71655 313
51.73667 352
51.75678 313
51.77689 301
51.79701 295
51.81712 301
51.83723 320
51.85735 330
51.87746 314
51.89757 344
51.91769 323
51.9378 297
51.95792 331
51.97803 349
51.99814 350
52.01826 336
52.03837 311
52.05848 336
52.0786 361
52.09871 304
52.11883 309
52.13894 336
52.15905 321
52.17917 338
52.19928 311
52.21939 338
52.23951 388
52.25962 384
52.27974 361
52.29985 334
52.31996 341
52.34008 326
52.36019 292
52.3803 306
52.40042 333
52.42053 318
52.44064 323
52.46076 345
52.48087 374
52.50099 330
52.5211 333
52.54121 333
52.56133 315
52.58144 316
52.60155 348
52.62167 333
52.64178 322
52.6619 339
52.68201 321
52.70212 340
52.72224 363
52.74235 327
52.76246 367
52.78258 350
52.80269 341
52.8228 336
52.84292 375
52.86303 355
52.88315 342
52.90326 359
52.92337 402
52.94349 322
52.9636 370
52.98371 356
53.00383 385
53.02394 336
53.04406 371
53.06417 369
53.08428 376
53.1044 410
53.12451 356
53.14462 373
53.16474 361
53.18485 379
53.20497 378
53.22508 359
53.24519 375
53.26531 367
53.28542 377
53.30553 371
53.32565 390
53.34576 381
53.36587 412
53.38599 378
53.4061 366
53.42622 404
53.44633 383
53.46644 362
53.48656 411
53.50667 425
53.52678 352
53.5469 369
53.56701 391
53.58713 407
53.60724 380
53.62735 411
53.64747 399
53.66758 412
53.68769 409
53.70781 394
53.72792 408
53.74804 418
53.76815 374
53.78826 406
53.80838 365
53.82849 436
53.8486 448
53.86872 401
53.88883 437
53.90894 415
53.92906 436
53.94917 411
53.96929 428
53.9894 431
54.00951 409
54.02963 403
54.04974 456
54.06985 457
54.08997 410
54.11008 421
54.1302 462
54.15031 444
54.17042 456
54.19054 440
54.21065 431
54.23076 449
54.25088 420
54.27099 459
54.29111 456
54.31122 464
54.33133 472
54.35145 453
54.37156 427
54.39167 451
54.41179 461
54.4319 476
54.45201 449
54.47213 456
54.49224 488
54.51236 447
54.53247 465
54.55258 447
54.5727 456
54.59281 474
54.61292 542
54.63304 512
54.65315 509
54.67327 521
54.69338 553
54.71349 641
54.73361 632
54.75372 704
54.77383 730
54.79395 734
54.81406 767
54.83417 729
54.85429 798
54.8744 663
54.89452 669
54.91463 616
54.93474 591
54.95486 613
54.97497 589
54.99508 624
55.0152 575
55.03531 514
55.05543 491
55.07554 493
55.09565 491
55.11577 479
55.13588 448
55.15599 515
55.17611 517
55.19622 531
55.21634 581
55.23645 557
55.25656 585
55.27668 541
55.29679 591
55.3169 555
55.33702 485
55.35713 498
55.37724 525
55.39736 491
55.41747 481
55.43759 495
55.4577 454
55.47781 417
55.49793 455
55.51804 429
55.53815 457
55.55827 412
55.57838 398
55.5985 415
55.61861 394
55.63872 456
55.65884 424
55.67895 402
55.69906 384
55.71918 386
55.73929 390
55.75941 387
55.77952 403
55.79963 383
55.81975 431
55.83986 409
55.85997 406
55.88009 441
55.9002 402
55.92031 411
55.94043 362
55.96054 363
55.98066 407
56.00077 382
56.02088 361
56.041 380
56.06111 356
56.08122 357
56.10134 381
56.12145 354
56.14157 389
56.16168 357
56.18179 373
56.20191 397
56.22202 398
56.24213 364
56.26225 377
56.28236 360
56.30248 373
56.32259 382
56.3427 351
56.36282 399
56.38293 348
56.40304 352
56.42316 347
56.44327 384
56.46338 371
56.4835 367
56.50361 343
56.52373 322
56.54384 356
56.56395 372
56.58407 354
56.60418 374
56.62429 383
56.64441 363
56.66452 399
56.68464 362
56.70475 358
56.72486 357
56.74498 358
56.76509 345
56.7852 320
56.80532 356
56.82543 382
56.84554 388
56.86566 323
56.88577 352
56.90589 368
56.926 377
56.94611 332
56.96623 325
56.98634 338
57.00645 326
57.02657 351
57.04668 372
57.0668 338
57.08691 339
57.10702 371
57.12714 369
57.14725 374
57.16736 352
57.18748 354
57.20759 340
57.22771 378
57.24782 366
57.26793 374
57.28805 368
57.30816 343
57.32827 336
57.34839 357
57.3685 342
57.38861 369
57.40873 348
57.42884 355
57.44896 325
57.46907 320
57.48918 350
57.5093 322
57.52941 357
57.54952 378
57.56964 364
57.58975 329
57.60987 349
57.62998 326
57.65009 326
57.67021 352
57.69032 369
57.71043 336
57.73055 365
57.75066 320
57.77078 349
57.79089 342
57.811 340
57.83112 331
57.85123 362
57.87134 345
57.89146 349
57.91157 344
57.93168 342
57.9518 313
57.97191 286
57.99203 361
58.01214 348
58.03225 354
58.05237 343
58.07248 334
58.09259 330
58.11271 305
58.13282 335
58.15294 334
58.17305 336
58.19316 359
58.21328 361
58.23339 358
58.2535 361
58.27362 323
58.29373 331
58.31385 359
58.33396 359
58.35407 347
58.37419 339
58.3943 346
58.41441 363
58.43453 332
58.45464 349
58.47475 360
58.49487 312
58.51498 329
58.5351 306
58.55521 341
58.57532 330
58.59544 359
58.61555 321
58.63566 334
58.65578 331
58.67589 324
58.69601 345
58.71612 334
58.73623 359
58.75635 338
58.77646 324
58.79657 341
58.81669 351
58.8368 316
58.85691 332
58.87703 339
58.89714 330
58.91726 344
58.93737 341
58.95748 349
58.9776 334
58.99771 340
59.01782 325
59.03794 370
59.05805 340
59.07817 318
59.09828 345
59.11839 373
59.13851 336
59.15862 328
59.17873 313
59.19885 350
59.21896 324
59.23908 365
59.25919 375
59.2793 353
59.29942 398
59.31953 340
59.33964 351
59.35976 340
59.37987 314
59.39998 355
59.4201 365
59.44021 366
59.46033 380
59.48044 376
59.50055 393
59.52067 405
59.54078 414
59.56089 419
59.58101 440
59.60112 425
59.62124 409
59.64135 420
59.66146 471
59.68158 516
59.70169 545
59.7218 546
59.74192 625
59.76203 659
59.78215 749
59.80226 797
59.82237 914
59.84249 946
59.8626 1130
59.88271 1143
59.90283 1144
59.92294 1119
59.94305 1012
59.96317 923
59.98328 820
60.0034 797
60.02351 761
60.04362 803
60.06374 754
60.08385 707
60.10396 612
60.12408 535
60.14419 489
60.16431 478
60.18442 427
60.20453 414
60.22465 395
60.24476 377
60.26487 395
60.28499 372
60.3051 395
60.32522 369
60.34533 377
60.36544 367
60.38556 355
60.40567 403
60.42578 373
60.4459 343
60.46601 334
60.48612 343
60.50624 329
60.52635 387
60.54647 350
60.56658 338
60.58669 336
60.60681 357
60.62692 358
60.64703 331
60.66715 352
60.68726 350
60.70738 326
60.72749 343
60.7476 346
60.76772 334
60.78783 352
60.80794 318
60.82806 304
60.84817 348
60.86828 326
60.8884 332
60.90851 327
60.92863 350
60.94874 329
60.96885 318
60.98897 337
61.00908 309
61.02919 342
61.04931 360
61.06942 357
61.08954 302
61.10965 348
61.12976 332
61.14988 337
61.16999 320
61.1901 352
61.21022 358
61.23033 340
61.25045 345
61.27056 366
61.29067 373
61.31079 343
61.3309 337
61.35101 352
61.37113 368
61.39124 334
61.41135 340
61.43147 372
61.45158 377
61.4717 345
61.49181 372
61.51192 383
61.53204 355
61.55215 379
61.57226 386
61.59238 397
61.61249 375
61.63261 399
61.65272 406
61.67283 391
61.69295 418
61.71306 368
61.73317 424
61.75329 389
61.7734 435
61.79352 442
61.81363 426
61.83374 439
61.85386 406
61.87397 438
61.89408 449
61.9142 438
61.93431 454
61.95442 423
61.97454 438
61.99465 408
62.01477 442
62.03488 472
62.05499 434
62.07511 493
62.09522 543
62.11533 452
62.13545 467
62.15556 490
62.17568 496
62.19579 468
62.2159 509
62.23602 544
62.25613 497
62.27624 472
62.29636 507
62.31647 507
62.33659 503
62.3567 466
62.37681 489
62.39693 431
62.41704 488
62.43715 420
62.45727 464
62.47738 430
62.49749 406
62.51761 440
62.53772 429
62.55784 406
62.57795 401
62.59806 416
62.61818 394
62.63829 412
62.6584 357
62.67852 390
62.69863 372
62.71875 377
62.73886 397
62.75897 373
62.77909 393
62.7992 375
62.81931 341
62.83943 359
62.85954 349
62.87965 356
62.89977 350
62.91988 356
62.94 391
62.96011 349
62.98022 359
63.00034 368
63.02045 371
63.04056 358
63.06068 348
63.08079 376
63.10091 353
63.12102 367
63.14113 357
63.16125 331
63.18136 350
63.20147 356
63.22159 387
63.2417 362
63.26182 380
63.28193 340
63.30204 380
63.32216 374
63.34227 363
63.36238 364
63.3825 345
63.40261 326
63.42272 344
63.44284 354
63.46295 361
63.48307 349
63.50318 335
63.52329 364
63.54341 363
63.56352 347
63.58363 364
63.60375 339
63.62386 361
63.64398 362
63.66409 386
63.6842 376
63.70432 350
63.72443 390
63.74454 395
63.76466 422
63.78477 406
63.80489 434
63.825 392
63.84511 408
63.86523 409
63.88534 438
63.90545 443
63.92557 464
63.94568 479
63.96579 461
63.98591 507
64.00602 482
64.02614 441
64.04625 453
64.06636 424
64.08648 424
64.10659 421
64.1267 409
64.14682 413
64.16693 406
64.18705 411
64.20716 387
64.22727 347
64.24739 365
64.2675 336
64.28761 347
64.30773 329
64.32784 325
64.34796 324
64.36807 354
64.38818 335
64.4083 349
64.42841 324
64.44852 338
64.46864 328
64.48875 338
64.50886 375
64.52898 324
64.54909 345
64.56921 319
64.58932 348
64.60943 314
64.62955 326
64.64966 304
64.66977 307
64.68989 329
64.71 299
64.73012 322
64.75023 300
64.77034 345
64.79046 350
64.81057 327
64.83068 313
64.8508 336
64.87091 339
64.89102 317
64.91114 331
64.93125 355
64.95137 319
64.97148 292
64.99159 327
65.01171 341
65.03182 311
65.05193 311
65.07205 316
65.09216 315
65.11228 357
65.13239 345
65.1525 318
65.17262 311
65.19273 335
65.21284 307
65.23296 285
65.25307 324
65.27319 302
65.2933 311
65.31341 300
65.33353 304
65.35364 305
65.37375 342
65.39387 315
65.41398 326
65.43409 337
65.45421 303
65.47432 297
65.49444 345
65.51455 331
65.53466 311
65.55478 298
65.57489 345
65.595 335
65.61512 342
65.63523 349
65.65535 332
65.67546 345
65.69557 357
65.71569 376
65.7358 335
65.75591 340
65.77603 343
65.79614 347
65.81626 341
65.83637 327
65.85648 346
65.8766 333
65.89671 292
65.91682 323
65.93694 360
65.95705 334
65.97716 337
65.99728 312
66.01739 320
66.03751 337
66.05762 319
66.07773 289
66.09785 321
66.11796 315
66.13807 304
66.15819 321
66.1783 305
66.19842 310
66.21853 287
66.23864 333
66.25876 303
66.27887 293
66.29898 332
66.3191 349
66.33921 337
66.35933 303
66.37944 319
66.39955 303
66.41967 289
66.43978 299
66.45989 304
66.48001 303
66.50012 322
66.52023 310
66.54035 342
66.56046 291
66.58058 319
66.60069 312
66.6208 317
66.64092 292
66.66103 287
66.68114 325
66.70126 321
66.72137 304
66.74149 328
66.7616 315
66.78171 333
66.80183 296
66.82194 338
66.84205 320
66.86217 314
66.88228 337
66.90239 288
66.92251 330
66.94262 311
66.96274 332
66.98285 281
67.00296 307
67.02308 309
67.04319 356
67.0633 329
67.08342 320
67.10353 298
67.12365 319
67.14376 349
67.16387 355
67.18399 358
67.2041 354
67.22421 316
67.24433 372
67.26444 326
67.28456 340
67.30467 349
67.32478 340
67.3449 346
67.36501 362
67.38512 389
67.40524 392
67.42535 386
67.44546 399
67.46558 438
67.48569 426
67.50581 458
67.52592 531
67.54603 506
67.56615 591
67.58626 601
67.60637 673
67.62649 706
67.6466 782
67.66672 800
67.68683 742
67.70694 787
67.72706 695
67.74717 642
67.76728 629
67.7874 607
67.80751 602
67.82763 601
67.84774 573
67.86785 684
67.88797 665
67.90808 648
67.92819 657
67.94831 654
67.96842 684
67.98853 708
68.00865 780
68.02876 831
68.04888 949
68.06899 945
68.0891 966
68.10922 998
68.12933 914
68.14944 899
68.16956 797
68.18967 853
68.20979 818
68.2299 902
68.25001 847
68.27013 913
68.29024 848
68.31035 791
68.33047 678
68.35058 593
68.3707 512
68.39081 522
68.41092 540
68.43104 505
68.45115 535
68.47126 514
68.49138 458
68.51149 394
68.5316 366
68.55172 376
68.57183 378
68.59195 335
68.61206 320
68.63217 336
68.65229 348
68.6724 354
68.69251 337
68.71263 340
68.73274 326
68.75286 309
68.77297 321
68.79308 347
68.8132 333
68.83331 314
68.85342 338
68.87354 325
68.89365 325
68.91376 325
68.93388 304
68.95399 323
68.97411 281
68.99422 320
69.01433 319
69.03445 320
69.05456 336
69.07467 308
69.09479 321
69.1149 311
69.13502 332
69.15513 321
69.17524 333
69.19536 325
69.21547 305
69.23558 325
69.2557 307
69.27581 283
69.29593 319
69.31604 317
69.33615 331
69.35627 319
69.37638 318
69.39649 308
69.41661 282
69.43672 312
69.45683 301
69.47695 296
69.49706 305
69.51718 299
69.53729 316
69.5574 334
69.57752 294
69.59763 357
69.61774 304
69.63786 332
69.65797 306
69.67809 302
69.6982 316
69.71831 305
69.73843 303
69.75854 335
69.77865 310
69.79877 309
69.81888 330
69.839 297
69.85911 330
69.87922 303
69.89934 319
69.91945 314
69.93956 320
69.95968 325
69.97979 298
69.9999 325
70.02002 310
70.04013 313
70.06025 289
70.08036 307
70.10047 310
70.12059 329
70.1407 332
70.16081 320
70.18093 287
70.20104 308
70.22116 294
70.24127 284
70.26138 299
70.2815 303
70.30161 320
70.32172 315
70.34184 348
70.36195 300
70.38207 309
70.40218 305
70.42229 284
70.44241 319
70.46252 284
70.48263 291
70.50275 294
70.52286 307
70.54297 320
70.56309 294
70.5832 327
70.60332 313
70.62343 289
70.64354 298
70.66366 294
70.68377 296
70.70388 329
70.724 281
70.74411 293
70.76423 328
70.78434 301
70.80445 312
70.82457 295
70.84468 313
70.86479 303
70.88491 272
70.90502 320
70.92513 303
70.94525 285
70.96536 286
70.98548 311
71.00559 269
71.0257 276
71.04582 273
71.06593 339
71.08604 308
71.10616 302
71.12627 285
71.14639 329
71.1665 321
71.18661 294
71.20673 285
71.22684 299
71.24695 313
71.26707 289
71.28718 302
71.3073 294
71.32741 302
71.34752 287
71.36764 259
71.38775 302
71.40786 300
71.42798 297
71.44809 309
71.4682 290
71.48832 309
71.50843 284
71.52855 311
71.54866 298
71.56877 268
71.58889 285
71.609 288
71.62911 305
71.64923 312
71.66934 283
71.68946 309
71.70957 304
71.72968 290
71.7498 306
71.76991 322
71.79002 289
71.81014 296
71.83025 309
71.85037 266
71.87048 321
71.89059 303
71.91071 275
71.93082 314
71.95093 300
71.97105 289
71.99116 288
72.01127 311
72.03139 335
72.0515 314
72.07162 311
72.09173 289
72.11184 304
72.13196 303
72.15207 266
72.17218 309
72.1923 315
72.21241 309
72.23253 334
72.25264 316
72.27275 307
72.29287 292
72.31298 312
72.33309 297
72.35321 328
72.37332 305
72.39344 283
72.41355 315
72.43366 307
72.45378 312
72.47389 319
72.494 307
72.51412 314
72.53423 317
72.55434 300
72.57446 285
72.59457 291
72.61469 303
72.6348 308
72.65491 319
72.67503 312
72.69514 291
72.71525 288
72.73537 297
72.75548 320
72.7756 296
72.79571 300
72.81582 281
72.83594 299
72.85605 298
72.87616 307
72.89628 299
72.91639 313
72.9365 349
72.95662 298
72.97673 335
72.99685 336
73.01696 325
73.03707 317
73.05719 347
73.0773 324
73.09741 333
73.11753 332
73.13764 329
73.15776 331
73.17787 340
73.19798 327
73.2181 371
73.23821 406
73.25832 366
73.27844 362
73.29855 393
73.31867 409
73.33878 411
73.35889 465
73.37901 467
73.39912 498
73.41923 426
73.43935 475
73.45946 437
73.47957 398
73.49969 434
73.5198 368
73.53992 357
73.56003 392
73.58014 358
73.60026 407
73.62037 383
73.64048 401
73.6606 342
73.68071 350
73.70083 348
73.72094 368
73.74105 333
73.76117 322
73.78128 333
73.80139 319
73.82151 327
73.84162 325
73.86174 287
73.88185 319
73.90196 304
73.92208 323
73.94219 280
73.9623 305
73.98242 329
74.00253 287
74.02264 298
74.04276 310
74.06287 303
74.08299 304
74.1031 291
74.12321 290
74.14333 286
74.16344 305
74.18355 325
74.20367 301
74.22378 298
74.2439 309
74.26401 300
74.28412 302
74.30424 287
74.32435 293
74.34446 293
74.36458 283
74.38469 316
74.40481 300
74.42492 311
74.44503 294
74.46515 302
74.48526 293
74.50537 280
74.52549 304
74.5456 305
74.56571 309
74.58583 283
74.60594 310
74.62606 284
74.64617 322
74.66628 310
74.6864 306
74.70651 264
74.72662 342
74.74674 292
74.76685 305
74.78697 299
74.80708 281
74.82719 301
74.84731 289
74.86742 279
74.88753 290
74.90765 312
74.92776 291
74.94787 329
74.96799 291
74.9881 303
75.00822 299
