3.00117 21346
3.02128 20390
3.0414 19927
3.06151 19352
3.08162 18532
3.10174 18462
3.12185 17715
3.14197 17150
3.16208 16689
3.18219 15905
3.20231 15963
3.22242 15230
3.24253 14868
3.26265 14330
3.28276 13950
3.30288 13171
3.32299 12966
3.3431 12882
3.36322 12201
3.38333 11876
3.40344 11680
3.42356 10791
3.44367 10530
3.46379 10259
3.4839 9899
3.50401 9621
3.52413 9109
3.54424 8767
3.56435 8778
3.58447 8262
3.60458 8190
3.62469 7508
3.64481 7340
3.66492 7168
3.68504 6897
3.70515 6785
3.72526 6103
3.74538 6008
3.76549 5852
3.7856 5688
3.80572 5596
3.82583 5013
3.84595 4986
3.86606 4652
3.88617 4542
3.90629 4344
3.9264 3998
3.94651 3984
3.96663 3743
3.98674 3546
4.00686 3623
4.02697 3097
4.04708 3067
4.0672 3020
4.08731 2855
4.10742 2911
4.12754 2726
4.14765 2533
4.16776 2487
4.18788 2438
4.20799 2415
4.22811 1989
4.24822 2071
4.26833 2090
4.28845 2048
4.30856 2011
4.32867 1844
4.34879 1863
4.3689 1857
4.38902 1760
4.40913 1671
4.42924 1590
4.44936 1562
4.46947 1579
4.48958 1501
4.5097 1518
4.52981 1443
4.54992 1359
4.57004 1342
4.59015 1336
4.61027 1363
4.63038 1257
4.65049 1221
4.67061 1317
4.69072 1241
4.71083 1209
4.73095 1142
4.75106 1118
4.77118 1137
4.79129 1113
4.8114 1047
4.83152 969
4.85163 982
4.87174 990
4.89186 953
4.91197 924
4.93209 869
4.9522 852
4.97231 862
4.99243 874
5.01254 780
5.03265 831
5.05277 832
5.07288 829
5.09299 791
5.11311 769
5.13322 691
5.15334 708
5.17345 671
5.19356 666
5.21368 680
5.23379 650
5.2539 663
5.27402 618
5.29413 596
5.31425 600
5.33436 628
5.35447 585
5.37459 586
5.3947 587
5.41481 523
5.43493 529
5.45504 558
5.47516 518
5.49527 508
5.51538 470
5.5355 520
5.55561 503
5.57572 529
5.59584 511
5.61595 477
5.63606 463
5.65618 468
5.67629 392
5.69641 395
5.71652 414
5.73663 408
5.75675 382
5.77686 382
5.79697 437
5.81709 377
5.8372 382
5.85732 412
5.87743 404
5.89754 405
5.91766 356
5.93777 329
5.95788 354
5.978 407
5.99811 367
6.01823 378
6.03834 360
6.05845 334
6.07857 343
6.09868 308
6.11879 322
6.13891 400
6.15902 351
6.17913 383
6.19925 362
6.21936 356
6.23948 322
6.25959 365
6.2797 338
6.29982 320
6.31993 332
6.34004 365
6.36016 328
6.38027 333
6.40039 318
6.4205 361
6.44061 316
6.46073 344
6.48084 326
6.50095 310
6.52107 312
6.54118 355
6.56129 319
6.58141 306
6.60152 310
6.62164 310
6.64175 371
6.66186 316
6.68198 324
6.70209 320
6.7222 333
6.74232 323
6.76243 321
6.78255 327
6.80266 327
6.82277 323
6.84289 315
6.863 301
6.88311 338
6.90323 354
6.92334 315
6.94346 335
6.96357 324
6.98368 325
7.0038 354
7.02391 304
7.04402 306
7.06414 341
7.08425 339
7.10436 315
7.12448 331
7.14459 316
7.16471 306
7.18482 309
7.20493 314
7.22505 336
7.24516 338
7.26527 298
7.28539 325
7.3055 327
7.32562 321
7.34573 333
7.36584 319
7.38596 348
7.40607 289
7.42618 309
7.4463 331
7.46641 359
7.48653 315
7.50664 335
7.52675 319
7.54687 323
7.56698 330
7.58709 375
7.60721 334
7.62732 321
7.64743 314
7.66755 328
7.68766 340
7.70778 297
7.72789 320
7.748 318
7.76812 350
7.78823 314
7.80834 327
7.82846 325
7.84857 311
7.86869 368
7.8888 315
7.90891 334
7.92903 369
7.94914 319
7.96925 367
7.98937 327
8.00948 348
8.0296 382
8.04971 346
8.06982 317
8.08994 389
8.11005 351
8.13016 343
8.15028 346
8.17039 374
8.1905 363
8.21062 340
8.23073 347
8.25085 327
8.27096 341
8.29107 349
8.31119 328
8.3313 352
8.35141 349
8.37153 370
8.39164 333
8.41176 351
8.43187 345
8.45198 300
8.4721 330
8.49221 333
8.51232 334
8.53244 336
8.55255 350
8.57266 376
8.59278 323
8.61289 338
8.63301 328
8.65312 349
8.67323 361
8.69335 353
8.71346 349
8.73357 341
8.75369 382
8.7738 385
8.79392 423
8.81403 411
8.83414 414
8.85426 429
8.87437 432
8.89448 387
8.9146 355
8.93471 367
8.95483 330
8.97494 364
8.99505 328
9.01517 300
9.03528 319
9.05539 363
9.07551 338
9.09562 360
9.11573 345
9.13585 341
9.15596 343
9.17608 338
9.19619 308
9.2163 336
9.23642 315
9.25653 309
9.27664 333
9.29676 301
9.31687 324
9.33699 296
9.3571 332
9.37721 309
9.39733 341
9.41744 282
9.43755 299
9.45767 297
9.47778 321
9.4979 302
9.51801 269
9.53812 368
9.55824 287
9.57835 301
9.59846 310
9.61858 327
9.63869 323
9.6588 327
9.67892 292
9.69903 329
9.71915 336
9.73926 309
9.75937 307
9.77949 291
9.7996 311
9.81971 370
9.83983 339
9.85994 303
9.88006 283
9.90017 297
9.92028 328
9.9404 311
9.96051 290
9.98062 321
10.00074 304
10.02085 315
10.04097 324
10.06108 315
10.08119 276
10.10131 297
10.12142 296
10.14153 312
10.16165 294
10.18176 302
10.20187 326
10.22199 302
10.2421 286
10.26222 326
10.28233 336
10.30244 331
10.32256 307
10.34267 336
10.36278 306
10.3829 334
10.40301 326
10.42313 292
10.44324 277
10.46335 315
10.48347 285
10.50358 316
10.52369 304
10.54381 312
10.56392 285
10.58403 303
10.60415 288
10.62426 321
10.64438 303
10.66449 330
10.6846 312
10.70472 289
10.72483 311
10.74494 316
10.76506 324
10.78517 309
10.80529 305
10.8254 294
10.84551 305
10.86563 313
10.88574 323
10.90585 310
10.92597 347
10.94608 315
10.9662 337
10.98631 284
11.00642 304
11.02654 289
11.04665 325
11.06676 348
11.08688 342
11.10699 331
11.1271 298
11.14722 286
11.16733 316
11.18745 333
11.20756 292
11.22767 339
11.24779 352
11.2679 312
11.28801 315
11.30813 291
11.32824 321
11.34836 322
11.36847 346
11.38858 357
11.4087 312
11.42881 344
11.44892 360
11.46904 327
11.48915 369
11.50927 354
11.52938 350
11.54949 342
11.56961 394
11.58972 374
11.60983 351
11.62995 372
11.65006 378
11.67017 363
11.69029 388
11.7104 372
11.73052 404
11.75063 435
11.77074 413
11.79086 411
11.81097 418
11.83108 446
11.8512 455
11.87131 442
11.89143 470
11.91154 521
11.93165 512
11.95177 492
11.97188 529
11.99199 541
12.01211 527
12.03222 525
12.05234 525
12.07245 523
12.09256 566
12.11268 648
12.13279 706
12.1529 659
12.17302 678
12.19313 697
12.21324 708
12.23336 725
12.25347 798
12.27359 744
12.2937 807
12.31381 772
12.33393 741
12.35404 714
12.37415 718
12.39427 683
12.41438 659
12.4345 652
12.45461 565
12.47472 536
12.49484 547
12.51495 480
12.53506 493
12.55518 474
12.57529 497
12.5954 445
12.61552 426
12.63563 383
12.65575 398
12.67586 369
12.69597 397
12.71609 343
12.7362 357
12.75631 346
12.77643 373
12.79654 346
12.81666 355
12.83677 345
12.85688 294
12.877 325
12.89711 343
12.91722 305
12.93734 309
12.95745 305
12.97757 280
12.99768 318
13.01779 314
13.03791 327
13.05802 281
13.07813 323
13.09825 331
13.11836 294
13.13847 314
13.15859 309
13.1787 279
13.19882 281
13.21893 271
13.23904 290
13.25916 263
13.27927 281
13.29938 292
13.3195 293
13.33961 292
13.35973 284
13.37984 286
13.39995 319
13.42007 269
13.44018 290
13.46029 265
13.48041 284
13.50052 332
13.52064 319
13.54075 330
13.56086 375
13.58098 325
13.60109 369
13.6212 345
13.64132 340
13.66143 305
13.68154 278
13.70166 281
13.72177 273
13.74189 301
13.762 257
13.78211 296
13.80223 263
13.82234 265
13.84245 242
13.86257 295
13.88268 273
13.9028 250
13.92291 250
13.94302 249
13.96314 270
13.98325 263
14.00336 236
14.02348 240
14.04359 261
14.06371 271
14.08382 232
14.10393 259
14.12405 234
14.14416 223
14.16427 302
14.18439 279
14.2045 260
14.22461 251
14.24473 252
14.26484 268
14.28496 249
14.30507 248
14.32518 262
14.3453 273
14.36541 266
14.38552 273
14.40564 249
14.42575 263
14.44587 285
14.46598 258
14.48609 237
14.50621 245
14.52632 213
14.54643 243
14.56655 232
14.58666 276
14.60677 249
14.62689 257
14.647 258
14.66712 296
14.68723 243
14.70734 247
14.72746 257
14.74757 251
14.76768 246
14.7878 249
14.80791 294
14.82803 254
14.84814 312
14.86825 266
14.88837 285
14.90848 274
14.92859 288
14.94871 288
14.96882 292
14.98894 274
15.00905 266
15.02916 270
15.04928 230
15.06939 275
15.0895 250
15.10962 279
15.12973 227
15.14984 255
15.16996 245
15.19007 276
15.21019 287
15.2303 277
15.25041 272
15.27053 258
15.29064 249
15.31075 272
15.33087 273
15.35098 281
15.3711 264
15.39121 252
15.41132 243
15.43144 227
15.45155 279
15.47166 269
15.49178 269
15.51189 241
15.53201 234
15.55212 235
15.57223 243
15.59235 241
15.61246 256
15.63257 263
15.65269 231
15.6728 228
15.69291 241
15.71303 266
15.73314 233
15.75326 260
15.77337 222
15.79348 251
15.8136 223
15.83371 241
15.85382 255
15.87394 250
15.89405 218
15.91417 234
15.93428 230
15.95439 242
15.97451 276
15.99462 241
16.01473 223
16.03485 270
16.05496 226
16.07508 271
16.09519 221
16.1153 250
16.13542 228
16.15553 263
16.17564 225
16.19576 259
16.21587 253
16.23598 273
16.2561 225
16.27621 233
16.29633 245
16.31644 225
16.33655 206
16.35667 218
16.37678 268
16.39689 239
16.41701 265
16.43712 251
16.45724 226
16.47735 235
16.49746 242
16.51758 254
16.53769 246
16.5578 236
16.57792 228
16.59803 243
16.61814 244
16.63826 245
16.65837 206
16.67849 228
16.6986 246
16.71871 225
16.73883 277
16.75894 224
16.77905 218
16.79917 285
16.81928 256
16.8394 227
16.85951 267
16.87962 264
16.89974 271
16.91985 239
16.93996 254
16.96008 254
16.98019 245
17.00031 231
17.02042 224
17.04053 243
17.06065 255
17.08076 235
17.10087 276
17.12099 237
17.1411 236
17.16121 248
17.18133 241
17.20144 264
17.22156 236
17.24167 223
17.26178 301
17.2819 227
17.30201 217
17.32212 234
17.34224 241
17.36235 227
17.38247 270
17.40258 219
17.42269 234
17.44281 267
17.46292 263
17.48303 270
17.50315 271
17.52326 252
17.54338 255
17.56349 246
17.5836 253
17.60372 258
17.62383 255
17.64394 259
17.66406 289
17.68417 269
17.70428 257
17.7244 251
17.74451 292
17.76463 255
17.78474 290
17.80485 270
17.82497 265
17.84508 269
17.86519 248
17.88531 285
17.90542 243
17.92554 270
17.94565 280
17.96576 269
17.98588 237
18.00599 247
18.0261 278
18.04622 280
18.06633 304
18.08645 277
18.10656 297
18.12667 311
18.14679 336
18.1669 357
18.18701 334
18.20713 380
18.22724 414
18.24735 447
18.26747 431
18.28758 452
18.3077 436
18.32781 395
18.34792 407
18.36804 383
18.38815 357
18.40826 338
18.42838 323
18.44849 300
18.46861 258
18.48872 265
18.50883 254
18.52895 266
18.54906 245
18.56917 245
18.58929 250
18.6094 232
18.62951 257
18.64963 275
18.66974 275
18.68986 284
18.70997 246
18.73008 224
18.7502 257
18.77031 268
18.79042 242
18.81054 279
18.83065 237
18.85077 277
18.87088 263
18.89099 253
18.91111 262
18.93122 276
18.95133 267
18.97145 279
18.99156 256
19.01168 239
19.03179 281
19.0519 262
19.07202 246
19.09213 280
19.11224 277
19.13236 322
19.15247 301
19.17258 292
19.1927 319
19.21281 300
19.23293 339
19.25304 338
19.27315 326
19.29327 350
19.31338 365
19.33349 331
19.35361 325
19.37372 333
19.39384 309
19.41395 320
19.43406 288
19.45418 356
19.47429 290
19.4944 358
19.51452 329
19.53463 346
19.55475 358
19.57486 351
19.59497 390
19.61509 409
19.6352 401
19.65531 421
19.67543 444
19.69554 465
19.71565 482
19.73577 537
19.75588 570
19.776 596
19.79611 633
19.81622 658
19.83634 641
19.85645 648
19.87656 662
19.89668 657
19.91679 662
19.93691 635
19.95702 636
19.97713 622
19.99725 597
20.01736 634
20.03747 608
20.05759 606
20.0777 621
20.09782 661
20.11793 648
20.13804 613
20.15816 599
20.17827 690
20.19838 663
20.2185 655
20.23861 711
20.25872 717
20.27884 664
20.29895 679
20.31907 708
20.33918 656
20.35929 647
20.37941 671
20.39952 701
20.41963 653
20.43975 684
20.45986 682
20.47998 690
20.50009 723
20.5202 714
20.54032 703
20.56043 636
20.58054 737
20.60066 737
20.62077 772
20.64088 889
20.661 876
20.68111 1109
20.70123 1402
20.72134 1648
20.74145 2105
20.76157 2628
20.78168 3361
20.80179 3831
20.82191 3981
20.84202 3892
20.86214 3454
20.88225 2996
20.90236 2359
20.92248 1777
20.94259 1510
20.9627 1267
20.98282 1120
21.00293 1113
21.02305 1009
21.04316 953
21.06327 816
21.08339 783
21.1035 718
21.12361 655
21.14373 644
21.16384 568
21.18395 570
21.20407 578
21.22418 560
21.2443 564
21.26441 597
21.28452 537
21.30464 563
21.32475 542
21.34486 537
21.36498 540
21.38509 567
21.40521 520
21.42532 572
21.44543 491
21.46555 511
21.48566 514
21.50577 494
21.52589 481
21.546 532
21.56612 506
21.58623 510
21.60634 468
21.62646 464
21.64657 432
21.66668 483
21.6868 401
21.70691 475
21.72702 434
21.74714 461
21.76725 488
21.78737 462
21.80748 413
21.82759 432
21.84771 422
21.86782 442
21.88793 480
21.90805 489
21.92816 464
21.94828 441
21.96839 460
21.9885 437
22.00862 425
22.02873 377
22.04884 438
22.06896 425
22.08907 498
22.10919 428
22.1293 408
22.14941 445
22.16953 458
22.18964 450
22.20975 484
22.22987 523
22.24998 490
22.27009 540
22.29021 466
22.31032 487
22.33044 494
22.35055 500
22.37066 426
22.39078 469
22.41089 428
22.431 451
22.45112 405
22.47123 434
22.49135 409
22.51146 391
22.53157 445
22.55169 400
22.5718 433
22.59191 425
22.61203 443
22.63214 426
22.65225 455
22.67237 430
22.69248 433
22.7126 393
22.73271 414
22.75282 442
22.77294 388
22.79305 455
22.81316 390
22.83328 419
22.85339 404
22.87351 410
22.89362 430
22.91373 433
22.93385 431
22.95396 432
22.97407 447
22.99419 491
23.0143 469
23.03442 494
23.05453 469
23.07464 506
23.09476 529
23.11487 549
23.13498 562
23.1551 583
23.17521 565
23.19532 518
23.21544 510
23.23555 473
23.25567 483
23.27578 476
23.29589 391
23.31601 400
23.33612 447
23.35623 432
23.37635 406
23.39646 378
23.41658 421
23.43669 353
23.4568 392
23.47692 400
23.49703 412
23.51714 434
23.53726 414
23.55737 392
23.57749 382
23.5976 431
23.61771 419
23.63783 417
23.65794 465
23.67805 472
23.69817 409
23.71828 426
23.73839 416
23.75851 425
23.77862 435
23.79874 460
23.81885 492
23.83896 476
23.85908 501
23.87919 502
23.8993 487
23.91942 593
23.93953 567
23.95965 628
23.97976 625
23.99987 623
24.01999 545
24.0401 540
24.06021 490
24.08033 484
24.10044 477
24.12056 508
24.14067 470
24.16078 466
24.1809 481
24.20101 428
24.22112 484
24.24124 487
24.26135 478
24.28146 535
24.30158 533
24.32169 543
24.34181 483
24.36192 487
24.38203 504
24.40215 492
24.42226 508
24.44237 522
24.46249 513
24.4826 540
24.50272 513
24.52283 594
24.54294 551
24.56306 579
24.58317 584
24.60328 615
24.6234 623
24.64351 656
24.66362 645
24.68374 656
24.70385 692
24.72397 699
24.74408 690
24.76419 684
24.78431 682
24.80442 684
24.82453 727
24.84465 729
24.86476 696
24.88488 664
24.90499 661
24.9251 661
24.94522 649
24.96533 632
24.98544 559
25.00556 592
25.02567 553
25.04579 527
25.0659 494
25.08601 546
25.10613 468
25.12624 565
25.14635 526
25.16647 493
25.18658 534
25.20669 462
25.22681 492
25.24692 457
25.26704 441
25.28715 482
25.30726 487
25.32738 500
25.34749 467
25.3676 515
25.38772 492
25.40783 582
25.42795 644
25.44806 657
25.46817 687
25.48829 741
25.5084 752
25.52851 681
25.54863 673
25.56874 773
25.58886 717
25.60897 715
25.62908 656
25.6492 685
25.66931 651
25.68942 625
25.70954 555
25.72965 544
25.74976 516
25.76988 530
25.78999 500
25.81011 546
25.83022 524
25.85033 547
25.87045 490
25.89056 552
25.91067 549
25.93079 557
25.9509 529
25.97102 546
25.99113 530
26.01124 558
26.03136 598
26.05147 589
26.07158 688
26.0917 600
26.11181 681
26.13193 665
26.15204 737
26.17215 789
26.19227 800
26.21238 851
26.23249 975
26.25261 1034
26.27272 1067
26.29283 1194
26.31295 1267
26.33306 1532
26.35318 1600
26.37329 1837
26.3934 2191
26.41352 2534
26.43363 3041
26.45374 3852
26.47386 4833
26.49397 6400
26.51409 8290
26.5342 10671
26.55431 13323
26.57443 15372
26.59454 16923
26.61465 16625
26.63477 14704
26.65488 12260
26.67499 9387
26.69511 6952
26.71522 4761
26.73534 3021
26.75545 2133
26.77556 1574
26.79568 1381
26.81579 1270
26.8359 1107
26.85602 1053
26.87613 960
26.89625 993
26.91636 894
26.93647 958
26.95659 941
26.9767 943
26.99681 957
27.01693 1017
27.03704 1021
27.05716 977
27.07727 957
27.09738 875
27.1175 733
27.13761 701
27.15772 726
27.17784 684
27.19795 635
27.21806 699
27.23818 733
27.25829 754
27.27841 809
27.29852 902
27.31863 1039
27.33875 1159
27.35886 1215
27.37897 1323
27.39909 1361
27.4192 1352
27.43932 1283
27.45943 1227
27.47954 1130
27.49966 928
27.51977 851
27.53988 717
27.56 619
27.58011 550
27.60023 570
27.62034 455
27.64045 484
27.66057 499
27.68068 487
27.70079 504
27.72091 444
27.74102 479
27.76113 407
27.78125 432
27.80136 424
27.82148 430
27.84159 404
27.8617 406
27.88182 411
27.90193 429
27.92204 383
27.94216 418
27.96227 405
27.98239 396
28.0025 362
28.02261 383
28.04273 373
28.06284 358
28.08295 397
28.10307 382
28.12318 346
28.1433 353
28.16341 358
28.18352 356
28.20364 377
28.22375 440
28.24386 326
28.26398 361
28.28409 360
28.3042 330
28.32432 341
28.34443 360
28.36455 339
28.38466 370
28.40477 386
28.42489 375
28.445 370
28.46511 322
28.48523 344
28.50534 349
28.52546 365
28.54557 339
28.56568 374
28.5858 368
28.60591 321
28.62602 379
28.64614 309
28.66625 361
28.68636 320
28.70648 332
28.72659 364
28.74671 374
28.76682 336
28.78693 333
28.80705 308
28.82716 351
28.84727 335
28.86739 323
28.8875 341
28.90762 313
28.92773 345
28.94784 317
28.96796 315
28.98807 314
29.00818 306
29.0283 326
29.04841 298
29.06853 342
29.08864 298
29.10875 330
29.12887 346
29.14898 323
29.16909 341
29.18921 306
29.20932 301
29.22943 332
29.24955 355
29.26966 355
29.28978 363
29.30989 412
29.33 367
29.35012 388
29.37023 464
29.39034 447
29.41046 485
29.43057 421
29.45069 435
29.4708 404
29.49091 388
29.51103 402
29.53114 343
29.55125 345
29.57137 331
29.59148 363
29.6116 359
29.63171 344
29.65182 339
29.67194 354
29.69205 357
29.71216 340
29.73228 377
29.75239 347
29.7725 344
29.79262 355
29.81273 395
29.83285 353
29.85296 358
29.87307 349
29.89319 379
29.9133 361
29.93341 360
29.95353 365
29.97364 357
29.99376 361
30.01387 366
30.03398 411
30.0541 406
30.07421 461
30.09432 431
30.11444 441
30.13455 445
30.15467 457
30.17478 466
30.19489 466
30.21501 490
30.23512 392
30.25523 428
30.27535 398
30.29546 371
30.31557 356
30.33569 400
30.3558 336
30.37592 319
30.39603 350
30.41614 366
30.43626 302
30.45637 341
30.47648 346
30.4966 334
30.51671 341
30.53683 349
30.55694 344
30.57705 397
30.59717 419
30.61728 419
30.63739 410
30.65751 453
30.67762 474
30.69773 494
30.71785 520
30.73796 519
30.75808 505
30.77819 459
30.7983 480
30.81842 450
30.83853 440
30.85864 412
30.87876 391
30.89887 388
30.91899 362
30.9391 342
30.95921 309
30.97933 327
30.99944 294
31.01955 273
31.03967 300
31.05978 293
31.0799 322
31.10001 308
31.12012 292
31.14024 329
31.16035 284
31.18046 338
31.20058 325
31.22069 300
31.2408 277
31.26092 277
31.28103 276
31.30115 304
31.32126 280
31.34137 270
31.36149 287
31.3816 308
31.40171 265
31.42183 280
31.44194 247
31.46206 267
31.48217 293
31.50228 278
31.5224 299
31.54251 274
31.56262 289
31.58274 273
31.60285 285
31.62297 288
31.64308 281
31.66319 314
31.68331 303
31.70342 270
31.72353 296
31.74365 288
31.76376 280
31.78387 287
31.80399 313
31.8241 265
31.84422 273
31.86433 309
31.88444 301
31.90456 291
31.92467 306
31.94478 290
31.9649 302
31.98501 303
32.00513 335
32.02524 305
32.04535 303
32.06547 347
32.08558 306
32.10569 354
32.12581 332
32.14592 304
32.16604 297
32.18615 328
32.20626 308
32.22638 311
32.24649 283
32.2666 317
32.28672 296
32.30683 330
32.32694 298
32.34706 337
32.36717 333
32.38729 343
32.4074 339
32.42751 315
32.44763 315
32.46774 310
32.48785 325
32.50797 287
32.52808 318
32.5482 262
32.56831 333
32.58842 284
32.60854 296
32.62865 292
32.64876 252
32.66888 261
32.68899 297
32.7091 273
32.72922 274
32.74933 283
32.76945 301
32.78956 284
32.80967 287
32.82979 288
32.8499 287
32.87001 311
32.89013 307
32.91024 312
32.93036 295
32.95047 309
32.97058 333
32.9907 344
33.01081 336
33.03092 340
33.05104 342
33.07115 370
33.09127 368
33.11138 331
33.13149 345
33.15161 322
33.17172 325
33.19183 341
33.21195 305
33.23206 322
33.25217 298
33.27229 335
33.2924 330
33.31252 286
33.33263 300
33.35274 289
33.37286 265
33.39297 285
33.41308 325
33.4332 303
33.45331 254
33.47343 275
33.49354 285
33.51365 293
33.53377 303
33.55388 272
33.57399 298
33.59411 287
33.61422 298
33.63434 276
33.65445 324
33.67456 299
33.69468 314
33.71479 304
33.7349 286
33.75502 327
33.77513 311
33.79524 304
33.81536 304
33.83547 322
33.85559 313
33.8757 306
33.89581 332
33.91593 348
33.93604 324
33.95615 342
33.97627 368
33.99638 360
34.0165 395
34.03661 385
34.05672 440
34.07684 433
34.09695 441
34.11706 454
34.13718 512
34.15729 486
34.17741 503
34.19752 482
34.21763 472
34.23775 450
34.25786 461
34.27797 427
34.29809 395
34.3182 422
34.33831 419
34.35843 399
34.37854 389
34.39866 375
34.41877 390
34.43888 421
34.459 433
34.47911 442
34.49922 367
34.51934 385
34.53945 382
34.55957 440
34.57968 422
34.59979 419
34.61991 430
34.64002 431
34.66013 449
34.68025 425
34.70036 442
34.72047 428
34.74059 445
34.7607 451
34.78082 505
34.80093 550
34.82104 489
34.84116 550
34.86127 575
34.88138 523
34.9015 531
34.92161 521
34.94173 552
34.96184 555
34.98195 509
35.00207 455
35.02218 490
35.04229 439
35.06241 502
35.08252 475
35.10264 454
35.12275 408
35.14286 422
35.16298 459
35.18309 433
35.2032 433
35.22332 454
35.24343 438
35.26354 467
35.28366 433
35.30377 497
35.32389 434
35.344 475
35.36411 473
35.38423 500
35.40434 503
35.42445 538
35.44457 497
35.46468 471
35.4848 496
35.50491 511
35.52502 536
35.54514 564
35.56525 516
35.58536 507
35.60548 480
35.62559 452
35.64571 480
35.66582 502
35.68593 474
35.70605 445
35.72616 486
35.74627 467
35.76639 457
35.7865 479
35.80661 507
35.82673 489
35.84684 496
35.86696 510
35.88707 457
35.90718 461
35.9273 500
35.94741 416
35.96752 438
35.98764 464
36.00775 427
36.02787 411
36.04798 387
36.06809 391
36.08821 406
36.10832 404
36.12843 413
36.14855 386
36.16866 414
36.18878 375
36.20889 409
36.229 421
36.24912 417
36.26923 463
36.28934 511
36.30946 514
36.32957 595
36.34968 658
36.3698 694
36.38991 791
36.41003 947
36.43014 1085
36.45025 1236
36.47037 1331
36.49048 1399
36.51059 1364
36.53071 1362
36.55082 1179
36.57094 1045
36.59105 900
36.61116 816
36.63128 667
36.65139 581
36.6715 462
36.69162 421
36.71173 400
36.73184 421
36.75196 394
36.77207 408
36.79219 434
36.8123 428
36.83241 449
36.85253 451
36.87264 436
36.89275 436
36.91287 427
36.93298 464
36.9531 438
36.97321 447
36.99332 464
37.01344 443
37.03355 447
37.05366 438
37.07378 405
37.09389 405
37.11401 382
37.13412 403
37.15423 397
37.17435 452
37.19446 355
37.21457 396
37.23469 410
37.2548 405
37.27491 343
37.29503 379
37.31514 371
37.33526 419
37.35537 446
37.37548 431
37.3956 428
37.41571 393
37.43582 394
37.45594 420
37.47605 405
37.49617 422
37.51628 458
37.53639 442
37.55651 424
37.57662 428
37.59673 412
37.61685 425
37.63696 432
37.65708 458
37.67719 418
37.6973 393
37.71742 413
37.73753 410
37.75764 407
37.77776 379
37.79787 404
37.81798 350
37.8381 412
37.85821 380
37.87833 376
37.89844 343
37.91855 403
37.93867 367
37.95878 382
37.97889 364
37.99901 353
38.01912 362
38.03924 363
38.05935 391
38.07946 377
38.09958 432
38.11969 379
38.1398 429
38.15992 409
38.18003 412
38.20015 438
38.22026 444
38.24037 417
38.26049 433
38.2806 473
38.30071 458
38.32083 483
38.34094 460
38.36105 441
38.38117 460
38.40128 468
38.4214 505
38.44151 453
38.46162 498
38.48174 485
38.50185 454
38.52196 463
38.54208 451
38.56219 424
38.58231 462
38.60242 408
38.62253 422
38.64265 434
38.66276 420
38.68287 400
38.70299 378
38.7231 378
38.74321 342
38.76333 362
38.78344 403
38.80356 369
38.82367 392
38.84378 377
38.8639 367
38.88401 360
38.90412 400
38.92424 370
38.94435 355
38.96447 368
38.98458 388
39.00469 377
39.02481 419
39.04492 419
39.06503 425
39.08515 434
39.10526 429
39.12538 420
39.14549 460
39.1656 431
39.18572 479
39.20583 528
39.22594 504
39.24606 575
39.26617 619
39.28628 624
39.3064 771
39.32651 847
39.34663 985
39.36674 1145
39.38685 1215
39.40697 1365
39.42708 1325
39.44719 1208
39.46731 1097
39.48742 940
39.50754 855
39.52765 729
39.54776 696
39.56788 550
39.58799 480
39.6081 401
39.62822 399
39.64833 346
39.66845 343
39.68856 374
39.70867 360
39.72879 348
39.7489 312
39.76901 319
39.78913 325
39.80924 334
39.82935 332
39.84947 341
39.86958 351
39.8897 363
39.90981 319
39.92992 369
39.95004 359
39.97015 377
39.99026 421
40.01038 394
40.03049 413
40.05061 419
40.07072 433
40.09083 454
40.11095 519
40.13106 501
40.15117 560
40.17129 663
40.1914 724
40.21152 807
40.23163 781
40.25174 733
40.27186 711
40.29197 677
40.31208 633
40.3322 566
40.35231 514
40.37242 507
40.39254 448
40.41265 394
40.43277 359
40.45288 357
40.47299 317
40.49311 365
40.51322 331
40.53333 290
40.55345 341
40.57356 340
40.59368 328
40.61379 332
40.6339 317
40.65402 332
40.67413 333
40.69424 304
40.71436 288
40.73447 333
40.75458 300
40.7747 313
40.79481 314
40.81493 352
40.83504 326
40.85515 322
40.87527 300
40.89538 324
40.91549 310
40.93561 325
40.95572 313
40.97584 339
40.99595 314
41.01606 286
41.03618 307
41.05629 300
41.0764 334
41.09652 294
41.11663 332
41.13675 326
41.15686 311
41.17697 303
41.19709 293
41.2172 332
41.23731 321
41.25743 307
41.27754 320
41.29765 334
41.31777 316
41.33788 294
41.358 325
41.37811 310
41.39822 303
41.41834 312
41.43845 306
41.45856 337
41.47868 300
41.49879 322
41.51891 362
41.53902 342
41.55913 356
41.57925 392
41.59936 374
41.61947 370
41.63959 429
41.6597 479
41.67982 429
41.69993 482
41.72004 499
41.74016 440
41.76027 491
41.78038 488
41.8005 460
41.82061 437
41.84072 450
41.86084 405
41.88095 410
41.90107 382
41.92118 346
41.94129 360
41.96141 339
41.98152 326
42.00163 331
42.02175 356
42.04186 298
42.06198 316
42.08209 300
42.1022 351
42.12232 331
42.14243 331
42.16254 377
42.18266 389
42.20277 373
42.22289 451
42.243 445
42.26311 503
42.28323 566
42.30334 641
42.32345 703
42.34357 807
42.36368 916
42.38379 951
42.40391 916
42.42402 924
42.44414 842
42.46425 759
42.48436 673
42.50448 649
42.52459 561
42.5447 523
42.56482 472
42.58493 427
42.60505 382
42.62516 373
42.64527 362
42.66539 323
42.6855 322
42.70561 306
42.72573 332
42.74584 297
42.76595 318
42.78607 310
42.80618 307
42.8263 285
42.84641 285
42.86652 280
42.88664 272
42.90675 299
42.92686 268
42.94698 253
42.96709 276
42.98721 243
43.00732 269
43.02743 283
43.04755 286
43.06766 281
43.08777 308
43.10789 280
43.128 291
43.14812 268
43.16823 257
43.18834 279
43.20846 279
43.22857 277
43.24868 274
43.2688 267
43.28891 261
43.30902 251
43.32914 250
43.34925 278
43.36937 235
43.38948 292
43.40959 273
43.42971 276
43.44982 263
43.46993 268
43.49005 280
43.51016 263
43.53028 283
43.55039 264
43.5705 278
43.59062 260
43.61073 249
43.63084 277
43.65096 262
43.67107 258
43.69119 255
43.7113 277
43.73141 248
43.75153 251
43.77164 242
43.79175 288
43.81187 248
43.83198 268
43.85209 241
43.87221 238
43.89232 255
43.91244 284
43.93255 258
43.95266 290
43.97278 266
43.99289 262
44.013 267
44.03312 282
44.05323 284
44.07335 305
44.09346 267
44.11357 288
44.13369 330
44.1538 281
44.17391 295
44.19403 283
44.21414 331
44.23426 281
44.25437 275
44.27448 287
44.2946 270
44.31471 277
44.33482 281
44.35494 254
44.37505 265
44.39516 245
44.41528 295
44.43539 254
44.45551 263
44.47562 284
44.49573 273
44.51585 264
44.53596 281
44.55607 248
44.57619 277
44.5963 287
44.61642 235
44.63653 275
44.65664 269
44.67676 273
44.69687 262
44.71698 276
44.7371 255
44.75721 338
44.77732 292
44.79744 302
44.81755 257
44.83767 290
44.85778 293
44.87789 288
44.89801 288
44.91812 279
44.93823 266
44.95835 303
44.97846 287
44.99858 297
45.01869 303
45.0388 277
45.05892 302
45.07903 279
45.09914 328
45.11926 274
45.13937 318
45.15949 286
45.1796 320
45.19971 312
45.21983 342
45.23994 327
45.26005 345
45.28017 363
45.30028 324
45.32039 336
45.34051 362
45.36062 383
45.38074 375
45.40085 412
45.42096 379
45.44108 413
45.46119 398
45.4813 417
45.50142 437
45.52153 425
45.54165 439
45.56176 490
45.58187 471
45.60199 513
45.6221 499
45.64221 583
45.66233 576
45.68244 679
45.70256 742
45.72267 759
45.74278 817
45.7629 711
45.78301 672
45.80312 643
45.82324 590
45.84335 560
45.86346 477
45.88358 486
45.90369 433
45.92381 390
45.94392 358
45.96403 309
45.98415 324
46.00426 310
46.02437 303
46.04449 311
46.0646 304
46.08472 306
46.10483 301
46.12494 318
46.14506 324
46.16517 283
46.18528 289
46.2054 317
46.22551 288
46.24563 301
46.26574 246
46.28585 263
46.30597 311
46.32608 320
46.34619 293
46.36631 266
46.38642 253
46.40653 272
46.42665 273
46.44676 268
46.46688 267
46.48699 265
46.5071 262
46.52722 307
46.54733 289
46.56744 269
46.58756 266
46.60767 278
46.62779 303
46.6479 260
46.66801 286
46.68813 254
46.70824 269
46.72835 279
46.74847 283
46.76858 286
46.78869 272
46.80881 258
46.82892 295
46.84904 270
46.86915 297
46.88926 265
46.90938 292
46.92949 271
46.9496 290
46.96972 315
46.98983 329
47.00995 305
47.03006 328
47.05017 309
47.07029 325
47.0904 350
47.11051 337
47.13063 311
47.15074 299
47.17086 276
47.19097 310
47.21108 289
47.2312 290
47.25131 323
47.27142 313
47.29154 288
47.31165 278
47.33176 309
47.35188 292
47.37199 297
47.39211 314
47.41222 293
47.43233 298
47.45245 311
47.47256 323
47.49267 301
47.51279 304
47.5329 276
47.55302 287
47.57313 332
47.59324 277
47.61336 307
47.63347 283
47.65358 259
47.6737 261
47.69381 277
47.71393 271
47.73404 273
47.75415 236
47.77427 243
47.79438 245
47.81449 244
47.83461 232
47.85472 287
47.87483 254
47.89495 286
47.91506 254
47.93518 231
47.95529 291
47.9754 232
47.99552 272
48.01563 261
48.03574 267
48.05586 292
48.07597 236
48.09609 293
48.1162 247
48.13631 276
48.15643 251
48.17654 293
48.19665 275
48.21677 245
48.23688 264
48.257 261
48.27711 258
48.29722 271
48.31734 256
48.33745 295
48.35756 257
48.37768 236
48.39779 258
48.4179 243
48.43802 268
48.45813 266
48.47825 275
48.49836 268
48.51847 257
48.53859 268
48.5587 263
48.57881 281
48.59893 293
48.61904 253
48.63916 289
48.65927 294
48.67938 295
48.6995 288
48.71961 329
48.73972 300
48.75984 302
48.77995 280
48.80006 313
48.82018 310
48.84029 306
48.86041 323
48.88052 298
48.90063 325
48.92075 292
48.94086 289
48.96097 319
48.98109 305
49.0012 302
49.02132 313
49.04143 266
49.06154 264
49.08166 299
49.10177 294
49.12188 276
49.142 285
49.16211 278
49.18223 278
49.20234 256
49.22245 282
49.24257 289
49.26268 247
49.28279 278
49.30291 269
49.32302 262
49.34313 287
49.36325 325
49.38336 290
49.40348 267
49.42359 294
49.4437 253
49.46382 307
49.48393 282
49.50404 278
49.52416 314
49.54427 277
49.56439 313
49.5845 304
49.60461 310
49.62473 306
49.64484 292
49.66495 318
49.68507 342
49.70518 326
49.7253 334
49.74541 345
49.76552 379
49.78564 423
49.80575 410
49.82586 457
49.84598 468
49.86609 526
49.8862 579
49.90632 593
49.92643 706
49.94655 840
49.96666 937
49.98677 1147
50.00689 1367
50.027 1538
50.04711 1733
50.06723 1881
50.08734 1843
50.10746 1786
50.12757 1567
50.14768 1408
50.1678 1223
50.18791 1159
50.20802 1085
50.22814 1007
50.24825 870
50.26837 792
50.28848 653
50.30859 505
50.32871 467
50.34882 465
50.36893 406
50.38905 463
50.40916 448
50.42927 503
50.44939 500
50.4695 462
50.48962 453
50.50973 488
50.52984 473
50.54996 422
50.57007 433
50.59018 447
50.6103 446
50.63041 412
50.65053 387
50.67064 355
50.69075 373
50.71087 359
50.73098 352
50.75109 325
50.77121 340
50.79132 340
50.81143 312
50.83155 317
50.85166 324
50.87178 286
50.89189 317
50.912 272
50.93212 322
50.95223 311
50.97234 304
50.99246 254
51.01257 276
51.03269 280
51.0528 275
51.07291 270
51.09303 294
51.11314 268
51.13325 252
51.15337 280
51.17348 278
51.1936 281
51.21371 257
51.23382 225
51.25394 280
51.27405 283
51.29416 266
51.31428 257
51.33439 218
51.3545 216
51.37462 241
51.39473 251
51.41485 252
51.43496 232
51.45507 263
51.47519 267
51.4953 247
51.51541 227
51.53553 223
51.55564 256
51.57576 278
51.59587 249
51.61598 219
51.6361 244
51.65621 262
51.67632 232
51.69644 245
51.71655 249
51.73667 260
51.75678 205
51.77689 230
51.79701 254
51.81712 248
51.83723 230
51.85735 202
51.87746 254
51.89757 231
51.91769 243
51.9378 226
51.95792 248
51.97803 256
51.99814 211
52.01826 222
52.03837 273
52.05848 261
52.0786 241
52.09871 245
52.11883 267
52.13894 252
52.15905 256
52.17917 252
52.19928 236
52.21939 269
52.23951 246
52.25962 263
52.27974 258
52.29985 267
52.31996 243
52.34008 238
52.36019 253
52.3803 253
52.40042 249
52.42053 280
52.44064 249
52.46076 265
52.48087 245
52.50099 223
52.5211 241
52.54121 277
52.56133 262
52.58144 243
52.60155 243
52.62167 248
52.64178 256
52.6619 261
52.68201 232
52.70212 244
52.72224 251
52.74235 259
52.76246 267
52.78258 256
52.80269 246
52.8228 253
52.84292 243
52.86303 260
52.88315 239
52.90326 284
52.92337 221
52.94349 255
52.9636 254
52.98371 218
53.00383 234
53.02394 248
53.04406 267
53.06417 235
53.08428 272
53.1044 273
53.12451 257
53.14462 269
53.16474 238
53.18485 241
53.20497 239
53.22508 255
53.24519 237
53.26531 254
53.28542 255
53.30553 258
53.32565 264
53.34576 242
53.36587 284
53.38599 248
53.4061 290
53.42622 262
53.44633 264
53.46644 257
53.48656 268
53.50667 263
53.52678 293
53.5469 283
53.56701 272
53.58713 264
53.60724 254
53.62735 274
53.64747 272
53.66758 286
53.68769 268
53.70781 276
53.72792 274
53.74804 263
53.76815 266
53.78826 290
53.80838 277
53.82849 300
53.8486 316
53.86872 268
53.88883 302
53.90894 302
53.92906 323
53.94917 302
53.96929 296
53.9894 316
54.00951 330
54.02963 316
54.04974 320
54.06985 329
54.08997 330
54.11008 316
54.1302 333
54.15031 324
54.17042 314
54.19054 339
54.21065 373
54.23076 343
54.25088 353
54.27099 353
54.29111 357
54.31122 358
54.33133 374
54.35145 357
54.37156 343
54.39167 339
54.41179 327
54.4319 361
54.45201 332
54.47213 346
54.49224 380
54.51236 358
54.53247 363
54.55258 380
54.5727 386
54.59281 407
54.61292 435
54.63304 430
54.65315 461
54.67327 505
54.69338 524
54.71349 576
54.73361 646
54.75372 722
54.77383 726
54.79395 752
54.81406 777
54.83417 777
54.85429 753
54.8744 678
54.89452 665
54.91463 534
54.93474 618
54.95486 593
54.97497 591
54.99508 481
55.0152 484
55.03531 459
55.05543 431
55.07554 431
55.09565 421
55.11577 407
55.13588 417
55.15599 449
55.17611 481
55.19622 461
55.21634 531
55.23645 528
55.25656 543
55.27668 519
55.29679 550
55.3169 496
55.33702 472
55.35713 491
55.37724 456
55.39736 447
55.41747 458
55.43759 464
55.4577 416
55.47781 396
55.49793 383
55.51804 377
55.53815 356
55.55827 359
55.57838 325
55.5985 300
55.61861 346
55.63872 332
55.65884 339
55.67895 335
55.69906 342
55.71918 353
55.73929 320
55.75941 302
55.77952 296
55.79963 326
55.81975 308
55.83986 313
55.85997 257
55.88009 288
55.9002 314
55.92031 306
55.94043 314
55.96054 293
55.98066 265
56.00077 300
56.02088 307
56.041 322
56.06111 269
56.08122 301
56.10134 303
56.12145 297
56.14157 282
56.16168 297
56.18179 281
56.20191 316
56.22202 269
56.24213 289
56.26225 281
56.28236 300
56.30248 296
56.32259 295
56.3427 277
56.36282 292
56.38293 292
56.40304 281
56.42316 293
56.44327 285
56.46338 297
56.4835 283
56.50361 298
56.52373 287
56.54384 292
56.56395 309
56.58407 272
56.60418 300
56.62429 291
56.64441 306
56.66452 321
56.68464 288
56.70475 282
56.72486 282
56.74498 297
56.76509 297
56.7852 296
56.80532 278
56.82543 282
56.84554 258
56.86566 270
56.88577 289
56.90589 282
56.926 262
56.94611 270
56.96623 264
56.98634 279
57.00645 276
57.02657 271
57.04668 277
57.0668 295
57.08691 294
57.10702 295
57.12714 273
57.14725 286
57.16736 276
57.18748 320
57.20759 287
57.22771 315
57.24782 255
57.26793 301
57.28805 298
57.30816 292
57.32827 264
57.34839 322
57.3685 291
57.38861 268
57.40873 269
57.42884 266
57.44896 258
57.46907 282
57.48918 248
57.5093 245
57.52941 264
57.54952 241
57.56964 259
57.58975 243
57.60987 272
57.62998 271
57.65009 236
57.67021 244
57.69032 255
57.71043 254
57.73055 270
57.75066 276
57.77078 238
57.79089 279
57.811 248
57.83112 261
57.85123 252
57.87134 284
57.89146 253
57.91157 270
57.93168 247
57.9518 267
57.97191 253
57.99203 246
58.01214 286
58.03225 285
58.05237 260
58.07248 245
58.09259 266
58.11271 259
58.13282 271
58.15294 244
58.17305 264
58.19316 277
58.21328 289
58.23339 276
58.2535 260
58.27362 243
58.29373 255
58.31385 273
58.33396 275
58.35407 270
58.37419 274
58.3943 285
58.41441 274
58.43453 284
58.45464 278
58.47475 291
58.49487 267
58.51498 279
58.5351 294
58.55521 296
58.57532 285
58.59544 245
58.61555 264
58.63566 273
58.65578 253
58.67589 279
58.69601 275
58.71612 285
58.73623 271
58.75635 271
58.77646 276
58.79657 250
58.81669 282
58.8368 246
58.85691 246
58.87703 252
58.89714 243
58.91726 262
58.93737 275
58.95748 270
58.9776 259
58.99771 262
59.01782 273
59.03794 263
59.05805 276
59.07817 249
59.09828 251
59.11839 233
59.13851 282
59.15862 270
59.17873 249
59.19885 266
59.21896 268
59.23908 268
59.25919 294
59.2793 290
59.29942 273
59.31953 298
59.33964 286
59.35976 242
59.37987 275
59.39998 312
59.4201 288
59.44021 289
59.46033 274
59.48044 292
59.50055 304
59.52067 302
59.54078 321
59.56089 365
59.58101 360
59.60112 356
59.62124 357
59.64135 399
59.66146 439
59.68158 482
59.70169 498
59.7218 559
59.74192 585
59.76203 677
59.78215 745
59.80226 893
59.82237 1057
59.84249 1178
59.8626 1275
59.88271 1323
59.90283 1305
59.92294 1276
59.94305 1120
59.96317 961
59.98328 869
60.0034 818
60.02351 816
60.04362 826
60.06374 809
60.08385 766
60.10396 647
60.12408 572
60.14419 442
60.16431 425
60.18442 406
60.20453 380
60.22465 355
60.24476 334
60.26487 367
60.28499 334
60.3051 345
60.32522 350
60.34533 334
60.36544 308
60.38556 321
60.40567 319
60.42578 301
60.4459 312
60.46601 298
60.48612 334
60.50624 277
60.52635 296
60.54647 295
60.56658 312
60.58669 290
60.60681 286
60.62692 295
60.64703 274
60.66715 317
60.68726 314
60.70738 250
60.72749 285
60.7476 274
60.76772 282
60.78783 288
60.80794 254
60.82806 286
60.84817 285
60.86828 275
60.8884 284
60.90851 254
60.92863 266
60.94874 285
60.96885 269
60.98897 285
61.00908 325
61.02919 310
61.04931 300
61.06942 305
61.08954 327
61.10965 340
61.12976 323
61.14988 302
61.16999 301
61.1901 271
61.21022 303
61.23033 320
61.25045 296
61.27056 279
61.29067 263
61.31079 291
61.3309 306
61.35101 273
61.37113 275
61.39124 301
61.41135 272
61.43147 266
61.45158 322
61.4717 282
61.49181 273
61.51192 278
61.53204 288
61.55215 284
61.57226 275
61.59238 268
61.61249 276
61.63261 292
61.65272 275
61.67283 255
61.69295 276
61.71306 284
61.73317 289
61.75329 287
61.7734 323
61.79352 285
61.81363 275
61.83374 258
61.85386 282
61.87397 282
61.89408 267
61.9142 315
61.93431 284
61.95442 329
61.97454 305
61.99465 328
62.01477 355
62.03488 352
62.05499 297
62.07511 342
62.09522 340
62.11533 380
62.13545 350
62.15556 364
62.17568 346
62.19579 346
62.2159 370
62.23602 367
62.25613 371
62.27624 387
62.29636 399
62.31647 341
62.33659 343
62.3567 391
62.37681 399
62.39693 396
62.41704 346
62.43715 367
62.45727 363
62.47738 353
62.49749 342
62.51761 352
62.53772 355
62.55784 335
62.57795 345
62.59806 318
62.61818 362
62.63829 306
62.6584 296
62.67852 290
62.69863 299
62.71875 315
62.73886 262
62.75897 335
62.77909 286
62.7992 276
62.81931 279
62.83943 305
62.85954 282
62.87965 302
62.89977 272
62.91988 291
62.94 331
62.96011 283
62.98022 301
63.00034 298
63.02045 303
63.04056 335
63.06068 326
63.08079 299
63.10091 318
63.12102 307
63.14113 301
63.16125 296
63.18136 292
63.20147 300
63.22159 282
63.2417 286
63.26182 272
63.28193 257
63.30204 281
63.32216 257
63.34227 285
63.36238 278
63.3825 273
63.40261 287
63.42272 257
63.44284 279
63.46295 293
63.48307 280
63.50318 273
63.52329 287
63.54341 299
63.56352 294
63.58363 296
63.60375 320
63.62386 320
63.64398 310
63.66409 288
63.6842 278
63.70432 329
63.72443 349
63.74454 327
63.76466 357
63.78477 388
63.80489 370
63.825 403
63.84511 397
63.86523 419
63.88534 414
63.90545 451
63.92557 479
63.94568 479
63.96579 491
63.98591 515
64.00602 484
64.02614 422
64.04625 352
64.06636 368
64.08648 390
64.10659 399
64.1267 356
64.14682 366
64.16693 346
64.18705 328
64.20716 330
64.22727 305
64.24739 313
64.2675 274
64.28761 287
64.30773 264
64.32784 242
64.34796 257
64.36807 247
64.38818 270
64.4083 242
64.42841 248
64.44852 246
64.46864 272
64.48875 276
64.50886 253
64.52898 245
64.54909 277
64.56921 253
64.58932 226
64.60943 233
64.62955 254
64.64966 255
64.66977 249
64.68989 258
64.71 262
64.73012 283
64.75023 232
64.77034 227
64.79046 245
64.81057 240
64.83068 271
64.8508 227
64.87091 278
64.89102 256
64.91114 269
64.93125 252
64.95137 283
64.97148 258
64.99159 260
65.01171 235
65.03182 284
65.05193 249
65.07205 250
65.09216 252
65.11228 266
65.13239 283
65.1525 261
65.17262 251
65.19273 284
65.21284 253
65.23296 280
65.25307 250
65.27319 252
65.2933 271
65.31341 274
65.33353 288
65.35364 256
65.37375 284
65.39387 264
65.41398 268
65.43409 240
65.45421 248
65.47432 250
65.49444 275
65.51455 240
65.53466 257
65.55478 254
65.57489 236
65.595 288
65.61512 251
65.63523 279
65.65535 252
65.67546 305
65.69557 275
65.71569 262
65.7358 255
65.75591 279
65.77603 243
65.79614 271
65.81626 266
65.83637 262
65.85648 251
65.8766 254
65.89671 256
65.91682 257
65.93694 246
65.95705 282
65.97716 238
65.99728 259
66.01739 266
66.03751 237
66.05762 228
66.07773 238
66.09785 259
66.11796 253
66.13807 245
66.15819 256
66.1783 301
66.19842 254
66.21853 287
66.23864 269
66.25876 270
66.27887 253
66.29898 267
66.3191 253
66.33921 262
66.35933 259
66.37944 258
66.39955 271
66.41967 299
66.43978 258
66.45989 264
66.48001 283
66.50012 270
66.52023 258
66.54035 253
66.56046 264
66.58058 255
66.60069 263
66.6208 255
66.64092 299
66.66103 228
66.68114 248
66.70126 260
66.72137 248
66.74149 235
66.7616 253
66.78171 271
66.80183 257
66.82194 256
66.84205 247
66.86217 274
66.88228 253
66.90239 247
66.92251 272
66.94262 269
66.96274 269
66.98285 259
67.00296 266
67.02308 256
67.04319 263
67.0633 248
67.08342 273
67.10353 268
67.12365 263
67.14376 263
67.16387 278
67.18399 281
67.2041 275
67.22421 284
67.24433 282
67.26444 293
67.28456 256
67.30467 287
67.32478 308
67.3449 275
67.36501 319
67.38512 319
67.40524 311
67.42535 311
67.44546 356
67.46558 391
67.48569 381
67.50581 446
67.52592 496
67.54603 517
67.56615 563
67.58626 641
67.60637 665
67.62649 806
67.6466 799
67.66672 891
67.68683 825
67.70694 847
67.72706 796
67.74717 680
67.76728 622
67.7874 633
67.80751 617
67.82763 681
67.84774 692
67.86785 744
67.88797 708
67.90808 705
67.92819 719
67.94831 759
67.96842 767
67.98853 833
68.00865 913
68.02876 1009
68.04888 1068
68.06899 1121
68.0891 1097
68.10922 1117
68.12933 983
68.14944 943
68.16956 882
68.18967 934
68.20979 947
68.2299 1004
68.25001 995
68.27013 983
68.29024 959
68.31035 795
68.33047 687
68.35058 586
68.3707 512
68.39081 525
68.41092 503
68.43104 480
68.45115 454
68.47126 450
68.49138 398
68.51149 360
68.5316 333
68.55172 328
68.57183 311
68.59195 282
68.61206 292
68.63217 282
68.65229 279
68.6724 260
68.69251 275
68.71263 294
68.73274 251
68.75286 252
68.77297 268
68.79308 292
68.8132 266
68.83331 278
68.85342 261
68.87354 273
68.89365 247
68.91376 271
68.93388 256
68.95399 268
68.97411 228
68.99422 256
69.01433 265
69.03445 234
69.05456 228
69.07467 273
69.09479 238
69.1149 228
69.13502 223
69.15513 240
69.17524 233
69.19536 240
69.21547 242
69.23558 256
69.2557 254
69.27581 261
69.29593 208
69.31604 260
69.33615 237
69.35627 234
69.37638 262
69.39649 239
69.41661 244
69.43672 248
69.45683 228
69.47695 253
69.49706 270
69.51718 268
69.53729 225
69.5574 233
69.57752 244
69.59763 242
69.61774 279
69.63786 256
69.65797 241
69.67809 237
69.6982 259
69.71831 235
69.73843 249
69.75854 262
69.77865 238
69.79877 263
69.81888 233
69.839 212
69.85911 247
69.87922 230
69.89934 235
69.91945 215
69.93956 249
69.95968 210
69.97979 227
69.9999 257
70.02002 205
70.04013 231
70.06025 238
70.08036 250
70.10047 272
70.12059 262
70.1407 231
70.16081 251
70.18093 231
70.20104 268
70.22116 252
70.24127 273
70.26138 228
70.2815 242
70.30161 228
70.32172 239
70.34184 237
70.36195 213
70.38207 256
70.40218 255
70.42229 257
70.44241 229
70.46252 256
70.48263 263
70.50275 236
70.52286 226
70.54297 264
70.56309 250
70.5832 260
70.60332 249
70.62343 255
70.64354 237
70.66366 240
70.68377 230
70.70388 204
70.724 229
70.74411 273
70.76423 222
70.78434 224
70.80445 259
70.82457 255
70.84468 245
70.86479 225
70.88491 244
70.90502 247
70.92513 212
70.94525 242
70.96536 233
70.98548 238
71.00559 257
71.0257 247
71.04582 224
71.06593 229
71.08604 263
71.10616 241
71.12627 252
71.14639 229
71.1665 257
71.18661 282
71.20673 245
71.22684 242
71.24695 235
71.26707 247
71.28718 229
71.3073 251
71.32741 257
71.34752 225
71.36764 246
71.38775 232
71.40786 260
71.42798 238
71.44809 265
71.4682 251
71.48832 273
71.50843 268
71.52855 238
71.54866 246
71.56877 249
71.58889 290
71.609 259
71.62911 242
71.64923 263
71.66934 267
71.68946 256
71.70957 278
71.72968 239
71.7498 260
71.76991 268
71.79002 266
71.81014 244
71.83025 216
71.85037 260
71.87048 232
71.89059 245
71.91071 248
71.93082 263
71.95093 259
71.97105 275
71.99116 271
72.01127 266
72.03139 266
72.0515 269
72.07162 265
72.09173 268
72.11184 266
72.13196 240
72.15207 266
72.17218 242
72.1923 279
72.21241 243
72.23253 248
72.25264 269
72.27275 251
72.29287 266
72.31298 245
72.33309 265
72.35321 229
72.37332 267
72.39344 254
72.41355 243
72.43366 248
72.45378 249
72.47389 258
72.494 230
72.51412 228
72.53423 250
72.55434 276
72.57446 258
72.59457 265
72.61469 263
72.6348 263
72.65491 231
72.67503 267
72.69514 241
72.71525 260
72.73537 244
72.75548 256
72.7756 250
72.79571 237
72.81582 272
72.83594 234
72.85605 273
72.87616 270
72.89628 251
72.91639 273
72.9365 298
72.95662 301
72.97673 269
72.99685 279
73.01696 278
73.03707 294
73.05719 287
73.0773 270
73.09741 298
73.11753 300
73.13764 291
73.15776 320
73.17787 303
73.19798 330
73.2181 303
73.23821 310
73.25832 308
73.27844 319
73.29855 397
73.31867 396
73.33878 427
73.35889 428
73.37901 443
73.39912 434
73.41923 445
73.43935 410
73.45946 422
73.47957 397
73.49969 351
73.5198 330
73.53992 352
73.56003 346
73.58014 377
73.60026 382
73.62037 359
73.64048 340
73.6606 318
73.68071 352
73.70083 295
73.72094 288
73.74105 292
73.76117 265
73.78128 269
73.80139 231
73.82151 259
73.84162 264
73.86174 269
73.88185 253
73.90196 240
73.92208 288
73.94219 227
73.9623 235
73.98242 215
74.00253 227
74.02264 246
74.04276 253
74.06287 221
74.08299 233
74.1031 232
74.12321 228
74.14333 249
74.16344 244
74.18355 217
74.20367 234
74.22378 240
74.2439 224
74.26401 251
74.28412 217
74.30424 224
74.32435 226
74.34446 210
74.36458 262
74.38469 241
74.40481 233
74.42492 240
74.44503 229
74.46515 238
74.48526 243
74.50537 246
74.52549 257
74.5456 259
74.56571 226
74.58583 222
74.60594 249
74.62606 242
74.64617 249
74.66628 265
74.6864 244
74.70651 271
74.72662 251
74.74674 247
74.76685 265
74.78697 265
74.80708 252
74.82719 246
74.84731 234
74.86742 253
74.88753 254
74.90765 255
74.92776 243
74.94787 258
74.96799 261
74.9881 296
75.00822 251
