3.00117 19181
3.02128 18397
3.0414 17644
3.06151 17683
3.08162 16783
3.10174 16536
3.12185 16137
3.14197 15409
3.16208 15247
3.18219 14574
3.20231 14526
3.22242 13822
3.24253 13573
3.26265 13129
3.28276 12405
3.30288 12311
3.32299 12107
3.3431 11640
3.36322 11134
3.38333 10579
3.40344 10626
3.42356 10115
3.44367 9839
3.46379 9646
3.4839 9074
3.50401 8924
3.52413 8481
3.54424 8261
3.56435 7988
3.58447 7397
3.60458 7436
3.62469 6949
3.64481 6873
3.66492 6348
3.68504 6125
3.70515 6023
3.72526 5735
3.74538 5718
3.76549 5318
3.7856 5169
3.80572 4929
3.82583 4713
3.84595 4408
3.86606 4242
3.88617 3985
3.90629 3881
3.9264 3822
3.94651 3685
3.96663 3464
3.98674 3177
4.00686 3140
4.02697 3134
4.04708 2849
4.0672 2681
4.08731 2553
4.10742 2568
4.12754 2443
4.14765 2290
4.16776 2130
4.18788 2096
4.20799 2096
4.22811 2008
4.24822 1917
4.26833 1785
4.28845 1693
4.30856 1740
4.32867 1599
4.34879 1546
4.3689 1467
4.38902 1444
4.40913 1479
4.42924 1460
4.44936 1365
4.46947 1322
4.48958 1280
4.5097 1321
4.52981 1212
4.54992 1219
4.57004 1132
4.59015 1086
4.61027 1135
4.63038 1161
4.65049 1027
4.67061 1021
4.69072 861
4.71083 1044
4.73095 1014
4.75106 877
4.77118 927
4.79129 847
4.8114 895
4.83152 842
4.85163 787
4.87174 774
4.89186 744
4.91197 773
4.93209 766
4.9522 706
4.97231 682
4.99243 715
5.01254 704
5.03265 682
5.05277 648
5.07288 638
5.09299 658
5.11311 621
5.13322 604
5.15334 555
5.17345 560
5.19356 507
5.21368 549
5.23379 535
5.2539 481
5.27402 478
5.29413 485
5.31425 482
5.33436 456
5.35447 418
5.37459 468
5.3947 472
5.41481 413
5.43493 474
5.45504 393
5.47516 397
5.49527 389
5.51538 354
5.5355 368
5.55561 317
5.57572 330
5.59584 329
5.61595 357
5.63606 340
5.65618 337
5.67629 313
5.69641 329
5.71652 302
5.73663 300
5.75675 309
5.77686 306
5.79697 309
5.81709 264
5.8372 275
5.85732 276
5.87743 256
5.89754 263
5.91766 261
5.93777 280
5.95788 239
5.978 241
5.99811 255
6.01823 251
6.03834 231
6.05845 207
6.07857 246
6.09868 243
6.11879 248
6.13891 206
6.15902 199
6.17913 225
6.19925 228
6.21936 246
6.23948 221
6.25959 217
6.2797 223
6.29982 186
6.31993 208
6.34004 220
6.36016 236
6.38027 199
6.40039 204
6.4205 204
6.44061 224
6.46073 196
6.48084 216
6.50095 211
6.52107 226
6.54118 189
6.56129 193
6.58141 202
6.60152 181
6.62164 214
6.64175 189
6.66186 217
6.68198 197
6.70209 219
6.7222 203
6.74232 203
6.76243 194
6.78255 163
6.80266 195
6.82277 214
6.84289 198
6.863 189
6.88311 196
6.90323 191
6.92334 201
6.94346 219
6.96357 211
6.98368 193
7.0038 218
7.02391 179
7.04402 206
7.06414 195
7.08425 198
7.10436 212
7.12448 191
7.14459 180
7.16471 215
7.18482 206
7.20493 230
7.22505 178
7.24516 196
7.26527 217
7.28539 228
7.3055 200
7.32562 191
7.34573 182
7.36584 221
7.38596 185
7.40607 164
7.42618 202
7.4463 178
7.46641 213
7.48653 208
7.50664 203
7.52675 235
7.54687 205
7.56698 219
7.58709 215
7.60721 215
7.62732 226
7.64743 219
7.66755 200
7.68766 199
7.70778 178
7.72789 234
7.748 211
7.76812 195
7.78823 180
7.80834 216
7.82846 199
7.84857 220
7.86869 191
7.8888 210
7.90891 215
7.92903 221
7.94914 236
7.96925 212
7.98937 203
8.00948 209
8.0296 212
8.04971 212
8.06982 204
8.08994 217
8.11005 236
8.13016 217
8.15028 207
8.17039 211
8.1905 217
8.21062 216
8.23073 244
8.25085 185
8.27096 217
8.29107 241
8.31119 220
8.3313 224
8.35141 214
8.37153 191
8.39164 214
8.41176 216
8.43187 218
8.45198 210
8.4721 212
8.49221 223
8.51232 209
8.53244 234
8.55255 245
8.57266 241
8.59278 198
8.61289 228
8.63301 223
8.65312 222
8.67323 229
8.69335 205
8.71346 236
8.73357 222
8.75369 208
8.7738 235
8.79392 231
8.81403 217
8.83414 260
8.85426 240
8.87437 222
8.89448 231
8.9146 242
8.93471 224
8.95483 216
8.97494 251
8.99505 226
9.01517 233
9.03528 221
9.05539 222
9.07551 223
9.09562 250
9.11573 212
9.13585 230
9.15596 231
9.17608 229
9.19619 218
9.2163 238
9.23642 239
9.25653 197
9.27664 263
9.29676 211
9.31687 181
9.33699 223
9.3571 213
9.37721 220
9.39733 207
9.41744 222
9.43755 223
9.45767 216
9.47778 217
9.4979 240
9.51801 202
9.53812 236
9.55824 212
9.57835 233
9.59846 257
9.61858 225
9.63869 230
9.6588 236
9.67892 219
9.69903 203
9.71915 228
9.73926 235
9.75937 203
9.77949 241
9.7996 248
9.81971 177
9.83983 202
9.85994 206
9.88006 218
9.90017 225
9.92028 240
9.9404 227
9.96051 229
9.98062 208
10.00074 241
10.02085 205
10.04097 212
10.06108 217
10.08119 249
10.10131 218
10.12142 211
10.14153 231
10.16165 224
10.18176 218
10.20187 214
10.22199 233
10.2421 226
10.26222 209
10.28233 222
10.30244 233
10.32256 218
10.34267 215
10.36278 215
10.3829 243
10.40301 220
10.42313 206
10.44324 237
10.46335 230
10.48347 240
10.50358 225
10.52369 270
10.54381 238
10.56392 264
10.58403 208
10.60415 237
10.62426 221
10.64438 269
10.66449 244
10.6846 272
10.70472 247
10.72483 267
10.74494 210
10.76506 225
10.78517 239
10.80529 244
10.8254 226
10.84551 188
10.86563 247
10.88574 213
10.90585 254
10.92597 248
10.94608 217
10.9662 232
10.98631 204
11.00642 206
11.02654 213
11.04665 237
11.06676 219
11.08688 245
11.10699 213
11.1271 199
11.14722 254
11.16733 236
11.18745 230
11.20756 206
11.22767 203
11.24779 252
11.2679 237
11.28801 267
11.30813 224
11.32824 217
11.34836 232
11.36847 246
11.38858 217
11.4087 209
11.42881 212
11.44892 225
11.46904 206
11.48915 229
11.50927 227
11.52938 216
11.54949 248
11.56961 224
11.58972 266
11.60983 221
11.62995 219
11.65006 215
11.67017 236
11.69029 259
11.7104 260
11.73052 258
11.75063 231
11.77074 243
11.79086 234
11.81097 249
11.83108 223
11.8512 272
11.87131 264
11.89143 265
11.91154 252
11.93165 230
11.95177 282
11.97188 254
11.99199 298
12.01211 278
12.03222 280
12.05234 277
12.07245 246
12.09256 228
12.11268 271
12.13279 282
12.1529 316
12.17302 300
12.19313 265
12.21324 286
12.23336 293
12.25347 301
12.27359 313
12.2937 260
12.31381 302
12.33393 286
12.35404 276
12.37415 251
12.39427 256
12.41438 279
12.4345 252
12.45461 267
12.47472 276
12.49484 258
12.51495 250
12.53506 248
12.55518 263
12.57529 261
12.5954 208
12.61552 215
12.63563 235
12.65575 216
12.67586 218
12.69597 251
12.71609 241
12.7362 247
12.75631 248
12.77643 214
12.79654 228
12.81666 212
12.83677 230
12.85688 237
12.877 209
12.89711 225
12.91722 226
12.93734 232
12.95745 190
12.97757 211
12.99768 221
13.01779 229
13.03791 254
13.05802 223
13.07813 289
13.09825 260
13.11836 288
13.13847 286
13.15859 247
13.1787 243
13.19882 235
13.21893 212
13.23904 221
13.25916 222
13.27927 232
13.29938 235
13.3195 178
13.33961 212
13.35973 246
13.37984 223
13.39995 190
13.42007 210
13.44018 199
13.46029 238
13.48041 228
13.50052 247
13.52064 246
13.54075 277
13.56086 281
13.58098 300
13.60109 304
13.6212 307
13.64132 261
13.66143 296
13.68154 288
13.70166 263
13.72177 242
13.74189 219
13.762 192
13.78211 199
13.80223 239
13.82234 201
13.84245 211
13.86257 233
13.88268 204
13.9028 220
13.92291 218
13.94302 204
13.96314 193
13.98325 208
14.00336 200
14.02348 188
14.04359 186
14.06371 170
14.08382 200
14.10393 199
14.12405 180
14.14416 194
14.16427 195
14.18439 174
14.2045 187
14.22461 199
14.24473 204
14.26484 180
14.28496 183
14.30507 192
14.32518 213
14.3453 198
14.36541 167
14.38552 178
14.40564 181
14.42575 171
14.44587 178
14.46598 178
14.48609 188
14.50621 170
14.52632 181
14.54643 179
14.56655 198
14.58666 192
14.60677 197
14.62689 200
14.647 217
14.66712 186
14.68723 231
14.70734 182
14.72746 216
14.74757 208
14.76768 212
14.7878 218
14.80791 222
14.82803 211
14.84814 222
14.86825 234
14.88837 238
14.90848 250
14.92859 240
14.94871 268
14.96882 192
14.98894 211
15.00905 231
15.02916 198
15.04928 196
15.06939 201
15.0895 195
15.10962 200
15.12973 241
15.14984 201
15.16996 218
15.19007 198
15.21019 204
15.2303 184
15.25041 191
15.27053 200
15.29064 233
15.31075 221
15.33087 167
15.35098 178
15.3711 184
15.39121 198
15.41132 202
15.43144 183
15.45155 186
15.47166 174
15.49178 205
15.51189 186
15.53201 171
15.55212 154
15.57223 208
15.59235 212
15.61246 168
15.63257 205
15.65269 198
15.6728 154
15.69291 168
15.71303 183
15.73314 180
15.75326 165
15.77337 192
15.79348 164
15.8136 182
15.83371 149
15.85382 178
15.87394 187
15.89405 191
15.91417 141
15.93428 203
15.95439 180
15.97451 182
15.99462 144
16.01473 171
16.03485 150
16.05496 182
16.07508 178
16.09519 178
16.1153 172
16.13542 197
16.15553 162
16.17564 184
16.19576 171
16.21587 176
16.23598 194
16.2561 155
16.27621 186
16.29633 175
16.31644 165
16.33655 155
16.35667 167
16.37678 191
16.39689 170
16.41701 166
16.43712 166
16.45724 150
16.47735 164
16.49746 158
16.51758 178
16.53769 163
16.5578 131
16.57792 157
16.59803 179
16.61814 177
16.63826 174
16.65837 163
16.67849 174
16.6986 158
16.71871 185
16.73883 154
16.75894 172
16.77905 143
16.79917 168
16.81928 149
16.8394 187
16.85951 164
16.87962 173
16.89974 169
16.91985 179
16.93996 158
16.96008 178
16.98019 170
17.00031 153
17.02042 173
17.04053 156
17.06065 152
17.08076 187
17.10087 181
17.12099 173
17.1411 164
17.16121 180
17.18133 193
17.20144 148
17.22156 144
17.24167 181
17.26178 171
17.2819 182
17.30201 162
17.32212 169
17.34224 182
17.36235 182
17.38247 177
17.40258 173
17.42269 163
17.44281 176
17.46292 181
17.48303 157
17.50315 171
17.52326 193
17.54338 183
17.56349 169
17.5836 174
17.60372 182
17.62383 187
17.64394 178
17.66406 183
17.68417 174
17.70428 165
17.7244 175
17.74451 170
17.76463 164
17.78474 182
17.80485 139
17.82497 180
17.84508 216
17.86519 165
17.88531 176
17.90542 186
17.92554 180
17.94565 167
17.96576 174
17.98588 151
18.00599 160
18.0261 160
18.04622 156
18.06633 167
18.08645 177
18.10656 151
18.12667 192
18.14679 140
18.1669 164
18.18701 169
18.20713 185
18.22724 157
18.24735 164
18.26747 151
18.28758 174
18.3077 183
18.32781 143
18.34792 178
18.36804 187
18.38815 141
18.40826 163
18.42838 167
18.44849 178
18.46861 166
18.48872 177
18.50883 130
18.52895 186
18.54906 186
18.56917 167
18.58929 166
18.6094 189
18.62951 163
18.64963 182
18.66974 179
18.68986 172
18.70997 167
18.73008 183
18.7502 177
18.77031 160
18.79042 194
18.81054 157
18.83065 163
18.85077 159
18.87088 177
18.89099 177
18.91111 172
18.93122 153
18.95133 162
18.97145 176
18.99156 226
19.01168 158
19.03179 159
19.0519 191
19.07202 166
19.09213 176
19.11224 191
19.13236 185
19.15247 178
19.17258 200
19.1927 224
19.21281 192
19.23293 213
19.25304 211
19.27315 205
19.29327 191
19.31338 196
19.33349 213
19.35361 202
19.37372 189
19.39384 180
19.41395 204
19.43406 201
19.45418 190
19.47429 199
19.4944 199
19.51452 218
19.53463 202
19.55475 209
19.57486 223
19.59497 226
19.61509 206
19.6352 239
19.65531 243
19.67543 247
19.69554 262
19.71565 282
19.73577 262
19.75588 311
19.776 311
19.79611 296
19.81622 305
19.83634 315
19.85645 306
19.87656 286
19.89668 311
19.91679 310
19.93691 307
19.95702 293
19.97713 306
19.99725 299
20.01736 302
20.03747 283
20.05759 322
20.0777 313
20.09782 303
20.11793 287
20.13804 330
20.15816 304
20.17827 301
20.19838 328
20.2185 294
20.23861 317
20.25872 305
20.27884 363
20.29895 333
20.31907 326
20.33918 334
20.35929 325
20.37941 304
20.39952 367
20.41963 384
20.43975 368
20.45986 377
20.47998 427
20.50009 439
20.5202 444
20.54032 462
20.56043 518
20.58054 598
20.60066 692
20.62077 819
20.64088 1040
20.661 1295
20.68111 1584
20.70123 2119
20.72134 2393
20.74145 3028
20.76157 3478
20.78168 3891
20.80179 4012
20.82191 4244
20.84202 4114
20.86214 3776
20.88225 3168
20.90236 2493
20.92248 2140
20.94259 1680
20.9627 1426
20.98282 1199
21.00293 1018
21.02305 897
21.04316 804
21.06327 722
21.08339 588
21.1035 574
21.12361 503
21.14373 462
21.16384 394
21.18395 403
21.20407 374
21.22418 335
21.2443 345
21.26441 306
21.28452 275
21.30464 299
21.32475 286
21.34486 293
21.36498 313
21.38509 279
21.40521 263
21.42532 260
21.44543 265
21.46555 265
21.48566 268
21.50577 258
21.52589 290
21.546 317
21.56612 264
21.58623 257
21.60634 254
21.62646 251
21.64657 256
21.66668 233
21.6868 275
21.70691 264
21.72702 231
21.74714 268
21.76725 258
21.78737 252
21.80748 262
21.82759 273
21.84771 246
21.86782 281
21.88793 316
21.90805 301
21.92816 295
21.94828 282
21.96839 327
21.9885 295
22.00862 321
22.02873 319
22.04884 309
22.06896 289
22.08907 255
22.10919 292
22.1293 317
22.14941 336
22.16953 327
22.18964 330
22.20975 326
22.22987 353
22.24998 378
22.27009 367
22.29021 370
22.31032 357
22.33044 326
22.35055 341
22.37066 270
22.39078 297
22.41089 267
22.431 274
22.45112 253
22.47123 251
22.49135 285
22.51146 278
22.53157 267
22.55169 315
22.5718 296
22.59191 261
22.61203 292
22.63214 290
22.65225 293
22.67237 233
22.69248 216
22.7126 263
22.73271 217
22.75282 241
22.77294 228
22.79305 251
22.81316 258
22.83328 237
22.85339 264
22.87351 291
22.89362 283
22.91373 312
22.93385 336
22.95396 295
22.97407 345
22.99419 357
23.0143 410
23.03442 401
23.05453 486
23.07464 500
23.09476 487
23.11487 515
23.13498 506
23.1551 539
23.17521 509
23.19532 482
23.21544 439
23.23555 415
23.25567 372
23.27578 350
23.29589 296
23.31601 286
23.33612 283
23.35623 267
23.37635 277
23.39646 266
23.41658 288
23.43669 230
23.4568 245
23.47692 299
23.49703 279
23.51714 260
23.53726 283
23.55737 285
23.57749 288
23.5976 291
23.61771 264
23.63783 280
23.65794 278
23.67805 315
23.69817 281
23.71828 298
23.73839 291
23.75851 338
23.77862 324
23.79874 352
23.81885 398
23.83896 402
23.85908 444
23.87919 490
23.8993 544
23.91942 548
23.93953 541
23.95965 560
23.97976 564
23.99987 519
24.01999 500
24.0401 420
24.06021 375
24.08033 359
24.10044 363
24.12056 346
24.14067 316
24.16078 355
24.1809 357
24.20101 341
24.22112 375
24.24124 385
24.26135 366
24.28146 389
24.30158 324
24.32169 345
24.34181 301
24.36192 333
24.38203 258
24.40215 283
24.42226 306
24.44237 263
24.46249 281
24.4826 288
24.50272 312
24.52283 275
24.54294 293
24.56306 353
24.58317 341
24.60328 345
24.6234 369
24.64351 350
24.66362 353
24.68374 332
24.70385 347
24.72397 379
24.74408 361
24.76419 317
24.78431 305
24.80442 326
24.82453 328
24.84465 322
24.86476 313
24.88488 317
24.90499 331
24.9251 334
24.94522 354
24.96533 296
24.98544 326
25.00556 277
25.02567 307
25.04579 262
25.0659 300
25.08601 268
25.10613 296
25.12624 281
25.14635 282
25.16647 281
25.18658 314
25.20669 314
25.22681 279
25.24692 298
25.26704 307
25.28715 274
25.30726 341
25.32738 372
25.34749 416
25.3676 429
25.38772 464
25.40783 513
25.42795 572
25.44806 553
25.46817 652
25.48829 615
25.5084 659
25.52851 655
25.54863 670
25.56874 635
25.58886 624
25.60897 603
25.62908 597
25.6492 596
25.66931 574
25.68942 551
25.70954 498
25.72965 518
25.74976 454
25.76988 391
25.78999 427
25.81011 423
25.83022 414
25.85033 411
25.87045 402
25.89056 438
25.91067 438
25.93079 438
25.9509 452
25.97102 433
25.99113 473
26.01124 506
26.03136 538
26.05147 581
26.07158 556
26.0917 593
26.11181 672
26.13193 676
26.15204 779
26.17215 797
26.19227 945
26.21238 957
26.23249 1125
26.25261 1268
26.27272 1504
26.29283 1645
26.31295 1951
26.33306 2295
26.35318 2705
26.37329 3316
26.3934 4162
26.41352 5115
26.43363 6506
26.45374 8171
26.47386 10004
26.49397 12169
26.51409 14092
26.5342 15800
26.55431 17087
26.57443 17900
26.59454 17868
26.61465 17095
26.63477 15732
26.65488 13387
26.67499 10743
26.69511 8232
26.71522 5918
26.73534 4199
26.75545 2976
26.77556 2112
26.79568 1595
26.81579 1383
26.8359 1182
26.85602 1083
26.87613 1051
26.89625 1031
26.91636 1020
26.93647 1130
26.95659 1073
26.9767 1053
26.99681 1055
27.01693 1046
27.03704 1064
27.05716 1000
27.07727 992
27.09738 933
27.1175 843
27.13761 832
27.15772 825
27.17784 775
27.19795 803
27.21806 877
27.23818 937
27.25829 1088
27.27841 1123
27.29852 1290
27.31863 1376
27.33875 1423
27.35886 1477
27.37897 1519
27.39909 1559
27.4192 1549
27.43932 1459
27.45943 1258
27.47954 1164
27.49966 990
27.51977 898
27.53988 745
27.56 695
27.58011 564
27.60023 563
27.62034 503
27.64045 434
27.66057 447
27.68068 481
27.70079 462
27.72091 428
27.74102 438
27.76113 423
27.78125 426
27.80136 411
27.82148 386
27.84159 394
27.8617 410
27.88182 388
27.90193 411
27.92204 396
27.94216 394
27.96227 353
27.98239 378
28.0025 319
28.02261 293
28.04273 320
28.06284 281
28.08295 303
28.10307 286
28.12318 306
28.1433 314
28.16341 288
28.18352 297
28.20364 268
28.22375 282
28.24386 256
28.26398 245
28.28409 278
28.3042 245
28.32432 270
28.34443 245
28.36455 255
28.38466 241
28.40477 272
28.42489 215
28.445 244
28.46511 257
28.48523 253
28.50534 251
28.52546 235
28.54557 245
28.56568 218
28.5858 232
28.60591 241
28.62602 238
28.64614 247
28.66625 214
28.68636 239
28.70648 224
28.72659 208
28.74671 221
28.76682 223
28.78693 234
28.80705 254
28.82716 211
28.84727 249
28.86739 223
28.8875 247
28.90762 196
28.92773 256
28.94784 232
28.96796 214
28.98807 251
29.00818 220
29.0283 250
29.04841 245
29.06853 239
29.08864 219
29.10875 215
29.12887 248
29.14898 264
29.16909 258
29.18921 255
29.20932 254
29.22943 278
29.24955 307
29.26966 343
29.28978 386
29.30989 357
29.33 403
29.35012 419
29.37023 408
29.39034 418
29.41046 413
29.43057 413
29.45069 403
29.4708 374
29.49091 343
29.51103 317
29.53114 323
29.55125 284
29.57137 265
29.59148 271
29.6116 285
29.63171 237
29.65182 264
29.67194 250
29.69205 269
29.71216 284
29.73228 281
29.75239 238
29.7725 263
29.79262 254
29.81273 287
29.83285 280
29.85296 278
29.87307 281
29.89319 291
29.9133 285
29.93341 295
29.95353 317
29.97364 339
29.99376 340
30.01387 339
30.03398 385
30.0541 455
30.07421 466
30.09432 466
30.11444 455
30.13455 468
30.15467 460
30.17478 488
30.19489 450
30.21501 458
30.23512 445
30.25523 393
30.27535 367
30.29546 290
30.31557 293
30.33569 280
30.3558 301
30.37592 279
30.39603 270
30.41614 267
30.43626 293
30.45637 278
30.47648 262
30.4966 295
30.51671 299
30.53683 317
30.55694 335
30.57705 347
30.59717 379
30.61728 405
30.63739 408
30.65751 391
30.67762 398
30.69773 463
30.71785 419
30.73796 466
30.75808 456
30.77819 442
30.7983 424
30.81842 391
30.83853 382
30.85864 365
30.87876 350
30.89887 351
30.91899 319
30.9391 271
30.95921 243
30.97933 229
30.99944 210
31.01955 232
31.03967 224
31.05978 222
31.0799 231
31.10001 191
31.12012 203
31.14024 207
31.16035 207
31.18046 187
31.20058 193
31.22069 186
31.2408 229
31.26092 175
31.28103 198
31.30115 180
31.32126 191
31.34137 207
31.36149 171
31.3816 200
31.40171 207
31.42183 202
31.44194 196
31.46206 184
31.48217 197
31.50228 200
31.5224 232
31.54251 199
31.56262 179
31.58274 194
31.60285 195
31.62297 188
31.64308 189
31.66319 211
31.68331 211
31.70342 192
31.72353 188
31.74365 189
31.76376 182
31.78387 199
31.80399 187
31.8241 168
31.84422 183
31.86433 199
31.88444 201
31.90456 185
31.92467 227
31.94478 248
31.9649 228
31.98501 220
32.00513 239
32.02524 223
32.04535 253
32.06547 255
32.08558 254
32.10569 250
32.12581 252
32.14592 259
32.16604 233
32.18615 222
32.20626 248
32.22638 248
32.24649 259
32.2666 225
32.28672 253
32.30683 259
32.32694 266
32.34706 264
32.36717 262
32.38729 274
32.4074 298
32.42751 288
32.44763 264
32.46774 247
32.48785 245
32.50797 248
32.52808 234
32.5482 213
32.56831 178
32.58842 224
32.60854 181
32.62865 169
32.64876 190
32.66888 163
32.68899 190
32.7091 189
32.72922 168
32.74933 180
32.76945 172
32.78956 159
32.80967 179
32.82979 165
32.8499 186
32.87001 177
32.89013 199
32.91024 177
32.93036 179
32.95047 166
32.97058 152
32.9907 189
33.01081 185
33.03092 192
33.05104 174
33.07115 175
33.09127 187
33.11138 219
33.13149 188
33.15161 157
33.17172 202
33.19183 175
33.21195 168
33.23206 182
33.25217 167
33.27229 152
33.2924 187
33.31252 178
33.33263 172
33.35274 212
33.37286 167
33.39297 190
33.41308 176
33.4332 181
33.45331 182
33.47343 163
33.49354 186
33.51365 173
33.53377 156
33.55388 172
33.57399 178
33.59411 185
33.61422 183
33.63434 183
33.65445 163
33.67456 196
33.69468 180
33.71479 179
33.7349 157
33.75502 209
33.77513 184
33.79524 200
33.81536 162
33.83547 180
33.85559 193
33.8757 208
33.89581 222
33.91593 186
33.93604 191
33.95615 249
33.97627 265
33.99638 251
34.0165 270
34.03661 280
34.05672 285
34.07684 327
34.09695 336
34.11706 340
34.13718 334
34.15729 328
34.17741 310
34.19752 315
34.21763 330
34.23775 286
34.25786 290
34.27797 276
34.29809 249
34.3182 284
34.33831 243
34.35843 259
34.37854 237
34.39866 253
34.41877 240
34.43888 261
34.459 280
34.47911 273
34.49922 280
34.51934 244
34.53945 249
34.55957 289
34.57968 308
34.59979 292
34.61991 283
34.64002 274
34.66013 297
34.68025 311
34.70036 296
34.72047 293
34.74059 320
34.7607 318
34.78082 303
34.80093 306
34.82104 340
34.84116 304
34.86127 325
34.88138 318
34.9015 316
34.92161 279
34.94173 292
34.96184 313
34.98195 280
35.00207 291
35.02218 303
35.04229 307
35.06241 269
35.08252 278
35.10264 278
35.12275 266
35.14286 313
35.16298 303
35.18309 269
35.2032 283
35.22332 318
35.24343 295
35.26354 330
35.28366 302
35.30377 295
35.32389 355
35.344 321
35.36411 309
35.38423 325
35.40434 370
35.42445 387
35.44457 357
35.46468 330
35.4848 389
35.50491 431
35.52502 382
35.54514 403
35.56525 348
35.58536 316
35.60548 312
35.62559 293
35.64571 294
35.66582 291
35.68593 288
35.70605 272
35.72616 265
35.74627 289
35.76639 261
35.7865 254
35.80661 275
35.82673 243
35.84684 266
35.86696 248
35.88707 235
35.90718 244
35.9273 241
35.94741 248
35.96752 244
35.98764 249
36.00775 240
36.02787 248
36.04798 240
36.06809 228
36.08821 260
36.10832 274
36.12843 272
36.14855 266
36.16866 276
36.18878 330
36.20889 332
36.229 362
36.24912 377
36.26923 470
36.28934 468
36.30946 576
36.32957 685
36.34968 799
36.3698 929
36.38991 960
36.41003 1149
36.43014 1264
36.45025 1272
36.47037 1298
36.49048 1343
36.51059 1285
36.53071 1207
36.55082 1091
36.57094 1001
36.59105 805
36.61116 670
36.63128 576
36.65139 462
36.6715 448
36.69162 380
36.71173 344
36.73184 317
36.75196 308
36.77207 328
36.79219 291
36.8123 320
36.83241 305
36.85253 322
36.87264 328
36.89275 351
36.91287 317
36.93298 299
36.9531 308
36.97321 283
36.99332 295
37.01344 310
37.03355 269
37.05366 238
37.07378 263
37.09389 237
37.11401 244
37.13412 203
37.15423 234
37.17435 192
37.19446 211
37.21457 242
37.23469 194
37.2548 205
37.27491 215
37.29503 208
37.31514 218
37.33526 197
37.35537 219
37.37548 220
37.3956 233
37.41571 213
37.43582 221
37.45594 230
37.47605 225
37.49617 213
37.51628 222
37.53639 202
37.55651 225
37.57662 231
37.59673 245
37.61685 235
37.63696 213
37.65708 228
37.67719 220
37.6973 247
37.71742 202
37.73753 173
37.75764 204
37.77776 210
37.79787 216
37.81798 186
37.8381 208
37.85821 229
37.87833 199
37.89844 182
37.91855 165
37.93867 195
37.95878 195
37.97889 203
37.99901 170
38.01912 200
38.03924 190
38.05935 214
38.07946 206
38.09958 214
38.11969 229
38.1398 186
38.15992 206
38.18003 236
38.20015 211
38.22026 228
38.24037 201
38.26049 229
38.2806 224
38.30071 250
38.32083 254
38.34094 262
38.36105 261
38.38117 253
38.40128 288
38.4214 274
38.44151 283
38.46162 279
38.48174 277
38.50185 304
38.52196 286
38.54208 273
38.56219 258
38.58231 250
38.60242 256
38.62253 236
38.64265 251
38.66276 222
38.68287 210
38.70299 193
38.7231 205
38.74321 203
38.76333 207
38.78344 212
38.80356 189
38.82367 203
38.84378 209
38.8639 196
38.88401 225
38.90412 207
38.92424 209
38.94435 231
38.96447 209
38.98458 223
39.00469 240
39.02481 242
39.04492 259
39.06503 297
39.08515 304
39.10526 306
39.12538 329
39.14549 352
39.1656 378
39.18572 407
39.20583 454
39.22594 520
39.24606 633
39.26617 745
39.28628 797
39.3064 953
39.32651 1058
39.34663 1123
39.36674 1212
39.38685 1279
39.40697 1289
39.42708 1201
39.44719 1120
39.46731 1071
39.48742 930
39.50754 765
39.52765 651
39.54776 548
39.56788 514
39.58799 420
39.6081 355
39.62822 312
39.64833 269
39.66845 239
39.68856 245
39.70867 220
39.72879 182
39.7489 228
39.76901 201
39.78913 221
39.80924 177
39.82935 222
39.84947 197
39.86958 243
39.8897 212
39.90981 248
39.92992 254
39.95004 243
39.97015 254
39.99026 299
40.01038 306
40.03049 343
40.05061 407
40.07072 390
40.09083 467
40.11095 487
40.13106 550
40.15117 589
40.17129 630
40.1914 697
40.21152 740
40.23163 704
40.25174 649
40.27186 631
40.29197 612
40.31208 543
40.3322 480
40.35231 447
40.37242 385
40.39254 339
40.41265 345
40.43277 284
40.45288 254
40.47299 253
40.49311 227
40.51322 226
40.53333 212
40.55345 234
40.57356 193
40.59368 196
40.61379 191
40.6339 196
40.65402 191
40.67413 177
40.69424 184
40.71436 189
40.73447 184
40.75458 171
40.7747 178
40.79481 200
40.81493 178
40.83504 198
40.85515 189
40.87527 188
40.89538 177
40.91549 177
40.93561 191
40.95572 172
40.97584 179
40.99595 181
41.01606 198
41.03618 189
41.05629 183
41.0764 174
41.09652 179
41.11663 212
41.13675 197
41.15686 182
41.17697 176
41.19709 161
41.2172 170
41.23731 191
41.25743 167
41.27754 198
41.29765 186
41.31777 187
41.33788 210
41.358 232
41.37811 205
41.39822 241
41.41834 194
41.43845 228
41.45856 223
41.47868 230
41.49879 254
41.51891 271
41.53902 236
41.55913 247
41.57925 300
41.59936 294
41.61947 345
41.63959 334
41.6597 372
41.67982 387
41.69993 427
41.72004 393
41.74016 432
41.76027 405
41.78038 427
41.8005 387
41.82061 386
41.84072 357
41.86084 318
41.88095 314
41.90107 261
41.92118 263
41.94129 257
41.96141 261
41.98152 251
42.00163 234
42.02175 219
42.04186 254
42.06198 248
42.08209 286
42.1022 294
42.12232 301
42.14243 334
42.16254 349
42.18266 387
42.20277 401
42.22289 473
42.243 546
42.26311 656
42.28323 737
42.30334 828
42.32345 834
42.34357 912
42.36368 886
42.38379 888
42.40391 872
42.42402 860
42.44414 845
42.46425 725
42.48436 628
42.50448 635
42.52459 507
42.5447 451
42.56482 365
42.58493 340
42.60505 301
42.62516 264
42.64527 292
42.66539 228
42.6855 254
42.70561 236
42.72573 229
42.74584 242
42.76595 240
42.78607 213
42.80618 223
42.8263 226
42.84641 198
42.86652 199
42.88664 190
42.90675 192
42.92686 217
42.94698 187
42.96709 205
42.98721 195
43.00732 185
43.02743 180
43.04755 183
43.06766 200
43.08777 202
43.10789 193
43.128 195
43.14812 188
43.16823 188
43.18834 179
43.20846 168
43.22857 200
43.24868 180
43.2688 179
43.28891 204
43.30902 164
43.32914 169
43.34925 195
43.36937 181
43.38948 171
43.40959 185
43.42971 190
43.44982 177
43.46993 195
43.49005 185
43.51016 191
43.53028 169
43.55039 193
43.5705 178
43.59062 188
43.61073 188
43.63084 163
43.65096 189
43.67107 179
43.69119 188
43.7113 186
43.73141 165
43.75153 166
43.77164 150
43.79175 186
43.81187 159
43.83198 183
43.85209 169
43.87221 159
43.89232 195
43.91244 186
43.93255 178
43.95266 189
43.97278 181
43.99289 162
44.013 202
44.03312 218
44.05323 179
44.07335 188
44.09346 203
44.11357 192
44.13369 207
44.1538 191
44.17391 202
44.19403 174
44.21414 193
44.23426 191
44.25437 211
44.27448 194
44.2946 185
44.31471 183
44.33482 148
44.35494 158
44.37505 184
44.39516 190
44.41528 171
44.43539 180
44.45551 182
44.47562 171
44.49573 193
44.51585 174
44.53596 198
44.55607 181
44.57619 181
44.5963 158
44.61642 164
44.63653 178
44.65664 186
44.67676 172
44.69687 195
44.71698 165
44.7371 169
44.75721 168
44.77732 161
44.79744 176
44.81755 135
44.83767 156
44.85778 174
44.87789 188
44.89801 198
44.91812 163
44.93823 178
44.95835 174
44.97846 157
44.99858 172
45.01869 178
45.0388 187
45.05892 194
45.07903 169
45.09914 162
45.11926 179
45.13937 196
45.15949 188
45.1796 177
45.19971 188
45.21983 193
45.23994 233
45.26005 224
45.28017 204
45.30028 224
45.32039 242
45.34051 225
45.36062 260
45.38074 259
45.40085 301
45.42096 303
45.44108 292
45.46119 337
45.4813 348
45.50142 384
45.52153 394
45.54165 441
45.56176 442
45.58187 503
45.60199 562
45.6221 593
45.64221 644
45.66233 648
45.68244 682
45.70256 678
45.72267 677
45.74278 684
45.7629 658
45.78301 660
45.80312 597
45.82324 539
45.84335 474
45.86346 419
45.88358 363
45.90369 389
45.92381 303
45.94392 277
45.96403 243
45.98415 246
46.00426 225
46.02437 192
46.04449 221
46.0646 244
46.08472 202
46.10483 206
46.12494 212
46.14506 220
46.16517 196
46.18528 216
46.2054 203
46.22551 209
46.24563 182
46.26574 172
46.28585 172
46.30597 177
46.32608 181
46.34619 179
46.36631 155
46.38642 163
46.40653 184
46.42665 179
46.44676 181
46.46688 165
46.48699 158
46.5071 177
46.52722 148
46.54733 162
46.56744 166
46.58756 176
46.60767 145
46.62779 150
46.6479 170
46.66801 164
46.68813 174
46.70824 162
46.72835 153
46.74847 172
46.76858 196
46.78869 166
46.80881 160
46.82892 161
46.84904 165
46.86915 175
46.88926 208
46.90938 196
46.92949 208
46.9496 201
46.96972 207
46.98983 167
47.00995 222
47.03006 249
47.05017 241
47.07029 229
47.0904 234
47.11051 210
47.13063 222
47.15074 223
47.17086 215
47.19097 207
47.21108 196
47.2312 200
47.25131 212
47.27142 200
47.29154 186
47.31165 225
47.33176 188
47.35188 197
47.37199 223
47.39211 208
47.41222 217
47.43233 220
47.45245 193
47.47256 196
47.49267 177
47.51279 170
47.5329 178
47.55302 166
47.57313 164
47.59324 157
47.61336 173
47.63347 164
47.65358 180
47.6737 154
47.69381 178
47.71393 169
47.73404 150
47.75415 152
47.77427 169
47.79438 172
47.81449 172
47.83461 150
47.85472 153
47.87483 158
47.89495 175
47.91506 146
47.93518 160
47.95529 164
47.9754 156
47.99552 166
48.01563 171
48.03574 162
48.05586 159
48.07597 155
48.09609 169
48.1162 130
48.13631 155
48.15643 170
48.17654 174
48.19665 179
48.21677 177
48.23688 153
48.257 204
48.27711 180
48.29722 163
48.31734 169
48.33745 163
48.35756 160
48.37768 168
48.39779 189
48.4179 180
48.43802 160
48.45813 170
48.47825 177
48.49836 160
48.51847 191
48.53859 184
48.5587 179
48.57881 203
48.59893 208
48.61904 190
48.63916 217
48.65927 194
48.67938 220
48.6995 212
48.71961 231
48.73972 183
48.75984 190
48.77995 205
48.80006 225
48.82018 235
48.84029 228
48.86041 210
48.88052 248
48.90063 222
48.92075 240
48.94086 228
48.96097 204
48.98109 234
49.0012 200
49.02132 214
49.04143 243
49.06154 219
49.08166 220
49.10177 228
49.12188 181
49.142 193
49.16211 200
49.18223 182
49.20234 196
49.22245 167
49.24257 190
49.26268 170
49.28279 169
49.30291 161
49.32302 159
49.34313 213
49.36325 188
49.38336 196
49.40348 211
49.42359 180
49.4437 203
49.46382 192
49.48393 186
49.50404 193
49.52416 233
49.54427 222
49.56439 224
49.5845 254
49.60461 293
49.62473 261
49.64484 268
49.66495 287
49.68507 324
49.70518 351
49.7253 360
49.74541 379
49.76552 454
49.78564 472
49.80575 525
49.82586 578
49.84598 662
49.86609 773
49.8862 805
49.90632 1051
49.92643 1159
49.94655 1314
49.96666 1499
49.98677 1656
50.00689 1762
50.027 1860
50.04711 1944
50.06723 1977
50.08734 1997
50.10746 1874
50.12757 1707
50.14768 1635
50.1678 1389
50.18791 1217
50.20802 1092
50.22814 985
50.24825 804
50.26837 768
50.28848 660
50.30859 556
50.32871 483
50.34882 436
50.36893 456
50.38905 472
50.40916 474
50.42927 426
50.44939 440
50.4695 435
50.48962 434
50.50973 450
50.52984 471
50.54996 421
50.57007 378
50.59018 375
50.6103 388
50.63041 364
50.65053 334
50.67064 309
50.69075 301
50.71087 329
50.73098 277
50.75109 325
50.77121 276
50.79132 295
50.81143 266
50.83155 249
50.85166 239
50.87178 256
50.89189 239
50.912 235
50.93212 221
50.95223 196
50.97234 191
50.99246 211
51.01257 196
51.03269 198
51.0528 186
51.07291 217
51.09303 202
51.11314 206
51.13325 184
51.15337 173
51.17348 176
51.1936 159
51.21371 209
51.23382 158
51.25394 181
51.27405 172
51.29416 177
51.31428 146
51.33439 163
51.3545 181
51.37462 148
51.39473 144
51.41485 172
51.43496 153
51.45507 174
51.47519 149
51.4953 157
51.51541 162
51.53553 136
51.55564 149
51.57576 150
51.59587 151
51.61598 152
51.6361 141
51.65621 154
51.67632 152
51.69644 162
51.71655 163
51.73667 148
51.75678 132
51.77689 153
51.79701 143
51.81712 153
51.83723 150
51.85735 163
51.87746 134
51.89757 154
51.91769 145
51.9378 148
51.95792 149
51.97803 149
51.99814 132
52.01826 171
52.03837 170
52.05848 175
52.0786 153
52.09871 158
52.11883 172
52.13894 158
52.15905 145
52.17917 141
52.19928 147
52.21939 156
52.23951 162
52.25962 153
52.27974 169
52.29985 158
52.31996 171
52.34008 152
52.36019 176
52.3803 169
52.40042 181
52.42053 170
52.44064 172
52.46076 169
52.48087 182
52.50099 196
52.5211 181
52.54121 161
52.56133 173
52.58144 168
52.60155 167
52.62167 178
52.64178 189
52.6619 173
52.68201 163
52.70212 160
52.72224 163
52.74235 179
52.76246 171
52.78258 180
52.80269 146
52.8228 173
52.84292 181
52.86303 160
52.88315 181
52.90326 172
52.92337 163
52.94349 150
52.9636 187
52.98371 147
53.00383 159
53.02394 157
53.04406 164
53.06417 154
53.08428 154
53.1044 181
53.12451 167
53.14462 150
53.16474 172
53.18485 180
53.20497 181
53.22508 162
53.24519 154
53.26531 167
53.28542 157
53.30553 155
53.32565 176
53.34576 183
53.36587 172
53.38599 174
53.4061 159
53.42622 163
53.44633 187
53.46644 181
53.48656 185
53.50667 187
53.52678 186
53.5469 186
53.56701 163
53.58713 178
53.60724 153
53.62735 155
53.64747 162
53.66758 168
53.68769 167
53.70781 182
53.72792 164
53.74804 178
53.76815 169
53.78826 150
53.80838 157
53.82849 184
53.8486 174
53.86872 175
53.88883 173
53.90894 190
53.92906 186
53.94917 179
53.96929 177
53.9894 191
54.00951 161
54.02963 168
54.04974 202
54.06985 199
54.08997 184
54.11008 184
54.1302 179
54.15031 179
54.17042 169
54.19054 178
54.21065 190
54.23076 210
54.25088 221
54.27099 202
54.29111 193
54.31122 199
54.33133 208
54.35145 175
54.37156 209
54.39167 198
54.41179 225
54.4319 235
54.45201 228
54.47213 240
54.49224 238
54.51236 272
54.53247 253
54.55258 305
54.5727 301
54.59281 322
54.61292 383
54.63304 402
54.65315 426
54.67327 492
54.69338 499
54.71349 555
54.73361 635
54.75372 637
54.77383 669
54.79395 640
54.81406 695
54.83417 676
54.85429 633
54.8744 626
54.89452 556
54.91463 507
54.93474 516
54.95486 469
54.97497 435
54.99508 397
55.0152 387
55.03531 319
55.05543 322
55.07554 318
55.09565 297
55.11577 332
55.13588 312
55.15599 357
55.17611 356
55.19622 417
55.21634 424
55.23645 440
55.25656 423
55.27668 411
55.29679 420
55.3169 345
55.33702 406
55.35713 343
55.37724 354
55.39736 331
55.41747 300
55.43759 279
55.4577 256
55.47781 259
55.49793 249
55.51804 247
55.53815 249
55.55827 210
55.57838 200
55.5985 214
55.61861 205
55.63872 201
55.65884 189
55.67895 193
55.69906 183
55.71918 185
55.73929 198
55.75941 187
55.77952 175
55.79963 163
55.81975 166
55.83986 142
55.85997 202
55.88009 184
55.9002 183
55.92031 169
55.94043 190
55.96054 152
55.98066 173
56.00077 162
56.02088 175
56.041 165
56.06111 177
56.08122 170
56.10134 190
56.12145 151
56.14157 168
56.16168 156
56.18179 149
56.20191 151
56.22202 151
56.24213 186
56.26225 150
56.28236 166
56.30248 167
56.32259 162
56.3427 154
56.36282 158
56.38293 157
56.40304 162
56.42316 160
56.44327 154
56.46338 177
56.4835 140
56.50361 172
56.52373 143
56.54384 173
56.56395 189
56.58407 183
56.60418 196
56.62429 200
56.64441 174
56.66452 187
56.68464 203
56.70475 168
56.72486 175
56.74498 184
56.76509 180
56.7852 181
56.80532 180
56.82543 193
56.84554 176
56.86566 172
56.88577 196
56.90589 159
56.926 180
56.94611 171
56.96623 189
56.98634 186
57.00645 168
57.02657 193
57.04668 176
57.0668 189
57.08691 178
57.10702 199
57.12714 177
57.14725 238
57.16736 187
57.18748 187
57.20759 182
57.22771 190
57.24782 187
57.26793 198
57.28805 172
57.30816 165
57.32827 189
57.34839 192
57.3685 187
57.38861 211
57.40873 186
57.42884 175
57.44896 163
57.46907 152
57.48918 179
57.5093 155
57.52941 155
57.54952 181
57.56964 139
57.58975 161
57.60987 179
57.62998 139
57.65009 160
57.67021 137
57.69032 156
57.71043 150
57.73055 169
57.75066 140
57.77078 169
57.79089 151
57.811 142
57.83112 155
57.85123 151
57.87134 166
57.89146 172
57.91157 162
57.93168 163
57.9518 159
57.97191 137
57.99203 173
58.01214 158
58.03225 175
58.05237 171
58.07248 152
58.09259 173
58.11271 173
58.13282 161
58.15294 159
58.17305 172
58.19316 188
58.21328 177
58.23339 190
58.2535 178
58.27362 192
58.29373 177
58.31385 176
58.33396 196
58.35407 159
58.37419 182
58.3943 180
58.41441 189
58.43453 200
58.45464 176
58.47475 184
58.49487 182
58.51498 173
58.5351 184
58.55521 187
58.57532 173
58.59544 187
58.61555 203
58.63566 169
58.65578 164
58.67589 188
58.69601 174
58.71612 164
58.73623 178
58.75635 179
58.77646 195
58.79657 165
58.81669 185
58.8368 181
58.85691 152
58.87703 167
58.89714 177
58.91726 169
58.93737 158
58.95748 144
58.9776 153
58.99771 167
59.01782 136
59.03794 147
59.05805 152
59.07817 158
59.09828 164
59.11839 148
59.13851 155
59.15862 172
59.17873 191
59.19885 184
59.21896 148
59.23908 183
59.25919 187
59.2793 172
59.29942 189
59.31953 206
59.33964 190
59.35976 235
59.37987 205
59.39998 228
59.4201 270
59.44021 258
59.46033 260
59.48044 306
59.50055 291
59.52067 294
59.54078 341
59.56089 333
59.58101 362
59.60112 390
59.62124 455
59.64135 481
59.66146 541
59.68158 600
59.70169 623
59.7218 770
59.74192 820
59.76203 963
59.78215 1003
59.80226 1171
59.82237 1217
59.84249 1275
59.8626 1320
59.88271 1261
59.90283 1286
59.92294 1160
59.94305 1120
59.96317 1019
59.98328 970
60.0034 852
60.02351 790
60.04362 758
60.06374 606
60.08385 579
60.10396 517
60.12408 452
60.14419 383
60.16431 308
60.18442 290
60.20453 238
60.22465 246
60.24476 241
60.26487 202
60.28499 212
60.3051 202
60.32522 182
60.34533 201
60.36544 184
60.38556 171
60.40567 196
60.42578 179
60.4459 169
60.46601 161
60.48612 152
60.50624 166
60.52635 144
60.54647 181
60.56658 145
60.58669 175
60.60681 166
60.62692 168
60.64703 182
60.66715 175
60.68726 188
60.70738 177
60.72749 185
60.7476 189
60.76772 154
60.78783 175
60.80794 185
60.82806 197
60.84817 210
60.86828 199
60.8884 197
60.90851 195
60.92863 227
60.94874 193
60.96885 208
60.98897 220
61.00908 251
61.02919 206
61.04931 204
61.06942 222
61.08954 242
61.10965 192
61.12976 226
61.14988 234
61.16999 223
61.1901 192
61.21022 237
61.23033 210
61.25045 216
61.27056 193
61.29067 209
61.31079 218
61.3309 173
61.35101 185
61.37113 179
61.39124 184
61.41135 165
61.43147 154
61.45158 180
61.4717 146
61.49181 158
61.51192 147
61.53204 186
61.55215 159
61.57226 197
61.59238 177
61.61249 165
61.63261 161
61.65272 161
61.67283 182
61.69295 164
61.71306 173
61.73317 178
61.75329 165
61.7734 183
61.79352 181
61.81363 164
61.83374 173
61.85386 193
61.87397 184
61.89408 172
61.9142 180
61.93431 149
61.95442 180
61.97454 163
61.99465 173
62.01477 160
62.03488 181
62.05499 195
62.07511 192
62.09522 180
62.11533 187
62.13545 188
62.15556 209
62.17568 203
62.19579 208
62.2159 220
62.23602 189
62.25613 190
62.27624 189
62.29636 191
62.31647 181
62.33659 181
62.3567 171
62.37681 185
62.39693 172
62.41704 192
62.43715 206
62.45727 181
62.47738 178
62.49749 182
62.51761 189
62.53772 179
62.55784 171
62.57795 194
62.59806 197
62.61818 188
62.63829 188
62.6584 175
62.67852 182
62.69863 190
62.71875 209
62.73886 203
62.75897 177
62.77909 191
62.7992 157
62.81931 204
62.83943 185
62.85954 198
62.87965 187
62.89977 194
62.91988 199
62.94 203
62.96011 216
62.98022 229
63.00034 215
63.02045 217
63.04056 221
63.06068 209
63.08079 219
63.10091 186
63.12102 213
63.14113 209
63.16125 196
63.18136 209
63.20147 196
63.22159 206
63.2417 179
63.26182 169
63.28193 190
63.30204 169
63.32216 183
63.34227 176
63.36238 178
63.3825 189
63.40261 186
63.42272 178
63.44284 171
63.46295 174
63.48307 208
63.50318 200
63.52329 204
63.54341 186
63.56352 189
63.58363 212
63.60375 209
63.62386 232
63.64398 242
63.66409 267
63.6842 263
63.70432 256
63.72443 281
63.74454 274
63.76466 287
63.78477 317
63.80489 324
63.825 353
63.84511 354
63.86523 375
63.88534 429
63.90545 411
63.92557 428
63.94568 422
63.96579 410
63.98591 354
64.00602 410
64.02614 382
64.04625 316
64.06636 339
64.08648 308
64.10659 276
64.1267 266
64.14682 254
64.16693 258
64.18705 242
64.20716 229
64.22727 198
64.24739 202
64.2675 192
64.28761 158
64.30773 156
64.32784 174
64.34796 147
64.36807 158
64.38818 151
64.4083 149
64.42841 131
64.44852 157
64.46864 153
64.48875 146
64.50886 134
64.52898 144
64.54909 151
64.56921 159
64.58932 162
64.60943 145
64.62955 149
64.64966 171
64.66977 146
64.68989 159
64.71 146
64.73012 141
64.75023 159
64.77034 180
64.79046 162
64.81057 163
64.83068 165
64.8508 167
64.87091 161
64.89102 156
64.91114 171
64.93125 163
64.95137 171
64.97148 203
64.99159 193
65.01171 172
65.03182 203
65.05193 199
65.07205 196
65.09216 188
65.11228 198
65.13239 198
65.1525 217
65.17262 176
65.19273 193
65.21284 204
65.23296 184
65.25307 200
65.27319 208
65.2933 189
65.31341 184
65.33353 182
65.35364 186
65.37375 198
65.39387 184
65.41398 176
65.43409 184
65.45421 181
65.47432 180
65.49444 185
65.51455 176
65.53466 196
65.55478 165
65.57489 186
65.595 182
65.61512 200
65.63523 205
65.65535 200
65.67546 196
65.69557 194
65.71569 210
65.7358 204
65.75591 184
65.77603 187
65.79614 186
65.81626 186
65.83637 178
65.85648 197
65.8766 167
65.89671 203
65.91682 167
65.93694 159
65.95705 188
65.97716 180
65.99728 149
66.01739 152
66.03751 192
66.05762 159
66.07773 177
66.09785 179
66.11796 187
66.13807 171
66.15819 219
66.1783 211
66.19842 196
66.21853 162
66.23864 220
66.25876 209
66.27887 195
66.29898 187
66.3191 197
66.33921 186
66.35933 188
66.37944 184
66.39955 176
66.41967 197
66.43978 207
66.45989 187
66.48001 194
66.50012 179
66.52023 154
66.54035 167
66.56046 153
66.58058 151
66.60069 167
66.6208 166
66.64092 193
66.66103 163
66.68114 171
66.70126 145
66.72137 167
66.74149 152
66.7616 178
66.78171 186
66.80183 164
66.82194 151
66.84205 195
66.86217 183
66.88228 177
66.90239 174
66.92251 167
66.94262 175
66.96274 204
66.98285 177
67.00296 224
67.02308 195
67.04319 189
67.0633 227
67.08342 180
67.10353 187
67.12365 214
67.14376 194
67.16387 222
67.18399 214
67.2041 197
67.22421 225
67.24433 228
67.26444 227
67.28456 233
67.30467 252
67.32478 255
67.3449 265
67.36501 264
67.38512 343
67.40524 357
67.42535 377
67.44546 402
67.46558 454
67.48569 437
67.50581 526
67.52592 609
67.54603 674
67.56615 685
67.58626 772
67.60637 838
67.62649 871
67.6466 895
67.66672 948
67.68683 916
67.70694 806
67.72706 839
67.74717 772
67.76728 804
67.7874 776
67.80751 782
67.82763 769
67.84774 809
67.86785 826
67.88797 837
67.90808 842
67.92819 899
67.94831 931
67.96842 1053
67.98853 1073
68.00865 1148
68.02876 1163
68.04888 1229
68.06899 1267
68.0891 1245
68.10922 1278
68.12933 1240
68.14944 1147
68.16956 1139
68.18967 1126
68.20979 1076
68.2299 1032
68.25001 984
68.27013 949
68.29024 893
68.31035 770
68.33047 748
68.35058 647
68.3707 561
68.39081 494
68.41092 465
68.43104 424
68.45115 385
68.47126 361
68.49138 340
68.51149 275
68.5316 253
68.55172 243
68.57183 229
68.59195 221
68.61206 216
68.63217 202
68.65229 173
68.6724 190
68.69251 202
68.71263 173
68.73274 202
68.75286 192
68.77297 189
68.79308 183
68.8132 154
68.83331 170
68.85342 165
68.87354 164
68.89365 161
68.91376 164
68.93388 175
68.95399 150
68.97411 156
68.99422 162
69.01433 154
69.03445 160
69.05456 161
69.07467 142
69.09479 160
69.1149 156
69.13502 166
69.15513 150
69.17524 138
69.19536 154
69.21547 157
69.23558 148
69.2557 165
69.27581 165
69.29593 142
69.31604 137
69.33615 145
69.35627 168
69.37638 162
69.39649 130
69.41661 166
69.43672 130
69.45683 159
69.47695 165
69.49706 153
69.51718 161
69.53729 160
69.5574 142
69.57752 175
69.59763 163
69.61774 147
69.63786 157
69.65797 146
69.67809 150
69.6982 156
69.71831 172
69.73843 137
69.75854 146
69.77865 136
69.79877 172
69.81888 153
69.839 147
69.85911 149
69.87922 150
69.89934 151
69.91945 166
69.93956 159
69.95968 153
69.97979 156
69.9999 138
70.02002 165
70.04013 141
70.06025 164
70.08036 155
70.10047 161
70.12059 143
70.1407 168
70.16081 145
70.18093 160
70.20104 166
70.22116 136
70.24127 141
70.26138 148
70.2815 157
70.30161 153
70.32172 159
70.34184 177
70.36195 144
70.38207 178
70.40218 151
70.42229 139
70.44241 188
70.46252 169
70.48263 161
70.50275 152
70.52286 150
70.54297 168
70.56309 172
70.5832 153
70.60332 143
70.62343 159
70.64354 157
70.66366 163
70.68377 176
70.70388 171
70.724 167
70.74411 181
70.76423 144
70.78434 148
70.80445 154
70.82457 171
70.84468 167
70.86479 175
70.88491 143
70.90502 156
70.92513 150
70.94525 164
70.96536 119
70.98548 154
71.00559 154
71.0257 156
71.04582 160
71.06593 132
71.08604 146
71.10616 153
71.12627 163
71.14639 159
71.1665 141
71.18661 166
71.20673 152
71.22684 125
71.24695 144
71.26707 157
71.28718 163
71.3073 173
71.32741 144
71.34752 156
71.36764 166
71.38775 168
71.40786 166
71.42798 197
71.44809 164
71.4682 188
71.48832 182
71.50843 166
71.52855 179
71.54866 168
71.56877 162
71.58889 160
71.609 170
71.62911 153
71.64923 174
71.66934 158
71.68946 152
71.70957 148
71.72968 162
71.7498 164
71.76991 166
71.79002 156
71.81014 176
71.83025 179
71.85037 175
71.87048 175
71.89059 151
71.91071 190
71.93082 170
71.95093 168
71.97105 152
71.99116 183
72.01127 184
72.03139 178
72.0515 178
72.07162 161
72.09173 164
72.11184 191
72.13196 177
72.15207 209
72.17218 182
72.1923 173
72.21241 164
72.23253 170
72.25264 160
72.27275 192
72.29287 174
72.31298 162
72.33309 176
72.35321 151
72.37332 172
72.39344 197
72.41355 194
72.43366 176
72.45378 167
72.47389 176
72.494 137
72.51412 150
72.53423 149
72.55434 141
72.57446 178
72.59457 151
72.61469 148
72.6348 165
72.65491 161
72.67503 164
72.69514 144
72.71525 164
72.73537 155
72.75548 187
72.7756 175
72.79571 177
72.81582 158
72.83594 175
72.85605 189
72.87616 174
72.89628 199
72.91639 183
72.9365 210
72.95662 194
72.97673 205
72.99685 228
73.01696 207
73.03707 229
73.05719 216
73.0773 198
73.09741 263
73.11753 230
73.13764 250
73.15776 256
73.17787 258
73.19798 270
73.2181 296
73.23821 308
73.25832 320
73.27844 342
73.29855 348
73.31867 378
73.33878 405
73.35889 431
73.37901 409
73.39912 401
73.41923 394
73.43935 343
73.45946 369
73.47957 354
73.49969 325
73.5198 307
73.53992 299
73.56003 297
73.58014 296
73.60026 288
73.62037 268
73.64048 256
73.6606 263
73.68071 230
73.70083 237
73.72094 216
73.74105 187
73.76117 177
73.78128 152
73.80139 175
73.82151 164
73.84162 192
73.86174 162
73.88185 151
73.90196 169
73.92208 161
73.94219 162
73.9623 161
73.98242 151
74.00253 147
74.02264 159
74.04276 151
74.06287 165
74.08299 153
74.1031 151
74.12321 161
74.14333 153
74.16344 156
74.18355 161
74.20367 160
74.22378 135
74.2439 160
74.26401 143
74.28412 170
74.30424 168
74.32435 143
74.34446 158
74.36458 167
74.38469 157
74.40481 189
74.42492 194
74.44503 169
74.46515 186
74.48526 161
74.50537 176
74.52549 168
74.5456 182
74.56571 177
74.58583 176
74.60594 208
74.62606 157
74.64617 189
74.66628 169
74.6864 188
74.70651 179
74.72662 169
74.74674 180
74.76685 185
74.78697 190
74.80708 176
74.82719 172
74.84731 175
74.86742 198
74.88753 179
74.90765 177
74.92776 178
74.94787 176
74.96799 175
74.9881 167
75.00822 175
