3.00117 18004
3.02128 17963
3.0414 17014
3.06151 16849
3.08162 16439
3.10174 15747
3.12185 15447
3.14197 15033
3.16208 14362
3.18219 14065
3.20231 13779
3.22242 13466
3.24253 12845
3.26265 12350
3.28276 12270
3.30288 11737
3.32299 11675
3.3431 11084
3.36322 10721
3.38333 10336
3.40344 9938
3.42356 9786
3.44367 9466
3.46379 8935
3.4839 8796
3.50401 8518
3.52413 8132
3.54424 7905
3.56435 7578
3.58447 7223
3.60458 6994
3.62469 6974
3.64481 6523
3.66492 6220
3.68504 6081
3.70515 5623
3.72526 5623
3.74538 5397
3.76549 5112
3.7856 4769
3.80572 4566
3.82583 4591
3.84595 4350
3.86606 4160
3.88617 3981
3.90629 3815
3.9264 3700
3.94651 3371
3.96663 3343
3.98674 3268
4.00686 3029
4.02697 3116
4.04708 2863
4.0672 2628
4.08731 2517
4.10742 2411
4.12754 2381
4.14765 2331
4.16776 2097
4.18788 2108
4.20799 2058
4.22811 1906
4.24822 2049
4.26833 1708
4.28845 1712
4.30856 1644
4.32867 1599
4.34879 1619
4.3689 1441
4.38902 1475
4.40913 1416
4.42924 1404
4.44936 1436
4.46947 1270
4.48958 1319
4.5097 1235
4.52981 1245
4.54992 1238
4.57004 1058
4.59015 1111
4.61027 1078
4.63038 1081
4.65049 1070
4.67061 990
4.69072 1030
4.71083 1052
4.73095 1040
4.75106 1020
4.77118 865
4.79129 949
4.8114 923
4.83152 856
4.85163 911
4.87174 838
4.89186 851
4.91197 809
4.93209 820
4.9522 766
4.97231 721
4.99243 745
5.01254 748
5.03265 685
5.05277 754
5.07288 662
5.09299 588
5.11311 660
5.13322 615
5.15334 647
5.17345 650
5.19356 580
5.21368 600
5.23379 548
5.2539 556
5.27402 569
5.29413 534
5.31425 520
5.33436 583
5.35447 536
5.37459 500
5.3947 442
5.41481 518
5.43493 470
5.45504 460
5.47516 455
5.49527 430
5.51538 452
5.5355 424
5.55561 415
5.57572 400
5.59584 399
5.61595 428
5.63606 401
5.65618 375
5.67629 371
5.69641 333
5.71652 391
5.73663 365
5.75675 306
5.77686 312
5.79697 387
5.81709 341
5.8372 321
5.85732 339
5.87743 342
5.89754 332
5.91766 306
5.93777 343
5.95788 291
5.978 307
5.99811 312
6.01823 322
6.03834 324
6.05845 333
6.07857 296
6.09868 333
6.11879 308
6.13891 320
6.15902 249
6.17913 287
6.19925 274
6.21936 303
6.23948 302
6.25959 263
6.2797 311
6.29982 293
6.31993 309
6.34004 274
6.36016 305
6.38027 279
6.40039 274
6.4205 261
6.44061 281
6.46073 280
6.48084 248
6.50095 295
6.52107 248
6.54118 275
6.56129 265
6.58141 265
6.60152 254
6.62164 216
6.64175 241
6.66186 293
6.68198 267
6.70209 268
6.7222 278
6.74232 240
6.76243 258
6.78255 272
6.80266 297
6.82277 238
6.84289 259
6.863 256
6.88311 303
6.90323 242
6.92334 250
6.94346 261
6.96357 273
6.98368 282
7.0038 250
7.02391 254
7.04402 239
7.06414 244
7.08425 219
7.10436 241
7.12448 279
7.14459 260
7.16471 253
7.18482 258
7.20493 254
7.22505 265
7.24516 217
7.26527 282
7.28539 281
7.3055 324
7.32562 311
7.34573 237
7.36584 251
7.38596 261
7.40607 252
7.42618 251
7.4463 251
7.46641 236
7.48653 273
7.50664 275
7.52675 263
7.54687 263
7.56698 247
7.58709 264
7.60721 264
7.62732 279
7.64743 311
7.66755 291
7.68766 247
7.70778 277
7.72789 238
7.748 241
7.76812 250
7.78823 260
7.80834 295
7.82846 267
7.84857 296
7.86869 240
7.8888 278
7.90891 269
7.92903 258
7.94914 266
7.96925 247
7.98937 260
8.00948 261
8.0296 283
8.04971 279
8.06982 255
8.08994 268
8.11005 255
8.13016 265
8.15028 262
8.17039 275
8.1905 295
8.21062 235
8.23073 266
8.25085 244
8.27096 294
8.29107 272
8.31119 284
8.3313 266
8.35141 286
8.37153 262
8.39164 304
8.41176 269
8.43187 298
8.45198 273
8.4721 271
8.49221 282
8.51232 254
8.53244 281
8.55255 264
8.57266 317
8.59278 281
8.61289 300
8.63301 250
8.65312 269
8.67323 259
8.69335 248
8.71346 249
8.73357 280
8.75369 293
8.7738 339
8.79392 289
8.81403 287
8.83414 295
8.85426 269
8.87437 279
8.89448 290
8.9146 292
8.93471 289
8.95483 305
8.97494 298
8.99505 244
9.01517 254
9.03528 284
9.05539 272
9.07551 275
9.09562 244
9.11573 250
9.13585 278
9.15596 282
9.17608 282
9.19619 282
9.2163 267
9.23642 269
9.25653 286
9.27664 239
9.29676 300
9.31687 248
9.33699 268
9.3571 256
9.37721 244
9.39733 263
9.41744 255
9.43755 251
9.45767 250
9.47778 279
9.4979 295
9.51801 269
9.53812 244
9.55824 311
9.57835 302
9.59846 262
9.61858 270
9.63869 250
9.6588 290
9.67892 271
9.69903 268
9.71915 291
9.73926 284
9.75937 249
9.77949 280
9.7996 244
9.81971 250
9.83983 263
9.85994 248
9.88006 270
9.90017 250
9.92028 256
9.9404 304
9.96051 259
9.98062 246
10.00074 258
10.02085 280
10.04097 254
10.06108 255
10.08119 251
10.10131 279
10.12142 268
10.14153 268
10.16165 252
10.18176 240
10.20187 254
10.22199 287
10.2421 242
10.26222 286
10.28233 266
10.30244 294
10.32256 255
10.34267 274
10.36278 266
10.3829 259
10.40301 271
10.42313 260
10.44324 252
10.46335 257
10.48347 227
10.50358 261
10.52369 254
10.54381 262
10.56392 284
10.58403 261
10.60415 262
10.62426 264
10.64438 248
10.66449 270
10.6846 282
10.70472 270
10.72483 280
10.74494 256
10.76506 266
10.78517 261
10.80529 271
10.8254 258
10.84551 247
10.86563 264
10.88574 276
10.90585 251
10.92597 223
10.94608 257
10.9662 284
10.98631 267
11.00642 301
11.02654 262
11.04665 302
11.06676 277
11.08688 265
11.10699 219
11.1271 258
11.14722 289
11.16733 267
11.18745 250
11.20756 277
11.22767 254
11.24779 273
11.2679 268
11.28801 257
11.30813 247
11.32824 256
11.34836 244
11.36847 265
11.38858 290
11.4087 283
11.42881 280
11.44892 276
11.46904 282
11.48915 246
11.50927 251
11.52938 261
11.54949 247
11.56961 285
11.58972 286
11.60983 302
11.62995 276
11.65006 274
11.67017 274
11.69029 268
11.7104 290
11.73052 285
11.75063 272
11.77074 286
11.79086 271
11.81097 308
11.83108 274
11.8512 263
11.87131 312
11.89143 267
11.91154 287
11.93165 282
11.95177 243
11.97188 301
11.99199 271
12.01211 281
12.03222 295
12.05234 291
12.07245 280
12.09256 298
12.11268 277
12.13279 304
12.1529 280
12.17302 307
12.19313 314
12.21324 323
12.23336 317
12.25347 330
12.27359 295
12.2937 304
12.31381 330
12.33393 327
12.35404 272
12.37415 327
12.39427 293
12.41438 314
12.4345 280
12.45461 264
12.47472 282
12.49484 273
12.51495 242
12.53506 284
12.55518 262
12.57529 277
12.5954 298
12.61552 270
12.63563 290
12.65575 252
12.67586 237
12.69597 227
12.71609 261
12.7362 259
12.75631 284
12.77643 261
12.79654 264
12.81666 266
12.83677 227
12.85688 250
12.877 255
12.89711 269
12.91722 251
12.93734 273
12.95745 234
12.97757 258
12.99768 237
13.01779 222
13.03791 247
13.05802 241
13.07813 257
13.09825 274
13.11836 256
13.13847 269
13.15859 248
13.1787 278
13.19882 257
13.21893 266
13.23904 243
13.25916 233
13.27927 236
13.29938 246
13.3195 274
13.33961 275
13.35973 244
13.37984 243
13.39995 235
13.42007 236
13.44018 259
13.46029 240
13.48041 274
13.50052 236
13.52064 276
13.54075 249
13.56086 286
13.58098 275
13.60109 260
13.6212 338
13.64132 338
13.66143 324
13.68154 290
13.70166 273
13.72177 252
13.74189 267
13.762 264
13.78211 224
13.80223 221
13.82234 215
13.84245 220
13.86257 237
13.88268 229
13.9028 220
13.92291 243
13.94302 240
13.96314 240
13.98325 192
14.00336 209
14.02348 223
14.04359 232
14.06371 225
14.08382 208
14.10393 198
14.12405 224
14.14416 234
14.16427 206
14.18439 238
14.2045 246
14.22461 199
14.24473 195
14.26484 220
14.28496 222
14.30507 247
14.32518 195
14.3453 237
14.36541 244
14.38552 213
14.40564 235
14.42575 227
14.44587 223
14.46598 229
14.48609 212
14.50621 210
14.52632 237
14.54643 214
14.56655 214
14.58666 240
14.60677 228
14.62689 194
14.647 221
14.66712 186
14.68723 208
14.70734 218
14.72746 225
14.74757 224
14.76768 214
14.7878 209
14.80791 216
14.82803 218
14.84814 228
14.86825 261
14.88837 218
14.90848 242
14.92859 270
14.94871 235
14.96882 260
14.98894 253
15.00905 221
15.02916 250
15.04928 258
15.06939 244
15.0895 236
15.10962 258
15.12973 203
15.14984 258
15.16996 245
15.19007 208
15.21019 256
15.2303 243
15.25041 197
15.27053 240
15.29064 255
15.31075 209
15.33087 206
15.35098 213
15.3711 215
15.39121 198
15.41132 223
15.43144 237
15.45155 228
15.47166 206
15.49178 204
15.51189 193
15.53201 202
15.55212 220
15.57223 223
15.59235 203
15.61246 214
15.63257 174
15.65269 234
15.6728 215
15.69291 208
15.71303 205
15.73314 176
15.75326 187
15.77337 205
15.79348 196
15.8136 210
15.83371 209
15.85382 225
15.87394 220
15.89405 214
15.91417 200
15.93428 209
15.95439 215
15.97451 179
15.99462 230
16.01473 181
16.03485 219
16.05496 211
16.07508 189
16.09519 183
16.1153 209
16.13542 189
16.15553 196
16.17564 199
16.19576 228
16.21587 216
16.23598 196
16.2561 192
16.27621 202
16.29633 211
16.31644 246
16.33655 177
16.35667 186
16.37678 221
16.39689 211
16.41701 206
16.43712 231
16.45724 202
16.47735 213
16.49746 189
16.51758 191
16.53769 202
16.5578 230
16.57792 212
16.59803 192
16.61814 175
16.63826 190
16.65837 210
16.67849 191
16.6986 220
16.71871 214
16.73883 193
16.75894 195
16.77905 225
16.79917 214
16.81928 201
16.8394 181
16.85951 168
16.87962 208
16.89974 198
16.91985 176
16.93996 200
16.96008 194
16.98019 210
17.00031 245
17.02042 213
17.04053 204
17.06065 214
17.08076 212
17.10087 211
17.12099 231
17.1411 208
17.16121 219
17.18133 185
17.20144 233
17.22156 191
17.24167 209
17.26178 233
17.2819 219
17.30201 209
17.32212 206
17.34224 206
17.36235 210
17.38247 232
17.40258 223
17.42269 203
17.44281 211
17.46292 200
17.48303 200
17.50315 183
17.52326 203
17.54338 201
17.56349 186
17.5836 212
17.60372 200
17.62383 199
17.64394 229
17.66406 231
17.68417 195
17.70428 218
17.7244 197
17.74451 207
17.76463 209
17.78474 206
17.80485 209
17.82497 187
17.84508 201
17.86519 217
17.88531 219
17.90542 210
17.92554 209
17.94565 195
17.96576 217
17.98588 200
18.00599 184
18.0261 208
18.04622 212
18.06633 221
18.08645 215
18.10656 202
18.12667 222
18.14679 224
18.1669 194
18.18701 194
18.20713 192
18.22724 216
18.24735 210
18.26747 196
18.28758 190
18.3077 180
18.32781 239
18.34792 187
18.36804 221
18.38815 215
18.40826 231
18.42838 195
18.44849 227
18.46861 197
18.48872 217
18.50883 210
18.52895 211
18.54906 198
18.56917 204
18.58929 207
18.6094 212
18.62951 195
18.64963 209
18.66974 216
18.68986 204
18.70997 200
18.73008 213
18.7502 223
18.77031 208
18.79042 245
18.81054 205
18.83065 208
18.85077 205
18.87088 202
18.89099 219
18.91111 205
18.93122 229
18.95133 204
18.97145 229
18.99156 190
19.01168 214
19.03179 206
19.0519 212
19.07202 202
19.09213 204
19.11224 199
19.13236 204
19.15247 215
19.17258 240
19.1927 252
19.21281 232
19.23293 226
19.25304 242
19.27315 242
19.29327 225
19.31338 236
19.33349 249
19.35361 240
19.37372 246
19.39384 258
19.41395 277
19.43406 257
19.45418 220
19.47429 245
19.4944 227
19.51452 286
19.53463 274
19.55475 245
19.57486 274
19.59497 302
19.61509 292
19.6352 283
19.65531 335
19.67543 293
19.69554 305
19.71565 340
19.73577 331
19.75588 352
19.776 401
19.79611 347
19.81622 390
19.83634 379
19.85645 367
19.87656 417
19.89668 392
19.91679 413
19.93691 376
19.95702 399
19.97713 382
19.99725 390
20.01736 426
20.03747 413
20.05759 399
20.0777 397
20.09782 342
20.11793 358
20.13804 375
20.15816 358
20.17827 391
20.19838 404
20.2185 385
20.23861 429
20.25872 367
20.27884 401
20.29895 414
20.31907 444
20.33918 399
20.35929 387
20.37941 421
20.39952 417
20.41963 406
20.43975 451
20.45986 409
20.47998 428
20.50009 430
20.5202 484
20.54032 473
20.56043 465
20.58054 507
20.60066 509
20.62077 524
20.64088 619
20.661 651
20.68111 770
20.70123 982
20.72134 1283
20.74145 1724
20.76157 2455
20.78168 3224
20.80179 4213
20.82191 5302
20.84202 5908
20.86214 5700
20.88225 5234
20.90236 4076
20.92248 3009
20.94259 2125
20.9627 1531
20.98282 1237
21.00293 1128
21.02305 1026
21.04316 943
21.06327 814
21.08339 748
21.1035 642
21.12361 569
21.14373 494
21.16384 472
21.18395 454
21.20407 424
21.22418 420
21.2443 410
21.26441 396
21.28452 404
21.30464 408
21.32475 378
21.34486 371
21.36498 336
21.38509 343
21.40521 345
21.42532 316
21.44543 310
21.46555 351
21.48566 366
21.50577 310
21.52589 301
21.546 366
21.56612 326
21.58623 327
21.60634 342
21.62646 327
21.64657 343
21.66668 335
21.6868 320
21.70691 333
21.72702 336
21.74714 314
21.76725 331
21.78737 326
21.80748 285
21.82759 298
21.84771 309
21.86782 262
21.88793 301
21.90805 309
21.92816 326
21.94828 309
21.96839 346
21.9885 355
22.00862 298
22.02873 334
22.04884 342
22.06896 317
22.08907 306
22.10919 345
22.1293 318
22.14941 339
22.16953 347
22.18964 302
22.20975 310
22.22987 345
22.24998 317
22.27009 398
22.29021 368
22.31032 411
22.33044 377
22.35055 374
22.37066 364
22.39078 340
22.41089 363
22.431 337
22.45112 331
22.47123 360
22.49135 331
22.51146 364
22.53157 310
22.55169 338
22.5718 333
22.59191 335
22.61203 331
22.63214 368
22.65225 344
22.67237 312
22.69248 310
22.7126 265
22.73271 289
22.75282 288
22.77294 287
22.79305 291
22.81316 269
22.83328 330
22.85339 281
22.87351 305
22.89362 298
22.91373 302
22.93385 318
22.95396 300
22.97407 296
22.99419 297
23.0143 335
23.03442 360
23.05453 335
23.07464 346
23.09476 335
23.11487 396
23.13498 380
23.1551 431
23.17521 440
23.19532 465
23.21544 497
23.23555 422
23.25567 415
23.27578 430
23.29589 396
23.31601 384
23.33612 363
23.35623 400
23.37635 383
23.39646 364
23.41658 372
23.43669 322
23.4568 366
23.47692 376
23.49703 404
23.51714 421
23.53726 391
23.55737 409
23.57749 406
23.5976 364
23.61771 357
23.63783 355
23.65794 337
23.67805 384
23.69817 331
23.71828 346
23.73839 374
23.75851 340
23.77862 338
23.79874 377
23.81885 428
23.83896 394
23.85908 378
23.87919 440
23.8993 452
23.91942 441
23.93953 472
23.95965 475
23.97976 484
23.99987 499
24.01999 452
24.0401 413
24.06021 390
24.08033 358
24.10044 373
24.12056 336
24.14067 338
24.16078 316
24.1809 372
24.20101 359
24.22112 332
24.24124 376
24.26135 344
24.28146 338
24.30158 352
24.32169 360
24.34181 362
24.36192 395
24.38203 348
24.40215 356
24.42226 369
24.44237 359
24.46249 326
24.4826 347
24.50272 334
24.52283 308
24.54294 326
24.56306 334
24.58317 311
24.60328 354
24.6234 354
24.64351 377
24.66362 368
24.68374 341
24.70385 364
24.72397 358
24.74408 370
24.76419 391
24.78431 367
24.80442 364
24.82453 374
24.84465 385
24.86476 348
24.88488 368
24.90499 387
24.9251 347
24.94522 365
24.96533 370
24.98544 387
25.00556 332
25.02567 362
25.04579 360
25.0659 342
25.08601 359
25.10613 335
25.12624 323
25.14635 350
25.16647 335
25.18658 323
25.20669 355
25.22681 348
25.24692 317
25.26704 311
25.28715 337
25.30726 356
25.32738 367
25.34749 349
25.3676 359
25.38772 410
25.40783 353
25.42795 431
25.44806 404
25.46817 506
25.48829 494
25.5084 607
25.52851 613
25.54863 671
25.56874 688
25.58886 669
25.60897 680
25.62908 643
25.6492 662
25.66931 613
25.68942 603
25.70954 581
25.72965 503
25.74976 527
25.76988 487
25.78999 443
25.81011 482
25.83022 453
25.85033 441
25.87045 437
25.89056 462
25.91067 472
25.93079 456
25.9509 496
25.97102 507
25.99113 486
26.01124 481
26.03136 535
26.05147 552
26.07158 498
26.0917 513
26.11181 588
26.13193 572
26.15204 596
26.17215 664
26.19227 646
26.21238 735
26.23249 757
26.25261 820
26.27272 898
26.29283 953
26.31295 1036
26.33306 1151
26.35318 1249
26.37329 1508
26.3934 1678
26.41352 1987
26.43363 2244
26.45374 2969
26.47386 3880
26.49397 5320
26.51409 7470
26.5342 10418
26.55431 14357
26.57443 19120
26.59454 23183
26.61465 25872
26.63477 26932
26.65488 24409
26.67499 19428
26.69511 14604
26.71522 10859
26.73534 7247
26.75545 4202
26.77556 2514
26.79568 1759
26.81579 1588
26.8359 1362
26.85602 1271
26.87613 1157
26.89625 1126
26.91636 1067
26.93647 1034
26.95659 1048
26.9767 1019
26.99681 1020
27.01693 1041
27.03704 1067
27.05716 1074
27.07727 1039
27.09738 935
27.1175 836
27.13761 769
27.15772 721
27.17784 665
27.19795 705
27.21806 621
27.23818 631
27.25829 674
27.27841 707
27.29852 717
27.31863 810
27.33875 838
27.35886 944
27.37897 1057
27.39909 1173
27.4192 1241
27.43932 1376
27.45943 1413
27.47954 1321
27.49966 1230
27.51977 1140
27.53988 937
27.56 810
27.58011 696
27.60023 565
27.62034 546
27.64045 507
27.66057 456
27.68068 456
27.70079 454
27.72091 416
27.74102 383
27.76113 446
27.78125 433
27.80136 370
27.82148 388
27.84159 401
27.8617 362
27.88182 393
27.90193 427
27.92204 397
27.94216 396
27.96227 371
27.98239 373
28.0025 374
28.02261 353
28.04273 379
28.06284 330
28.08295 345
28.10307 330
28.12318 319
28.1433 343
28.16341 331
28.18352 317
28.20364 294
28.22375 331
28.24386 301
28.26398 291
28.28409 312
28.3042 278
28.32432 274
28.34443 257
28.36455 284
28.38466 341
28.40477 276
28.42489 273
28.445 290
28.46511 271
28.48523 304
28.50534 242
28.52546 261
28.54557 307
28.56568 296
28.5858 280
28.60591 263
28.62602 249
28.64614 279
28.66625 261
28.68636 250
28.70648 290
28.72659 283
28.74671 292
28.76682 273
28.78693 297
28.80705 301
28.82716 264
28.84727 249
28.86739 288
28.8875 283
28.90762 285
28.92773 266
28.94784 288
28.96796 250
28.98807 245
29.00818 279
29.0283 257
29.04841 293
29.06853 292
29.08864 263
29.10875 267
29.12887 264
29.14898 282
29.16909 271
29.18921 268
29.20932 272
29.22943 272
29.24955 264
29.26966 291
29.28978 309
29.30989 295
29.33 329
29.35012 328
29.37023 329
29.39034 377
29.41046 365
29.43057 371
29.45069 347
29.4708 404
29.49091 364
29.51103 347
29.53114 363
29.55125 348
29.57137 311
29.59148 345
29.6116 348
29.63171 322
29.65182 326
29.67194 334
29.69205 337
29.71216 320
29.73228 326
29.75239 314
29.7725 311
29.79262 350
29.81273 326
29.83285 333
29.85296 364
29.87307 332
29.89319 328
29.9133 336
29.93341 348
29.95353 383
29.97364 331
29.99376 376
30.01387 370
30.03398 361
30.0541 366
30.07421 379
30.09432 394
30.11444 398
30.13455 426
30.15467 443
30.17478 414
30.19489 432
30.21501 461
30.23512 388
30.25523 387
30.27535 364
30.29546 345
30.31557 328
30.33569 303
30.3558 305
30.37592 317
30.39603 299
30.41614 300
30.43626 277
30.45637 286
30.47648 290
30.4966 264
30.51671 270
30.53683 292
30.55694 322
30.57705 291
30.59717 310
30.61728 323
30.63739 329
30.65751 389
30.67762 359
30.69773 430
30.71785 432
30.73796 452
30.75808 413
30.77819 422
30.7983 448
30.81842 409
30.83853 417
30.85864 392
30.87876 393
30.89887 376
30.91899 317
30.9391 314
30.95921 319
30.97933 286
30.99944 280
31.01955 300
31.03967 276
31.05978 255
31.0799 248
31.10001 257
31.12012 244
31.14024 232
31.16035 244
31.18046 272
31.20058 276
31.22069 229
31.2408 253
31.26092 237
31.28103 248
31.30115 238
31.32126 246
31.34137 228
31.36149 220
31.3816 246
31.40171 265
31.42183 228
31.44194 232
31.46206 199
31.48217 235
31.50228 248
31.5224 232
31.54251 235
31.56262 248
31.58274 258
31.60285 249
31.62297 248
31.64308 221
31.66319 242
31.68331 218
31.70342 245
31.72353 218
31.74365 233
31.76376 226
31.78387 217
31.80399 236
31.8241 237
31.84422 241
31.86433 226
31.88444 254
31.90456 214
31.92467 219
31.94478 246
31.9649 250
31.98501 228
32.00513 248
32.02524 265
32.04535 240
32.06547 260
32.08558 272
32.10569 283
32.12581 281
32.14592 309
32.16604 298
32.18615 258
32.20626 271
32.22638 270
32.24649 302
32.2666 313
32.28672 289
32.30683 294
32.32694 277
32.34706 319
32.36717 284
32.38729 315
32.4074 313
32.42751 319
32.44763 305
32.46774 310
32.48785 291
32.50797 277
32.52808 290
32.5482 318
32.56831 290
32.58842 253
32.60854 246
32.62865 228
32.64876 227
32.66888 236
32.68899 256
32.7091 226
32.72922 209
32.74933 206
32.76945 229
32.78956 196
32.80967 252
32.82979 236
32.8499 238
32.87001 228
32.89013 231
32.91024 224
32.93036 259
32.95047 215
32.97058 267
32.9907 253
33.01081 237
33.03092 242
33.05104 256
33.07115 235
33.09127 231
33.11138 263
33.13149 243
33.15161 240
33.17172 250
33.19183 282
33.21195 257
33.23206 258
33.25217 231
33.27229 239
33.2924 233
33.31252 269
33.33263 255
33.35274 238
33.37286 205
33.39297 229
33.41308 242
33.4332 223
33.45331 231
33.47343 244
33.49354 219
33.51365 212
33.53377 214
33.55388 270
33.57399 221
33.59411 224
33.61422 215
33.63434 201
33.65445 219
33.67456 201
33.69468 221
33.71479 202
33.7349 246
33.75502 214
33.77513 211
33.79524 225
33.81536 227
33.83547 237
33.85559 234
33.8757 201
33.89581 217
33.91593 255
33.93604 245
33.95615 219
33.97627 227
33.99638 213
34.0165 244
34.03661 240
34.05672 247
34.07684 266
34.09695 283
34.11706 317
34.13718 282
34.15729 311
34.17741 296
34.19752 321
34.21763 341
34.23775 356
34.25786 325
34.27797 324
34.29809 335
34.3182 332
34.33831 312
34.35843 299
34.37854 335
34.39866 325
34.41877 294
34.43888 294
34.459 322
34.47911 300
34.49922 322
34.51934 297
34.53945 323
34.55957 289
34.57968 341
34.59979 343
34.61991 302
34.64002 310
34.66013 351
34.68025 334
34.70036 324
34.72047 322
34.74059 363
34.7607 361
34.78082 384
34.80093 355
34.82104 374
34.84116 356
34.86127 384
34.88138 400
34.9015 379
34.92161 350
34.94173 415
34.96184 378
34.98195 405
35.00207 383
35.02218 413
35.04229 359
35.06241 375
35.08252 347
35.10264 372
35.12275 358
35.14286 384
35.16298 369
35.18309 367
35.2032 384
35.22332 331
35.24343 330
35.26354 378
35.28366 371
35.30377 350
35.32389 329
35.344 331
35.36411 356
35.38423 375
35.40434 369
35.42445 386
35.44457 384
35.46468 365
35.4848 356
35.50491 377
35.52502 412
35.54514 421
35.56525 376
35.58536 388
35.60548 364
35.62559 352
35.64571 352
35.66582 329
35.68593 382
35.70605 349
35.72616 337
35.74627 353
35.76639 327
35.7865 298
35.80661 335
35.82673 296
35.84684 332
35.86696 334
35.88707 282
35.90718 329
35.9273 293
35.94741 276
35.96752 314
35.98764 313
36.00775 308
36.02787 343
36.04798 293
36.06809 300
36.08821 304
36.10832 286
36.12843 296
36.14855 284
36.16866 315
36.18878 307
36.20889 293
36.229 324
36.24912 343
36.26923 333
36.28934 362
36.30946 391
36.32957 429
36.34968 493
36.3698 529
36.38991 655
36.41003 769
36.43014 1041
36.45025 1196
36.47037 1492
36.49048 1719
36.51059 1938
36.53071 1932
36.55082 1781
36.57094 1503
36.59105 1220
36.61116 1146
36.63128 988
36.65139 850
36.6715 599
36.69162 445
36.71173 418
36.73184 382
36.75196 368
36.77207 336
36.79219 315
36.8123 315
36.83241 309
36.85253 328
36.87264 312
36.89275 326
36.91287 332
36.93298 341
36.9531 320
36.97321 306
36.99332 290
37.01344 321
37.03355 305
37.05366 304
37.07378 303
37.09389 299
37.11401 299
37.13412 263
37.15423 289
37.17435 302
37.19446 274
37.21457 266
37.23469 271
37.2548 267
37.27491 270
37.29503 251
37.31514 267
37.33526 281
37.35537 258
37.37548 239
37.3956 264
37.41571 256
37.43582 286
37.45594 285
37.47605 236
37.49617 245
37.51628 259
37.53639 288
37.55651 271
37.57662 283
37.59673 276
37.61685 278
37.63696 256
37.65708 281
37.67719 267
37.6973 256
37.71742 298
37.73753 266
37.75764 237
37.77776 250
37.79787 242
37.81798 255
37.8381 250
37.85821 262
37.87833 309
37.89844 254
37.91855 256
37.93867 237
37.95878 287
37.97889 245
37.99901 273
38.01912 265
38.03924 281
38.05935 251
38.07946 259
38.09958 247
38.11969 233
38.1398 271
38.15992 272
38.18003 263
38.20015 256
38.22026 286
38.24037 272
38.26049 289
38.2806 271
38.30071 260
38.32083 268
38.34094 287
38.36105 270
38.38117 282
38.40128 265
38.4214 252
38.44151 298
38.46162 307
38.48174 285
38.50185 307
38.52196 295
38.54208 310
38.56219 319
38.58231 304
38.60242 288
38.62253 287
38.64265 290
38.66276 264
38.68287 290
38.70299 254
38.7231 266
38.74321 258
38.76333 240
38.78344 255
38.80356 253
38.82367 263
38.84378 272
38.8639 262
38.88401 257
38.90412 282
38.92424 256
38.94435 234
38.96447 238
38.98458 233
39.00469 268
39.02481 234
39.04492 265
39.06503 249
39.08515 265
39.10526 268
39.12538 290
39.14549 292
39.1656 292
39.18572 295
39.20583 321
39.22594 359
39.24606 386
39.26617 424
39.28628 482
39.3064 576
39.32651 677
39.34663 958
39.36674 1082
39.38685 1377
39.40697 1494
39.42708 1631
39.44719 1668
39.46731 1613
39.48742 1374
39.50754 1142
39.52765 1066
39.54776 954
39.56788 872
39.58799 643
39.6081 497
39.62822 403
39.64833 340
39.66845 326
39.68856 304
39.70867 272
39.72879 265
39.7489 285
39.76901 269
39.78913 233
39.80924 237
39.82935 255
39.84947 246
39.86958 252
39.8897 245
39.90981 257
39.92992 253
39.95004 256
39.97015 272
39.99026 262
40.01038 289
40.03049 289
40.05061 321
40.07072 279
40.09083 342
40.11095 387
40.13106 410
40.15117 506
40.17129 588
40.1914 688
40.21152 760
40.23163 866
40.25174 995
40.27186 948
40.29197 898
40.31208 780
40.3322 643
40.35231 585
40.37242 578
40.39254 519
40.41265 431
40.43277 386
40.45288 298
40.47299 258
40.49311 258
40.51322 273
40.53333 257
40.55345 276
40.57356 240
40.59368 247
40.61379 244
40.6339 253
40.65402 255
40.67413 232
40.69424 219
40.71436 209
40.73447 262
40.75458 231
40.7747 235
40.79481 238
40.81493 234
40.83504 225
40.85515 246
40.87527 251
40.89538 245
40.91549 229
40.93561 228
40.95572 241
40.97584 262
40.99595 257
41.01606 235
41.03618 241
41.05629 245
41.0764 244
41.09652 235
41.11663 219
41.13675 215
41.15686 243
41.17697 220
41.19709 201
41.2172 243
41.23731 234
41.25743 224
41.27754 216
41.29765 241
41.31777 215
41.33788 192
41.358 233
41.37811 245
41.39822 207
41.41834 233
41.43845 253
41.45856 251
41.47868 250
41.49879 243
41.51891 236
41.53902 267
41.55913 243
41.57925 260
41.59936 276
41.61947 276
41.63959 293
41.6597 333
41.67982 356
41.69993 344
41.72004 371
41.74016 403
41.76027 420
41.78038 424
41.8005 387
41.82061 381
41.84072 359
41.86084 337
41.88095 323
41.90107 321
41.92118 268
41.94129 281
41.96141 261
41.98152 259
42.00163 240
42.02175 270
42.04186 256
42.06198 248
42.08209 244
42.1022 234
42.12232 260
42.14243 271
42.16254 293
42.18266 323
42.20277 361
42.22289 372
42.243 346
42.26311 431
42.28323 478
42.30334 572
42.32345 692
42.34357 839
42.36368 980
42.38379 1143
42.40391 1281
42.42402 1351
42.44414 1244
42.46425 1116
42.48436 954
42.50448 852
42.52459 783
42.5447 773
42.56482 619
42.58493 513
42.60505 415
42.62516 319
42.64527 303
42.66539 280
42.6855 265
42.70561 298
42.72573 273
42.74584 256
42.76595 271
42.78607 255
42.80618 248
42.8263 262
42.84641 246
42.86652 247
42.88664 208
42.90675 217
42.92686 229
42.94698 241
42.96709 239
42.98721 206
43.00732 228
43.02743 203
43.04755 183
43.06766 204
43.08777 220
43.10789 209
43.128 233
43.14812 238
43.16823 225
43.18834 202
43.20846 210
43.22857 227
43.24868 227
43.2688 189
43.28891 204
43.30902 199
43.32914 218
43.34925 210
43.36937 228
43.38948 212
43.40959 218
43.42971 201
43.44982 210
43.46993 218
43.49005 232
43.51016 227
43.53028 215
43.55039 203
43.5705 202
43.59062 214
43.61073 220
43.63084 198
43.65096 244
43.67107 217
43.69119 220
43.7113 192
43.73141 215
43.75153 230
43.77164 197
43.79175 218
43.81187 177
43.83198 212
43.85209 195
43.87221 228
43.89232 199
43.91244 186
43.93255 213
43.95266 203
43.97278 201
43.99289 221
44.013 211
44.03312 216
44.05323 238
44.07335 220
44.09346 215
44.11357 202
44.13369 230
44.1538 220
44.17391 205
44.19403 200
44.21414 218
44.23426 247
44.25437 194
44.27448 231
44.2946 222
44.31471 198
44.33482 196
44.35494 211
44.37505 214
44.39516 200
44.41528 221
44.43539 226
44.45551 215
44.47562 185
44.49573 202
44.51585 220
44.53596 217
44.55607 213
44.57619 206
44.5963 214
44.61642 207
44.63653 193
44.65664 204
44.67676 198
44.69687 204
44.71698 207
44.7371 219
44.75721 211
44.77732 201
44.79744 232
44.81755 187
44.83767 206
44.85778 222
44.87789 207
44.89801 182
44.91812 202
44.93823 188
44.95835 221
44.97846 227
44.99858 211
45.01869 211
45.0388 233
45.05892 224
45.07903 218
45.09914 201
45.11926 206
45.13937 198
45.15949 244
45.1796 235
45.19971 223
45.21983 217
45.23994 224
45.26005 213
45.28017 220
45.30028 241
45.32039 226
45.34051 247
45.36062 239
45.38074 234
45.40085 252
45.42096 270
45.44108 284
45.46119 292
45.4813 281
45.50142 320
45.52153 331
45.54165 331
45.56176 327
45.58187 348
45.60199 386
45.6221 463
45.64221 473
45.66233 580
45.68244 607
45.70256 687
45.72267 871
45.74278 938
45.7629 951
45.78301 846
45.80312 843
45.82324 671
45.84335 634
45.86346 583
45.88358 601
45.90369 519
45.92381 466
45.94392 371
45.96403 301
45.98415 293
46.00426 246
46.02437 269
46.04449 244
46.0646 227
46.08472 233
46.10483 224
46.12494 225
46.14506 222
46.16517 245
46.18528 253
46.2054 245
46.22551 212
46.24563 232
46.26574 256
46.28585 221
46.30597 216
46.32608 193
46.34619 221
46.36631 209
46.38642 186
46.40653 191
46.42665 191
46.44676 202
46.46688 197
46.48699 222
46.5071 190
46.52722 216
46.54733 176
46.56744 197
46.58756 204
46.60767 171
46.62779 192
46.6479 195
46.66801 224
46.68813 199
46.70824 207
46.72835 201
46.74847 201
46.76858 195
46.78869 182
46.80881 234
46.82892 220
46.84904 210
46.86915 223
46.88926 232
46.90938 237
46.92949 216
46.9496 220
46.96972 181
46.98983 236
47.00995 201
47.03006 237
47.05017 222
47.07029 236
47.0904 245
47.11051 245
47.13063 232
47.15074 249
47.17086 191
47.19097 241
47.21108 233
47.2312 234
47.25131 227
47.27142 223
47.29154 209
47.31165 223
47.33176 200
47.35188 227
47.37199 248
47.39211 218
47.41222 245
47.43233 244
47.45245 220
47.47256 222
47.49267 240
47.51279 236
47.5329 235
47.55302 230
47.57313 196
47.59324 217
47.61336 206
47.63347 219
47.65358 208
47.6737 200
47.69381 171
47.71393 171
47.73404 196
47.75415 184
47.77427 206
47.79438 197
47.81449 227
47.83461 185
47.85472 219
47.87483 195
47.89495 182
47.91506 187
47.93518 218
47.95529 186
47.9754 205
47.99552 201
48.01563 199
48.03574 191
48.05586 215
48.07597 188
48.09609 199
48.1162 197
48.13631 209
48.15643 202
48.17654 203
48.19665 198
48.21677 208
48.23688 222
48.257 203
48.27711 202
48.29722 186
48.31734 193
48.33745 171
48.35756 224
48.37768 218
48.39779 210
48.4179 196
48.43802 198
48.45813 219
48.47825 182
48.49836 208
48.51847 202
48.53859 206
48.5587 204
48.57881 210
48.59893 198
48.61904 226
48.63916 209
48.65927 237
48.67938 194
48.6995 212
48.71961 236
48.73972 242
48.75984 246
48.77995 236
48.80006 231
48.82018 257
48.84029 224
48.86041 233
48.88052 245
48.90063 272
48.92075 238
48.94086 234
48.96097 259
48.98109 240
49.0012 252
49.02132 230
49.04143 251
49.06154 253
49.08166 248
49.10177 224
49.12188 237
49.142 262
49.16211 230
49.18223 229
49.20234 226
49.22245 219
49.24257 217
49.26268 233
49.28279 252
49.30291 246
49.32302 252
49.34313 253
49.36325 244
49.38336 254
49.40348 214
49.42359 219
49.4437 224
49.46382 244
49.48393 215
49.50404 222
49.52416 246
49.54427 230
49.56439 221
49.5845 228
49.60461 241
49.62473 282
49.64484 263
49.66495 255
49.68507 265
49.70518 285
49.7253 282
49.74541 296
49.76552 344
49.78564 321
49.80575 326
49.82586 377
49.84598 357
49.86609 434
49.8862 432
49.90632 568
49.92643 621
49.94655 703
49.96666 912
49.98677 1074
50.00689 1358
50.027 1635
50.04711 2113
50.06723 2486
50.08734 2705
50.10746 2809
50.12757 2558
50.14768 2291
50.1678 1819
50.18791 1572
50.20802 1580
50.22814 1560
50.24825 1403
50.26837 1204
50.28848 988
50.30859 728
50.32871 566
50.34882 428
50.36893 400
50.38905 363
50.40916 412
50.42927 398
50.44939 426
50.4695 393
50.48962 488
50.50973 432
50.52984 440
50.54996 487
50.57007 456
50.59018 476
50.6103 435
50.63041 389
50.65053 429
50.67064 383
50.69075 370
50.71087 350
50.73098 370
50.75109 336
50.77121 284
50.79132 286
50.81143 328
50.83155 275
50.85166 291
50.87178 270
50.89189 271
50.912 237
50.93212 256
50.95223 247
50.97234 271
50.99246 232
51.01257 220
51.03269 211
51.0528 228
51.07291 239
51.09303 202
51.11314 204
51.13325 218
51.15337 204
51.17348 205
51.1936 204
51.21371 227
51.23382 207
51.25394 201
51.27405 198
51.29416 213
51.31428 176
51.33439 212
51.3545 179
51.37462 207
51.39473 178
51.41485 172
51.43496 183
51.45507 187
51.47519 186
51.4953 198
51.51541 183
51.53553 217
51.55564 209
51.57576 187
51.59587 163
51.61598 196
51.6361 160
51.65621 163
51.67632 172
51.69644 195
51.71655 225
51.73667 182
51.75678 173
51.77689 189
51.79701 194
51.81712 204
51.83723 196
51.85735 193
51.87746 189
51.89757 191
51.91769 163
51.9378 203
51.95792 196
51.97803 183
51.99814 180
52.01826 174
52.03837 187
52.05848 192
52.0786 152
52.09871 187
52.11883 182
52.13894 201
52.15905 185
52.17917 214
52.19928 172
52.21939 192
52.23951 205
52.25962 170
52.27974 186
52.29985 191
52.31996 181
52.34008 191
52.36019 181
52.3803 198
52.40042 206
52.42053 194
52.44064 216
52.46076 203
52.48087 212
52.50099 175
52.5211 221
52.54121 185
52.56133 180
52.58144 187
52.60155 220
52.62167 199
52.64178 225
52.6619 200
52.68201 233
52.70212 204
52.72224 199
52.74235 212
52.76246 190
52.78258 195
52.80269 201
52.8228 197
52.84292 187
52.86303 221
52.88315 212
52.90326 201
52.92337 203
52.94349 221
52.9636 208
52.98371 218
53.00383 235
53.02394 192
53.04406 197
53.06417 190
53.08428 191
53.1044 213
53.12451 200
53.14462 188
53.16474 222
53.18485 201
53.20497 216
53.22508 223
53.24519 225
53.26531 223
53.28542 245
53.30553 223
53.32565 205
53.34576 219
53.36587 204
53.38599 202
53.4061 199
53.42622 204
53.44633 206
53.46644 226
53.48656 196
53.50667 209
53.52678 214
53.5469 229
53.56701 229
53.58713 225
53.60724 217
53.62735 205
53.64747 193
53.66758 213
53.68769 214
53.70781 213
53.72792 206
53.74804 243
53.76815 243
53.78826 198
53.80838 230
53.82849 232
53.8486 244
53.86872 233
53.88883 236
53.90894 212
53.92906 211
53.94917 247
53.96929 232
53.9894 224
54.00951 228
54.02963 234
54.04974 227
54.06985 233
54.08997 220
54.11008 239
54.1302 247
54.15031 233
54.17042 242
54.19054 271
54.21065 233
54.23076 267
54.25088 240
54.27099 240
54.29111 248
54.31122 232
54.33133 224
54.35145 246
54.37156 232
54.39167 241
54.41179 236
54.4319 241
54.45201 216
54.47213 260
54.49224 255
54.51236 262
54.53247 256
54.55258 264
54.5727 281
54.59281 304
54.61292 308
54.63304 351
54.65315 341
54.67327 372
54.69338 416
54.71349 475
54.73361 570
54.75372 629
54.77383 749
54.79395 822
54.81406 878
54.83417 934
54.85429 942
54.8744 848
54.89452 762
54.91463 638
54.93474 598
54.95486 584
54.97497 616
54.99508 577
55.0152 541
55.03531 486
55.05543 374
55.07554 388
55.09565 332
55.11577 347
55.13588 338
55.15599 340
55.17611 366
55.19622 417
55.21634 395
55.23645 488
55.25656 504
55.27668 549
55.29679 555
55.3169 491
55.33702 483
55.35713 450
55.37724 408
55.39736 380
55.41747 383
55.43759 401
55.4577 382
55.47781 376
55.49793 307
55.51804 296
55.53815 268
55.55827 266
55.57838 233
55.5985 227
55.61861 229
55.63872 208
55.65884 229
55.67895 225
55.69906 244
55.71918 215
55.73929 234
55.75941 233
55.77952 240
55.79963 219
55.81975 216
55.83986 197
55.85997 226
55.88009 219
55.9002 223
55.92031 191
55.94043 212
55.96054 218
55.98066 192
56.00077 204
56.02088 231
56.041 203
56.06111 206
56.08122 201
56.10134 221
56.12145 198
56.14157 203
56.16168 199
56.18179 206
56.20191 206
56.22202 217
56.24213 191
56.26225 193
56.28236 204
56.30248 198
56.32259 222
56.3427 199
56.36282 200
56.38293 192
56.40304 212
56.42316 211
56.44327 183
56.46338 211
56.4835 209
56.50361 186
56.52373 200
56.54384 203
56.56395 215
56.58407 206
56.60418 199
56.62429 206
56.64441 206
56.66452 200
56.68464 189
56.70475 224
56.72486 214
56.74498 237
56.76509 242
56.7852 216
56.80532 202
56.82543 222
56.84554 192
56.86566 220
56.88577 223
56.90589 198
56.926 218
56.94611 204
56.96623 222
56.98634 198
57.00645 200
57.02657 226
57.04668 204
57.0668 208
57.08691 220
57.10702 248
57.12714 264
57.14725 270
57.16736 255
57.18748 234
57.20759 262
57.22771 230
57.24782 206
57.26793 242
57.28805 224
57.30816 234
57.32827 235
57.34839 244
57.3685 243
57.38861 225
57.40873 209
57.42884 195
57.44896 217
57.46907 207
57.48918 202
57.5093 223
57.52941 214
57.54952 202
57.56964 195
57.58975 202
57.60987 221
57.62998 180
57.65009 200
57.67021 205
57.69032 187
57.71043 188
57.73055 205
57.75066 190
57.77078 195
57.79089 205
57.811 191
57.83112 205
57.85123 192
57.87134 187
57.89146 233
57.91157 180
57.93168 182
57.9518 203
57.97191 211
57.99203 196
58.01214 178
58.03225 222
58.05237 194
58.07248 211
58.09259 178
58.11271 183
58.13282 208
58.15294 192
58.17305 208
58.19316 187
58.21328 225
58.23339 215
58.2535 193
58.27362 181
58.29373 231
58.31385 200
58.33396 185
58.35407 203
58.37419 194
58.3943 213
58.41441 216
58.43453 187
58.45464 214
58.47475 193
58.49487 227
58.51498 206
58.5351 196
58.55521 200
58.57532 231
58.59544 224
58.61555 222
58.63566 228
58.65578 219
58.67589 250
58.69601 236
58.71612 216
58.73623 212
58.75635 224
58.77646 212
58.79657 216
58.81669 213
58.8368 217
58.85691 218
58.87703 201
58.89714 195
58.91726 185
58.93737 192
58.95748 218
58.9776 185
58.99771 184
59.01782 181
59.03794 191
59.05805 199
59.07817 182
59.09828 202
59.11839 179
59.13851 192
59.15862 223
59.17873 207
59.19885 196
59.21896 186
59.23908 218
59.25919 200
59.2793 198
59.29942 186
59.31953 197
59.33964 217
59.35976 213
59.37987 218
59.39998 202
59.4201 221
59.44021 244
59.46033 254
59.48044 228
59.50055 245
59.52067 244
59.54078 267
59.56089 239
59.58101 259
59.60112 318
59.62124 314
59.64135 316
59.66146 346
59.68158 390
59.70169 441
59.7218 483
59.74192 548
59.76203 620
59.78215 716
59.80226 858
59.82237 1023
59.84249 1208
59.8626 1441
59.88271 1624
59.90283 1787
59.92294 1818
59.94305 1746
59.96317 1453
59.98328 1229
60.0034 1053
60.02351 996
60.04362 992
60.06374 1010
60.08385 1016
60.10396 914
60.12408 779
60.14419 586
60.16431 493
60.18442 378
60.20453 340
60.22465 297
60.24476 273
60.26487 234
60.28499 244
60.3051 213
60.32522 243
60.34533 253
60.36544 213
60.38556 216
60.40567 204
60.42578 232
60.4459 210
60.46601 224
60.48612 230
60.50624 218
60.52635 213
60.54647 226
60.56658 211
60.58669 215
60.60681 200
60.62692 201
60.64703 214
60.66715 193
60.68726 206
60.70738 208
60.72749 226
60.7476 210
60.76772 213
60.78783 208
60.80794 202
60.82806 226
60.84817 195
60.86828 220
60.8884 199
60.90851 217
60.92863 215
60.94874 203
60.96885 214
60.98897 234
61.00908 205
61.02919 217
61.04931 220
61.06942 215
61.08954 232
61.10965 247
61.12976 241
61.14988 232
61.16999 244
61.1901 237
61.21022 227
61.23033 248
61.25045 241
61.27056 246
61.29067 200
61.31079 240
61.3309 234
61.35101 245
61.37113 217
61.39124 224
61.41135 214
61.43147 236
61.45158 212
61.4717 208
61.49181 217
61.51192 208
61.53204 230
61.55215 214
61.57226 235
61.59238 219
61.61249 220
61.63261 226
61.65272 238
61.67283 201
61.69295 225
61.71306 270
61.73317 242
61.75329 220
61.7734 238
61.79352 220
61.81363 223
61.83374 236
61.85386 213
61.87397 212
61.89408 270
61.9142 240
61.93431 280
61.95442 251
61.97454 221
61.99465 235
62.01477 243
62.03488 230
62.05499 242
62.07511 226
62.09522 267
62.11533 244
62.13545 257
62.15556 274
62.17568 242
62.19579 241
62.2159 262
62.23602 277
62.25613 274
62.27624 247
62.29636 259
62.31647 256
62.33659 266
62.3567 275
62.37681 248
62.39693 247
62.41704 243
62.43715 237
62.45727 224
62.47738 223
62.49749 220
62.51761 253
62.53772 237
62.55784 234
62.57795 248
62.59806 205
62.61818 201
62.63829 210
62.6584 246
62.67852 222
62.69863 231
62.71875 202
62.73886 204
62.75897 219
62.77909 203
62.7992 232
62.81931 217
62.83943 225
62.85954 232
62.87965 197
62.89977 226
62.91988 204
62.94 223
62.96011 210
62.98022 232
63.00034 207
63.02045 207
63.04056 200
63.06068 228
63.08079 218
63.10091 220
63.12102 243
63.14113 228
63.16125 219
63.18136 214
63.20147 218
63.22159 214
63.2417 196
63.26182 217
63.28193 211
63.30204 206
63.32216 196
63.34227 183
63.36238 211
63.3825 201
63.40261 214
63.42272 220
63.44284 221
63.46295 230
63.48307 218
63.50318 200
63.52329 206
63.54341 190
63.56352 219
63.58363 224
63.60375 211
63.62386 205
63.64398 228
63.66409 236
63.6842 233
63.70432 225
63.72443 288
63.74454 240
63.76466 285
63.78477 281
63.80489 285
63.825 306
63.84511 336
63.86523 346
63.88534 394
63.90545 403
63.92557 457
63.94568 481
63.96579 534
63.98591 548
64.00602 513
64.02614 468
64.04625 462
64.06636 407
64.08648 360
64.10659 328
64.1267 360
64.14682 364
64.16693 379
64.18705 353
64.20716 348
64.22727 274
64.24739 278
64.2675 246
64.28761 202
64.30773 206
64.32784 240
64.34796 198
64.36807 209
64.38818 221
64.4083 183
64.42841 226
64.44852 199
64.46864 190
64.48875 213
64.50886 194
64.52898 203
64.54909 188
64.56921 209
64.58932 180
64.60943 203
64.62955 182
64.64966 207
64.66977 194
64.68989 184
64.71 177
64.73012 163
64.75023 183
64.77034 191
64.79046 207
64.81057 217
64.83068 189
64.8508 203
64.87091 185
64.89102 203
64.91114 203
64.93125 188
64.95137 203
64.97148 190
64.99159 196
65.01171 217
65.03182 193
65.05193 213
65.07205 221
65.09216 236
65.11228 232
65.13239 204
65.1525 217
65.17262 223
65.19273 209
65.21284 217
65.23296 225
65.25307 209
65.27319 188
65.2933 230
65.31341 227
65.33353 209
65.35364 201
65.37375 182
65.39387 207
65.41398 205
65.43409 233
65.45421 198
65.47432 217
65.49444 215
65.51455 205
65.53466 209
65.55478 201
65.57489 156
65.595 202
65.61512 225
65.63523 226
65.65535 222
65.67546 229
65.69557 247
65.71569 260
65.7358 254
65.75591 247
65.77603 264
65.79614 257
65.81626 252
65.83637 235
65.85648 194
65.8766 226
65.89671 235
65.91682 219
65.93694 211
65.95705 234
65.97716 244
65.99728 220
66.01739 198
66.03751 191
66.05762 197
66.07773 198
66.09785 198
66.11796 203
66.13807 189
66.15819 210
66.1783 190
66.19842 223
66.21853 205
66.23864 205
66.25876 208
66.27887 218
66.29898 212
66.3191 202
66.33921 216
66.35933 199
66.37944 225
66.39955 220
66.41967 183
66.43978 214
66.45989 206
66.48001 213
66.50012 193
66.52023 170
66.54035 171
66.56046 205
66.58058 187
66.60069 178
66.6208 170
66.64092 210
66.66103 171
66.68114 169
66.70126 170
66.72137 193
66.74149 193
66.7616 212
66.78171 185
66.80183 206
66.82194 204
66.84205 187
66.86217 217
66.88228 203
66.90239 180
66.92251 217
66.94262 201
66.96274 204
66.98285 204
67.00296 212
67.02308 239
67.04319 187
67.0633 229
67.08342 203
67.10353 238
67.12365 220
67.14376 214
67.16387 224
67.18399 220
67.2041 201
67.22421 239
67.24433 247
67.26444 239
67.28456 207
67.30467 227
67.32478 254
67.3449 240
67.36501 266
67.38512 255
67.40524 265
67.42535 301
67.44546 286
67.46558 346
67.48569 324
67.50581 416
67.52592 430
67.54603 448
67.56615 572
67.58626 635
67.60637 728
67.62649 776
67.6466 932
67.66672 1040
67.68683 1113
67.70694 1132
67.72706 1135
67.74717 989
67.76728 810
67.7874 712
67.80751 727
67.82763 705
67.84774 735
67.86785 759
67.88797 829
67.90808 842
67.92819 877
67.94831 791
67.96842 790
67.98853 874
68.00865 888
68.02876 1034
68.04888 1224
68.06899 1317
68.0891 1438
68.10922 1487
68.12933 1432
68.14944 1381
68.16956 1186
68.18967 1163
68.20979 1166
68.2299 1287
68.25001 1392
68.27013 1455
68.29024 1415
68.31035 1189
68.33047 1093
68.35058 885
68.3707 750
68.39081 668
68.41092 581
68.43104 602
68.45115 645
68.47126 566
68.49138 562
68.51149 420
68.5316 392
68.55172 320
68.57183 287
68.59195 286
68.61206 263
68.63217 236
68.65229 225
68.6724 253
68.69251 220
68.71263 233
68.73274 215
68.75286 216
68.77297 220
68.79308 228
68.8132 235
68.83331 202
68.85342 206
68.87354 208
68.89365 228
68.91376 216
68.93388 194
68.95399 182
68.97411 220
68.99422 218
69.01433 201
69.03445 181
69.05456 197
69.07467 181
69.09479 189
69.1149 210
69.13502 190
69.15513 176
69.17524 188
69.19536 177
69.21547 176
69.23558 193
69.2557 197
69.27581 203
69.29593 185
69.31604 194
69.33615 175
69.35627 186
69.37638 195
69.39649 162
69.41661 186
69.43672 191
69.45683 173
69.47695 184
69.49706 163
69.51718 189
69.53729 174
69.5574 188
69.57752 190
69.59763 189
69.61774 154
69.63786 182
69.65797 193
69.67809 198
69.6982 181
69.71831 184
69.73843 177
69.75854 180
69.77865 175
69.79877 188
69.81888 182
69.839 187
69.85911 180
69.87922 176
69.89934 188
69.91945 161
69.93956 179
69.95968 195
69.97979 181
69.9999 170
70.02002 154
70.04013 174
70.06025 201
70.08036 188
70.10047 160
70.12059 169
70.1407 208
70.16081 184
70.18093 185
70.20104 184
70.22116 211
70.24127 204
70.26138 211
70.2815 182
70.30161 198
70.32172 203
70.34184 168
70.36195 207
70.38207 167
70.40218 186
70.42229 178
70.44241 158
70.46252 185
70.48263 188
70.50275 194
70.52286 200
70.54297 188
70.56309 175
70.5832 187
70.60332 191
70.62343 165
70.64354 202
70.66366 168
70.68377 184
70.70388 187
70.724 171
70.74411 174
70.76423 200
70.78434 189
70.80445 164
70.82457 191
70.84468 187
70.86479 159
70.88491 180
70.90502 174
70.92513 169
70.94525 182
70.96536 168
70.98548 171
71.00559 175
71.0257 195
71.04582 214
71.06593 166
71.08604 173
71.10616 176
71.12627 172
71.14639 197
71.1665 166
71.18661 167
71.20673 148
71.22684 173
71.24695 165
71.26707 179
71.28718 161
71.3073 177
71.32741 185
71.34752 178
71.36764 198
71.38775 155
71.40786 180
71.42798 176
71.44809 219
71.4682 199
71.48832 198
71.50843 190
71.52855 192
71.54866 194
71.56877 175
71.58889 186
71.609 199
71.62911 204
71.64923 209
71.66934 203
71.68946 197
71.70957 169
71.72968 204
71.7498 213
71.76991 185
71.79002 209
71.81014 212
71.83025 193
71.85037 178
71.87048 201
71.89059 193
71.91071 180
71.93082 213
71.95093 208
71.97105 202
71.99116 211
72.01127 229
72.03139 195
72.0515 201
72.07162 190
72.09173 205
72.11184 206
72.13196 207
72.15207 197
72.17218 211
72.1923 184
72.21241 190
72.23253 218
72.25264 197
72.27275 195
72.29287 214
72.31298 194
72.33309 194
72.35321 183
72.37332 196
72.39344 182
72.41355 187
72.43366 206
72.45378 207
72.47389 212
72.494 192
72.51412 178
72.53423 181
72.55434 197
72.57446 229
72.59457 175
72.61469 210
72.6348 184
72.65491 205
72.67503 168
72.69514 205
72.71525 194
72.73537 189
72.75548 197
72.7756 186
72.79571 183
72.81582 207
72.83594 199
72.85605 200
72.87616 200
72.89628 197
72.91639 212
72.9365 206
72.95662 203
72.97673 194
72.99685 226
73.01696 226
73.03707 232
73.05719 213
73.0773 238
73.09741 225
73.11753 238
73.13764 246
73.15776 243
73.17787 226
73.19798 241
73.2181 250
73.23821 256
73.25832 283
73.27844 285
73.29855 336
73.31867 362
73.33878 407
73.35889 405
73.37901 490
73.39912 519
73.41923 534
73.43935 519
73.45946 492
73.47957 417
73.49969 360
73.5198 334
73.53992 336
73.56003 313
73.58014 355
73.60026 358
73.62037 356
73.64048 355
73.6606 321
73.68071 298
73.70083 279
73.72094 272
73.74105 230
73.76117 236
73.78128 227
73.80139 227
73.82151 188
73.84162 217
73.86174 188
73.88185 198
73.90196 219
73.92208 217
73.94219 183
73.9623 186
73.98242 196
74.00253 195
74.02264 188
74.04276 221
74.06287 188
74.08299 178
74.1031 214
74.12321 189
74.14333 228
74.16344 194
74.18355 203
74.20367 214
74.22378 206
74.2439 167
74.26401 191
74.28412 191
74.30424 190
74.32435 188
74.34446 186
74.36458 201
74.38469 193
74.40481 200
74.42492 187
74.44503 200
74.46515 197
74.48526 204
74.50537 189
74.52549 190
74.5456 195
74.56571 185
74.58583 190
74.60594 184
74.62606 172
74.64617 207
74.66628 190
74.6864 198
74.70651 186
74.72662 177
74.74674 199
74.76685 180
74.78697 185
74.80708 197
74.82719 181
74.84731 217
74.86742 206
74.88753 204
74.90765 206
74.92776 170
74.94787 184
74.96799 181
74.9881 216
75.00822 208
