3.00117 20926
3.02128 20639
3.0414 19744
3.06151 19139
3.08162 18855
3.10174 17873
3.12185 17779
3.14197 16965
3.16208 16466
3.18219 16378
3.20231 15661
3.22242 15305
3.24253 14841
3.26265 14170
3.28276 14188
3.30288 13359
3.32299 13246
3.3431 12505
3.36322 12122
3.38333 11914
3.40344 11512
3.42356 11310
3.44367 10607
3.46379 10392
3.4839 10171
3.50401 9643
3.52413 9347
3.54424 8913
3.56435 8633
3.58447 8497
3.60458 7752
3.62469 7721
3.64481 7318
3.66492 7112
3.68504 6888
3.70515 6570
3.72526 6513
3.74538 5954
3.76549 5846
3.7856 5707
3.80572 5364
3.82583 5301
3.84595 4943
3.86606 4554
3.88617 4543
3.90629 4336
3.9264 4248
3.94651 3870
3.96663 3818
3.98674 3697
4.00686 3434
4.02697 3483
4.04708 3053
4.0672 2961
4.08731 2788
4.10742 2821
4.12754 2665
4.14765 2436
4.16776 2302
4.18788 2387
4.20799 2182
4.22811 2182
4.24822 1959
4.26833 1861
4.28845 1846
4.30856 1843
4.32867 1796
4.34879 1552
4.3689 1529
4.38902 1665
4.40913 1601
4.42924 1570
4.44936 1337
4.46947 1366
4.48958 1415
4.5097 1325
4.52981 1273
4.54992 1209
4.57004 1163
4.59015 1250
4.61027 1192
4.63038 1131
4.65049 1078
4.67061 1096
4.69072 1009
4.71083 1031
4.73095 951
4.75106 1028
4.77118 905
4.79129 982
4.8114 948
4.83152 906
4.85163 888
4.87174 828
4.89186 835
4.91197 770
4.93209 783
4.9522 717
4.97231 720
4.99243 750
5.01254 734
5.03265 642
5.05277 676
5.07288 659
5.09299 629
5.11311 639
5.13322 590
5.15334 560
5.17345 583
5.19356 542
5.21368 604
5.23379 492
5.2539 519
5.27402 517
5.29413 505
5.31425 486
5.33436 448
5.35447 461
5.37459 431
5.3947 447
5.41481 474
5.43493 408
5.45504 393
5.47516 395
5.49527 365
5.51538 424
5.5355 396
5.55561 400
5.57572 372
5.59584 358
5.61595 336
5.63606 366
5.65618 388
5.67629 368
5.69641 302
5.71652 342
5.73663 304
5.75675 307
5.77686 298
5.79697 304
5.81709 350
5.8372 292
5.85732 310
5.87743 283
5.89754 271
5.91766 307
5.93777 263
5.95788 272
5.978 269
5.99811 271
6.01823 245
6.03834 248
6.05845 272
6.07857 269
6.09868 255
6.11879 265
6.13891 274
6.15902 233
6.17913 277
6.19925 264
6.21936 257
6.23948 242
6.25959 217
6.2797 242
6.29982 255
6.31993 275
6.34004 251
6.36016 236
6.38027 249
6.40039 227
6.4205 220
6.44061 192
6.46073 239
6.48084 214
6.50095 298
6.52107 217
6.54118 263
6.56129 212
6.58141 238
6.60152 221
6.62164 224
6.64175 246
6.66186 207
6.68198 249
6.70209 252
6.7222 223
6.74232 209
6.76243 208
6.78255 200
6.80266 223
6.82277 243
6.84289 217
6.863 234
6.88311 234
6.90323 217
6.92334 224
6.94346 244
6.96357 212
6.98368 206
7.0038 212
7.02391 240
7.04402 206
7.06414 240
7.08425 203
7.10436 237
7.12448 218
7.14459 224
7.16471 235
7.18482 215
7.20493 239
7.22505 207
7.24516 261
7.26527 216
7.28539 242
7.3055 216
7.32562 219
7.34573 226
7.36584 235
7.38596 242
7.40607 243
7.42618 232
7.4463 211
7.46641 209
7.48653 231
7.50664 239
7.52675 227
7.54687 223
7.56698 252
7.58709 193
7.60721 218
7.62732 248
7.64743 222
7.66755 243
7.68766 224
7.70778 241
7.72789 220
7.748 223
7.76812 222
7.78823 243
7.80834 238
7.82846 236
7.84857 232
7.86869 213
7.8888 224
7.90891 253
7.92903 248
7.94914 237
7.96925 255
7.98937 253
8.00948 266
8.0296 252
8.04971 240
8.06982 255
8.08994 221
8.11005 229
8.13016 228
8.15028 244
8.17039 243
8.1905 216
8.21062 229
8.23073 269
8.25085 232
8.27096 231
8.29107 245
8.31119 244
8.3313 238
8.35141 205
8.37153 266
8.39164 243
8.41176 248
8.43187 202
8.45198 243
8.4721 258
8.49221 288
8.51232 249
8.53244 271
8.55255 235
8.57266 288
8.59278 267
8.61289 259
8.63301 246
8.65312 258
8.67323 247
8.69335 246
8.71346 249
8.73357 270
8.75369 193
8.7738 247
8.79392 246
8.81403 274
8.83414 250
8.85426 256
8.87437 268
8.89448 254
8.9146 249
8.93471 242
8.95483 209
8.97494 243
8.99505 241
9.01517 250
9.03528 231
9.05539 227
9.07551 271
9.09562 238
9.11573 264
9.13585 265
9.15596 244
9.17608 234
9.19619 230
9.2163 248
9.23642 253
9.25653 213
9.27664 261
9.29676 259
9.31687 247
9.33699 250
9.3571 244
9.37721 259
9.39733 269
9.41744 268
9.43755 261
9.45767 235
9.47778 255
9.4979 239
9.51801 241
9.53812 286
9.55824 260
9.57835 236
9.59846 255
9.61858 210
9.63869 243
9.6588 254
9.67892 280
9.69903 219
9.71915 240
9.73926 262
9.75937 273
9.77949 288
9.7996 258
9.81971 248
9.83983 244
9.85994 224
9.88006 271
9.90017 247
9.92028 242
9.9404 261
9.96051 241
9.98062 249
10.00074 250
10.02085 234
10.04097 259
10.06108 245
10.08119 246
10.10131 241
10.12142 270
10.14153 257
10.16165 274
10.18176 227
10.20187 236
10.22199 247
10.2421 218
10.26222 256
10.28233 219
10.30244 274
10.32256 262
10.34267 231
10.36278 265
10.3829 239
10.40301 252
10.42313 258
10.44324 256
10.46335 237
10.48347 265
10.50358 257
10.52369 281
10.54381 270
10.56392 262
10.58403 237
10.60415 241
10.62426 261
10.64438 263
10.66449 272
10.6846 265
10.70472 246
10.72483 266
10.74494 259
10.76506 267
10.78517 241
10.80529 235
10.8254 252
10.84551 271
10.86563 266
10.88574 252
10.90585 294
10.92597 242
10.94608 227
10.9662 268
10.98631 221
11.00642 234
11.02654 258
11.04665 250
11.06676 243
11.08688 274
11.10699 259
11.1271 271
11.14722 228
11.16733 269
11.18745 243
11.20756 264
11.22767 274
11.24779 284
11.2679 255
11.28801 255
11.30813 274
11.32824 263
11.34836 234
11.36847 277
11.38858 250
11.4087 254
11.42881 224
11.44892 267
11.46904 268
11.48915 252
11.50927 249
11.52938 278
11.54949 246
11.56961 259
11.58972 258
11.60983 264
11.62995 299
11.65006 257
11.67017 294
11.69029 262
11.7104 307
11.73052 311
11.75063 273
11.77074 282
11.79086 240
11.81097 264
11.83108 319
11.8512 291
11.87131 282
11.89143 280
11.91154 268
11.93165 287
11.95177 293
11.97188 285
11.99199 291
12.01211 294
12.03222 322
12.05234 309
12.07245 304
12.09256 339
12.11268 335
12.13279 325
12.1529 308
12.17302 355
12.19313 349
12.21324 386
12.23336 340
12.25347 356
12.27359 357
12.2937 353
12.31381 365
12.33393 349
12.35404 334
12.37415 330
12.39427 358
12.41438 328
12.4345 322
12.45461 309
12.47472 304
12.49484 298
12.51495 265
12.53506 311
12.55518 323
12.57529 282
12.5954 275
12.61552 245
12.63563 247
12.65575 282
12.67586 267
12.69597 248
12.71609 255
12.7362 269
12.75631 258
12.77643 225
12.79654 235
12.81666 235
12.83677 259
12.85688 232
12.877 249
12.89711 234
12.91722 235
12.93734 243
12.95745 260
12.97757 250
12.99768 217
13.01779 238
13.03791 259
13.05802 213
13.07813 242
13.09825 246
13.11836 236
13.13847 238
13.15859 262
13.1787 206
13.19882 227
13.21893 253
13.23904 224
13.25916 252
13.27927 223
13.29938 208
13.3195 231
13.33961 235
13.35973 201
13.37984 251
13.39995 242
13.42007 244
13.44018 242
13.46029 239
13.48041 244
13.50052 271
13.52064 270
13.54075 220
13.56086 248
13.58098 244
13.60109 244
13.6212 239
13.64132 253
13.66143 245
13.68154 226
13.70166 216
13.72177 215
13.74189 228
13.762 231
13.78211 227
13.80223 217
13.82234 250
13.84245 255
13.86257 225
13.88268 230
13.9028 223
13.92291 203
13.94302 209
13.96314 233
13.98325 225
14.00336 189
14.02348 237
14.04359 230
14.06371 228
14.08382 213
14.10393 227
14.12405 224
14.14416 224
14.16427 204
14.18439 224
14.2045 229
14.22461 214
14.24473 217
14.26484 218
14.28496 208
14.30507 215
14.32518 237
14.3453 213
14.36541 220
14.38552 251
14.40564 218
14.42575 210
14.44587 254
14.46598 214
14.48609 224
14.50621 195
14.52632 206
14.54643 204
14.56655 224
14.58666 228
14.60677 219
14.62689 227
14.647 218
14.66712 217
14.68723 202
14.70734 213
14.72746 213
14.74757 221
14.76768 220
14.7878 226
14.80791 230
14.82803 200
14.84814 231
14.86825 210
14.88837 194
14.90848 216
14.92859 202
14.94871 212
14.96882 222
14.98894 218
15.00905 224
15.02916 242
15.04928 240
15.06939 231
15.0895 219
15.10962 223
15.12973 227
15.14984 202
15.16996 201
15.19007 255
15.21019 200
15.2303 233
15.25041 221
15.27053 206
15.29064 219
15.31075 232
15.33087 198
15.35098 216
15.3711 207
15.39121 194
15.41132 217
15.43144 202
15.45155 184
15.47166 214
15.49178 218
15.51189 207
15.53201 190
15.55212 209
15.57223 229
15.59235 200
15.61246 219
15.63257 166
15.65269 226
15.6728 209
15.69291 219
15.71303 205
15.73314 221
15.75326 214
15.77337 193
15.79348 217
15.8136 221
15.83371 204
15.85382 229
15.87394 219
15.89405 205
15.91417 211
15.93428 196
15.95439 202
15.97451 182
15.99462 186
16.01473 195
16.03485 205
16.05496 220
16.07508 187
16.09519 221
16.1153 206
16.13542 188
16.15553 232
16.17564 210
16.19576 198
16.21587 195
16.23598 201
16.2561 210
16.27621 191
16.29633 180
16.31644 206
16.33655 206
16.35667 215
16.37678 188
16.39689 204
16.41701 212
16.43712 214
16.45724 208
16.47735 207
16.49746 231
16.51758 174
16.53769 201
16.5578 206
16.57792 210
16.59803 194
16.61814 178
16.63826 185
16.65837 207
16.67849 204
16.6986 224
16.71871 177
16.73883 192
16.75894 206
16.77905 220
16.79917 218
16.81928 205
16.8394 180
16.85951 202
16.87962 175
16.89974 187
16.91985 195
16.93996 236
16.96008 234
16.98019 199
17.00031 208
17.02042 204
17.04053 215
17.06065 171
17.08076 173
17.10087 198
17.12099 206
17.1411 214
17.16121 208
17.18133 169
17.20144 193
17.22156 198
17.24167 182
17.26178 170
17.2819 201
17.30201 192
17.32212 204
17.34224 177
17.36235 184
17.38247 206
17.40258 225
17.42269 230
17.44281 186
17.46292 212
17.48303 212
17.50315 213
17.52326 218
17.54338 200
17.56349 175
17.5836 193
17.60372 227
17.62383 208
17.64394 213
17.66406 193
17.68417 215
17.70428 217
17.7244 179
17.74451 186
17.76463 211
17.78474 189
17.80485 195
17.82497 224
17.84508 218
17.86519 209
17.88531 189
17.90542 210
17.92554 200
17.94565 213
17.96576 207
17.98588 182
18.00599 217
18.0261 199
18.04622 190
18.06633 200
18.08645 181
18.10656 215
18.12667 194
18.14679 211
18.1669 226
18.18701 200
18.20713 197
18.22724 210
18.24735 211
18.26747 201
18.28758 210
18.3077 197
18.32781 212
18.34792 184
18.36804 187
18.38815 216
18.40826 210
18.42838 195
18.44849 190
18.46861 202
18.48872 182
18.50883 192
18.52895 193
18.54906 224
18.56917 179
18.58929 226
18.6094 206
18.62951 207
18.64963 210
18.66974 222
18.68986 191
18.70997 208
18.73008 207
18.7502 200
18.77031 199
18.79042 204
18.81054 230
18.83065 230
18.85077 241
18.87088 240
18.89099 195
18.91111 215
18.93122 214
18.95133 216
18.97145 223
18.99156 199
19.01168 235
19.03179 191
19.0519 196
19.07202 214
19.09213 215
19.11224 181
19.13236 205
19.15247 217
19.17258 205
19.1927 195
19.21281 228
19.23293 208
19.25304 213
19.27315 214
19.29327 213
19.31338 224
19.33349 229
19.35361 223
19.37372 208
19.39384 240
19.41395 205
19.43406 215
19.45418 202
19.47429 210
19.4944 238
19.51452 257
19.53463 229
19.55475 242
19.57486 234
19.59497 227
19.61509 228
19.6352 243
19.65531 252
19.67543 246
19.69554 277
19.71565 290
19.73577 297
19.75588 264
19.776 284
19.79611 334
19.81622 314
19.83634 321
19.85645 336
19.87656 344
19.89668 361
19.91679 363
19.93691 350
19.95702 337
19.97713 355
19.99725 406
20.01736 357
20.03747 372
20.05759 330
20.0777 321
20.09782 305
20.11793 356
20.13804 352
20.15816 344
20.17827 373
20.19838 351
20.2185 368
20.23861 393
20.25872 362
20.27884 385
20.29895 336
20.31907 342
20.33918 359
20.35929 385
20.37941 427
20.39952 358
20.41963 358
20.43975 370
20.45986 404
20.47998 409
20.50009 434
20.5202 421
20.54032 470
20.56043 439
20.58054 498
20.60066 516
20.62077 526
20.64088 614
20.661 658
20.68111 877
20.70123 1123
20.72134 1498
20.74145 2168
20.76157 2863
20.78168 3870
20.80179 4917
20.82191 6199
20.84202 6958
20.86214 7181
20.88225 6399
20.90236 5206
20.92248 3701
20.94259 2413
20.9627 1515
20.98282 1009
21.00293 797
21.02305 696
21.04316 611
21.06327 592
21.08339 543
21.1035 532
21.12361 475
21.14373 454
21.16384 428
21.18395 444
21.20407 424
21.22418 366
21.2443 405
21.26441 331
21.28452 379
21.30464 378
21.32475 351
21.34486 372
21.36498 357
21.38509 329
21.40521 337
21.42532 352
21.44543 366
21.46555 323
21.48566 320
21.50577 301
21.52589 319
21.546 345
21.56612 281
21.58623 290
21.60634 316
21.62646 338
21.64657 315
21.66668 295
21.6868 308
21.70691 299
21.72702 294
21.74714 286
21.76725 335
21.78737 296
21.80748 273
21.82759 283
21.84771 259
21.86782 296
21.88793 301
21.90805 310
21.92816 311
21.94828 276
21.96839 289
21.9885 285
22.00862 292
22.02873 276
22.04884 306
22.06896 289
22.08907 277
22.10919 275
22.1293 245
22.14941 265
22.16953 265
22.18964 265
22.20975 261
22.22987 279
22.24998 292
22.27009 291
22.29021 302
22.31032 287
22.33044 298
22.35055 270
22.37066 283
22.39078 265
22.41089 277
22.431 299
22.45112 286
22.47123 280
22.49135 268
22.51146 277
22.53157 290
22.55169 302
22.5718 247
22.59191 247
22.61203 285
22.63214 255
22.65225 263
22.67237 241
22.69248 252
22.7126 242
22.73271 237
22.75282 252
22.77294 238
22.79305 254
22.81316 284
22.83328 302
22.85339 301
22.87351 277
22.89362 269
22.91373 248
22.93385 247
22.95396 260
22.97407 260
22.99419 277
23.0143 272
23.03442 302
23.05453 250
23.07464 298
23.09476 264
23.11487 272
23.13498 273
23.1551 268
23.17521 291
23.19532 284
23.21544 256
23.23555 280
23.25567 256
23.27578 265
23.29589 276
23.31601 276
23.33612 254
23.35623 274
23.37635 262
23.39646 286
23.41658 309
23.43669 280
23.4568 295
23.47692 288
23.49703 293
23.51714 309
23.53726 324
23.55737 298
23.57749 321
23.5976 321
23.61771 277
23.63783 321
23.65794 280
23.67805 279
23.69817 268
23.71828 285
23.73839 308
23.75851 297
23.77862 283
23.79874 293
23.81885 263
23.83896 300
23.85908 328
23.87919 275
23.8993 310
23.91942 346
23.93953 343
23.95965 338
23.97976 336
23.99987 391
24.01999 346
24.0401 347
24.06021 314
24.08033 291
24.10044 265
24.12056 283
24.14067 293
24.16078 251
24.1809 282
24.20101 293
24.22112 289
24.24124 270
24.26135 286
24.28146 298
24.30158 303
24.32169 280
24.34181 282
24.36192 299
24.38203 304
24.40215 306
24.42226 268
24.44237 273
24.46249 269
24.4826 300
24.50272 284
24.52283 301
24.54294 303
24.56306 255
24.58317 299
24.60328 336
24.6234 293
24.64351 295
24.66362 308
24.68374 271
24.70385 304
24.72397 304
24.74408 315
24.76419 294
24.78431 320
24.80442 331
24.82453 339
24.84465 312
24.86476 326
24.88488 348
24.90499 355
24.9251 307
24.94522 317
24.96533 332
24.98544 301
25.00556 311
25.02567 321
25.04579 320
25.0659 317
25.08601 306
25.10613 309
25.12624 289
25.14635 325
25.16647 336
25.18658 282
25.20669 314
25.22681 355
25.24692 348
25.26704 356
25.28715 309
25.30726 307
25.32738 324
25.34749 294
25.3676 309
25.38772 316
25.40783 312
25.42795 272
25.44806 300
25.46817 314
25.48829 302
25.5084 325
25.52851 353
25.54863 346
25.56874 410
25.58886 378
25.60897 411
25.62908 414
25.6492 444
25.66931 388
25.68942 458
25.70954 427
25.72965 431
25.74976 432
25.76988 437
25.78999 437
25.81011 463
25.83022 459
25.85033 468
25.87045 475
25.89056 453
25.91067 450
25.93079 470
25.9509 450
25.97102 482
25.99113 493
26.01124 473
26.03136 526
26.05147 531
26.07158 560
26.0917 620
26.11181 573
26.13193 627
26.15204 624
26.17215 709
26.19227 739
26.21238 792
26.23249 927
26.25261 915
26.27272 994
26.29283 1016
26.31295 1066
26.33306 1224
26.35318 1388
26.37329 1546
26.3934 1816
26.41352 2260
26.43363 2910
26.45374 3875
26.47386 5129
26.49397 7021
26.51409 9792
26.5342 13244
26.55431 17688
26.57443 23080
26.59454 27741
26.61465 31684
26.63477 32442
26.65488 29688
26.67499 23816
26.69511 17833
26.71522 13228
26.73534 8809
26.75545 5181
26.77556 2955
26.79568 2093
26.81579 1634
26.8359 1449
26.85602 1378
26.87613 1328
26.89625 1170
26.91636 1068
26.93647 997
26.95659 948
26.9767 833
26.99681 785
27.01693 774
27.03704 748
27.05716 689
27.07727 683
27.09738 618
27.1175 600
27.13761 576
27.15772 512
27.17784 505
27.19795 507
27.21806 489
27.23818 465
27.25829 463
27.27841 498
27.29852 460
27.31863 454
27.33875 536
27.35886 491
27.37897 570
27.39909 565
27.4192 621
27.43932 609
27.45943 619
27.47954 601
27.49966 570
27.51977 533
27.53988 546
27.56 437
27.58011 419
27.60023 414
27.62034 365
27.64045 395
27.66057 380
27.68068 419
27.70079 400
27.72091 422
27.74102 404
27.76113 377
27.78125 412
27.80136 398
27.82148 409
27.84159 415
27.8617 358
27.88182 353
27.90193 372
27.92204 360
27.94216 374
27.96227 358
27.98239 322
28.0025 370
28.02261 354
28.04273 369
28.06284 305
28.08295 311
28.10307 311
28.12318 291
28.1433 313
28.16341 291
28.18352 311
28.20364 307
28.22375 341
28.24386 312
28.26398 313
28.28409 316
28.3042 285
28.32432 335
28.34443 289
28.36455 280
28.38466 300
28.40477 313
28.42489 250
28.445 264
28.46511 310
28.48523 315
28.50534 270
28.52546 271
28.54557 267
28.56568 270
28.5858 300
28.60591 275
28.62602 302
28.64614 269
28.66625 309
28.68636 277
28.70648 264
28.72659 260
28.74671 286
28.76682 289
28.78693 255
28.80705 244
28.82716 267
28.84727 287
28.86739 251
28.8875 245
28.90762 241
28.92773 258
28.94784 260
28.96796 281
28.98807 278
29.00818 233
29.0283 280
29.04841 253
29.06853 287
29.08864 256
29.10875 252
29.12887 264
29.14898 272
29.16909 248
29.18921 244
29.20932 245
29.22943 254
29.24955 236
29.26966 244
29.28978 256
29.30989 231
29.33 261
29.35012 287
29.37023 292
29.39034 250
29.41046 241
29.43057 235
29.45069 259
29.4708 298
29.49091 270
29.51103 248
29.53114 257
29.55125 239
29.57137 263
29.59148 267
29.6116 249
29.63171 258
29.65182 237
29.67194 247
29.69205 262
29.71216 262
29.73228 266
29.75239 282
29.7725 278
29.79262 289
29.81273 285
29.83285 286
29.85296 287
29.87307 291
29.89319 281
29.9133 286
29.93341 249
29.95353 273
29.97364 249
29.99376 268
30.01387 233
30.03398 251
30.0541 239
30.07421 271
30.09432 271
30.11444 260
30.13455 282
30.15467 255
30.17478 241
30.19489 260
30.21501 244
30.23512 252
30.25523 254
30.27535 268
30.29546 258
30.31557 272
30.33569 237
30.3558 241
30.37592 247
30.39603 269
30.41614 225
30.43626 246
30.45637 258
30.47648 258
30.4966 262
30.51671 231
30.53683 245
30.55694 245
30.57705 240
30.59717 244
30.61728 241
30.63739 247
30.65751 258
30.67762 275
30.69773 284
30.71785 268
30.73796 278
30.75808 293
30.77819 266
30.7983 289
30.81842 274
30.83853 285
30.85864 264
30.87876 275
30.89887 285
30.91899 233
30.9391 239
30.95921 228
30.97933 228
30.99944 258
31.01955 232
31.03967 210
31.05978 220
31.0799 219
31.10001 221
31.12012 223
31.14024 214
31.16035 214
31.18046 231
31.20058 224
31.22069 222
31.2408 223
31.26092 213
31.28103 228
31.30115 213
31.32126 235
31.34137 225
31.36149 202
31.3816 245
31.40171 243
31.42183 222
31.44194 232
31.46206 222
31.48217 188
31.50228 236
31.5224 247
31.54251 222
31.56262 220
31.58274 239
31.60285 218
31.62297 258
31.64308 217
31.66319 219
31.68331 214
31.70342 233
31.72353 212
31.74365 227
31.76376 226
31.78387 212
31.80399 206
31.8241 224
31.84422 214
31.86433 203
31.88444 221
31.90456 191
31.92467 226
31.94478 200
31.9649 212
31.98501 212
32.00513 207
32.02524 215
32.04535 234
32.06547 203
32.08558 228
32.10569 193
32.12581 223
32.14592 220
32.16604 231
32.18615 216
32.20626 228
32.22638 227
32.24649 205
32.2666 228
32.28672 211
32.30683 238
32.32694 240
32.34706 241
32.36717 240
32.38729 205
32.4074 256
32.42751 249
32.44763 234
32.46774 250
32.48785 246
32.50797 249
32.52808 240
32.5482 248
32.56831 224
32.58842 250
32.60854 228
32.62865 264
32.64876 216
32.66888 236
32.68899 186
32.7091 215
32.72922 235
32.74933 218
32.76945 249
32.78956 240
32.80967 198
32.82979 208
32.8499 238
32.87001 230
32.89013 271
32.91024 244
32.93036 229
32.95047 235
32.97058 206
32.9907 217
33.01081 243
33.03092 220
33.05104 241
33.07115 259
33.09127 232
33.11138 248
33.13149 234
33.15161 205
33.17172 239
33.19183 217
33.21195 233
33.23206 217
33.25217 232
33.27229 213
33.2924 227
33.31252 240
33.33263 215
33.35274 233
33.37286 217
33.39297 239
33.41308 213
33.4332 226
33.45331 217
33.47343 215
33.49354 204
33.51365 222
33.53377 212
33.55388 210
33.57399 226
33.59411 231
33.61422 242
33.63434 233
33.65445 218
33.67456 218
33.69468 228
33.71479 232
33.7349 229
33.75502 249
33.77513 216
33.79524 201
33.81536 231
33.83547 198
33.85559 206
33.8757 212
33.89581 221
33.91593 207
33.93604 205
33.95615 211
33.97627 209
33.99638 211
34.0165 232
34.03661 195
34.05672 206
34.07684 173
34.09695 226
34.11706 192
34.13718 214
34.15729 216
34.17741 210
34.19752 198
34.21763 199
34.23775 213
34.25786 201
34.27797 208
34.29809 206
34.3182 233
34.33831 238
34.35843 209
34.37854 225
34.39866 227
34.41877 222
34.43888 217
34.459 205
34.47911 234
34.49922 201
34.51934 261
34.53945 223
34.55957 192
34.57968 233
34.59979 279
34.61991 279
34.64002 259
34.66013 247
34.68025 246
34.70036 240
34.72047 254
34.74059 215
34.7607 228
34.78082 277
34.80093 257
34.82104 244
34.84116 283
34.86127 254
34.88138 297
34.9015 266
34.92161 270
34.94173 265
34.96184 274
34.98195 298
35.00207 225
35.02218 264
35.04229 250
35.06241 269
35.08252 258
35.10264 282
35.12275 272
35.14286 261
35.16298 267
35.18309 265
35.2032 263
35.22332 262
35.24343 270
35.26354 261
35.28366 278
35.30377 288
35.32389 295
35.344 250
35.36411 282
35.38423 279
35.40434 287
35.42445 268
35.44457 280
35.46468 278
35.4848 294
35.50491 299
35.52502 337
35.54514 286
35.56525 298
35.58536 309
35.60548 315
35.62559 315
35.64571 298
35.66582 298
35.68593 286
35.70605 266
35.72616 287
35.74627 287
35.76639 252
35.7865 257
35.80661 265
35.82673 271
35.84684 268
35.86696 294
35.88707 273
35.90718 289
35.9273 260
35.94741 286
35.96752 292
35.98764 274
36.00775 279
36.02787 313
36.04798 327
36.06809 303
36.08821 275
36.10832 311
36.12843 280
36.14855 284
36.16866 292
36.18878 286
36.20889 308
36.229 333
36.24912 341
36.26923 382
36.28934 353
36.30946 413
36.32957 476
36.34968 541
36.3698 692
36.38991 831
36.41003 979
36.43014 1162
36.45025 1482
36.47037 1794
36.49048 2055
36.51059 2301
36.53071 2343
36.55082 2131
36.57094 1832
36.59105 1440
36.61116 1295
36.63128 1148
36.65139 880
36.6715 661
36.69162 452
36.71173 386
36.73184 352
36.75196 290
36.77207 320
36.79219 276
36.8123 293
36.83241 286
36.85253 283
36.87264 291
36.89275 334
36.91287 271
36.93298 267
36.9531 249
36.97321 272
36.99332 270
37.01344 279
37.03355 249
37.05366 230
37.07378 247
37.09389 273
37.11401 243
37.13412 263
37.15423 252
37.17435 259
37.19446 233
37.21457 252
37.23469 200
37.2548 236
37.27491 245
37.29503 228
37.31514 233
37.33526 261
37.35537 228
37.37548 251
37.3956 229
37.41571 258
37.43582 230
37.45594 247
37.47605 236
37.49617 257
37.51628 207
37.53639 236
37.55651 274
37.57662 246
37.59673 234
37.61685 217
37.63696 228
37.65708 209
37.67719 211
37.6973 220
37.71742 217
37.73753 211
37.75764 253
37.77776 214
37.79787 274
37.81798 259
37.8381 221
37.85821 243
37.87833 242
37.89844 235
37.91855 226
37.93867 254
37.95878 211
37.97889 243
37.99901 239
38.01912 239
38.03924 222
38.05935 254
38.07946 230
38.09958 216
38.11969 205
38.1398 262
38.15992 247
38.18003 251
38.20015 245
38.22026 245
38.24037 235
38.26049 222
38.2806 256
38.30071 242
38.32083 245
38.34094 286
38.36105 258
38.38117 267
38.40128 265
38.4214 269
38.44151 260
38.46162 251
38.48174 240
38.50185 268
38.52196 270
38.54208 266
38.56219 238
38.58231 237
38.60242 243
38.62253 261
38.64265 256
38.66276 254
38.68287 227
38.70299 280
38.7231 244
38.74321 270
38.76333 242
38.78344 253
38.80356 252
38.82367 220
38.84378 244
38.8639 202
38.88401 238
38.90412 255
38.92424 231
38.94435 218
38.96447 267
38.98458 252
39.00469 251
39.02481 285
39.04492 288
39.06503 256
39.08515 283
39.10526 288
39.12538 323
39.14549 312
39.1656 277
39.18572 346
39.20583 357
39.22594 392
39.24606 436
39.26617 508
39.28628 604
39.3064 756
39.32651 778
39.34663 1136
39.36674 1395
39.38685 1546
39.40697 1832
39.42708 2032
39.44719 2139
39.46731 2032
39.48742 1780
39.50754 1386
39.52765 1218
39.54776 1128
39.56788 1002
39.58799 767
39.6081 528
39.62822 396
39.64833 357
39.66845 305
39.68856 301
39.70867 268
39.72879 301
39.7489 235
39.76901 267
39.78913 260
39.80924 261
39.82935 247
39.84947 241
39.86958 264
39.8897 271
39.90981 244
39.92992 239
39.95004 239
39.97015 268
39.99026 250
40.01038 294
40.03049 317
40.05061 325
40.07072 334
40.09083 378
40.11095 413
40.13106 492
40.15117 526
40.17129 625
40.1914 757
40.21152 883
40.23163 1026
40.25174 1123
40.27186 1183
40.29197 1127
40.31208 940
40.3322 809
40.35231 678
40.37242 655
40.39254 611
40.41265 503
40.43277 380
40.45288 331
40.47299 267
40.49311 280
40.51322 248
40.53333 230
40.55345 245
40.57356 198
40.59368 220
40.61379 232
40.6339 248
40.65402 229
40.67413 226
40.69424 239
40.71436 238
40.73447 206
40.75458 210
40.7747 238
40.79481 231
40.81493 245
40.83504 214
40.85515 228
40.87527 195
40.89538 219
40.91549 205
40.93561 230
40.95572 236
40.97584 239
40.99595 240
41.01606 239
41.03618 231
41.05629 215
41.0764 250
41.09652 220
41.11663 205
41.13675 239
41.15686 213
41.17697 227
41.19709 241
41.2172 212
41.23731 229
41.25743 233
41.27754 235
41.29765 211
41.31777 223
41.33788 205
41.358 228
41.37811 238
41.39822 196
41.41834 242
41.43845 226
41.45856 228
41.47868 204
41.49879 210
41.51891 222
41.53902 214
41.55913 234
41.57925 227
41.59936 219
41.61947 263
41.63959 257
41.6597 266
41.67982 266
41.69993 250
41.72004 265
41.74016 259
41.76027 223
41.78038 235
41.8005 253
41.82061 237
41.84072 257
41.86084 226
41.88095 208
41.90107 241
41.92118 222
41.94129 204
41.96141 224
41.98152 220
42.00163 252
42.02175 219
42.04186 235
42.06198 241
42.08209 238
42.1022 227
42.12232 291
42.14243 284
42.16254 293
42.18266 339
42.20277 336
42.22289 355
42.243 390
42.26311 474
42.28323 557
42.30334 629
42.32345 814
42.34357 1001
42.36368 1091
42.38379 1319
42.40391 1460
42.42402 1609
42.44414 1514
42.46425 1309
42.48436 1015
42.50448 976
42.52459 887
42.5447 797
42.56482 657
42.58493 532
42.60505 386
42.62516 315
42.64527 266
42.66539 265
42.6855 226
42.70561 257
42.72573 266
42.74584 233
42.76595 221
42.78607 234
42.80618 228
42.8263 236
42.84641 187
42.86652 205
42.88664 199
42.90675 191
42.92686 184
42.94698 188
42.96709 191
42.98721 208
43.00732 185
43.02743 202
43.04755 195
43.06766 204
43.08777 188
43.10789 205
43.128 187
43.14812 191
43.16823 223
43.18834 211
43.20846 182
43.22857 180
43.24868 189
43.2688 193
43.28891 193
43.30902 185
43.32914 191
43.34925 192
43.36937 172
43.38948 199
43.40959 164
43.42971 186
43.44982 198
43.46993 181
43.49005 196
43.51016 182
43.53028 201
43.55039 210
43.5705 213
43.59062 214
43.61073 190
43.63084 185
43.65096 201
43.67107 189
43.69119 211
43.7113 184
43.73141 224
43.75153 202
43.77164 198
43.79175 204
43.81187 191
43.83198 185
43.85209 197
43.87221 180
43.89232 205
43.91244 202
43.93255 193
43.95266 184
43.97278 190
43.99289 190
44.013 185
44.03312 204
44.05323 193
44.07335 207
44.09346 190
44.11357 185
44.13369 203
44.1538 201
44.17391 182
44.19403 180
44.21414 188
44.23426 198
44.25437 196
44.27448 195
44.2946 181
44.31471 175
44.33482 201
44.35494 182
44.37505 184
44.39516 187
44.41528 174
44.43539 193
44.45551 195
44.47562 188
44.49573 200
44.51585 181
44.53596 190
44.55607 191
44.57619 154
44.5963 181
44.61642 185
44.63653 194
44.65664 193
44.67676 185
44.69687 188
44.71698 200
44.7371 182
44.75721 198
44.77732 205
44.79744 216
44.81755 175
44.83767 174
44.85778 172
44.87789 186
44.89801 199
44.91812 182
44.93823 212
44.95835 200
44.97846 213
44.99858 172
45.01869 226
45.0388 182
45.05892 199
45.07903 181
45.09914 218
45.11926 183
45.13937 183
45.15949 195
45.1796 202
45.19971 200
45.21983 225
45.23994 192
45.26005 191
45.28017 187
45.30028 194
45.32039 217
45.34051 191
45.36062 204
45.38074 193
45.40085 216
45.42096 207
45.44108 223
45.46119 232
45.4813 257
45.50142 251
45.52153 241
45.54165 298
45.56176 324
45.58187 356
45.60199 380
45.6221 436
45.64221 488
45.66233 606
45.68244 610
45.70256 778
45.72267 892
45.74278 1006
45.7629 1101
45.78301 1031
45.80312 872
45.82324 742
45.84335 674
45.86346 649
45.88358 574
45.90369 525
45.92381 460
45.94392 374
45.96403 329
45.98415 240
46.00426 246
46.02437 245
46.04449 220
46.0646 226
46.08472 207
46.10483 211
46.12494 232
46.14506 184
46.16517 210
46.18528 186
46.2054 202
46.22551 175
46.24563 197
46.26574 185
46.28585 195
46.30597 183
46.32608 185
46.34619 188
46.36631 165
46.38642 166
46.40653 196
46.42665 178
46.44676 176
46.46688 192
46.48699 176
46.5071 167
46.52722 177
46.54733 176
46.56744 168
46.58756 162
46.60767 178
46.62779 166
46.6479 166
46.66801 181
46.68813 167
46.70824 190
46.72835 193
46.74847 166
46.76858 171
46.78869 190
46.80881 196
46.82892 178
46.84904 185
46.86915 180
46.88926 173
46.90938 180
46.92949 171
46.9496 162
46.96972 190
46.98983 199
47.00995 166
47.03006 176
47.05017 181
47.07029 187
47.0904 199
47.11051 192
47.13063 186
47.15074 174
47.17086 198
47.19097 189
47.21108 165
47.2312 192
47.25131 186
47.27142 189
47.29154 180
47.31165 186
47.33176 174
47.35188 179
47.37199 168
47.39211 212
47.41222 178
47.43233 212
47.45245 192
47.47256 187
47.49267 193
47.51279 209
47.5329 184
47.55302 209
47.57313 204
47.59324 200
47.61336 183
47.63347 183
47.65358 184
47.6737 170
47.69381 199
47.71393 170
47.73404 180
47.75415 200
47.77427 183
47.79438 185
47.81449 170
47.83461 193
47.85472 186
47.87483 174
47.89495 206
47.91506 180
47.93518 182
47.95529 170
47.9754 175
47.99552 189
48.01563 164
48.03574 173
48.05586 185
48.07597 181
48.09609 177
48.1162 173
48.13631 174
48.15643 207
48.17654 188
48.19665 186
48.21677 170
48.23688 177
48.257 212
48.27711 203
48.29722 177
48.31734 166
48.33745 214
48.35756 190
48.37768 190
48.39779 185
48.4179 182
48.43802 214
48.45813 190
48.47825 180
48.49836 180
48.51847 183
48.53859 198
48.5587 189
48.57881 179
48.59893 180
48.61904 191
48.63916 172
48.65927 219
48.67938 209
48.6995 190
48.71961 191
48.73972 202
48.75984 202
48.77995 163
48.80006 197
48.82018 207
48.84029 190
48.86041 212
48.88052 217
48.90063 207
48.92075 192
48.94086 211
48.96097 193
48.98109 182
49.0012 215
49.02132 186
49.04143 225
49.06154 203
49.08166 213
49.10177 199
49.12188 227
49.142 219
49.16211 177
49.18223 180
49.20234 215
49.22245 220
49.24257 213
49.26268 195
49.28279 195
49.30291 208
49.32302 220
49.34313 223
49.36325 219
49.38336 214
49.40348 203
49.42359 206
49.4437 191
49.46382 199
49.48393 218
49.50404 258
49.52416 224
49.54427 230
49.56439 246
49.5845 235
49.60461 244
49.62473 222
49.64484 246
49.66495 275
49.68507 267
49.70518 285
49.7253 292
49.74541 306
49.76552 347
49.78564 354
49.80575 359
49.82586 436
49.84598 470
49.86609 517
49.8862 541
49.90632 686
49.92643 769
49.94655 936
49.96666 1126
49.98677 1385
50.00689 1681
50.027 2076
50.04711 2466
50.06723 2843
50.08734 3146
50.10746 3277
50.12757 3112
50.14768 2709
50.1678 2226
50.18791 1865
50.20802 1760
50.22814 1729
50.24825 1613
50.26837 1395
50.28848 1119
50.30859 752
50.32871 587
50.34882 426
50.36893 371
50.38905 330
50.40916 330
50.42927 317
50.44939 303
50.4695 315
50.48962 301
50.50973 304
50.52984 307
50.54996 300
50.57007 302
50.59018 321
50.6103 310
50.63041 294
50.65053 286
50.67064 285
50.69075 253
50.71087 288
50.73098 256
50.75109 263
50.77121 244
50.79132 216
50.81143 226
50.83155 214
50.85166 239
50.87178 192
50.89189 190
50.912 195
50.93212 201
50.95223 189
50.97234 213
50.99246 215
51.01257 198
51.03269 191
51.0528 190
51.07291 208
51.09303 207
51.11314 221
51.13325 190
51.15337 191
51.17348 189
51.1936 178
51.21371 188
51.23382 202
51.25394 181
51.27405 191
51.29416 156
51.31428 162
51.33439 181
51.3545 199
51.37462 181
51.39473 170
51.41485 176
51.43496 178
51.45507 177
51.47519 194
51.4953 172
51.51541 186
51.53553 175
51.55564 165
51.57576 153
51.59587 173
51.61598 203
51.6361 177
51.65621 185
51.67632 164
51.69644 167
51.71655 148
51.73667 179
51.75678 170
51.77689 180
51.79701 183
51.81712 139
51.83723 165
51.85735 192
51.87746 163
51.89757 167
51.91769 169
51.9378 180
51.95792 162
51.97803 166
51.99814 172
52.01826 178
52.03837 165
52.05848 184
52.0786 192
52.09871 205
52.11883 189
52.13894 166
52.15905 163
52.17917 186
52.19928 180
52.21939 184
52.23951 181
52.25962 154
52.27974 179
52.29985 170
52.31996 188
52.34008 193
52.36019 172
52.3803 165
52.40042 169
52.42053 182
52.44064 152
52.46076 170
52.48087 176
52.50099 187
52.5211 182
52.54121 179
52.56133 153
52.58144 157
52.60155 177
52.62167 173
52.64178 176
52.6619 176
52.68201 166
52.70212 188
52.72224 195
52.74235 182
52.76246 156
52.78258 161
52.80269 179
52.8228 177
52.84292 165
52.86303 190
52.88315 181
52.90326 188
52.92337 176
52.94349 184
52.9636 172
52.98371 175
53.00383 210
53.02394 190
53.04406 162
53.06417 170
53.08428 189
53.1044 198
53.12451 202
53.14462 219
53.16474 170
53.18485 205
53.20497 190
53.22508 212
53.24519 186
53.26531 189
53.28542 196
53.30553 209
53.32565 178
53.34576 209
53.36587 191
53.38599 220
53.4061 247
53.42622 229
53.44633 224
53.46644 204
53.48656 210
53.50667 205
53.52678 209
53.5469 208
53.56701 217
53.58713 198
53.60724 230
53.62735 198
53.64747 197
53.66758 187
53.68769 230
53.70781 214
53.72792 209
53.74804 185
53.76815 210
53.78826 222
53.80838 212
53.82849 208
53.8486 204
53.86872 206
53.88883 228
53.90894 201
53.92906 218
53.94917 206
53.96929 183
53.9894 210
54.00951 222
54.02963 239
54.04974 240
54.06985 203
54.08997 213
54.11008 212
54.1302 217
54.15031 208
54.17042 224
54.19054 209
54.21065 216
54.23076 228
54.25088 226
54.27099 233
54.29111 222
54.31122 228
54.33133 250
54.35145 257
54.37156 244
54.39167 226
54.41179 236
54.4319 242
54.45201 222
54.47213 268
54.49224 246
54.51236 268
54.53247 272
54.55258 271
54.5727 322
54.59281 293
54.61292 295
54.63304 339
54.65315 359
54.67327 427
54.69338 486
54.71349 512
54.73361 620
54.75372 666
54.77383 782
54.79395 898
54.81406 1031
54.83417 1036
54.85429 1068
54.8744 921
54.89452 793
54.91463 697
54.93474 688
54.95486 638
54.97497 641
54.99508 610
55.0152 565
55.03531 485
55.05543 412
55.07554 311
55.09565 370
55.11577 318
55.13588 350
55.15599 374
55.17611 354
55.19622 396
55.21634 439
55.23645 501
55.25656 515
55.27668 561
55.29679 564
55.3169 508
55.33702 460
55.35713 414
55.37724 381
55.39736 411
55.41747 386
55.43759 368
55.4577 367
55.47781 317
55.49793 309
55.51804 247
55.53815 264
55.55827 262
55.57838 227
55.5985 206
55.61861 220
55.63872 209
55.65884 179
55.67895 222
55.69906 174
55.71918 194
55.73929 216
55.75941 191
55.77952 157
55.79963 206
55.81975 194
55.83986 185
55.85997 183
55.88009 191
55.9002 176
55.92031 176
55.94043 189
55.96054 173
55.98066 185
56.00077 177
56.02088 213
56.041 188
56.06111 181
56.08122 182
56.10134 164
56.12145 192
56.14157 171
56.16168 168
56.18179 183
56.20191 187
56.22202 168
56.24213 197
56.26225 186
56.28236 188
56.30248 189
56.32259 182
56.3427 172
56.36282 164
56.38293 191
56.40304 171
56.42316 186
56.44327 180
56.46338 207
56.4835 170
56.50361 186
56.52373 175
56.54384 197
56.56395 164
56.58407 173
56.60418 199
56.62429 175
56.64441 185
56.66452 175
56.68464 193
56.70475 153
56.72486 198
56.74498 191
56.76509 210
56.7852 186
56.80532 162
56.82543 169
56.84554 176
56.86566 176
56.88577 176
56.90589 167
56.926 195
56.94611 186
56.96623 172
56.98634 189
57.00645 185
57.02657 188
57.04668 191
57.0668 181
57.08691 179
57.10702 186
57.12714 214
57.14725 214
57.16736 217
57.18748 205
57.20759 240
57.22771 221
57.24782 202
57.26793 199
57.28805 199
57.30816 213
57.32827 207
57.34839 193
57.3685 181
57.38861 192
57.40873 168
57.42884 178
57.44896 174
57.46907 170
57.48918 173
57.5093 180
57.52941 177
57.54952 151
57.56964 175
57.58975 167
57.60987 174
57.62998 178
57.65009 180
57.67021 164
57.69032 158
57.71043 175
57.73055 167
57.75066 187
57.77078 168
57.79089 193
57.811 174
57.83112 161
57.85123 173
57.87134 166
57.89146 178
57.91157 180
57.93168 164
57.9518 158
57.97191 169
57.99203 183
58.01214 167
58.03225 161
58.05237 199
58.07248 162
58.09259 178
58.11271 166
58.13282 155
58.15294 169
58.17305 173
58.19316 180
58.21328 185
58.23339 205
58.2535 152
58.27362 166
58.29373 155
58.31385 193
58.33396 193
58.35407 178
58.37419 142
58.3943 174
58.41441 155
58.43453 183
58.45464 169
58.47475 169
58.49487 170
58.51498 170
58.5351 181
58.55521 164
58.57532 177
58.59544 195
58.61555 173
58.63566 177
58.65578 189
58.67589 197
58.69601 152
58.71612 173
58.73623 198
58.75635 178
58.77646 208
58.79657 171
58.81669 128
58.8368 175
58.85691 166
58.87703 163
58.89714 152
58.91726 151
58.93737 172
58.95748 163
58.9776 169
58.99771 172
59.01782 170
59.03794 174
59.05805 178
59.07817 155
59.09828 153
59.11839 177
59.13851 183
59.15862 169
59.17873 188
59.19885 186
59.21896 160
59.23908 182
59.25919 201
59.2793 175
59.29942 195
59.31953 205
59.33964 207
59.35976 217
59.37987 205
59.39998 205
59.4201 203
59.44021 219
59.46033 201
59.48044 244
59.50055 233
59.52067 250
59.54078 275
59.56089 266
59.58101 277
59.60112 303
59.62124 298
59.64135 336
59.66146 419
59.68158 429
59.70169 446
59.7218 549
59.74192 576
59.76203 737
59.78215 906
59.80226 1034
59.82237 1226
59.84249 1423
59.8626 1710
59.88271 1880
59.90283 1937
59.92294 1978
59.94305 1835
59.96317 1684
59.98328 1313
60.0034 1151
60.02351 1117
60.04362 1108
60.06374 1107
60.08385 1114
60.10396 1019
60.12408 807
60.14419 609
60.16431 485
60.18442 345
60.20453 307
60.22465 277
60.24476 238
60.26487 245
60.28499 236
60.3051 227
60.32522 215
60.34533 230
60.36544 200
60.38556 205
60.40567 192
60.42578 185
60.4459 205
60.46601 214
60.48612 185
60.50624 203
60.52635 193
60.54647 190
60.56658 175
60.58669 190
60.60681 202
60.62692 179
60.64703 190
60.66715 180
60.68726 179
60.70738 172
60.72749 174
60.7476 184
60.76772 172
60.78783 190
60.80794 170
60.82806 194
60.84817 158
60.86828 176
60.8884 168
60.90851 185
60.92863 187
60.94874 168
60.96885 180
60.98897 176
61.00908 164
61.02919 165
61.04931 166
61.06942 183
61.08954 172
61.10965 191
61.12976 180
61.14988 166
61.16999 187
61.1901 184
61.21022 184
61.23033 185
61.25045 198
61.27056 174
61.29067 175
61.31079 158
61.3309 179
61.35101 165
61.37113 175
61.39124 159
61.41135 184
61.43147 173
61.45158 185
61.4717 177
61.49181 179
61.51192 164
61.53204 168
61.55215 188
61.57226 176
61.59238 178
61.61249 193
61.63261 171
61.65272 181
61.67283 171
61.69295 190
61.71306 192
61.73317 179
61.75329 214
61.7734 184
61.79352 182
61.81363 182
61.83374 209
61.85386 175
61.87397 191
61.89408 167
61.9142 166
61.93431 180
61.95442 205
61.97454 213
61.99465 204
62.01477 226
62.03488 196
62.05499 199
62.07511 199
62.09522 190
62.11533 198
62.13545 220
62.15556 186
62.17568 215
62.19579 204
62.2159 183
62.23602 189
62.25613 220
62.27624 223
62.29636 210
62.31647 228
62.33659 208
62.3567 214
62.37681 232
62.39693 206
62.41704 195
62.43715 200
62.45727 207
62.47738 217
62.49749 184
62.51761 203
62.53772 178
62.55784 160
62.57795 188
62.59806 187
62.61818 173
62.63829 188
62.6584 161
62.67852 206
62.69863 192
62.71875 177
62.73886 192
62.75897 171
62.77909 167
62.7992 164
62.81931 198
62.83943 195
62.85954 172
62.87965 171
62.89977 169
62.91988 184
62.94 165
62.96011 168
62.98022 187
63.00034 180
63.02045 176
63.04056 152
63.06068 178
63.08079 174
63.10091 184
63.12102 176
63.14113 176
63.16125 182
63.18136 170
63.20147 179
63.22159 175
63.2417 169
63.26182 187
63.28193 169
63.30204 179
63.32216 142
63.34227 169
63.36238 173
63.3825 163
63.40261 179
63.42272 164
63.44284 159
63.46295 161
63.48307 197
63.50318 190
63.52329 195
63.54341 182
63.56352 215
63.58363 205
63.60375 190
63.62386 176
63.64398 174
63.66409 204
63.6842 202
63.70432 223
63.72443 209
63.74454 215
63.76466 208
63.78477 237
63.80489 221
63.825 258
63.84511 287
63.86523 315
63.88534 343
63.90545 412
63.92557 419
63.94568 455
63.96579 525
63.98591 515
64.00602 486
64.02614 429
64.04625 403
64.06636 365
64.08648 347
64.10659 297
64.1267 341
64.14682 294
64.16693 326
64.18705 329
64.20716 282
64.22727 278
64.24739 252
64.2675 236
64.28761 185
64.30773 162
64.32784 188
64.34796 179
64.36807 197
64.38818 200
64.4083 175
64.42841 171
64.44852 170
64.46864 169
64.48875 177
64.50886 186
64.52898 169
64.54909 173
64.56921 177
64.58932 180
64.60943 181
64.62955 156
64.64966 169
64.66977 160
64.68989 170
64.71 160
64.73012 175
64.75023 143
64.77034 156
64.79046 179
64.81057 168
64.83068 150
64.8508 170
64.87091 145
64.89102 159
64.91114 160
64.93125 159
64.95137 173
64.97148 145
64.99159 166
65.01171 168
65.03182 194
65.05193 180
65.07205 143
65.09216 167
65.11228 155
65.13239 165
65.1525 148
65.17262 144
65.19273 163
65.21284 186
65.23296 167
65.25307 174
65.27319 167
65.2933 202
65.31341 158
65.33353 182
65.35364 176
65.37375 172
65.39387 155
65.41398 150
65.43409 168
65.45421 166
65.47432 173
65.49444 175
65.51455 178
65.53466 196
65.55478 173
65.57489 191
65.595 185
65.61512 208
65.63523 205
65.65535 208
65.67546 243
65.69557 261
65.71569 235
65.7358 231
65.75591 228
65.77603 227
65.79614 229
65.81626 199
65.83637 196
65.85648 190
65.8766 201
65.89671 218
65.91682 205
65.93694 215
65.95705 204
65.97716 173
65.99728 179
66.01739 205
66.03751 173
66.05762 162
66.07773 172
66.09785 171
66.11796 165
66.13807 170
66.15819 164
66.1783 172
66.19842 158
66.21853 164
66.23864 167
66.25876 156
66.27887 173
66.29898 179
66.3191 175
66.33921 177
66.35933 160
66.37944 194
66.39955 140
66.41967 175
66.43978 190
66.45989 167
66.48001 165
66.50012 149
66.52023 178
66.54035 165
66.56046 169
66.58058 173
66.60069 160
66.6208 191
66.64092 189
66.66103 175
66.68114 171
66.70126 160
66.72137 156
66.74149 159
66.7616 169
66.78171 179
66.80183 168
66.82194 166
66.84205 190
66.86217 165
66.88228 173
66.90239 199
66.92251 176
66.94262 191
66.96274 199
66.98285 190
67.00296 191
67.02308 160
67.04319 174
67.0633 173
67.08342 176
67.10353 198
67.12365 189
67.14376 199
67.16387 168
67.18399 200
67.2041 199
67.22421 202
67.24433 225
67.26444 198
67.28456 209
67.30467 198
67.32478 216
67.3449 228
67.36501 256
67.38512 265
67.40524 277
67.42535 284
67.44546 320
67.46558 325
67.48569 399
67.50581 412
67.52592 441
67.54603 547
67.56615 642
67.58626 721
67.60637 796
67.62649 925
67.6466 1071
67.66672 1119
67.68683 1202
67.70694 1242
67.72706 1186
67.74717 1050
67.76728 867
67.7874 826
67.80751 762
67.82763 769
67.84774 931
67.86785 843
67.88797 930
67.90808 941
67.92819 982
67.94831 939
67.96842 950
67.98853 1013
68.00865 1089
68.02876 1256
68.04888 1353
68.06899 1484
68.0891 1732
68.10922 1629
68.12933 1495
68.14944 1472
68.16956 1352
68.18967 1348
68.20979 1308
68.2299 1452
68.25001 1475
68.27013 1561
68.29024 1558
68.31035 1341
68.33047 1123
68.35058 958
68.3707 797
68.39081 668
68.41092 602
68.43104 616
68.45115 619
68.47126 553
68.49138 519
68.51149 484
68.5316 384
68.55172 315
68.57183 257
68.59195 259
68.61206 244
68.63217 249
68.65229 238
68.6724 206
68.69251 213
68.71263 209
68.73274 210
68.75286 211
68.77297 193
68.79308 193
68.8132 186
68.83331 181
68.85342 196
68.87354 157
68.89365 170
68.91376 190
68.93388 192
68.95399 160
68.97411 203
68.99422 208
69.01433 191
69.03445 166
69.05456 187
69.07467 168
69.09479 166
69.1149 203
69.13502 164
69.15513 182
69.17524 181
69.19536 165
69.21547 157
69.23558 149
69.2557 151
69.27581 162
69.29593 178
69.31604 159
69.33615 174
69.35627 192
69.37638 148
69.39649 170
69.41661 165
69.43672 155
69.45683 173
69.47695 154
69.49706 169
69.51718 155
69.53729 148
69.5574 159
69.57752 143
69.59763 155
69.61774 158
69.63786 145
69.65797 154
69.67809 164
69.6982 157
69.71831 156
69.73843 154
69.75854 160
69.77865 166
69.79877 165
69.81888 166
69.839 165
69.85911 153
69.87922 142
69.89934 149
69.91945 157
69.93956 148
69.95968 141
69.97979 158
69.9999 142
70.02002 155
70.04013 149
70.06025 159
70.08036 155
70.10047 162
70.12059 144
70.1407 138
70.16081 154
70.18093 138
70.20104 140
70.22116 162
70.24127 138
70.26138 140
70.2815 179
70.30161 169
70.32172 141
70.34184 166
70.36195 156
70.38207 163
70.40218 156
70.42229 142
70.44241 176
70.46252 166
70.48263 170
70.50275 152
70.52286 156
70.54297 159
70.56309 144
70.5832 165
70.60332 164
70.62343 177
70.64354 152
70.66366 151
70.68377 144
70.70388 154
70.724 154
70.74411 145
70.76423 155
70.78434 144
70.80445 172
70.82457 135
70.84468 166
70.86479 153
70.88491 161
70.90502 157
70.92513 131
70.94525 139
70.96536 153
70.98548 146
71.00559 143
71.0257 143
71.04582 137
71.06593 159
71.08604 150
71.10616 157
71.12627 152
71.14639 172
71.1665 131
71.18661 146
71.20673 162
71.22684 122
71.24695 160
71.26707 154
71.28718 155
71.3073 151
71.32741 154
71.34752 141
71.36764 136
71.38775 160
71.40786 142
71.42798 155
71.44809 166
71.4682 141
71.48832 149
71.50843 152
71.52855 146
71.54866 151
71.56877 141
71.58889 150
71.609 148
71.62911 135
71.64923 159
71.66934 171
71.68946 143
71.70957 142
71.72968 140
71.7498 142
71.76991 164
71.79002 143
71.81014 143
71.83025 152
71.85037 159
71.87048 163
71.89059 156
71.91071 155
71.93082 147
71.95093 161
71.97105 134
71.99116 156
72.01127 142
72.03139 192
72.0515 154
72.07162 135
72.09173 163
72.11184 179
72.13196 163
72.15207 173
72.17218 147
72.1923 175
72.21241 138
72.23253 140
72.25264 169
72.27275 141
72.29287 141
72.31298 154
72.33309 150
72.35321 141
72.37332 163
72.39344 161
72.41355 153
72.43366 141
72.45378 151
72.47389 156
72.494 164
72.51412 146
72.53423 145
72.55434 149
72.57446 162
72.59457 132
72.61469 150
72.6348 162
72.65491 154
72.67503 143
72.69514 150
72.71525 154
72.73537 153
72.75548 146
72.7756 159
72.79571 164
72.81582 162
72.83594 143
72.85605 173
72.87616 143
72.89628 170
72.91639 164
72.9365 153
72.95662 183
72.97673 161
72.99685 162
73.01696 187
73.03707 171
73.05719 190
73.0773 193
73.09741 171
73.11753 184
73.13764 199
73.15776 220
73.17787 214
73.19798 240
73.2181 246
73.23821 237
73.25832 270
73.27844 328
73.29855 343
73.31867 325
73.33878 393
73.35889 437
73.37901 464
73.39912 506
73.41923 522
73.43935 534
73.45946 454
73.47957 431
73.49969 341
73.5198 319
73.53992 285
73.56003 314
73.58014 337
73.60026 326
73.62037 334
73.64048 320
73.6606 330
73.68071 305
73.70083 239
73.72094 213
73.74105 192
73.76117 186
73.78128 156
73.80139 184
73.82151 168
73.84162 162
73.86174 161
73.88185 188
73.90196 146
73.92208 144
73.94219 128
73.9623 174
73.98242 142
74.00253 150
74.02264 142
74.04276 170
74.06287 159
74.08299 136
74.1031 135
74.12321 162
74.14333 163
74.16344 155
74.18355 151
74.20367 147
74.22378 176
74.2439 136
74.26401 154
74.28412 153
74.30424 148
74.32435 160
74.34446 168
74.36458 143
74.38469 168
74.40481 141
74.42492 133
74.44503 135
74.46515 157
74.48526 153
74.50537 174
74.52549 157
74.5456 163
74.56571 164
74.58583 179
74.60594 169
74.62606 174
74.64617 162
74.66628 152
74.6864 160
74.70651 137
74.72662 151
74.74674 153
74.76685 161
74.78697 159
74.80708 146
74.82719 160
74.84731 146
74.86742 148
74.88753 173
74.90765 154
74.92776 150
74.94787 144
74.96799 164
74.9881 174
75.00822 145
