3.00117 15326
3.02128 15150
3.0414 14238
3.06151 14430
3.08162 13851
3.10174 13473
3.12185 12892
3.14197 12290
3.16208 12263
3.18219 11685
3.20231 11317
3.22242 11027
3.24253 10452
3.26265 10675
3.28276 9801
3.30288 9526
3.32299 9414
3.3431 8818
3.36322 8567
3.38333 8333
3.40344 8246
3.42356 7618
3.44367 7380
3.46379 7163
3.4839 6736
3.50401 6723
3.52413 6315
3.54424 5882
3.56435 5887
3.58447 5563
3.60458 5298
3.62469 5092
3.64481 4832
3.66492 4668
3.68504 4476
3.70515 4317
3.72526 4132
3.74538 3932
3.76549 3726
3.7856 3611
3.80572 3429
3.82583 3340
3.84595 3023
3.86606 3002
3.88617 3006
3.90629 2632
3.9264 2662
3.94651 2449
3.96663 2404
3.98674 2397
4.00686 2159
4.02697 2119
4.04708 1934
4.0672 1947
4.08731 1910
4.10742 1721
4.12754 1826
4.14765 1630
4.16776 1598
4.18788 1539
4.20799 1420
4.22811 1491
4.24822 1365
4.26833 1382
4.28845 1416
4.30856 1228
4.32867 1245
4.34879 1147
4.3689 1172
4.38902 1231
4.40913 1065
4.42924 1121
4.44936 1102
4.46947 1042
4.48958 1087
4.5097 981
4.52981 957
4.54992 970
4.57004 881
4.59015 921
4.61027 780
4.63038 783
4.65049 829
4.67061 811
4.69072 831
4.71083 745
4.73095 735
4.75106 739
4.77118 689
4.79129 745
4.8114 689
4.83152 610
4.85163 669
4.87174 603
4.89186 656
4.91197 567
4.93209 543
4.9522 594
4.97231 547
4.99243 526
5.01254 508
5.03265 529
5.05277 480
5.07288 458
5.09299 518
5.11311 426
5.13322 431
5.15334 469
5.17345 423
5.19356 411
5.21368 437
5.23379 403
5.2539 411
5.27402 364
5.29413 349
5.31425 346
5.33436 335
5.35447 326
5.37459 325
5.3947 311
5.41481 292
5.43493 258
5.45504 327
5.47516 285
5.49527 306
5.51538 286
5.5355 301
5.55561 278
5.57572 278
5.59584 215
5.61595 247
5.63606 266
5.65618 237
5.67629 234
5.69641 253
5.71652 239
5.73663 237
5.75675 230
5.77686 203
5.79697 219
5.81709 232
5.8372 223
5.85732 207
5.87743 232
5.89754 225
5.91766 218
5.93777 153
5.95788 189
5.978 219
5.99811 192
6.01823 220
6.03834 225
6.05845 182
6.07857 180
6.09868 187
6.11879 214
6.13891 211
6.15902 180
6.17913 168
6.19925 176
6.21936 186
6.23948 172
6.25959 185
6.2797 172
6.29982 169
6.31993 212
6.34004 173
6.36016 176
6.38027 179
6.40039 139
6.4205 170
6.44061 164
6.46073 160
6.48084 174
6.50095 163
6.52107 126
6.54118 180
6.56129 179
6.58141 157
6.60152 155
6.62164 143
6.64175 187
6.66186 155
6.68198 170
6.70209 149
6.7222 194
6.74232 160
6.76243 173
6.78255 180
6.80266 156
6.82277 165
6.84289 203
6.863 168
6.88311 174
6.90323 167
6.92334 163
6.94346 147
6.96357 155
6.98368 173
7.0038 163
7.02391 173
7.04402 151
7.06414 193
7.08425 165
7.10436 161
7.12448 167
7.14459 161
7.16471 223
7.18482 154
7.20493 193
7.22505 145
7.24516 165
7.26527 187
7.28539 164
7.3055 158
7.32562 167
7.34573 169
7.36584 212
7.38596 170
7.40607 158
7.42618 197
7.4463 192
7.46641 198
7.48653 159
7.50664 191
7.52675 187
7.54687 189
7.56698 211
7.58709 184
7.60721 168
7.62732 181
7.64743 184
7.66755 215
7.68766 203
7.70778 167
7.72789 170
7.748 204
7.76812 181
7.78823 173
7.80834 171
7.82846 200
7.84857 162
7.86869 179
7.8888 178
7.90891 177
7.92903 174
7.94914 181
7.96925 182
7.98937 184
8.00948 193
8.0296 175
8.04971 170
8.06982 183
8.08994 200
8.11005 180
8.13016 171
8.15028 215
8.17039 206
8.1905 167
8.21062 184
8.23073 201
8.25085 211
8.27096 199
8.29107 180
8.31119 181
8.3313 194
8.35141 171
8.37153 195
8.39164 229
8.41176 189
8.43187 201
8.45198 198
8.4721 218
8.49221 207
8.51232 204
8.53244 172
8.55255 203
8.57266 215
8.59278 206
8.61289 183
8.63301 211
8.65312 217
8.67323 219
8.69335 220
8.71346 210
8.73357 232
8.75369 217
8.7738 212
8.79392 210
8.81403 204
8.83414 211
8.85426 255
8.87437 183
8.89448 224
8.9146 219
8.93471 225
8.95483 196
8.97494 229
8.99505 226
9.01517 224
9.03528 199
9.05539 216
9.07551 229
9.09562 231
9.11573 195
9.13585 199
9.15596 212
9.17608 213
9.19619 182
9.2163 207
9.23642 232
9.25653 210
9.27664 205
9.29676 236
9.31687 242
9.33699 229
9.3571 248
9.37721 229
9.39733 182
9.41744 201
9.43755 233
9.45767 203
9.47778 214
9.4979 211
9.51801 212
9.53812 254
9.55824 204
9.57835 214
9.59846 188
9.61858 203
9.63869 231
9.6588 211
9.67892 219
9.69903 209
9.71915 207
9.73926 206
9.75937 239
9.77949 211
9.7996 218
9.81971 194
9.83983 223
9.85994 215
9.88006 224
9.90017 232
9.92028 204
9.9404 243
9.96051 193
9.98062 197
10.00074 192
10.02085 193
10.04097 220
10.06108 245
10.08119 222
10.10131 189
10.12142 207
10.14153 189
10.16165 200
10.18176 200
10.20187 187
10.22199 225
10.2421 189
10.26222 213
10.28233 211
10.30244 222
10.32256 241
10.34267 200
10.36278 204
10.3829 227
10.40301 239
10.42313 235
10.44324 257
10.46335 262
10.48347 217
10.50358 232
10.52369 211
10.54381 214
10.56392 195
10.58403 210
10.60415 213
10.62426 213
10.64438 222
10.66449 203
10.6846 215
10.70472 238
10.72483 199
10.74494 207
10.76506 195
10.78517 204
10.80529 205
10.8254 216
10.84551 206
10.86563 183
10.88574 221
10.90585 190
10.92597 196
10.94608 215
10.9662 200
10.98631 203
11.00642 192
11.02654 184
11.04665 223
11.06676 200
11.08688 207
11.10699 194
11.1271 199
11.14722 242
11.16733 226
11.18745 216
11.20756 206
11.22767 203
11.24779 232
11.2679 198
11.28801 187
11.30813 197
11.32824 222
11.34836 200
11.36847 188
11.38858 194
11.4087 235
11.42881 198
11.44892 220
11.46904 218
11.48915 206
11.50927 204
11.52938 204
11.54949 205
11.56961 190
11.58972 196
11.60983 225
11.62995 188
11.65006 226
11.67017 227
11.69029 214
11.7104 225
11.73052 221
11.75063 248
11.77074 216
11.79086 239
11.81097 201
11.83108 245
11.8512 205
11.87131 237
11.89143 237
11.91154 232
11.93165 219
11.95177 221
11.97188 224
11.99199 212
12.01211 187
12.03222 225
12.05234 211
12.07245 230
12.09256 215
12.11268 205
12.13279 215
12.1529 197
12.17302 207
12.19313 199
12.21324 252
12.23336 217
12.25347 243
12.27359 222
12.2937 218
12.31381 220
12.33393 205
12.35404 200
12.37415 219
12.39427 195
12.41438 204
12.4345 210
12.45461 206
12.47472 219
12.49484 249
12.51495 180
12.53506 223
12.55518 197
12.57529 197
12.5954 200
12.61552 201
12.63563 189
12.65575 205
12.67586 176
12.69597 214
12.71609 188
12.7362 226
12.75631 231
12.77643 170
12.79654 187
12.81666 168
12.83677 174
12.85688 188
12.877 194
12.89711 175
12.91722 179
12.93734 221
12.95745 193
12.97757 189
12.99768 196
13.01779 204
13.03791 230
13.05802 227
13.07813 213
13.09825 215
13.11836 223
13.13847 236
13.15859 215
13.1787 217
13.19882 190
13.21893 176
13.23904 197
13.25916 185
13.27927 191
13.29938 213
13.3195 207
13.33961 184
13.35973 211
13.37984 216
13.39995 226
13.42007 225
13.44018 193
13.46029 209
13.48041 207
13.50052 207
13.52064 223
13.54075 204
13.56086 234
13.58098 247
13.60109 263
13.6212 236
13.64132 284
13.66143 233
13.68154 208
13.70166 235
13.72177 234
13.74189 240
13.762 217
13.78211 247
13.80223 251
13.82234 202
13.84245 200
13.86257 238
13.88268 208
13.9028 204
13.92291 203
13.94302 172
13.96314 204
13.98325 190
14.00336 181
14.02348 211
14.04359 186
14.06371 198
14.08382 175
14.10393 185
14.12405 171
14.14416 159
14.16427 172
14.18439 172
14.2045 195
14.22461 157
14.24473 179
14.26484 156
14.28496 168
14.30507 182
14.32518 184
14.3453 176
14.36541 152
14.38552 156
14.40564 158
14.42575 178
14.44587 165
14.46598 162
14.48609 201
14.50621 179
14.52632 183
14.54643 162
14.56655 151
14.58666 149
14.60677 179
14.62689 179
14.647 200
14.66712 194
14.68723 169
14.70734 157
14.72746 166
14.74757 179
14.76768 176
14.7878 159
14.80791 183
14.82803 166
14.84814 159
14.86825 156
14.88837 192
14.90848 200
14.92859 190
14.94871 205
14.96882 214
14.98894 204
15.00905 185
15.02916 227
15.04928 219
15.06939 207
15.0895 201
15.10962 227
15.12973 196
15.14984 203
15.16996 184
15.19007 198
15.21019 180
15.2303 176
15.25041 161
15.27053 156
15.29064 153
15.31075 178
15.33087 148
15.35098 170
15.3711 167
15.39121 178
15.41132 171
15.43144 182
15.45155 176
15.47166 159
15.49178 162
15.51189 174
15.53201 162
15.55212 170
15.57223 152
15.59235 153
15.61246 184
15.63257 186
15.65269 185
15.6728 172
15.69291 169
15.71303 168
15.73314 178
15.75326 195
15.77337 160
15.79348 173
15.8136 169
15.83371 167
15.85382 178
15.87394 156
15.89405 149
15.91417 173
15.93428 152
15.95439 142
15.97451 176
15.99462 137
16.01473 172
16.03485 153
16.05496 172
16.07508 180
16.09519 166
16.1153 175
16.13542 176
16.15553 163
16.17564 143
16.19576 129
16.21587 174
16.23598 168
16.2561 138
16.27621 154
16.29633 140
16.31644 152
16.33655 188
16.35667 182
16.37678 145
16.39689 135
16.41701 165
16.43712 152
16.45724 172
16.47735 190
16.49746 148
16.51758 145
16.53769 156
16.5578 148
16.57792 163
16.59803 176
16.61814 172
16.63826 137
16.65837 146
16.67849 178
16.6986 163
16.71871 122
16.73883 150
16.75894 166
16.77905 164
16.79917 149
16.81928 152
16.8394 132
16.85951 155
16.87962 150
16.89974 145
16.91985 158
16.93996 145
16.96008 158
16.98019 159
17.00031 178
17.02042 177
17.04053 183
17.06065 162
17.08076 160
17.10087 161
17.12099 170
17.1411 138
17.16121 166
17.18133 128
17.20144 151
17.22156 169
17.24167 144
17.26178 158
17.2819 169
17.30201 160
17.32212 144
17.34224 119
17.36235 173
17.38247 170
17.40258 151
17.42269 153
17.44281 154
17.46292 165
17.48303 156
17.50315 153
17.52326 166
17.54338 160
17.56349 135
17.5836 165
17.60372 166
17.62383 159
17.64394 158
17.66406 162
17.68417 153
17.70428 148
17.7244 152
17.74451 160
17.76463 165
17.78474 161
17.80485 129
17.82497 147
17.84508 145
17.86519 167
17.88531 171
17.90542 159
17.92554 167
17.94565 147
17.96576 153
17.98588 177
18.00599 166
18.0261 170
18.04622 144
18.06633 156
18.08645 169
18.10656 146
18.12667 145
18.14679 126
18.1669 137
18.18701 137
18.20713 132
18.22724 163
18.24735 138
18.26747 146
18.28758 149
18.3077 144
18.32781 128
18.34792 159
18.36804 167
18.38815 181
18.40826 169
18.42838 170
18.44849 146
18.46861 156
18.48872 168
18.50883 148
18.52895 166
18.54906 148
18.56917 159
18.58929 156
18.6094 165
18.62951 176
18.64963 126
18.66974 156
18.68986 146
18.70997 176
18.73008 160
18.7502 154
18.77031 156
18.79042 161
18.81054 144
18.83065 195
18.85077 166
18.87088 144
18.89099 175
18.91111 161
18.93122 185
18.95133 154
18.97145 158
18.99156 176
19.01168 160
19.03179 183
19.0519 163
19.07202 144
19.09213 136
19.11224 176
19.13236 176
19.15247 158
19.17258 164
19.1927 202
19.21281 161
19.23293 166
19.25304 179
19.27315 179
19.29327 181
19.31338 170
19.33349 173
19.35361 187
19.37372 182
19.39384 155
19.41395 176
19.43406 200
19.45418 143
19.47429 166
19.4944 164
19.51452 185
19.53463 203
19.55475 161
19.57486 150
19.59497 200
19.61509 188
19.6352 182
19.65531 190
19.67543 180
19.69554 189
19.71565 198
19.73577 200
19.75588 222
19.776 210
19.79611 195
19.81622 197
19.83634 227
19.85645 215
19.87656 196
19.89668 229
19.91679 211
19.93691 246
19.95702 239
19.97713 227
19.99725 223
20.01736 231
20.03747 245
20.05759 215
20.0777 264
20.09782 219
20.11793 232
20.13804 245
20.15816 241
20.17827 252
20.19838 274
20.2185 233
20.23861 257
20.25872 260
20.27884 279
20.29895 239
20.31907 286
20.33918 271
20.35929 275
20.37941 262
20.39952 290
20.41963 280
20.43975 318
20.45986 327
20.47998 340
20.50009 298
20.5202 352
20.54032 365
20.56043 394
20.58054 405
20.60066 432
20.62077 529
20.64088 601
20.661 732
20.68111 973
20.70123 1265
20.72134 1688
20.74145 2457
20.76157 3367
20.78168 4481
20.80179 5434
20.82191 6246
20.84202 6477
20.86214 5742
20.88225 4475
20.90236 3256
20.92248 2203
20.94259 1472
20.9627 1058
20.98282 887
21.00293 907
21.02305 774
21.04316 749
21.06327 697
21.08339 543
21.1035 478
21.12361 380
21.14373 384
21.16384 348
21.18395 306
21.20407 293
21.22418 280
21.2443 246
21.26441 270
21.28452 269
21.30464 260
21.32475 255
21.34486 234
21.36498 263
21.38509 211
21.40521 252
21.42532 229
21.44543 218
21.46555 252
21.48566 228
21.50577 253
21.52589 232
21.546 238
21.56612 228
21.58623 243
21.60634 224
21.62646 252
21.64657 250
21.66668 215
21.6868 240
21.70691 222
21.72702 223
21.74714 236
21.76725 251
21.78737 236
21.80748 264
21.82759 259
21.84771 299
21.86782 326
21.88793 341
21.90805 411
21.92816 458
21.94828 487
21.96839 501
21.9885 500
22.00862 400
22.02873 387
22.04884 348
22.06896 275
22.08907 264
22.10919 230
22.1293 216
22.14941 231
22.16953 225
22.18964 251
22.20975 251
22.22987 250
22.24998 252
22.27009 269
22.29021 253
22.31032 267
22.33044 255
22.35055 249
22.37066 268
22.39078 246
22.41089 262
22.431 257
22.45112 234
22.47123 272
22.49135 253
22.51146 269
22.53157 246
22.55169 240
22.5718 228
22.59191 237
22.61203 234
22.63214 255
22.65225 213
22.67237 223
22.69248 210
22.7126 197
22.73271 192
22.75282 208
22.77294 221
22.79305 216
22.81316 220
22.83328 242
22.85339 244
22.87351 258
22.89362 249
22.91373 292
22.93385 267
22.95396 285
22.97407 297
22.99419 274
23.0143 247
23.03442 263
23.05453 282
23.07464 276
23.09476 282
23.11487 281
23.13498 271
23.1551 305
23.17521 315
23.19532 298
23.21544 299
23.23555 305
23.25567 284
23.27578 272
23.29589 296
23.31601 285
23.33612 281
23.35623 288
23.37635 253
23.39646 315
23.41658 292
23.43669 307
23.4568 325
23.47692 335
23.49703 329
23.51714 394
23.53726 374
23.55737 390
23.57749 434
23.5976 372
23.61771 398
23.63783 423
23.65794 333
23.67805 347
23.69817 320
23.71828 336
23.73839 296
23.75851 304
23.77862 320
23.79874 315
23.81885 367
23.83896 399
23.85908 424
23.87919 452
23.8993 429
23.91942 448
23.93953 495
23.95965 437
23.97976 422
23.99987 427
24.01999 356
24.0401 301
24.06021 289
24.08033 216
24.10044 223
24.12056 237
24.14067 249
24.16078 243
24.1809 282
24.20101 278
24.22112 321
24.24124 312
24.26135 340
24.28146 330
24.30158 360
24.32169 359
24.34181 384
24.36192 330
24.38203 327
24.40215 317
24.42226 293
24.44237 244
24.46249 258
24.4826 254
24.50272 268
24.52283 255
24.54294 283
24.56306 278
24.58317 255
24.60328 252
24.6234 261
24.64351 269
24.66362 279
24.68374 243
24.70385 267
24.72397 249
24.74408 259
24.76419 248
24.78431 257
24.80442 260
24.82453 245
24.84465 238
24.86476 228
24.88488 255
24.90499 241
24.9251 235
24.94522 269
24.96533 221
24.98544 257
25.00556 237
25.02567 257
25.04579 226
25.0659 239
25.08601 211
25.10613 243
25.12624 236
25.14635 224
25.16647 229
25.18658 212
25.20669 233
25.22681 251
25.24692 252
25.26704 225
25.28715 233
25.30726 243
25.32738 268
25.34749 270
25.3676 259
25.38772 295
25.40783 293
25.42795 338
25.44806 377
25.46817 421
25.48829 455
25.5084 519
25.52851 512
25.54863 518
25.56874 578
25.58886 602
25.60897 588
25.62908 554
25.6492 561
25.66931 511
25.68942 464
25.70954 452
25.72965 395
25.74976 402
25.76988 399
25.78999 415
25.81011 420
25.83022 411
25.85033 408
25.87045 382
25.89056 413
25.91067 388
25.93079 400
25.9509 397
25.97102 424
25.99113 457
26.01124 476
26.03136 457
26.05147 475
26.07158 462
26.0917 495
26.11181 564
26.13193 581
26.15204 593
26.17215 628
26.19227 722
26.21238 751
26.23249 783
26.25261 816
26.27272 917
26.29283 1003
26.31295 1095
26.33306 1215
26.35318 1573
26.37329 1738
26.3934 2021
26.41352 2515
26.43363 3270
26.45374 4249
26.47386 5883
26.49397 7953
26.51409 11036
26.5342 14903
26.55431 19539
26.57443 24319
26.59454 28186
26.61465 29201
26.63477 26615
26.65488 21986
26.67499 16396
26.69511 12232
26.71522 8395
26.73534 5016
26.75545 2854
26.77556 1959
26.79568 1644
26.81579 1405
26.8359 1345
26.85602 1185
26.87613 1113
26.89625 1071
26.91636 976
26.93647 993
26.95659 965
26.9767 900
26.99681 995
27.01693 954
27.03704 1001
27.05716 985
27.07727 893
27.09738 836
27.1175 780
27.13761 712
27.15772 618
27.17784 610
27.19795 538
27.21806 497
27.23818 537
27.25829 532
27.27841 595
27.29852 630
27.31863 663
27.33875 693
27.35886 793
27.37897 896
27.39909 988
27.4192 1101
27.43932 1160
27.45943 1145
27.47954 1105
27.49966 1023
27.51977 898
27.53988 809
27.56 671
27.58011 628
27.60023 557
27.62034 512
27.64045 558
27.66057 538
27.68068 567
27.70079 718
27.72091 813
27.74102 870
27.76113 836
27.78125 794
27.80136 838
27.82148 747
27.84159 730
27.8617 720
27.88182 750
27.90193 663
27.92204 697
27.94216 693
27.96227 701
27.98239 639
28.0025 573
28.02261 497
28.04273 445
28.06284 406
28.08295 368
28.10307 340
28.12318 308
28.1433 333
28.16341 347
28.18352 298
28.20364 307
28.22375 339
28.24386 339
28.26398 347
28.28409 380
28.3042 354
28.32432 361
28.34443 364
28.36455 325
28.38466 304
28.40477 257
28.42489 277
28.445 267
28.46511 252
28.48523 233
28.50534 226
28.52546 254
28.54557 237
28.56568 233
28.5858 235
28.60591 234
28.62602 225
28.64614 241
28.66625 237
28.68636 232
28.70648 217
28.72659 228
28.74671 228
28.76682 222
28.78693 236
28.80705 251
28.82716 227
28.84727 219
28.86739 223
28.8875 215
28.90762 217
28.92773 227
28.94784 224
28.96796 217
28.98807 218
29.00818 201
29.0283 197
29.04841 199
29.06853 193
29.08864 231
29.10875 203
29.12887 205
29.14898 217
29.16909 233
29.18921 229
29.20932 221
29.22943 222
29.24955 221
29.26966 225
29.28978 231
29.30989 252
29.33 255
29.35012 268
29.37023 280
29.39034 297
29.41046 298
29.43057 270
29.45069 295
29.4708 310
29.49091 299
29.51103 267
29.53114 263
29.55125 265
29.57137 279
29.59148 251
29.6116 289
29.63171 336
29.65182 275
29.67194 326
29.69205 324
29.71216 347
29.73228 371
29.75239 328
29.7725 381
29.79262 345
29.81273 352
29.83285 333
29.85296 337
29.87307 313
29.89319 323
29.9133 294
29.93341 322
29.95353 286
29.97364 285
29.99376 272
30.01387 284
30.03398 295
30.0541 282
30.07421 262
30.09432 297
30.11444 298
30.13455 324
30.15467 329
30.17478 316
30.19489 303
30.21501 371
30.23512 332
30.25523 329
30.27535 340
30.29546 344
30.31557 341
30.33569 334
30.3558 385
30.37592 322
30.39603 337
30.41614 317
30.43626 312
30.45637 335
30.47648 302
30.4966 268
30.51671 281
30.53683 260
30.55694 249
30.57705 232
30.59717 253
30.61728 252
30.63739 314
30.65751 298
30.67762 301
30.69773 335
30.71785 358
30.73796 349
30.75808 398
30.77819 375
30.7983 356
30.81842 368
30.83853 336
30.85864 322
30.87876 269
30.89887 256
30.91899 252
30.9391 259
30.95921 223
30.97933 180
30.99944 225
31.01955 213
31.03967 163
31.05978 201
31.0799 201
31.10001 196
31.12012 187
31.14024 201
31.16035 172
31.18046 194
31.20058 175
31.22069 180
31.2408 197
31.26092 223
31.28103 210
31.30115 225
31.32126 240
31.34137 230
31.36149 253
31.3816 215
31.40171 233
31.42183 209
31.44194 207
31.46206 208
31.48217 159
31.50228 172
31.5224 195
31.54251 172
31.56262 184
31.58274 186
31.60285 212
31.62297 182
31.64308 187
31.66319 174
31.68331 212
31.70342 189
31.72353 181
31.74365 179
31.76376 171
31.78387 163
31.80399 180
31.8241 198
31.84422 168
31.86433 167
31.88444 177
31.90456 156
31.92467 164
31.94478 164
31.9649 172
31.98501 180
32.00513 184
32.02524 179
32.04535 204
32.06547 200
32.08558 207
32.10569 193
32.12581 179
32.14592 215
32.16604 224
32.18615 220
32.20626 229
32.22638 193
32.24649 234
32.2666 246
32.28672 237
32.30683 229
32.32694 250
32.34706 204
32.36717 242
32.38729 243
32.4074 221
32.42751 211
32.44763 198
32.46774 212
32.48785 220
32.50797 209
32.52808 183
32.5482 165
32.56831 185
32.58842 161
32.60854 177
32.62865 193
32.64876 150
32.66888 167
32.68899 151
32.7091 156
32.72922 169
32.74933 175
32.76945 191
32.78956 163
32.80967 160
32.82979 174
32.8499 173
32.87001 165
32.89013 173
32.91024 141
32.93036 157
32.95047 173
32.97058 169
32.9907 171
33.01081 172
33.03092 181
33.05104 183
33.07115 170
33.09127 176
33.11138 181
33.13149 157
33.15161 157
33.17172 154
33.19183 170
33.21195 165
33.23206 164
33.25217 167
33.27229 161
33.2924 176
33.31252 165
33.33263 158
33.35274 163
33.37286 141
33.39297 165
33.41308 169
33.4332 142
33.45331 157
33.47343 154
33.49354 161
33.51365 158
33.53377 146
33.55388 163
33.57399 153
33.59411 168
33.61422 193
33.63434 160
33.65445 148
33.67456 157
33.69468 166
33.71479 150
33.7349 180
33.75502 185
33.77513 174
33.79524 225
33.81536 196
33.83547 198
33.85559 179
33.8757 153
33.89581 152
33.91593 154
33.93604 144
33.95615 161
33.97627 160
33.99638 168
34.0165 170
34.03661 183
34.05672 156
34.07684 204
34.09695 204
34.11706 218
34.13718 210
34.15729 219
34.17741 211
34.19752 287
34.21763 234
34.23775 251
34.25786 246
34.27797 217
34.29809 246
34.3182 240
34.33831 226
34.35843 223
34.37854 223
34.39866 196
34.41877 213
34.43888 201
34.459 212
34.47911 236
34.49922 221
34.51934 222
34.53945 206
34.55957 208
34.57968 216
34.59979 222
34.61991 227
34.64002 212
34.66013 229
34.68025 220
34.70036 222
34.72047 207
34.74059 201
34.7607 223
34.78082 218
34.80093 204
34.82104 217
34.84116 224
34.86127 262
34.88138 246
34.9015 266
34.92161 246
34.94173 235
34.96184 243
34.98195 242
35.00207 242
35.02218 247
35.04229 296
35.06241 271
35.08252 272
35.10264 274
35.12275 254
35.14286 228
35.16298 227
35.18309 252
35.2032 253
35.22332 218
35.24343 250
35.26354 266
35.28366 281
35.30377 261
35.32389 287
35.344 282
35.36411 291
35.38423 295
35.40434 240
35.42445 260
35.44457 264
35.46468 276
35.4848 260
35.50491 319
35.52502 280
35.54514 276
35.56525 271
35.58536 232
35.60548 236
35.62559 238
35.64571 235
35.66582 213
35.68593 238
35.70605 194
35.72616 221
35.74627 227
35.76639 202
35.7865 202
35.80661 208
35.82673 190
35.84684 192
35.86696 221
35.88707 218
35.90718 211
35.9273 190
35.94741 220
35.96752 226
35.98764 211
36.00775 198
36.02787 226
36.04798 246
36.06809 228
36.08821 238
36.10832 248
36.12843 262
36.14855 257
36.16866 250
36.18878 243
36.20889 265
36.229 273
36.24912 324
36.26923 287
36.28934 332
36.30946 367
36.32957 422
36.34968 505
36.3698 587
36.38991 753
36.41003 962
36.43014 1199
36.45025 1423
36.47037 1761
36.49048 1873
36.51059 1996
36.53071 1882
36.55082 1574
36.57094 1347
36.59105 1104
36.61116 1021
36.63128 834
36.65139 648
36.6715 411
36.69162 342
36.71173 286
36.73184 287
36.75196 264
36.77207 261
36.79219 228
36.8123 241
36.83241 276
36.85253 234
36.87264 246
36.89275 271
36.91287 252
36.93298 246
36.9531 239
36.97321 268
36.99332 224
37.01344 236
37.03355 246
37.05366 239
37.07378 230
37.09389 207
37.11401 212
37.13412 214
37.15423 213
37.17435 208
37.19446 192
37.21457 195
37.23469 204
37.2548 208
37.27491 211
37.29503 198
37.31514 209
37.33526 208
37.35537 223
37.37548 188
37.3956 172
37.41571 195
37.43582 180
37.45594 173
37.47605 184
37.49617 200
37.51628 187
37.53639 222
37.55651 217
37.57662 209
37.59673 198
37.61685 222
37.63696 200
37.65708 216
37.67719 179
37.6973 193
37.71742 184
37.73753 176
37.75764 185
37.77776 160
37.79787 184
37.81798 180
37.8381 168
37.85821 165
37.87833 169
37.89844 163
37.91855 159
37.93867 161
37.95878 166
37.97889 160
37.99901 172
38.01912 179
38.03924 175
38.05935 169
38.07946 168
38.09958 193
38.11969 174
38.1398 182
38.15992 197
38.18003 175
38.20015 218
38.22026 201
38.24037 159
38.26049 186
38.2806 168
38.30071 175
38.32083 190
38.34094 183
38.36105 215
38.38117 182
38.40128 202
38.4214 183
38.44151 177
38.46162 217
38.48174 186
38.50185 202
38.52196 213
38.54208 213
38.56219 239
38.58231 226
38.60242 188
38.62253 207
38.64265 194
38.66276 173
38.68287 176
38.70299 173
38.7231 206
38.74321 194
38.76333 210
38.78344 171
38.80356 164
38.82367 169
38.84378 193
38.8639 198
38.88401 196
38.90412 193
38.92424 182
38.94435 186
38.96447 181
38.98458 196
39.00469 217
39.02481 215
39.04492 221
39.06503 237
39.08515 226
39.10526 235
39.12538 298
39.14549 268
39.1656 285
39.18572 302
39.20583 335
39.22594 357
39.24606 456
39.26617 475
39.28628 541
39.3064 703
39.32651 850
39.34663 1067
39.36674 1284
39.38685 1519
39.40697 1695
39.42708 1764
39.44719 1750
39.46731 1479
39.48742 1278
39.50754 1083
39.52765 984
39.54776 877
39.56788 680
39.58799 545
39.6081 368
39.62822 301
39.64833 281
39.66845 237
39.68856 212
39.70867 234
39.72879 218
39.7489 214
39.76901 202
39.78913 191
39.80924 219
39.82935 190
39.84947 169
39.86958 183
39.8897 195
39.90981 194
39.92992 211
39.95004 191
39.97015 206
39.99026 228
40.01038 219
40.03049 247
40.05061 268
40.07072 267
40.09083 320
40.11095 354
40.13106 446
40.15117 519
40.17129 612
40.1914 735
40.21152 814
40.23163 938
40.25174 969
40.27186 919
40.29197 763
40.31208 673
40.3322 609
40.35231 567
40.37242 530
40.39254 425
40.41265 348
40.43277 287
40.45288 248
40.47299 218
40.49311 207
40.51322 194
40.53333 232
40.55345 173
40.57356 187
40.59368 176
40.61379 212
40.6339 173
40.65402 191
40.67413 182
40.69424 187
40.71436 175
40.73447 187
40.75458 177
40.7747 184
40.79481 165
40.81493 180
40.83504 169
40.85515 170
40.87527 178
40.89538 183
40.91549 145
40.93561 155
40.95572 172
40.97584 182
40.99595 172
41.01606 173
41.03618 181
41.05629 175
41.0764 191
41.09652 159
41.11663 174
41.13675 161
41.15686 172
41.17697 190
41.19709 179
41.2172 178
41.23731 178
41.25743 175
41.27754 183
41.29765 184
41.31777 182
41.33788 175
41.358 165
41.37811 177
41.39822 189
41.41834 200
41.43845 175
41.45856 181
41.47868 172
41.49879 183
41.51891 181
41.53902 189
41.55913 193
41.57925 223
41.59936 199
41.61947 207
41.63959 265
41.6597 252
41.67982 263
41.69993 298
41.72004 321
41.74016 296
41.76027 327
41.78038 314
41.8005 290
41.82061 301
41.84072 282
41.86084 287
41.88095 263
41.90107 264
41.92118 231
41.94129 212
41.96141 217
41.98152 193
42.00163 207
42.02175 226
42.04186 209
42.06198 207
42.08209 236
42.1022 225
42.12232 261
42.14243 271
42.16254 306
42.18266 300
42.20277 310
42.22289 379
42.243 378
42.26311 460
42.28323 528
42.30334 657
42.32345 773
42.34357 955
42.36368 1097
42.38379 1239
42.40391 1468
42.42402 1407
42.44414 1158
42.46425 1054
42.48436 823
42.50448 755
42.52459 741
42.5447 670
42.56482 496
42.58493 391
42.60505 315
42.62516 291
42.64527 280
42.66539 242
42.6855 253
42.70561 219
42.72573 244
42.74584 199
42.76595 202
42.78607 218
42.80618 221
42.8263 213
42.84641 240
42.86652 212
42.88664 202
42.90675 209
42.92686 201
42.94698 192
42.96709 193
42.98721 212
43.00732 180
43.02743 178
43.04755 189
43.06766 164
43.08777 150
43.10789 173
43.128 162
43.14812 178
43.16823 152
43.18834 157
43.20846 153
43.22857 167
43.24868 144
43.2688 181
43.28891 135
43.30902 135
43.32914 135
43.34925 135
43.36937 138
43.38948 173
43.40959 151
43.42971 160
43.44982 154
43.46993 149
43.49005 151
43.51016 141
43.53028 157
43.55039 164
43.5705 158
43.59062 149
43.61073 149
43.63084 136
43.65096 152
43.67107 151
43.69119 159
43.7113 152
43.73141 154
43.75153 140
43.77164 150
43.79175 170
43.81187 163
43.83198 155
43.85209 146
43.87221 143
43.89232 154
43.91244 151
43.93255 162
43.95266 159
43.97278 149
43.99289 154
44.013 142
44.03312 155
44.05323 172
44.07335 157
44.09346 165
44.11357 154
44.13369 155
44.1538 165
44.17391 189
44.19403 168
44.21414 168
44.23426 158
44.25437 143
44.27448 193
44.2946 140
44.31471 160
44.33482 156
44.35494 154
44.37505 178
44.39516 132
44.41528 153
44.43539 165
44.45551 161
44.47562 130
44.49573 154
44.51585 149
44.53596 152
44.55607 173
44.57619 145
44.5963 168
44.61642 163
44.63653 165
44.65664 170
44.67676 162
44.69687 146
44.71698 148
44.7371 154
44.75721 144
44.77732 167
44.79744 163
44.81755 158
44.83767 162
44.85778 166
44.87789 170
44.89801 177
44.91812 169
44.93823 187
44.95835 147
44.97846 160
44.99858 172
45.01869 177
45.0388 175
45.05892 163
45.07903 160
45.09914 164
45.11926 174
45.13937 172
45.15949 168
45.1796 155
45.19971 174
45.21983 196
45.23994 144
45.26005 166
45.28017 183
45.30028 187
45.32039 185
45.34051 170
45.36062 195
45.38074 185
45.40085 192
45.42096 181
45.44108 212
45.46119 219
45.4813 260
45.50142 251
45.52153 281
45.54165 275
45.56176 290
45.58187 332
45.60199 370
45.6221 455
45.64221 535
45.66233 611
45.68244 711
45.70256 806
45.72267 895
45.74278 915
45.7629 922
45.78301 861
45.80312 749
45.82324 606
45.84335 591
45.86346 576
45.88358 529
45.90369 461
45.92381 349
45.94392 283
45.96403 224
45.98415 207
46.00426 176
46.02437 184
46.04449 187
46.0646 162
46.08472 168
46.10483 176
46.12494 183
46.14506 175
46.16517 176
46.18528 176
46.2054 172
46.22551 162
46.24563 175
46.26574 149
46.28585 169
46.30597 168
46.32608 177
46.34619 163
46.36631 153
46.38642 163
46.40653 154
46.42665 155
46.44676 137
46.46688 166
46.48699 168
46.5071 122
46.52722 157
46.54733 173
46.56744 156
46.58756 136
46.60767 140
46.62779 160
46.6479 142
46.66801 148
46.68813 147
46.70824 167
46.72835 146
46.74847 155
46.76858 174
46.78869 161
46.80881 135
46.82892 155
46.84904 173
46.86915 177
46.88926 184
46.90938 153
46.92949 167
46.9496 170
46.96972 153
46.98983 147
47.00995 182
47.03006 165
47.05017 187
47.07029 185
47.0904 213
47.11051 190
47.13063 182
47.15074 186
47.17086 185
47.19097 161
47.21108 162
47.2312 159
47.25131 189
47.27142 175
47.29154 163
47.31165 182
47.33176 188
47.35188 192
47.37199 170
47.39211 202
47.41222 185
47.43233 193
47.45245 176
47.47256 200
47.49267 202
47.51279 179
47.5329 169
47.55302 169
47.57313 158
47.59324 153
47.61336 148
47.63347 167
47.65358 156
47.6737 152
47.69381 143
47.71393 134
47.73404 155
47.75415 157
47.77427 165
47.79438 159
47.81449 129
47.83461 131
47.85472 134
47.87483 138
47.89495 135
47.91506 123
47.93518 153
47.95529 136
47.9754 146
47.99552 138
48.01563 137
48.03574 134
48.05586 141
48.07597 140
48.09609 146
48.1162 172
48.13631 138
48.15643 146
48.17654 155
48.19665 130
48.21677 155
48.23688 156
48.257 146
48.27711 146
48.29722 161
48.31734 169
48.33745 162
48.35756 150
48.37768 163
48.39779 157
48.4179 141
48.43802 177
48.45813 138
48.47825 165
48.49836 149
48.51847 142
48.53859 157
48.5587 146
48.57881 164
48.59893 139
48.61904 164
48.63916 164
48.65927 179
48.67938 150
48.6995 162
48.71961 175
48.73972 173
48.75984 157
48.77995 181
48.80006 161
48.82018 200
48.84029 188
48.86041 152
48.88052 185
48.90063 210
48.92075 200
48.94086 188
48.96097 197
48.98109 211
49.0012 192
49.02132 202
49.04143 212
49.06154 190
49.08166 216
49.10177 191
49.12188 169
49.142 223
49.16211 234
49.18223 179
49.20234 181
49.22245 153
49.24257 172
49.26268 183
49.28279 176
49.30291 200
49.32302 176
49.34313 199
49.36325 178
49.38336 157
49.40348 158
49.42359 165
49.4437 179
49.46382 175
49.48393 185
49.50404 192
49.52416 196
49.54427 177
49.56439 196
49.5845 215
49.60461 219
49.62473 220
49.64484 257
49.66495 251
49.68507 256
49.70518 272
49.7253 302
49.74541 306
49.76552 354
49.78564 352
49.80575 400
49.82586 409
49.84598 472
49.86609 539
49.8862 595
49.90632 636
49.92643 761
49.94655 882
49.96666 1116
49.98677 1280
50.00689 1678
50.027 1998
50.04711 2396
50.06723 2647
50.08734 2813
50.10746 2774
50.12757 2566
50.14768 2079
50.1678 1649
50.18791 1600
50.20802 1556
50.22814 1450
50.24825 1385
50.26837 1102
50.28848 822
50.30859 545
50.32871 397
50.34882 353
50.36893 316
50.38905 312
50.40916 350
50.42927 305
50.44939 322
50.4695 349
50.48962 396
50.50973 390
50.52984 412
50.54996 410
50.57007 408
50.59018 356
50.6103 362
50.63041 350
50.65053 328
50.67064 311
50.69075 328
50.71087 328
50.73098 296
50.75109 269
50.77121 264
50.79132 258
50.81143 248
50.83155 220
50.85166 209
50.87178 237
50.89189 199
50.912 198
50.93212 177
50.95223 168
50.97234 193
50.99246 185
51.01257 177
51.03269 160
51.0528 172
51.07291 171
51.09303 179
51.11314 184
51.13325 168
51.15337 175
51.17348 173
51.1936 180
51.21371 162
51.23382 181
51.25394 173
51.27405 199
51.29416 193
51.31428 172
51.33439 208
51.3545 163
51.37462 185
51.39473 174
51.41485 188
51.43496 167
51.45507 160
51.47519 158
51.4953 151
51.51541 153
51.53553 140
51.55564 122
51.57576 155
51.59587 145
51.61598 145
51.6361 166
51.65621 136
51.67632 142
51.69644 154
51.71655 152
51.73667 158
51.75678 147
51.77689 139
51.79701 129
51.81712 125
51.83723 138
51.85735 133
51.87746 125
51.89757 140
51.91769 134
51.9378 136
51.95792 140
51.97803 149
51.99814 138
52.01826 148
52.03837 116
52.05848 153
52.0786 128
52.09871 144
52.11883 143
52.13894 136
52.15905 146
52.17917 170
52.19928 146
52.21939 131
52.23951 140
52.25962 117
52.27974 113
52.29985 146
52.31996 138
52.34008 158
52.36019 128
52.3803 147
52.40042 119
52.42053 149
52.44064 164
52.46076 161
52.48087 144
52.50099 155
52.5211 154
52.54121 144
52.56133 137
52.58144 155
52.60155 172
52.62167 133
52.64178 159
52.6619 157
52.68201 144
52.70212 165
52.72224 153
52.74235 157
52.76246 147
52.78258 176
52.80269 148
52.8228 126
52.84292 139
52.86303 164
52.88315 155
52.90326 156
52.92337 144
52.94349 142
52.9636 171
52.98371 149
53.00383 130
53.02394 144
53.04406 148
53.06417 159
53.08428 161
53.1044 115
53.12451 157
53.14462 164
53.16474 144
53.18485 154
53.20497 136
53.22508 147
53.24519 156
53.26531 136
53.28542 136
53.30553 139
53.32565 149
53.34576 162
53.36587 128
53.38599 138
53.4061 162
53.42622 133
53.44633 157
53.46644 128
53.48656 124
53.50667 139
53.52678 138
53.5469 149
53.56701 133
53.58713 128
53.60724 144
53.62735 156
53.64747 180
53.66758 152
53.68769 146
53.70781 135
53.72792 171
53.74804 165
53.76815 173
53.78826 156
53.80838 169
53.82849 160
53.8486 133
53.86872 151
53.88883 126
53.90894 168
53.92906 145
53.94917 189
53.96929 145
53.9894 167
54.00951 159
54.02963 155
54.04974 147
54.06985 140
54.08997 187
54.11008 172
54.1302 165
54.15031 155
54.17042 150
54.19054 169
54.21065 159
54.23076 178
54.25088 170
54.27099 167
54.29111 156
54.31122 172
54.33133 178
54.35145 184
54.37156 179
54.39167 190
54.41179 182
54.4319 144
54.45201 171
54.47213 205
54.49224 177
54.51236 200
54.53247 192
54.55258 217
54.5727 210
54.59281 231
54.61292 267
54.63304 295
54.65315 302
54.67327 351
54.69338 408
54.71349 491
54.73361 574
54.75372 627
54.77383 741
54.79395 854
54.81406 891
54.83417 930
54.85429 828
54.8744 698
54.89452 597
54.91463 534
54.93474 545
54.95486 524
54.97497 548
54.99508 496
55.0152 402
55.03531 345
55.05543 305
55.07554 268
55.09565 257
55.11577 239
55.13588 293
55.15599 283
55.17611 314
55.19622 351
55.21634 401
55.23645 444
55.25656 444
55.27668 429
55.29679 438
55.3169 425
55.33702 383
55.35713 352
55.37724 307
55.39736 314
55.41747 306
55.43759 337
55.4577 300
55.47781 257
55.49793 220
55.51804 194
55.53815 175
55.55827 170
55.57838 144
55.5985 149
55.61861 172
55.63872 159
55.65884 171
55.67895 173
55.69906 138
55.71918 165
55.73929 159
55.75941 149
55.77952 129
55.79963 149
55.81975 142
55.83986 146
55.85997 141
55.88009 122
55.9002 154
55.92031 143
55.94043 131
55.96054 118
55.98066 120
56.00077 133
56.02088 147
56.041 156
56.06111 136
56.08122 122
56.10134 139
56.12145 140
56.14157 150
56.16168 134
56.18179 147
56.20191 134
56.22202 120
56.24213 134
56.26225 144
56.28236 146
56.30248 109
56.32259 117
56.3427 139
56.36282 123
56.38293 127
56.40304 137
56.42316 134
56.44327 140
56.46338 130
56.4835 145
56.50361 144
56.52373 126
56.54384 138
56.56395 116
56.58407 151
56.60418 130
56.62429 149
56.64441 146
56.66452 140
56.68464 133
56.70475 148
56.72486 137
56.74498 136
56.76509 172
56.7852 171
56.80532 136
56.82543 139
56.84554 137
56.86566 143
56.88577 116
56.90589 130
56.926 151
56.94611 146
56.96623 135
56.98634 158
57.00645 140
57.02657 170
57.04668 147
57.0668 150
57.08691 150
57.10702 174
57.12714 177
57.14725 178
57.16736 185
57.18748 190
57.20759 189
57.22771 186
57.24782 162
57.26793 146
57.28805 162
57.30816 175
57.32827 169
57.34839 168
57.3685 153
57.38861 165
57.40873 159
57.42884 154
57.44896 167
57.46907 137
57.48918 171
57.5093 151
57.52941 142
57.54952 144
57.56964 143
57.58975 147
57.60987 146
57.62998 126
57.65009 138
57.67021 132
57.69032 175
57.71043 151
57.73055 120
57.75066 144
57.77078 138
57.79089 138
57.811 141
57.83112 159
57.85123 122
57.87134 130
57.89146 138
57.91157 130
57.93168 163
57.9518 137
57.97191 132
57.99203 122
58.01214 119
58.03225 119
58.05237 158
58.07248 137
58.09259 126
58.11271 139
58.13282 146
58.15294 135
58.17305 119
58.19316 143
58.21328 133
58.23339 149
58.2535 129
58.27362 139
58.29373 162
58.31385 150
58.33396 139
58.35407 132
58.37419 151
58.3943 161
58.41441 150
58.43453 150
58.45464 169
58.47475 158
58.49487 149
58.51498 183
58.5351 167
58.55521 135
58.57532 170
58.59544 156
58.61555 180
58.63566 161
58.65578 173
58.67589 155
58.69601 146
58.71612 162
58.73623 140
58.75635 154
58.77646 144
58.79657 133
58.81669 161
58.8368 167
58.85691 132
58.87703 135
58.89714 147
58.91726 130
58.93737 136
58.95748 116
58.9776 159
58.99771 142
59.01782 137
59.03794 148
59.05805 141
59.07817 166
59.09828 143
59.11839 135
59.13851 151
59.15862 154
59.17873 170
59.19885 142
59.21896 146
59.23908 150
59.25919 171
59.2793 151
59.29942 157
59.31953 149
59.33964 157
59.35976 169
59.37987 142
59.39998 165
59.4201 187
59.44021 171
59.46033 201
59.48044 189
59.50055 189
59.52067 216
59.54078 234
59.56089 240
59.58101 252
59.60112 263
59.62124 286
59.64135 278
59.66146 340
59.68158 371
59.70169 403
59.7218 499
59.74192 569
59.76203 648
59.78215 773
59.80226 977
59.82237 1142
59.84249 1414
59.8626 1538
59.88271 1627
59.90283 1704
59.92294 1720
59.94305 1484
59.96317 1246
59.98328 1035
60.0034 946
60.02351 966
60.04362 947
60.06374 978
60.08385 870
60.10396 725
60.12408 649
60.14419 422
60.16431 359
60.18442 273
60.20453 253
60.22465 270
60.24476 203
60.26487 220
60.28499 187
60.3051 186
60.32522 183
60.34533 185
60.36544 184
60.38556 188
60.40567 198
60.42578 132
60.4459 159
60.46601 150
60.48612 152
60.50624 150
60.52635 156
60.54647 124
60.56658 151
60.58669 162
60.60681 170
60.62692 162
60.64703 166
60.66715 164
60.68726 163
60.70738 154
60.72749 160
60.7476 163
60.76772 147
60.78783 165
60.80794 167
60.82806 154
60.84817 119
60.86828 137
60.8884 147
60.90851 126
60.92863 155
60.94874 140
60.96885 145
60.98897 151
61.00908 160
61.02919 143
61.04931 175
61.06942 158
61.08954 147
61.10965 165
61.12976 167
61.14988 168
61.16999 164
61.1901 190
61.21022 165
61.23033 161
61.25045 144
61.27056 147
61.29067 143
61.31079 141
61.3309 157
61.35101 147
61.37113 138
61.39124 148
61.41135 121
61.43147 150
61.45158 141
61.4717 137
61.49181 145
61.51192 159
61.53204 135
61.55215 132
61.57226 140
61.59238 122
61.61249 143
61.63261 154
61.65272 154
61.67283 170
61.69295 150
61.71306 157
61.73317 158
61.75329 147
61.7734 147
61.79352 159
61.81363 150
61.83374 149
61.85386 168
61.87397 170
61.89408 158
61.9142 163
61.93431 138
61.95442 151
61.97454 145
61.99465 151
62.01477 129
62.03488 161
62.05499 157
62.07511 168
62.09522 155
62.11533 160
62.13545 163
62.15556 152
62.17568 153
62.19579 174
62.2159 157
62.23602 153
62.25613 179
62.27624 180
62.29636 165
62.31647 148
62.33659 133
62.3567 141
62.37681 167
62.39693 141
62.41704 153
62.43715 163
62.45727 154
62.47738 143
62.49749 169
62.51761 140
62.53772 170
62.55784 160
62.57795 127
62.59806 125
62.61818 139
62.63829 146
62.6584 152
62.67852 169
62.69863 151
62.71875 123
62.73886 154
62.75897 142
62.77909 146
62.7992 136
62.81931 160
62.83943 167
62.85954 159
62.87965 137
62.89977 154
62.91988 160
62.94 124
62.96011 148
62.98022 159
63.00034 164
63.02045 159
63.04056 163
63.06068 154
63.08079 147
63.10091 151
63.12102 152
63.14113 150
63.16125 147
63.18136 145
63.20147 161
63.22159 138
63.2417 141
63.26182 144
63.28193 149
63.30204 146
63.32216 145
63.34227 135
63.36238 154
63.3825 122
63.40261 136
63.42272 155
63.44284 170
63.46295 158
63.48307 144
63.50318 135
63.52329 144
63.54341 150
63.56352 158
63.58363 167
63.60375 152
63.62386 158
63.64398 162
63.66409 191
63.6842 193
63.70432 184
63.72443 173
63.74454 198
63.76466 213
63.78477 226
63.80489 270
63.825 242
63.84511 225
63.86523 292
63.88534 328
63.90545 351
63.92557 401
63.94568 466
63.96579 452
63.98591 439
64.00602 462
64.02614 388
64.04625 354
64.06636 292
64.08648 295
64.10659 318
64.1267 283
64.14682 324
64.16693 249
64.18705 281
64.20716 231
64.22727 217
64.24739 213
64.2675 189
64.28761 170
64.30773 151
64.32784 153
64.34796 151
64.36807 152
64.38818 148
64.4083 143
64.42841 143
64.44852 147
64.46864 137
64.48875 155
64.50886 128
64.52898 145
64.54909 135
64.56921 128
64.58932 130
64.60943 128
64.62955 136
64.64966 131
64.66977 144
64.68989 129
64.71 132
64.73012 151
64.75023 130
64.77034 122
64.79046 120
64.81057 123
64.83068 138
64.8508 143
64.87091 144
64.89102 152
64.91114 139
64.93125 154
64.95137 154
64.97148 132
64.99159 140
65.01171 133
65.03182 114
65.05193 176
65.07205 147
65.09216 137
65.11228 147
65.13239 167
65.1525 142
65.17262 168
65.19273 173
65.21284 158
65.23296 151
65.25307 137
65.27319 156
65.2933 138
65.31341 168
65.33353 161
65.35364 138
65.37375 164
65.39387 137
65.41398 168
65.43409 162
65.45421 163
65.47432 182
65.49444 168
65.51455 160
65.53466 170
65.55478 147
65.57489 146
65.595 168
65.61512 166
65.63523 189
65.65535 183
65.67546 193
65.69557 215
65.71569 189
65.7358 198
65.75591 197
65.77603 196
65.79614 194
65.81626 155
65.83637 156
65.85648 182
65.8766 167
65.89671 180
65.91682 153
65.93694 183
65.95705 162
65.97716 148
65.99728 148
66.01739 127
66.03751 162
66.05762 148
66.07773 143
66.09785 101
66.11796 152
66.13807 167
66.15819 156
66.1783 146
66.19842 162
66.21853 138
66.23864 185
66.25876 118
66.27887 162
66.29898 158
66.3191 152
66.33921 163
66.35933 160
66.37944 149
66.39955 156
66.41967 147
66.43978 161
66.45989 144
66.48001 157
66.50012 158
66.52023 135
66.54035 157
66.56046 147
66.58058 159
66.60069 157
66.6208 136
66.64092 133
66.66103 137
66.68114 155
66.70126 130
66.72137 136
66.74149 123
66.7616 144
66.78171 130
66.80183 159
66.82194 155
66.84205 136
66.86217 145
66.88228 134
66.90239 154
66.92251 151
66.94262 152
66.96274 152
66.98285 156
67.00296 151
67.02308 176
67.04319 162
67.0633 154
67.08342 168
67.10353 154
67.12365 158
67.14376 152
67.16387 150
67.18399 161
67.2041 171
67.22421 187
67.24433 186
67.26444 186
67.28456 192
67.30467 203
67.32478 218
67.3449 184
67.36501 219
67.38512 238
67.40524 199
67.42535 251
67.44546 289
67.46558 316
67.48569 322
67.50581 372
67.52592 419
67.54603 455
67.56615 594
67.58626 676
67.60637 756
67.62649 827
67.6466 915
67.66672 966
67.68683 1106
67.70694 1030
67.72706 978
67.74717 861
67.76728 655
67.7874 650
67.80751 646
67.82763 706
67.84774 728
67.86785 754
67.88797 834
67.90808 790
67.92819 812
67.94831 799
67.96842 805
67.98853 868
68.00865 1018
68.02876 1024
68.04888 1197
68.06899 1361
68.0891 1384
68.10922 1357
68.12933 1354
68.14944 1196
68.16956 1094
68.18967 1099
68.20979 1127
68.2299 1257
68.25001 1293
68.27013 1252
68.29024 1243
68.31035 1109
68.33047 864
68.35058 791
68.3707 620
68.39081 573
68.41092 538
68.43104 514
68.45115 493
68.47126 449
68.49138 410
68.51149 346
68.5316 279
68.55172 230
68.57183 205
68.59195 177
68.61206 191
68.63217 180
68.65229 155
68.6724 189
68.69251 166
68.71263 164
68.73274 156
68.75286 157
68.77297 162
68.79308 162
68.8132 158
68.83331 150
68.85342 164
68.87354 120
68.89365 150
68.91376 132
68.93388 165
68.95399 133
68.97411 152
68.99422 145
69.01433 139
69.03445 143
69.05456 142
69.07467 147
69.09479 165
69.1149 115
69.13502 153
69.15513 158
69.17524 143
69.19536 143
69.21547 133
69.23558 113
69.2557 149
69.27581 125
69.29593 145
69.31604 140
69.33615 138
69.35627 128
69.37638 154
69.39649 120
69.41661 125
69.43672 133
69.45683 123
69.47695 135
69.49706 140
69.51718 130
69.53729 124
69.5574 142
69.57752 155
69.59763 117
69.61774 131
69.63786 126
69.65797 174
69.67809 136
69.6982 139
69.71831 124
69.73843 112
69.75854 151
69.77865 142
69.79877 127
69.81888 137
69.839 131
69.85911 129
69.87922 127
69.89934 130
69.91945 115
69.93956 124
69.95968 128
69.97979 121
69.9999 148
70.02002 136
70.04013 125
70.06025 99
70.08036 118
70.10047 128
70.12059 122
70.1407 128
70.16081 133
70.18093 126
70.20104 131
70.22116 150
70.24127 127
70.26138 122
70.2815 129
70.30161 112
70.32172 116
70.34184 110
70.36195 110
70.38207 129
70.40218 134
70.42229 132
70.44241 121
70.46252 127
70.48263 122
70.50275 119
70.52286 124
70.54297 120
70.56309 117
70.5832 128
70.60332 118
70.62343 135
70.64354 102
70.66366 124
70.68377 122
70.70388 112
70.724 120
70.74411 119
70.76423 134
70.78434 125
70.80445 125
70.82457 126
70.84468 135
70.86479 122
70.88491 121
70.90502 130
70.92513 133
70.94525 123
70.96536 139
70.98548 132
71.00559 131
71.0257 128
71.04582 131
71.06593 124
71.08604 131
71.10616 141
71.12627 125
71.14639 130
71.1665 110
71.18661 109
71.20673 129
71.22684 133
71.24695 131
71.26707 125
71.28718 128
71.3073 148
71.32741 126
71.34752 128
71.36764 139
71.38775 143
71.40786 133
71.42798 157
71.44809 123
71.4682 143
71.48832 140
71.50843 132
71.52855 137
71.54866 127
71.56877 148
71.58889 141
71.609 116
71.62911 141
71.64923 123
71.66934 136
71.68946 125
71.70957 132
71.72968 130
71.7498 125
71.76991 130
71.79002 133
71.81014 122
71.83025 127
71.85037 118
71.87048 120
71.89059 136
71.91071 133
71.93082 105
71.95093 122
71.97105 117
71.99116 122
72.01127 127
72.03139 101
72.0515 138
72.07162 127
72.09173 122
72.11184 131
72.13196 103
72.15207 143
72.17218 117
72.1923 134
72.21241 112
72.23253 132
72.25264 125
72.27275 112
72.29287 113
72.31298 141
72.33309 130
72.35321 119
72.37332 117
72.39344 121
72.41355 122
72.43366 133
72.45378 117
72.47389 133
72.494 135
72.51412 110
72.53423 123
72.55434 128
72.57446 118
72.59457 125
72.61469 136
72.6348 139
72.65491 129
72.67503 127
72.69514 133
72.71525 125
72.73537 117
72.75548 157
72.7756 141
72.79571 132
72.81582 148
72.83594 129
72.85605 144
72.87616 138
72.89628 126
72.91639 116
72.9365 135
72.95662 146
72.97673 137
72.99685 157
73.01696 153
73.03707 144
73.05719 155
73.0773 169
73.09741 145
73.11753 155
73.13764 167
73.15776 176
73.17787 204
73.19798 182
73.2181 199
73.23821 187
73.25832 225
73.27844 250
73.29855 245
73.31867 327
73.33878 352
73.35889 367
73.37901 412
73.39912 436
73.41923 457
73.43935 417
73.45946 405
73.47957 329
73.49969 289
73.5198 238
73.53992 273
73.56003 301
73.58014 265
73.60026 272
73.62037 272
73.64048 266
73.6606 251
73.68071 268
73.70083 211
73.72094 202
73.74105 172
73.76117 167
73.78128 158
73.80139 145
73.82151 164
73.84162 148
73.86174 159
73.88185 151
73.90196 135
73.92208 146
73.94219 132
73.9623 121
73.98242 132
74.00253 145
74.02264 127
74.04276 135
74.06287 134
74.08299 124
74.1031 127
74.12321 146
74.14333 128
74.16344 134
74.18355 137
74.20367 144
74.22378 117
74.2439 132
74.26401 119
74.28412 127
74.30424 131
74.32435 139
74.34446 118
74.36458 122
74.38469 120
74.40481 128
74.42492 110
74.44503 117
74.46515 117
74.48526 139
74.50537 117
74.52549 134
74.5456 114
74.56571 116
74.58583 105
74.60594 131
74.62606 145
74.64617 133
74.66628 127
74.6864 126
74.70651 129
74.72662 155
74.74674 116
74.76685 160
74.78697 129
74.80708 146
74.82719 133
74.84731 127
74.86742 134
74.88753 141
74.90765 131
74.92776 126
74.94787 131
74.96799 129
74.9881 132
75.00822 137
