3.00117 21058
3.02128 20233
3.0414 19504
3.06151 19124
3.08162 18471
3.10174 18048
3.12185 17556
3.14197 16664
3.16208 16816
3.18219 15811
3.20231 15532
3.22242 14942
3.24253 14678
3.26265 14374
3.28276 13595
3.30288 13234
3.32299 12599
3.3431 12344
3.36322 11865
3.38333 11383
3.40344 11369
3.42356 10949
3.44367 10293
3.46379 10143
3.4839 9526
3.50401 9372
3.52413 9148
3.54424 8594
3.56435 8398
3.58447 7845
3.60458 7728
3.62469 7354
3.64481 7047
3.66492 6964
3.68504 6487
3.70515 6434
3.72526 6018
3.74538 5738
3.76549 5646
3.7856 5261
3.80572 5231
3.82583 4881
3.84595 4636
3.86606 4535
3.88617 4141
3.90629 4142
3.9264 4012
3.94651 3692
3.96663 3498
3.98674 3311
4.00686 3158
4.02697 3124
4.04708 2876
4.0672 2829
4.08731 2579
4.10742 2480
4.12754 2407
4.14765 2184
4.16776 2166
4.18788 1952
4.20799 2079
4.22811 1939
4.24822 1800
4.26833 1723
4.28845 1615
4.30856 1744
4.32867 1665
4.34879 1411
4.3689 1454
4.38902 1439
4.40913 1391
4.42924 1448
4.44936 1350
4.46947 1352
4.48958 1211
4.5097 1208
4.52981 1242
4.54992 1121
4.57004 1034
4.59015 1038
4.61027 1067
4.63038 1060
4.65049 935
4.67061 940
4.69072 913
4.71083 853
4.73095 910
4.75106 861
4.77118 850
4.79129 839
4.8114 816
4.83152 809
4.85163 755
4.87174 676
4.89186 713
4.91197 722
4.93209 683
4.9522 634
4.97231 659
4.99243 600
5.01254 630
5.03265 659
5.05277 593
5.07288 523
5.09299 577
5.11311 549
5.13322 491
5.15334 478
5.17345 470
5.19356 514
5.21368 418
5.23379 473
5.2539 416
5.27402 418
5.29413 445
5.31425 396
5.33436 450
5.35447 396
5.37459 388
5.3947 378
5.41481 395
5.43493 354
5.45504 331
5.47516 336
5.49527 349
5.51538 328
5.5355 291
5.55561 292
5.57572 299
5.59584 296
5.61595 244
5.63606 280
5.65618 283
5.67629 247
5.69641 269
5.71652 263
5.73663 232
5.75675 252
5.77686 240
5.79697 234
5.81709 220
5.8372 233
5.85732 221
5.87743 197
5.89754 214
5.91766 215
5.93777 200
5.95788 218
5.978 197
5.99811 196
6.01823 192
6.03834 168
6.05845 165
6.07857 199
6.09868 201
6.11879 167
6.13891 161
6.15902 157
6.17913 158
6.19925 219
6.21936 171
6.23948 182
6.25959 180
6.2797 162
6.29982 167
6.31993 208
6.34004 174
6.36016 166
6.38027 177
6.40039 198
6.4205 173
6.44061 197
6.46073 184
6.48084 186
6.50095 163
6.52107 150
6.54118 158
6.56129 164
6.58141 135
6.60152 151
6.62164 154
6.64175 135
6.66186 180
6.68198 149
6.70209 154
6.7222 142
6.74232 160
6.76243 123
6.78255 178
6.80266 166
6.82277 157
6.84289 153
6.863 166
6.88311 162
6.90323 173
6.92334 140
6.94346 146
6.96357 170
6.98368 155
7.0038 166
7.02391 170
7.04402 178
7.06414 156
7.08425 169
7.10436 160
7.12448 139
7.14459 152
7.16471 188
7.18482 152
7.20493 157
7.22505 184
7.24516 171
7.26527 187
7.28539 182
7.3055 156
7.32562 163
7.34573 179
7.36584 160
7.38596 140
7.40607 136
7.42618 155
7.4463 149
7.46641 166
7.48653 135
7.50664 166
7.52675 180
7.54687 181
7.56698 187
7.58709 163
7.60721 171
7.62732 185
7.64743 169
7.66755 175
7.68766 169
7.70778 161
7.72789 187
7.748 193
7.76812 168
7.78823 174
7.80834 169
7.82846 172
7.84857 173
7.86869 192
7.8888 211
7.90891 182
7.92903 178
7.94914 206
7.96925 175
7.98937 186
8.00948 191
8.0296 195
8.04971 183
8.06982 192
8.08994 180
8.11005 181
8.13016 149
8.15028 169
8.17039 167
8.1905 183
8.21062 205
8.23073 175
8.25085 199
8.27096 207
8.29107 191
8.31119 199
8.3313 210
8.35141 180
8.37153 217
8.39164 178
8.41176 205
8.43187 234
8.45198 213
8.4721 178
8.49221 202
8.51232 203
8.53244 208
8.55255 215
8.57266 227
8.59278 200
8.61289 220
8.63301 231
8.65312 224
8.67323 201
8.69335 236
8.71346 211
8.73357 210
8.75369 203
8.7738 226
8.79392 261
8.81403 207
8.83414 238
8.85426 205
8.87437 238
8.89448 236
8.9146 202
8.93471 252
8.95483 249
8.97494 210
8.99505 236
9.01517 188
9.03528 185
9.05539 216
9.07551 212
9.09562 215
9.11573 206
9.13585 245
9.15596 214
9.17608 192
9.19619 199
9.2163 207
9.23642 215
9.25653 216
9.27664 209
9.29676 205
9.31687 192
9.33699 202
9.3571 203
9.37721 189
9.39733 205
9.41744 189
9.43755 208
9.45767 223
9.47778 197
9.4979 218
9.51801 193
9.53812 212
9.55824 201
9.57835 188
9.59846 198
9.61858 222
9.63869 192
9.6588 190
9.67892 192
9.69903 173
9.71915 211
9.73926 203
9.75937 212
9.77949 186
9.7996 191
9.81971 239
9.83983 187
9.85994 223
9.88006 200
9.90017 201
9.92028 219
9.9404 206
9.96051 214
9.98062 186
10.00074 212
10.02085 188
10.04097 202
10.06108 214
10.08119 207
10.10131 203
10.12142 211
10.14153 204
10.16165 233
10.18176 209
10.20187 217
10.22199 183
10.2421 225
10.26222 189
10.28233 190
10.30244 224
10.32256 197
10.34267 201
10.36278 218
10.3829 228
10.40301 229
10.42313 191
10.44324 225
10.46335 188
10.48347 177
10.50358 203
10.52369 200
10.54381 189
10.56392 200
10.58403 192
10.60415 213
10.62426 175
10.64438 200
10.66449 233
10.6846 237
10.70472 189
10.72483 200
10.74494 203
10.76506 188
10.78517 214
10.80529 206
10.8254 210
10.84551 212
10.86563 198
10.88574 200
10.90585 204
10.92597 205
10.94608 207
10.9662 196
10.98631 207
11.00642 182
11.02654 211
11.04665 206
11.06676 192
11.08688 182
11.10699 216
11.1271 178
11.14722 225
11.16733 207
11.18745 190
11.20756 198
11.22767 213
11.24779 188
11.2679 191
11.28801 233
11.30813 235
11.32824 189
11.34836 174
11.36847 173
11.38858 216
11.4087 215
11.42881 218
11.44892 216
11.46904 184
11.48915 210
11.50927 184
11.52938 206
11.54949 197
11.56961 239
11.58972 188
11.60983 166
11.62995 195
11.65006 184
11.67017 215
11.69029 198
11.7104 194
11.73052 197
11.75063 195
11.77074 207
11.79086 201
11.81097 220
11.83108 201
11.8512 206
11.87131 210
11.89143 232
11.91154 194
11.93165 193
11.95177 217
11.97188 192
11.99199 189
12.01211 207
12.03222 211
12.05234 214
12.07245 193
12.09256 206
12.11268 202
12.13279 209
12.1529 211
12.17302 237
12.19313 202
12.21324 196
12.23336 183
12.25347 199
12.27359 189
12.2937 193
12.31381 198
12.33393 211
12.35404 228
12.37415 202
12.39427 193
12.41438 223
12.4345 210
12.45461 209
12.47472 198
12.49484 198
12.51495 197
12.53506 182
12.55518 208
12.57529 199
12.5954 193
12.61552 216
12.63563 197
12.65575 169
12.67586 217
12.69597 205
12.71609 211
12.7362 154
12.75631 182
12.77643 193
12.79654 179
12.81666 191
12.83677 189
12.85688 180
12.877 185
12.89711 188
12.91722 170
12.93734 177
12.95745 181
12.97757 189
12.99768 184
13.01779 193
13.03791 184
13.05802 188
13.07813 168
13.09825 190
13.11836 184
13.13847 192
13.15859 194
13.1787 183
13.19882 191
13.21893 200
13.23904 170
13.25916 195
13.27927 168
13.29938 199
13.3195 190
13.33961 174
13.35973 204
13.37984 205
13.39995 186
13.42007 211
13.44018 205
13.46029 187
13.48041 170
13.50052 153
13.52064 190
13.54075 182
13.56086 205
13.58098 201
13.60109 207
13.6212 172
13.64132 194
13.66143 185
13.68154 232
13.70166 214
13.72177 217
13.74189 206
13.762 184
13.78211 201
13.80223 176
13.82234 194
13.84245 207
13.86257 227
13.88268 230
13.9028 192
13.92291 209
13.94302 204
13.96314 184
13.98325 198
14.00336 204
14.02348 189
14.04359 188
14.06371 161
14.08382 170
14.10393 182
14.12405 182
14.14416 165
14.16427 162
14.18439 193
14.2045 182
14.22461 157
14.24473 176
14.26484 181
14.28496 188
14.30507 186
14.32518 192
14.3453 180
14.36541 171
14.38552 165
14.40564 142
14.42575 179
14.44587 168
14.46598 175
14.48609 174
14.50621 162
14.52632 163
14.54643 162
14.56655 180
14.58666 187
14.60677 163
14.62689 175
14.647 197
14.66712 170
14.68723 179
14.70734 165
14.72746 176
14.74757 166
14.76768 156
14.7878 160
14.80791 185
14.82803 155
14.84814 141
14.86825 185
14.88837 157
14.90848 152
14.92859 183
14.94871 190
14.96882 174
14.98894 186
15.00905 188
15.02916 176
15.04928 171
15.06939 174
15.0895 170
15.10962 210
15.12973 195
15.14984 196
15.16996 164
15.19007 208
15.21019 184
15.2303 191
15.25041 166
15.27053 158
15.29064 163
15.31075 175
15.33087 180
15.35098 157
15.3711 172
15.39121 160
15.41132 151
15.43144 174
15.45155 159
15.47166 160
15.49178 195
15.51189 139
15.53201 155
15.55212 144
15.57223 138
15.59235 153
15.61246 165
15.63257 162
15.65269 169
15.6728 166
15.69291 166
15.71303 175
15.73314 158
15.75326 147
15.77337 149
15.79348 165
15.8136 167
15.83371 160
15.85382 167
15.87394 135
15.89405 149
15.91417 156
15.93428 165
15.95439 172
15.97451 160
15.99462 159
16.01473 152
16.03485 162
16.05496 131
16.07508 178
16.09519 176
16.1153 156
16.13542 149
16.15553 174
16.17564 155
16.19576 167
16.21587 172
16.23598 169
16.2561 160
16.27621 151
16.29633 150
16.31644 158
16.33655 163
16.35667 162
16.37678 161
16.39689 153
16.41701 154
16.43712 153
16.45724 148
16.47735 159
16.49746 160
16.51758 175
16.53769 171
16.5578 192
16.57792 156
16.59803 181
16.61814 149
16.63826 185
16.65837 182
16.67849 158
16.6986 164
16.71871 135
16.73883 148
16.75894 173
16.77905 165
16.79917 169
16.81928 168
16.8394 155
16.85951 157
16.87962 167
16.89974 160
16.91985 166
16.93996 174
16.96008 165
16.98019 145
17.00031 154
17.02042 161
17.04053 137
17.06065 135
17.08076 144
17.10087 150
17.12099 176
17.1411 156
17.16121 179
17.18133 174
17.20144 137
17.22156 141
17.24167 153
17.26178 151
17.2819 165
17.30201 161
17.32212 140
17.34224 157
17.36235 150
17.38247 173
17.40258 141
17.42269 170
17.44281 144
17.46292 146
17.48303 168
17.50315 143
17.52326 165
17.54338 161
17.56349 188
17.5836 153
17.60372 170
17.62383 163
17.64394 178
17.66406 159
17.68417 156
17.70428 180
17.7244 162
17.74451 167
17.76463 156
17.78474 155
17.80485 186
17.82497 144
17.84508 178
17.86519 167
17.88531 156
17.90542 156
17.92554 134
17.94565 143
17.96576 146
17.98588 133
18.00599 151
18.0261 157
18.04622 143
18.06633 149
18.08645 147
18.10656 161
18.12667 123
18.14679 146
18.1669 142
18.18701 154
18.20713 151
18.22724 134
18.24735 157
18.26747 153
18.28758 145
18.3077 163
18.32781 173
18.34792 163
18.36804 150
18.38815 140
18.40826 126
18.42838 174
18.44849 152
18.46861 179
18.48872 138
18.50883 141
18.52895 160
18.54906 150
18.56917 142
18.58929 165
18.6094 149
18.62951 166
18.64963 162
18.66974 151
18.68986 170
18.70997 174
18.73008 134
18.7502 155
18.77031 162
18.79042 181
18.81054 183
18.83065 151
18.85077 186
18.87088 161
18.89099 172
18.91111 150
18.93122 158
18.95133 172
18.97145 161
18.99156 200
19.01168 156
19.03179 142
19.0519 148
19.07202 174
19.09213 165
19.11224 150
19.13236 151
19.15247 136
19.17258 172
19.1927 142
19.21281 136
19.23293 176
19.25304 154
19.27315 161
19.29327 156
19.31338 157
19.33349 176
19.35361 184
19.37372 155
19.39384 191
19.41395 181
19.43406 162
19.45418 175
19.47429 158
19.4944 191
19.51452 179
19.53463 157
19.55475 155
19.57486 176
19.59497 170
19.61509 182
19.6352 182
19.65531 187
19.67543 173
19.69554 151
19.71565 164
19.73577 186
19.75588 188
19.776 197
19.79611 183
19.81622 178
19.83634 174
19.85645 203
19.87656 183
19.89668 206
19.91679 209
19.93691 214
19.95702 210
19.97713 211
19.99725 193
20.01736 176
20.03747 232
20.05759 200
20.0777 199
20.09782 212
20.11793 202
20.13804 235
20.15816 237
20.17827 207
20.19838 251
20.2185 220
20.23861 235
20.25872 250
20.27884 236
20.29895 218
20.31907 236
20.33918 249
20.35929 225
20.37941 260
20.39952 290
20.41963 281
20.43975 299
20.45986 274
20.47998 296
20.50009 359
20.5202 341
20.54032 360
20.56043 349
20.58054 383
20.60066 395
20.62077 396
20.64088 471
20.661 488
20.68111 568
20.70123 749
20.72134 944
20.74145 1232
20.76157 1813
20.78168 2796
20.80179 4216
20.82191 5887
20.84202 8108
20.86214 9707
20.88225 9848
20.90236 8175
20.92248 6192
20.94259 4178
20.9627 2520
20.98282 1423
21.00293 867
21.02305 713
21.04316 651
21.06327 570
21.08339 545
21.1035 493
21.12361 468
21.14373 448
21.16384 377
21.18395 326
21.20407 344
21.22418 322
21.2443 279
21.26441 259
21.28452 271
21.30464 247
21.32475 253
21.34486 240
21.36498 241
21.38509 214
21.40521 241
21.42532 238
21.44543 200
21.46555 221
21.48566 224
21.50577 216
21.52589 214
21.546 220
21.56612 197
21.58623 216
21.60634 234
21.62646 222
21.64657 232
21.66668 200
21.6868 206
21.70691 230
21.72702 208
21.74714 205
21.76725 178
21.78737 214
21.80748 228
21.82759 244
21.84771 249
21.86782 251
21.88793 259
21.90805 258
21.92816 287
21.94828 384
21.96839 399
21.9885 478
22.00862 536
22.02873 477
22.04884 409
22.06896 353
22.08907 333
22.10919 247
22.1293 252
22.14941 228
22.16953 203
22.18964 203
22.20975 204
22.22987 206
22.24998 224
22.27009 214
22.29021 204
22.31032 222
22.33044 211
22.35055 226
22.37066 210
22.39078 210
22.41089 188
22.431 206
22.45112 204
22.47123 223
22.49135 201
22.51146 209
22.53157 218
22.55169 212
22.5718 205
22.59191 196
22.61203 197
22.63214 205
22.65225 207
22.67237 211
22.69248 210
22.7126 180
22.73271 199
22.75282 230
22.77294 229
22.79305 211
22.81316 207
22.83328 212
22.85339 184
22.87351 213
22.89362 241
22.91373 244
22.93385 239
22.95396 256
22.97407 225
22.99419 243
23.0143 203
23.03442 228
23.05453 224
23.07464 205
23.09476 210
23.11487 237
23.13498 218
23.1551 193
23.17521 211
23.19532 193
23.21544 226
23.23555 217
23.25567 222
23.27578 206
23.29589 205
23.31601 210
23.33612 259
23.35623 248
23.37635 218
23.39646 220
23.41658 220
23.43669 229
23.4568 226
23.47692 246
23.49703 237
23.51714 264
23.53726 252
23.55737 274
23.57749 335
23.5976 342
23.61771 375
23.63783 388
23.65794 340
23.67805 350
23.69817 309
23.71828 309
23.73839 261
23.75851 249
23.77862 250
23.79874 258
23.81885 283
23.83896 320
23.85908 351
23.87919 346
23.8993 351
23.91942 378
23.93953 322
23.95965 366
23.97976 379
23.99987 334
24.01999 325
24.0401 346
24.06021 325
24.08033 269
24.10044 215
24.12056 216
24.14067 208
24.16078 225
24.1809 215
24.20101 216
24.22112 228
24.24124 233
24.26135 267
24.28146 302
24.30158 279
24.32169 319
24.34181 299
24.36192 362
24.38203 334
24.40215 287
24.42226 299
24.44237 270
24.46249 252
24.4826 244
24.50272 238
24.52283 264
24.54294 215
24.56306 213
24.58317 205
24.60328 234
24.6234 196
24.64351 210
24.66362 208
24.68374 235
24.70385 190
24.72397 199
24.74408 221
24.76419 214
24.78431 214
24.80442 172
24.82453 230
24.84465 212
24.86476 209
24.88488 172
24.90499 215
24.9251 223
24.94522 203
24.96533 210
24.98544 198
25.00556 210
25.02567 194
25.04579 214
25.0659 203
25.08601 208
25.10613 200
25.12624 198
25.14635 210
25.16647 214
25.18658 209
25.20669 211
25.22681 196
25.24692 206
25.26704 255
25.28715 198
25.30726 213
25.32738 200
25.34749 205
25.3676 214
25.38772 206
25.40783 231
25.42795 213
25.44806 240
25.46817 245
25.48829 273
25.5084 324
25.52851 305
25.54863 375
25.56874 349
25.58886 348
25.60897 440
25.62908 427
25.6492 419
25.66931 450
25.68942 407
25.70954 406
25.72965 421
25.74976 429
25.76988 422
25.78999 410
25.81011 438
25.83022 436
25.85033 453
25.87045 419
25.89056 457
25.91067 469
25.93079 456
25.9509 408
25.97102 473
25.99113 471
26.01124 470
26.03136 464
26.05147 481
26.07158 535
26.0917 545
26.11181 574
26.13193 611
26.15204 625
26.17215 678
26.19227 689
26.21238 722
26.23249 749
26.25261 812
26.27272 946
26.29283 887
26.31295 1019
26.33306 1125
26.35318 1233
26.37329 1389
26.3934 1561
26.41352 1809
26.43363 2170
26.45374 2738
26.47386 3375
26.49397 4675
26.51409 6193
26.5342 8966
26.55431 12861
26.57443 18822
26.59454 26484
26.61465 35365
26.63477 42640
26.65488 43798
26.67499 36882
26.69511 28707
26.71522 22795
26.73534 16423
26.75545 9712
26.77556 4915
26.79568 2862
26.81579 2137
26.8359 1821
26.85602 1646
26.87613 1441
26.89625 1374
26.91636 1224
26.93647 1156
26.95659 1076
26.9767 981
26.99681 940
27.01693 864
27.03704 825
27.05716 739
27.07727 687
27.09738 663
27.1175 648
27.13761 640
27.15772 584
27.17784 499
27.19795 505
27.21806 481
27.23818 454
27.25829 437
27.27841 462
27.29852 452
27.31863 441
27.33875 470
27.35886 488
27.37897 453
27.39909 501
27.4192 534
27.43932 612
27.45943 654
27.47954 687
27.49966 632
27.51977 649
27.53988 683
27.56 562
27.58011 513
27.60023 462
27.62034 434
27.64045 459
27.66057 425
27.68068 446
27.70079 536
27.72091 567
27.74102 664
27.76113 698
27.78125 835
27.80136 918
27.82148 884
27.84159 909
27.8617 758
27.88182 693
27.90193 724
27.92204 556
27.94216 600
27.96227 621
27.98239 639
28.0025 737
28.02261 751
28.04273 633
28.06284 614
28.08295 534
28.10307 466
28.12318 355
28.1433 365
28.16341 304
28.18352 320
28.20364 313
28.22375 321
28.24386 334
28.26398 327
28.28409 364
28.3042 391
28.32432 374
28.34443 375
28.36455 363
28.38466 361
28.40477 330
28.42489 320
28.445 283
28.46511 286
28.48523 282
28.50534 271
28.52546 208
28.54557 244
28.56568 264
28.5858 277
28.60591 218
28.62602 241
28.64614 205
28.66625 237
28.68636 233
28.70648 259
28.72659 234
28.74671 234
28.76682 222
28.78693 242
28.80705 229
28.82716 237
28.84727 249
28.86739 254
28.8875 224
28.90762 231
28.92773 228
28.94784 218
28.96796 232
28.98807 233
29.00818 249
29.0283 220
29.04841 208
29.06853 230
29.08864 193
29.10875 236
29.12887 209
29.14898 204
29.16909 223
29.18921 232
29.20932 224
29.22943 230
29.24955 225
29.26966 227
29.28978 263
29.30989 239
29.33 256
29.35012 257
29.37023 262
29.39034 273
29.41046 283
29.43057 293
29.45069 306
29.4708 265
29.49091 275
29.51103 253
29.53114 251
29.55125 221
29.57137 248
29.59148 252
29.6116 259
29.63171 239
29.65182 248
29.67194 285
29.69205 282
29.71216 318
29.73228 349
29.75239 322
29.7725 333
29.79262 297
29.81273 278
29.83285 282
29.85296 274
29.87307 292
29.89319 291
29.9133 260
29.93341 254
29.95353 243
29.97364 227
29.99376 224
30.01387 246
30.03398 219
30.0541 206
30.07421 233
30.09432 220
30.11444 195
30.13455 238
30.15467 237
30.17478 249
30.19489 248
30.21501 241
30.23512 257
30.25523 276
30.27535 252
30.29546 288
30.31557 308
30.33569 310
30.3558 289
30.37592 284
30.39603 308
30.41614 243
30.43626 330
30.45637 316
30.47648 288
30.4966 312
30.51671 300
30.53683 279
30.55694 231
30.57705 248
30.59717 228
30.61728 217
30.63739 213
30.65751 204
30.67762 200
30.69773 235
30.71785 225
30.73796 220
30.75808 275
30.77819 256
30.7983 270
30.81842 278
30.83853 251
30.85864 248
30.87876 259
30.89887 230
30.91899 222
30.9391 220
30.95921 208
30.97933 207
30.99944 178
31.01955 182
31.03967 198
31.05978 188
31.0799 184
31.10001 186
31.12012 176
31.14024 183
31.16035 162
31.18046 164
31.20058 179
31.22069 193
31.2408 160
31.26092 177
31.28103 192
31.30115 175
31.32126 203
31.34137 208
31.36149 228
31.3816 212
31.40171 236
31.42183 240
31.44194 259
31.46206 237
31.48217 216
31.50228 194
31.5224 202
31.54251 203
31.56262 171
31.58274 183
31.60285 195
31.62297 186
31.64308 184
31.66319 195
31.68331 198
31.70342 188
31.72353 162
31.74365 166
31.76376 179
31.78387 181
31.80399 173
31.8241 158
31.84422 174
31.86433 161
31.88444 158
31.90456 169
31.92467 167
31.94478 158
31.9649 153
31.98501 166
32.00513 160
32.02524 159
32.04535 163
32.06547 179
32.08558 168
32.10569 154
32.12581 170
32.14592 178
32.16604 173
32.18615 165
32.20626 175
32.22638 169
32.24649 197
32.2666 187
32.28672 166
32.30683 172
32.32694 186
32.34706 160
32.36717 181
32.38729 163
32.4074 168
32.42751 180
32.44763 158
32.46774 162
32.48785 202
32.50797 172
32.52808 157
32.5482 141
32.56831 136
32.58842 150
32.60854 171
32.62865 158
32.64876 133
32.66888 161
32.68899 159
32.7091 150
32.72922 144
32.74933 155
32.76945 158
32.78956 154
32.80967 154
32.82979 138
32.8499 138
32.87001 129
32.89013 142
32.91024 147
32.93036 135
32.95047 132
32.97058 151
32.9907 138
33.01081 135
33.03092 156
33.05104 141
33.07115 127
33.09127 129
33.11138 151
33.13149 132
33.15161 133
33.17172 152
33.19183 143
33.21195 155
33.23206 164
33.25217 155
33.27229 142
33.2924 148
33.31252 132
33.33263 151
33.35274 152
33.37286 151
33.39297 139
33.41308 155
33.4332 149
33.45331 167
33.47343 164
33.49354 145
33.51365 134
33.53377 150
33.55388 138
33.57399 133
33.59411 121
33.61422 165
33.63434 151
33.65445 139
33.67456 169
33.69468 141
33.71479 157
33.7349 163
33.75502 187
33.77513 178
33.79524 181
33.81536 175
33.83547 199
33.85559 172
33.8757 151
33.89581 162
33.91593 175
33.93604 196
33.95615 150
33.97627 133
33.99638 145
34.0165 132
34.03661 157
34.05672 156
34.07684 162
34.09695 154
34.11706 157
34.13718 165
34.15729 170
34.17741 188
34.19752 158
34.21763 179
34.23775 178
34.25786 177
34.27797 188
34.29809 179
34.3182 184
34.33831 169
34.35843 159
34.37854 180
34.39866 156
34.41877 175
34.43888 180
34.459 182
34.47911 152
34.49922 176
34.51934 156
34.53945 178
34.55957 146
34.57968 180
34.59979 175
34.61991 155
34.64002 172
34.66013 172
34.68025 183
34.70036 158
34.72047 176
34.74059 167
34.7607 181
34.78082 182
34.80093 186
34.82104 170
34.84116 156
34.86127 171
34.88138 183
34.9015 184
34.92161 191
34.94173 194
34.96184 188
34.98195 185
35.00207 175
35.02218 177
35.04229 181
35.06241 182
35.08252 159
35.10264 190
35.12275 211
35.14286 166
35.16298 175
35.18309 148
35.2032 166
35.22332 181
35.24343 199
35.26354 230
35.28366 203
35.30377 192
35.32389 209
35.344 241
35.36411 268
35.38423 222
35.40434 268
35.42445 242
35.44457 258
35.46468 228
35.4848 224
35.50491 226
35.52502 239
35.54514 213
35.56525 220
35.58536 192
35.60548 218
35.62559 210
35.64571 189
35.66582 200
35.68593 176
35.70605 199
35.72616 206
35.74627 177
35.76639 168
35.7865 163
35.80661 153
35.82673 166
35.84684 171
35.86696 185
35.88707 180
35.90718 198
35.9273 175
35.94741 185
35.96752 196
35.98764 204
36.00775 212
36.02787 204
36.04798 214
36.06809 252
36.08821 227
36.10832 225
36.12843 251
36.14855 218
36.16866 253
36.18878 252
36.20889 215
36.229 248
36.24912 236
36.26923 272
36.28934 277
36.30946 297
36.32957 378
36.34968 420
36.3698 489
36.38991 582
36.41003 672
36.43014 877
36.45025 1138
36.47037 1509
36.49048 2012
36.51059 2498
36.53071 3019
36.55082 2966
36.57094 2528
36.59105 1919
36.61116 1664
36.63128 1603
36.65139 1405
36.6715 1054
36.69162 595
36.71173 395
36.73184 335
36.75196 322
36.77207 236
36.79219 278
36.8123 211
36.83241 227
36.85253 220
36.87264 208
36.89275 222
36.91287 213
36.93298 209
36.9531 180
36.97321 201
36.99332 227
37.01344 179
37.03355 188
37.05366 201
37.07378 199
37.09389 196
37.11401 190
37.13412 183
37.15423 187
37.17435 193
37.19446 196
37.21457 186
37.23469 175
37.2548 192
37.27491 172
37.29503 143
37.31514 177
37.33526 182
37.35537 164
37.37548 159
37.3956 174
37.41571 154
37.43582 165
37.45594 180
37.47605 168
37.49617 159
37.51628 169
37.53639 183
37.55651 167
37.57662 157
37.59673 142
37.61685 175
37.63696 164
37.65708 184
37.67719 191
37.6973 180
37.71742 170
37.73753 173
37.75764 177
37.77776 176
37.79787 174
37.81798 167
37.8381 174
37.85821 176
37.87833 150
37.89844 173
37.91855 155
37.93867 147
37.95878 161
37.97889 137
37.99901 184
38.01912 153
38.03924 154
38.05935 154
38.07946 153
38.09958 176
38.11969 156
38.1398 156
38.15992 139
38.18003 141
38.20015 176
38.22026 174
38.24037 177
38.26049 148
38.2806 148
38.30071 148
38.32083 151
38.34094 168
38.36105 173
38.38117 181
38.40128 157
38.4214 176
38.44151 168
38.46162 157
38.48174 150
38.50185 153
38.52196 196
38.54208 162
38.56219 166
38.58231 191
38.60242 192
38.62253 169
38.64265 168
38.66276 160
38.68287 162
38.70299 183
38.7231 182
38.74321 155
38.76333 153
38.78344 164
38.80356 155
38.82367 164
38.84378 160
38.8639 168
38.88401 162
38.90412 170
38.92424 174
38.94435 169
38.96447 154
38.98458 209
39.00469 161
39.02481 192
39.04492 212
39.06503 204
39.08515 212
39.10526 215
39.12538 229
39.14549 241
39.1656 268
39.18572 282
39.20583 274
39.22594 293
39.24606 341
39.26617 413
39.28628 445
39.3064 496
39.32651 657
39.34663 810
39.36674 1062
39.38685 1306
39.40697 1664
39.42708 2122
39.44719 2582
39.46731 2745
39.48742 2458
39.50754 1809
39.52765 1417
39.54776 1394
39.56788 1382
39.58799 1143
39.6081 819
39.62822 455
39.64833 346
39.66845 297
39.68856 268
39.70867 250
39.72879 219
39.7489 216
39.76901 208
39.78913 212
39.80924 194
39.82935 200
39.84947 224
39.86958 200
39.8897 208
39.90981 211
39.92992 196
39.95004 208
39.97015 189
39.99026 212
40.01038 204
40.03049 227
40.05061 266
40.07072 281
40.09083 290
40.11095 313
40.13106 349
40.15117 406
40.17129 522
40.1914 624
40.21152 759
40.23163 935
40.25174 1120
40.27186 1402
40.29197 1367
40.31208 1186
40.3322 993
40.35231 813
40.37242 776
40.39254 720
40.41265 647
40.43277 506
40.45288 316
40.47299 227
40.49311 236
40.51322 183
40.53333 201
40.55345 184
40.57356 170
40.59368 191
40.61379 171
40.6339 201
40.65402 179
40.67413 187
40.69424 148
40.71436 174
40.73447 161
40.75458 172
40.7747 169
40.79481 167
40.81493 165
40.83504 152
40.85515 177
40.87527 179
40.89538 169
40.91549 188
40.93561 177
40.95572 155
40.97584 167
40.99595 151
41.01606 151
41.03618 176
41.05629 144
41.0764 151
41.09652 168
41.11663 156
41.13675 168
41.15686 170
41.17697 165
41.19709 198
41.2172 178
41.23731 182
41.25743 163
41.27754 157
41.29765 149
41.31777 147
41.33788 158
41.358 156
41.37811 145
41.39822 160
41.41834 168
41.43845 138
41.45856 163
41.47868 147
41.49879 170
41.51891 170
41.53902 163
41.55913 175
41.57925 157
41.59936 153
41.61947 159
41.63959 169
41.6597 164
41.67982 192
41.69993 184
41.72004 216
41.74016 198
41.76027 237
41.78038 263
41.8005 203
41.82061 230
41.84072 208
41.86084 213
41.88095 192
41.90107 192
41.92118 199
41.94129 202
41.96141 188
41.98152 168
42.00163 186
42.02175 194
42.04186 190
42.06198 202
42.08209 181
42.1022 197
42.12232 191
42.14243 235
42.16254 241
42.18266 263
42.20277 259
42.22289 321
42.243 359
42.26311 386
42.28323 457
42.30334 498
42.32345 641
42.34357 777
42.36368 974
42.38379 1215
42.40391 1533
42.42402 1763
42.44414 1936
42.46425 1806
42.48436 1410
42.50448 1096
42.52459 1036
42.5447 1069
42.56482 933
42.58493 786
42.60505 535
42.62516 348
42.64527 266
42.66539 238
42.6855 240
42.70561 222
42.72573 221
42.74584 223
42.76595 220
42.78607 224
42.80618 207
42.8263 237
42.84641 234
42.86652 218
42.88664 237
42.90675 207
42.92686 176
42.94698 187
42.96709 207
42.98721 168
43.00732 161
43.02743 171
43.04755 161
43.06766 145
43.08777 155
43.10789 152
43.128 168
43.14812 166
43.16823 132
43.18834 159
43.20846 170
43.22857 163
43.24868 179
43.2688 159
43.28891 133
43.30902 173
43.32914 131
43.34925 137
43.36937 147
43.38948 159
43.40959 154
43.42971 137
43.44982 177
43.46993 140
43.49005 152
43.51016 131
43.53028 128
43.55039 135
43.5705 160
43.59062 138
43.61073 146
43.63084 136
43.65096 152
43.67107 163
43.69119 136
43.7113 178
43.73141 119
43.75153 118
43.77164 155
43.79175 144
43.81187 129
43.83198 148
43.85209 142
43.87221 158
43.89232 119
43.91244 152
43.93255 119
43.95266 159
43.97278 143
43.99289 148
44.013 137
44.03312 154
44.05323 139
44.07335 134
44.09346 150
44.11357 145
44.13369 127
44.1538 148
44.17391 151
44.19403 149
44.21414 155
44.23426 151
44.25437 129
44.27448 133
44.2946 115
44.31471 141
44.33482 125
44.35494 142
44.37505 125
44.39516 145
44.41528 125
44.43539 133
44.45551 160
44.47562 144
44.49573 140
44.51585 146
44.53596 135
44.55607 137
44.57619 143
44.5963 155
44.61642 135
44.63653 155
44.65664 127
44.67676 129
44.69687 161
44.71698 171
44.7371 143
44.75721 150
44.77732 154
44.79744 154
44.81755 144
44.83767 141
44.85778 145
44.87789 143
44.89801 160
44.91812 156
44.93823 142
44.95835 151
44.97846 166
44.99858 160
45.01869 173
45.0388 164
45.05892 172
45.07903 163
45.09914 168
45.11926 189
45.13937 165
45.15949 131
45.1796 142
45.19971 136
45.21983 143
45.23994 167
45.26005 155
45.28017 164
45.30028 168
45.32039 146
45.34051 151
45.36062 166
45.38074 192
45.40085 154
45.42096 174
45.44108 172
45.46119 179
45.4813 186
45.50142 210
45.52153 215
45.54165 243
45.56176 262
45.58187 285
45.60199 298
45.6221 328
45.64221 399
45.66233 446
45.68244 566
45.70256 666
45.72267 874
45.74278 1044
45.7629 1232
45.78301 1284
45.80312 1196
45.82324 1034
45.84335 809
45.86346 714
45.88358 753
45.90369 727
45.92381 615
45.94392 493
45.96403 354
45.98415 251
46.00426 209
46.02437 186
46.04449 183
46.0646 174
46.08472 182
46.10483 194
46.12494 176
46.14506 154
46.16517 140
46.18528 182
46.2054 162
46.22551 164
46.24563 166
46.26574 152
46.28585 140
46.30597 133
46.32608 159
46.34619 161
46.36631 151
46.38642 148
46.40653 153
46.42665 141
46.44676 139
46.46688 145
46.48699 149
46.5071 134
46.52722 136
46.54733 116
46.56744 133
46.58756 129
46.60767 129
46.62779 130
46.6479 134
46.66801 143
46.68813 145
46.70824 150
46.72835 131
46.74847 138
46.76858 143
46.78869 144
46.80881 111
46.82892 120
46.84904 138
46.86915 124
46.88926 142
46.90938 136
46.92949 129
46.9496 158
46.96972 131
46.98983 139
47.00995 142
47.03006 144
47.05017 143
47.07029 134
47.0904 147
47.11051 144
47.13063 146
47.15074 134
47.17086 150
47.19097 147
47.21108 132
47.2312 143
47.25131 132
47.27142 137
47.29154 141
47.31165 143
47.33176 134
47.35188 149
47.37199 156
47.39211 176
47.41222 159
47.43233 179
47.45245 159
47.47256 162
47.49267 159
47.51279 171
47.5329 140
47.55302 154
47.57313 128
47.59324 148
47.61336 137
47.63347 131
47.65358 146
47.6737 136
47.69381 133
47.71393 138
47.73404 147
47.75415 125
47.77427 145
47.79438 129
47.81449 144
47.83461 134
47.85472 119
47.87483 127
47.89495 139
47.91506 118
47.93518 118
47.95529 126
47.9754 127
47.99552 134
48.01563 129
48.03574 137
48.05586 125
48.07597 118
48.09609 125
48.1162 139
48.13631 128
48.15643 132
48.17654 145
48.19665 145
48.21677 126
48.23688 124
48.257 144
48.27711 144
48.29722 168
48.31734 151
48.33745 159
48.35756 166
48.37768 160
48.39779 154
48.4179 152
48.43802 153
48.45813 136
48.47825 172
48.49836 149
48.51847 158
48.53859 138
48.5587 149
48.57881 128
48.59893 167
48.61904 146
48.63916 147
48.65927 155
48.67938 156
48.6995 153
48.71961 151
48.73972 145
48.75984 170
48.77995 157
48.80006 168
48.82018 162
48.84029 150
48.86041 161
48.88052 173
48.90063 157
48.92075 166
48.94086 160
48.96097 166
48.98109 157
49.0012 135
49.02132 175
49.04143 157
49.06154 149
49.08166 167
49.10177 160
49.12188 147
49.142 163
49.16211 182
49.18223 191
49.20234 169
49.22245 175
49.24257 175
49.26268 147
49.28279 169
49.30291 168
49.32302 153
49.34313 148
49.36325 171
49.38336 163
49.40348 176
49.42359 183
49.4437 166
49.46382 158
49.48393 160
49.50404 174
49.52416 137
49.54427 173
49.56439 186
49.5845 177
49.60461 194
49.62473 198
49.64484 198
49.66495 222
49.68507 232
49.70518 235
49.7253 274
49.74541 263
49.76552 314
49.78564 313
49.80575 385
49.82586 361
49.84598 429
49.86609 432
49.8862 527
49.90632 560
49.92643 658
49.94655 707
49.96666 888
49.98677 1033
50.00689 1335
50.027 1715
50.04711 2080
50.06723 2699
50.08734 3188
50.10746 3872
50.12757 4201
50.14768 3836
50.1678 3088
50.18791 2315
50.20802 1916
50.22814 1975
50.24825 2091
50.26837 2002
50.28848 1652
50.30859 1170
50.32871 731
50.34882 465
50.36893 374
50.38905 360
50.40916 287
50.42927 297
50.44939 324
50.4695 285
50.48962 256
50.50973 286
50.52984 247
50.54996 265
50.57007 298
50.59018 305
50.6103 300
50.63041 335
50.65053 290
50.67064 261
50.69075 241
50.71087 255
50.73098 252
50.75109 224
50.77121 227
50.79132 226
50.81143 212
50.83155 188
50.85166 221
50.87178 181
50.89189 193
50.912 186
50.93212 160
50.95223 167
50.97234 147
50.99246 153
51.01257 169
51.03269 130
51.0528 163
51.07291 152
51.09303 167
51.11314 159
51.13325 145
51.15337 178
51.17348 178
51.1936 145
51.21371 154
51.23382 175
51.25394 163
51.27405 165
51.29416 188
51.31428 170
51.33439 197
51.3545 199
51.37462 202
51.39473 204
51.41485 183
51.43496 154
51.45507 158
51.47519 159
51.4953 163
51.51541 151
51.53553 148
51.55564 143
51.57576 135
51.59587 136
51.61598 131
51.6361 133
51.65621 145
51.67632 134
51.69644 104
51.71655 102
51.73667 142
51.75678 135
51.77689 141
51.79701 128
51.81712 139
51.83723 139
51.85735 153
51.87746 133
51.89757 117
51.91769 121
51.9378 145
51.95792 161
51.97803 136
51.99814 129
52.01826 135
52.03837 140
52.05848 147
52.0786 138
52.09871 141
52.11883 126
52.13894 131
52.15905 120
52.17917 132
52.19928 142
52.21939 153
52.23951 142
52.25962 152
52.27974 146
52.29985 143
52.31996 131
52.34008 156
52.36019 124
52.3803 167
52.40042 152
52.42053 139
52.44064 153
52.46076 153
52.48087 142
52.50099 159
52.5211 171
52.54121 166
52.56133 143
52.58144 151
52.60155 136
52.62167 139
52.64178 153
52.6619 134
52.68201 128
52.70212 165
52.72224 139
52.74235 145
52.76246 182
52.78258 165
52.80269 142
52.8228 159
52.84292 135
52.86303 134
52.88315 169
52.90326 150
52.92337 152
52.94349 159
52.9636 168
52.98371 178
53.00383 162
53.02394 170
53.04406 179
53.06417 157
53.08428 165
53.1044 166
53.12451 161
53.14462 180
53.16474 163
53.18485 176
53.20497 160
53.22508 148
53.24519 157
53.26531 137
53.28542 185
53.30553 160
53.32565 157
53.34576 155
53.36587 168
53.38599 153
53.4061 161
53.42622 148
53.44633 174
53.46644 177
53.48656 145
53.50667 146
53.52678 150
53.5469 154
53.56701 150
53.58713 125
53.60724 177
53.62735 137
53.64747 140
53.66758 159
53.68769 153
53.70781 160
53.72792 138
53.74804 170
53.76815 136
53.78826 145
53.80838 148
53.82849 144
53.8486 169
53.86872 158
53.88883 176
53.90894 147
53.92906 148
53.94917 129
53.96929 150
53.9894 143
54.00951 141
54.02963 132
54.04974 136
54.06985 169
54.08997 150
54.11008 131
54.1302 155
54.15031 148
54.17042 137
54.19054 145
54.21065 136
54.23076 172
54.25088 131
54.27099 166
54.29111 157
54.31122 142
54.33133 161
54.35145 128
54.37156 143
54.39167 181
54.41179 187
54.4319 149
54.45201 180
54.47213 157
54.49224 179
54.51236 185
54.53247 181
54.55258 202
54.5727 211
54.59281 206
54.61292 246
54.63304 282
54.65315 303
54.67327 331
54.69338 348
54.71349 398
54.73361 476
54.75372 565
54.77383 663
54.79395 799
54.81406 999
54.83417 1166
54.85429 1216
54.8744 1221
54.89452 1023
54.91463 749
54.93474 615
54.95486 628
54.97497 670
54.99508 686
55.0152 667
55.03531 630
55.05543 508
55.07554 350
55.09565 285
55.11577 295
55.13588 291
55.15599 293
55.17611 281
55.19622 322
55.21634 356
55.23645 440
55.25656 492
55.27668 536
55.29679 588
55.3169 605
55.33702 578
55.35713 483
55.37724 414
55.39736 393
55.41747 337
55.43759 330
55.4577 346
55.47781 369
55.49793 327
55.51804 239
55.53815 183
55.55827 172
55.57838 181
55.5985 189
55.61861 117
55.63872 153
55.65884 168
55.67895 149
55.69906 150
55.71918 168
55.73929 150
55.75941 145
55.77952 149
55.79963 146
55.81975 147
55.83986 142
55.85997 180
55.88009 139
55.9002 160
55.92031 143
55.94043 135
55.96054 141
55.98066 143
56.00077 125
56.02088 115
56.041 142
56.06111 130
56.08122 157
56.10134 139
56.12145 134
56.14157 139
56.16168 134
56.18179 137
56.20191 139
56.22202 147
56.24213 138
56.26225 179
56.28236 128
56.30248 122
56.32259 139
56.3427 131
56.36282 128
56.38293 129
56.40304 128
56.42316 110
56.44327 134
56.46338 136
56.4835 117
56.50361 107
56.52373 125
56.54384 129
56.56395 114
56.58407 117
56.60418 110
56.62429 146
56.64441 137
56.66452 120
56.68464 125
56.70475 116
56.72486 111
56.74498 129
56.76509 138
56.7852 91
56.80532 115
56.82543 115
56.84554 110
56.86566 125
56.88577 103
56.90589 134
56.926 128
56.94611 110
56.96623 144
56.98634 139
57.00645 131
57.02657 108
57.04668 126
57.0668 114
57.08691 139
57.10702 153
57.12714 141
57.14725 160
57.16736 183
57.18748 183
57.20759 185
57.22771 219
57.24782 188
57.26793 145
57.28805 124
57.30816 154
57.32827 179
57.34839 172
57.3685 151
57.38861 157
57.40873 153
57.42884 154
57.44896 125
57.46907 145
57.48918 126
57.5093 107
57.52941 134
57.54952 138
57.56964 109
57.58975 114
57.60987 118
57.62998 139
57.65009 123
57.67021 141
57.69032 124
57.71043 104
57.73055 117
57.75066 126
57.77078 137
57.79089 134
57.811 124
57.83112 130
57.85123 131
57.87134 134
57.89146 122
57.91157 130
57.93168 103
57.9518 107
57.97191 147
57.99203 107
58.01214 117
58.03225 135
58.05237 122
58.07248 135
58.09259 104
58.11271 130
58.13282 108
58.15294 138
58.17305 115
58.19316 127
58.21328 129
58.23339 137
58.2535 110
58.27362 123
58.29373 114
58.31385 132
58.33396 129
58.35407 128
58.37419 133
58.3943 141
58.41441 129
58.43453 135
58.45464 131
58.47475 130
58.49487 145
58.51498 126
58.5351 145
58.55521 116
58.57532 163
58.59544 133
58.61555 128
58.63566 122
58.65578 159
58.67589 151
58.69601 130
58.71612 134
58.73623 142
58.75635 156
58.77646 128
58.79657 146
58.81669 130
58.8368 126
58.85691 127
58.87703 139
58.89714 141
58.91726 122
58.93737 118
58.95748 126
58.9776 134
58.99771 127
59.01782 125
59.03794 130
59.05805 129
59.07817 150
59.09828 138
59.11839 151
59.13851 127
59.15862 147
59.17873 132
59.19885 124
59.21896 158
59.23908 115
59.25919 132
59.2793 132
59.29942 149
59.31953 150
59.33964 150
59.35976 142
59.37987 135
59.39998 146
59.4201 162
59.44021 168
59.46033 159
59.48044 179
59.50055 177
59.52067 148
59.54078 207
59.56089 220
59.58101 232
59.60112 271
59.62124 272
59.64135 289
59.66146 332
59.68158 334
59.70169 393
59.7218 440
59.74192 508
59.76203 572
59.78215 718
59.80226 816
59.82237 1042
59.84249 1241
59.8626 1488
59.88271 1793
59.90283 2093
59.92294 2337
59.94305 2556
59.96317 2404
59.98328 1904
60.0034 1253
60.02351 1159
60.04362 1181
60.06374 1167
60.08385 1283
60.10396 1336
60.12408 1207
60.14419 941
60.16431 614
60.18442 433
60.20453 313
60.22465 283
60.24476 231
60.26487 218
60.28499 231
60.3051 204
60.32522 193
60.34533 174
60.36544 208
60.38556 191
60.40567 154
60.42578 176
60.4459 152
60.46601 172
60.48612 174
60.50624 153
60.52635 149
60.54647 157
60.56658 150
60.58669 173
60.60681 144
60.62692 128
60.64703 156
60.66715 140
60.68726 135
60.70738 143
60.72749 134
60.7476 127
60.76772 150
60.78783 138
60.80794 128
60.82806 143
60.84817 136
60.86828 135
60.8884 148
60.90851 138
60.92863 145
60.94874 129
60.96885 139
60.98897 124
61.00908 146
61.02919 126
61.04931 132
61.06942 127
61.08954 128
61.10965 121
61.12976 124
61.14988 137
61.16999 134
61.1901 113
61.21022 128
61.23033 121
61.25045 143
61.27056 110
61.29067 134
61.31079 118
61.3309 121
61.35101 138
61.37113 123
61.39124 120
61.41135 115
61.43147 102
61.45158 115
61.4717 95
61.49181 114
61.51192 112
61.53204 110
61.55215 131
61.57226 127
61.59238 111
61.61249 124
61.63261 121
61.65272 130
61.67283 139
61.69295 117
61.71306 108
61.73317 144
61.75329 131
61.7734 131
61.79352 129
61.81363 134
61.83374 144
61.85386 128
61.87397 128
61.89408 129
61.9142 121
61.93431 146
61.95442 122
61.97454 125
61.99465 139
62.01477 114
62.03488 156
62.05499 135
62.07511 141
62.09522 129
62.11533 116
62.13545 132
62.15556 135
62.17568 151
62.19579 167
62.2159 137
62.23602 125
62.25613 125
62.27624 132
62.29636 139
62.31647 133
62.33659 128
62.3567 150
62.37681 124
62.39693 147
62.41704 106
62.43715 142
62.45727 135
62.47738 143
62.49749 115
62.51761 110
62.53772 114
62.55784 124
62.57795 125
62.59806 117
62.61818 133
62.63829 108
62.6584 130
62.67852 113
62.69863 127
62.71875 126
62.73886 130
62.75897 148
62.77909 132
62.7992 143
62.81931 122
62.83943 118
62.85954 128
62.87965 118
62.89977 109
62.91988 129
62.94 126
62.96011 130
62.98022 100
63.00034 120
63.02045 111
63.04056 121
63.06068 136
63.08079 126
63.10091 138
63.12102 118
63.14113 132
63.16125 134
63.18136 115
63.20147 127
63.22159 125
63.2417 108
63.26182 135
63.28193 110
63.30204 125
63.32216 139
63.34227 129
63.36238 125
63.3825 113
63.40261 137
63.42272 147
63.44284 130
63.46295 142
63.48307 136
63.50318 117
63.52329 122
63.54341 122
63.56352 142
63.58363 130
63.60375 145
63.62386 127
63.64398 125
63.66409 132
63.6842 161
63.70432 136
63.72443 135
63.74454 178
63.76466 163
63.78477 188
63.80489 202
63.825 209
63.84511 229
63.86523 251
63.88534 296
63.90545 293
63.92557 337
63.94568 397
63.96579 414
63.98591 531
64.00602 544
64.02614 546
64.04625 471
64.06636 403
64.08648 312
64.10659 291
64.1267 277
64.14682 295
64.16693 312
64.18705 300
64.20716 316
64.22727 273
64.24739 191
64.2675 201
64.28761 160
64.30773 133
64.32784 165
64.34796 132
64.36807 140
64.38818 132
64.4083 129
64.42841 118
64.44852 150
64.46864 113
64.48875 119
64.50886 137
64.52898 104
64.54909 97
64.56921 95
64.58932 117
64.60943 116
64.62955 126
64.64966 113
64.66977 102
64.68989 141
64.71 114
64.73012 126
64.75023 125
64.77034 133
64.79046 113
64.81057 117
64.83068 128
64.8508 111
64.87091 121
64.89102 131
64.91114 100
64.93125 128
64.95137 118
64.97148 116
64.99159 133
65.01171 157
65.03182 141
65.05193 131
65.07205 124
65.09216 113
65.11228 133
65.13239 139
65.1525 120
65.17262 141
65.19273 109
65.21284 101
65.23296 111
65.25307 122
65.27319 150
65.2933 132
65.31341 130
65.33353 136
65.35364 137
65.37375 129
65.39387 143
65.41398 133
65.43409 148
65.45421 125
65.47432 133
65.49444 146
65.51455 134
65.53466 137
65.55478 165
65.57489 150
65.595 172
65.61512 142
65.63523 148
65.65535 179
65.67546 205
65.69557 192
65.71569 198
65.7358 196
65.75591 206
65.77603 216
65.79614 235
65.81626 206
65.83637 190
65.85648 162
65.8766 168
65.89671 171
65.91682 163
65.93694 170
65.95705 196
65.97716 146
65.99728 143
66.01739 124
66.03751 119
66.05762 126
66.07773 128
66.09785 139
66.11796 125
66.13807 118
66.15819 118
66.1783 132
66.19842 109
66.21853 119
66.23864 110
66.25876 138
66.27887 130
66.29898 136
66.3191 128
66.33921 136
66.35933 115
66.37944 142
66.39955 129
66.41967 128
66.43978 151
66.45989 131
66.48001 148
66.50012 117
66.52023 135
66.54035 129
66.56046 121
66.58058 131
66.60069 144
66.6208 115
66.64092 142
66.66103 123
66.68114 140
66.70126 116
66.72137 129
66.74149 152
66.7616 121
66.78171 140
66.80183 115
66.82194 137
66.84205 130
66.86217 148
66.88228 107
66.90239 108
66.92251 124
66.94262 125
66.96274 124
66.98285 156
67.00296 150
67.02308 147
67.04319 133
67.0633 165
67.08342 155
67.10353 149
67.12365 157
67.14376 129
67.16387 169
67.18399 159
67.2041 172
67.22421 146
67.24433 153
67.26444 156
67.28456 185
67.30467 188
67.32478 180
67.3449 211
67.36501 236
67.38512 208
67.40524 225
67.42535 245
67.44546 260
67.46558 284
67.48569 279
67.50581 375
67.52592 382
67.54603 454
67.56615 502
67.58626 654
67.60637 683
67.62649 827
67.6466 978
67.66672 1139
67.68683 1335
67.70694 1440
67.72706 1477
67.74717 1378
67.76728 1190
67.7874 913
67.80751 742
67.82763 769
67.84774 783
67.86785 878
67.88797 929
67.90808 1024
67.92819 1052
67.94831 1055
67.96842 935
67.98853 929
68.00865 941
68.02876 1126
68.04888 1267
68.06899 1478
68.0891 1685
68.10922 1755
68.12933 1898
68.14944 1801
68.16956 1596
68.18967 1422
68.20979 1314
68.2299 1380
68.25001 1542
68.27013 1702
68.29024 1703
68.31035 1718
68.33047 1639
68.35058 1275
68.3707 959
68.39081 708
68.41092 638
68.43104 648
68.45115 649
68.47126 627
68.49138 664
68.51149 630
68.5316 460
68.55172 368
68.57183 276
68.59195 247
68.61206 216
68.63217 231
68.65229 193
68.6724 169
68.69251 175
68.71263 170
68.73274 183
68.75286 179
68.77297 164
68.79308 158
68.8132 178
68.83331 165
68.85342 131
68.87354 149
68.89365 129
68.91376 148
68.93388 143
68.95399 144
68.97411 145
68.99422 156
69.01433 157
69.03445 136
69.05456 117
69.07467 144
69.09479 126
69.1149 138
69.13502 145
69.15513 139
69.17524 142
69.19536 133
69.21547 126
69.23558 137
69.2557 124
69.27581 151
69.29593 115
69.31604 154
69.33615 141
69.35627 129
69.37638 138
69.39649 139
69.41661 135
69.43672 135
69.45683 138
69.47695 131
69.49706 111
69.51718 117
69.53729 118
69.5574 134
69.57752 114
69.59763 109
69.61774 131
69.63786 91
69.65797 135
69.67809 109
69.6982 128
69.71831 132
69.73843 125
69.75854 114
69.77865 141
69.79877 137
69.81888 110
69.839 127
69.85911 129
69.87922 121
69.89934 125
69.91945 116
69.93956 125
69.95968 123
69.97979 130
69.9999 116
70.02002 123
70.04013 106
70.06025 115
70.08036 106
70.10047 101
70.12059 126
70.1407 121
70.16081 122
70.18093 113
70.20104 105
70.22116 119
70.24127 135
70.26138 115
70.2815 107
70.30161 124
70.32172 112
70.34184 116
70.36195 112
70.38207 116
70.40218 115
70.42229 100
70.44241 117
70.46252 99
70.48263 98
70.50275 97
70.52286 96
70.54297 122
70.56309 111
70.5832 126
70.60332 118
70.62343 121
70.64354 122
70.66366 119
70.68377 128
70.70388 102
70.724 124
70.74411 115
70.76423 131
70.78434 120
70.80445 129
70.82457 109
70.84468 114
70.86479 118
70.88491 105
70.90502 110
70.92513 114
70.94525 124
70.96536 121
70.98548 130
71.00559 109
71.0257 114
71.04582 136
71.06593 120
71.08604 124
71.10616 114
71.12627 90
71.14639 109
71.1665 116
71.18661 116
71.20673 107
71.22684 104
71.24695 131
71.26707 115
71.28718 116
71.3073 112
71.32741 119
71.34752 118
71.36764 137
71.38775 116
71.40786 105
71.42798 112
71.44809 111
71.4682 103
71.48832 124
71.50843 103
71.52855 120
71.54866 106
71.56877 113
71.58889 131
71.609 110
71.62911 126
71.64923 117
71.66934 82
71.68946 113
71.70957 102
71.72968 106
71.7498 97
71.76991 102
71.79002 105
71.81014 104
71.83025 113
71.85037 100
71.87048 114
71.89059 113
71.91071 104
71.93082 123
71.95093 110
71.97105 105
71.99116 111
72.01127 114
72.03139 112
72.0515 92
72.07162 110
72.09173 106
72.11184 122
72.13196 90
72.15207 117
72.17218 118
72.1923 116
72.21241 108
72.23253 104
72.25264 101
72.27275 103
72.29287 111
72.31298 103
72.33309 122
72.35321 91
72.37332 110
72.39344 115
72.41355 110
72.43366 97
72.45378 106
72.47389 111
72.494 106
72.51412 108
72.53423 103
72.55434 113
72.57446 100
72.59457 132
72.61469 114
72.6348 110
72.65491 108
72.67503 118
72.69514 108
72.71525 109
72.73537 98
72.75548 106
72.7756 123
72.79571 134
72.81582 121
72.83594 113
72.85605 103
72.87616 125
72.89628 120
72.91639 114
72.9365 134
72.95662 95
72.97673 127
72.99685 107
73.01696 117
73.03707 151
73.05719 118
73.0773 147
73.09741 168
73.11753 148
73.13764 158
73.15776 158
73.17787 149
73.19798 166
73.2181 175
73.23821 204
73.25832 231
73.27844 238
73.29855 262
73.31867 285
73.33878 328
73.35889 377
73.37901 427
73.39912 453
73.41923 521
73.43935 555
73.45946 516
73.47957 489
73.49969 414
73.5198 304
73.53992 283
73.56003 280
73.58014 277
73.60026 309
73.62037 278
73.64048 347
73.6606 339
73.68071 317
73.70083 246
73.72094 206
73.74105 180
73.76117 139
73.78128 155
73.80139 119
73.82151 130
73.84162 128
73.86174 129
73.88185 111
73.90196 131
73.92208 126
73.94219 128
73.9623 120
73.98242 116
74.00253 127
74.02264 98
74.04276 101
74.06287 109
74.08299 109
74.1031 116
74.12321 93
74.14333 124
74.16344 105
74.18355 116
74.20367 118
74.22378 118
74.2439 98
74.26401 117
74.28412 126
74.30424 110
74.32435 95
74.34446 115
74.36458 113
74.38469 111
74.40481 110
74.42492 121
74.44503 126
74.46515 114
74.48526 112
74.50537 105
74.52549 109
74.5456 123
74.56571 130
74.58583 94
74.60594 117
74.62606 118
74.64617 132
74.66628 100
74.6864 126
74.70651 116
74.72662 111
74.74674 113
74.76685 114
74.78697 129
74.80708 117
74.82719 105
74.84731 109
74.86742 119
74.88753 141
74.90765 119
74.92776 121
74.94787 117
74.96799 112
74.9881 138
75.00822 111
