3.00117 21665.4347367477
3.02128 21757.4811882171
3.0414 20969
3.06151 20699.7217388118
3.08162 19755.1333194414
3.10174 19292.6505060112
3.12185 19028.5100848436
3.14197 18248.7834922742
3.16208 18008.3505060851
3.18219 17415.2806780063
3.20231 16978.7620485071
3.22242 16364.3300888378
3.24253 15857.7148973354
3.26265 15761.078427828
3.28276 15045.515265147
3.30288 14503.3509228545
3.32299 14145.2616065647
3.3431 13608
3.36322 13538.62312264
3.38333 12788.9359970338
3.40344 12430.817932182
3.42356 12287.8473841519
3.44367 11659.7729485298
3.46379 11386.1030507071
3.4839 11038
3.50401 10518.8380065526
3.52413 10327.536787615
3.54424 9867.22899989591
3.56435 9544.21594341424
3.58447 8956.57717453995
3.60458 8862.00919099901
3.62469 8648.24896466412
3.64481 8111.88163278287
3.66492 8098.8069124319
3.68504 7638.19174788602
3.70515 7438.60375901609
3.72526 7202.52556612091
3.74538 6987.13659653205
3.76549 6784.21942538558
3.7856 6206
3.80572 6064.04441830459
3.82583 6003.48637822592
3.84595 5486.00295097386
3.86606 5368.90971379668
3.88617 5314.44247384444
3.90629 4950.05702187308
3.9264 5008
3.94651 4545.77963377055
3.96663 4301.72827257928
3.98674 4115.76350205395
4.00686 4080.01531300649
4.02697 3990.33911137301
4.04708 3695.23628353701
4.0672 3555
4.08731 3373.89441830929
4.10742 3215.96061113502
4.12754 3202.71685073084
4.14765 2961.38316261979
4.16776 2912.22378738008
4.18788 2698.18323147825
4.20799 2607.03289259734
4.22811 2543.99332221715
4.24822 2522.86846024371
4.26833 2302.72933250166
4.28845 2234.98603075526
4.30856 2239.97011363091
4.32867 2237.07227145145
4.34879 2155.0377792073
4.3689 2079
4.38902 1908.82608211659
4.40913 1807.00795433517
4.42924 1859.00809753077
4.44936 1801.07791684665
4.46947 1789.08507011811
4.48958 1683.08601361943
4.5097 1665
4.52981 1724.04327608889
4.54992 1746.8679334967
4.57004 1541.79602624393
4.59015 1554.08797693665
4.61027 1462.98806684515
4.63038 1575.93175642799
4.65049 1536.0313298919
4.67061 1510.99421412436
4.69072 1470.91480177494
4.71083 1382.95529496199
4.73095 1396.95974631875
4.75106 1346.03205637765
4.77118 1366.01203494527
4.79129 1325.99770012582
4.8114 1347
4.83152 1232.97080005036
4.85163 1280.9753406756
4.87174 1158.74648848034
4.89186 1128.86010581362
4.91197 1209.00478597488
4.93209 1139.01328259714
4.9522 1159
4.97231 1051.96311452602
4.99243 1052.02358610682
5.01254 1042.96768571646
5.03265 1019.12293360126
5.05277 969.011372591903
5.07288 1002.96861485956
5.09299 998.01566319401
5.11311 935.946985050355
5.13322 867.06452079094
5.15334 1007.12061141321
5.17345 941.791841634437
5.19356 889.157137197768
5.21368 788.061015571132
5.23379 815.947773968179
5.2539 902
5.27402 797.908786419717
5.29413 782.035724283518
5.31425 790.937642906816
5.33436 771.908229054055
5.35447 836.036297754443
5.37459 726.042779727945
5.3947 721
5.41481 731.003856429731
5.43493 746.030932186083
5.45504 759.992682240014
5.47516 732.094822641405
5.49527 679.072158658376
5.51538 654.990116245153
5.5355 690
5.55561 705.988718971166
5.57572 650.932522204603
5.59584 605.988151278692
5.61595 630.921705339002
5.63606 639.041888044888
5.65618 612.003990254104
5.67629 635.986088524186
5.69641 630.974687029866
5.71652 562.956729363439
5.73663 564.035914785641
5.75675 577.980665530167
5.77686 554.045405027577
5.79697 549.977274021473
5.81709 573.989172722352
5.8372 573
5.85732 534.994463885765
5.87743 556.007051169122
5.89754 531.955117439556
5.91766 530.979088902185
5.93777 552.935002603164
5.95788 587.016717538203
5.978 526
5.99811 501.995018627648
6.01823 487.974719002924
6.03834 496.119220312215
6.05845 563.987915626967
6.07857 514.038336427876
6.09868 524.022190852954
6.11879 468.01139911065
6.13891 495.013346661503
6.15902 498.005456892682
6.17913 499.949589106308
6.19925 456.008709193704
6.21936 497.972629636895
6.23948 470.016578942149
6.25959 480.000572160448
6.2797 474
6.29982 526.005853495212
6.31993 480.946022775051
6.34004 489.055853385154
6.36016 496.06170350576
6.38027 453.018061872896
6.40039 479.984529711248
6.4205 473
6.44061 428.011093278867
6.46073 490.02117943956
6.48084 446.955013029007
6.50095 464.004323250403
6.52107 433.018236175398
6.54118 463.949842960578
6.56129 493.004710441931
6.58141 448.971434238903
6.60152 430.050028845417
6.62164 489.958932815273
6.64175 406.906442791687
6.66186 444.928182394301
6.68198 450.974886926028
6.70209 489.002541807721
6.7222 434
6.74232 410.993884609043
6.76243 408.003392033372
6.78255 409.985228460385
6.80266 416.904134834643
6.82277 467.023732134342
6.84289 409.003970251798
6.863 451
6.88311 395.985078638517
6.90323 420.040846570647
6.92334 413.948819669316
6.94346 401.95723362492
6.96357 445.946531297686
6.98368 446.032468155166
7.0038 408
7.02391 419.014013844298
7.04402 446.020349903406
7.06414 442.924154631049
7.08425 402.99198208923
7.10436 440.961336871266
7.12448 428.005600946262
7.14459 434.008918988503
7.16471 405.004204893982
7.18482 435.990265512562
7.20493 379.933452058165
7.22505 397.178001941784
7.24516 452.051410753992
7.26527 374.056252996597
7.28539 410.973578491071
7.3055 424
7.32562 410.0432145728
7.34573 460.943684116826
7.36584 359.914135620156
7.38596 408.89251767211
7.40607 422.976251105908
7.42618 450.991745869824
7.4463 437
7.46641 438.991814772686
7.48653 410.992174101285
7.50664 441.087018566731
7.52675 455.093603299548
7.54687 393.055496378984
7.56698 397.984954076491
7.58709 402.996682686766
7.60721 408.995616042271
7.62732 383.971665855162
7.64743 370.0086189132
7.66755 389.051020246061
7.68766 412.918895821706
7.70778 437.039692638151
7.72789 359.021324567728
7.748 381
7.76812 413.031718370634
7.78823 435.991384686218
7.80834 406.946243746949
7.82846 400.982282920179
7.84857 410.994717335475
7.86869 408.99950226746
7.8888 410
7.90891 390.993620282053
7.92903 397.034178653095
7.94914 423.034394088176
7.96925 423.034934932667
7.98937 404.027022098243
8.00948 395.994594071005
8.0296 409
8.04971 409.995702311327
8.06982 400.999259963713
8.08994 401.975361893733
8.11005 376.945532265247
8.13016 380.926640080219
8.15028 426.975757804237
8.17039 425.001094772576
8.1905 431
8.21062 413.983527703093
8.23073 408.001255291964
8.25085 408.99554477885
8.27096 404.01120456066
8.29107 412.945810756143
8.31119 452.996420636952
8.3313 430
8.35141 428.988476959327
8.37153 392.993509519419
8.39164 424.051522089997
8.41176 417.053959236524
8.43187 404.961919128326
8.45198 430.03598480333
8.4721 359
8.49221 419.038359595366
8.51232 449.982995913841
8.53244 423.006312783038
8.55255 454.95219380022
8.57266 442.046042182962
8.59278 430.001634543107
8.61289 436.99271545262
8.63301 454.007487076423
8.65312 470.02404126689
8.67323 493.007928486185
8.69335 481.976242677621
8.71346 496.911159952552
8.73357 552.934691983626
8.75369 570.000258119406
8.7738 562
8.79392 556.016919389736
8.81403 587.032380528731
8.83414 597.038046740095
8.85426 613.040256852723
8.87437 555.095839524516
8.89448 514.019853902025
8.9146 504
8.93471 500.007115319166
8.95483 515.981876382913
8.97494 476.930367023004
8.99505 459.046179936515
9.01517 424.073590822554
9.03528 394.976296805646
9.05539 440.997637185633
9.07551 410.001171842562
9.09562 438.980060598935
9.11573 381.990391149201
9.13585 429.040308844774
9.15596 406.967449053707
9.17608 448.024652285325
9.19619 379.998981239597
9.2163 453
9.23642 418.989523489404
9.25653 451.007526143366
9.27664 413.950302942453
9.29676 425.96066527869
9.31687 423.040351891188
9.33699 392.006690482138
9.3571 401
9.37721 411.005613060806
9.39733 404.928356665599
9.41744 349.995126505926
9.43755 401.879578120504
9.45767 402.052840769402
9.47778 369.005534200869
9.4979 390
9.51801 405.013742855776
9.53812 416.949239140786
9.55824 347.004651273811
9.57835 420.128287618415
9.59846 416.997894435518
9.61858 435.011097068314
9.63869 396.009605335599
9.6588 411
9.67892 406.987058020821
9.69903 395.986145436737
9.71915 373.878223639593
9.73926 331.973498195629
9.75937 378.983495127213
9.77949 361.983675778807
9.7996 430
9.81971 375.983474192584
9.83983 397.034934809521
9.85994 383.927022230506
9.88006 371.904154845114
9.90017 435.004307190108
9.92028 368.047795055907
9.9404 373
9.96051 365.001796878562
9.98062 379.997763160098
10.00074 378.088360864327
10.02085 431.056022095114
10.04097 356.030408714095
10.06108 409.959654875049
10.08119 402.00183117582
10.10131 412.991605877427
10.12142 373.98713915375
10.14153 401.048941164042
10.16165 408.966724393157
10.18176 393.006431722411
10.20187 408.960578699282
10.22199 422.007692023688
10.2421 387
10.26222 369.981495559184
10.28233 363.049115516683
10.30244 422.086054273975
10.32256 416.093120594335
10.34267 368.02699971305
10.36278 376.001098622006
10.3829 363
10.40301 396.015307646567
10.42313 400.97499933746
10.44324 374.946523675161
10.46335 366.9446523714
10.48347 395.003135832943
10.50358 372.995648915829
10.52369 403.99430263859
10.54381 386.995971041168
10.56392 400.00899189291
10.58403 392.984885114339
10.60415 388.996263096373
10.62426 389.985849297692
10.64438 396.005934926848
10.66449 382.003577886879
10.6846 378
10.70472 351.994414004423
10.72483 371.031198163271
10.74494 390.071635971715
10.76506 425.00634191005
10.78517 387.048572905384
10.80529 383.99490549999
10.8254 393
10.84551 395.993861703828
10.86563 377.992281511573
10.88574 390.030201837064
10.90585 410.892854955046
10.92597 437.069848920843
10.94608 361.005347629134
10.9662 427
10.98631 402.990049907123
11.00642 413.00027724048
11.02654 401.025564585374
11.04665 422.061180461274
11.06676 361.068345705082
11.08688 381.958690813752
11.10699 397.011848774873
11.1271 363
11.14722 389.012266847262
11.16733 380.006971958584
11.18745 412.094983934229
11.20756 432.997364995679
11.22767 407.087622245294
11.24779 356.9971522071
11.2679 408
11.28801 408.997803614273
11.30813 406.96414922275
11.32824 373.990770442875
11.34836 406.915931093614
11.36847 427.008360447456
11.38858 400.040419810472
11.4087 376
11.42881 408.001973808625
11.44892 387.00189043932
11.46904 414.013029045152
11.48915 393.024936376448
11.50927 404.99024428479
11.52938 403.983174278558
11.54949 445.975767892739
11.56961 462.982690695714
11.58972 408.979511058351
11.60983 419.982610111123
11.62995 402.114818606629
11.65006 477.998406403132
11.67017 409.043054346025
11.69029 446.989504744978
11.7104 421
11.73052 432.01210356221
11.75063 429.996733631875
11.77074 436.017190368878
11.79086 447.957336626084
11.81097 456.051515230353
11.83108 396.038853235547
11.8512 402
11.87131 439.026774350977
11.89143 481.994204124089
11.91154 446.970901847522
11.93165 461.001502314698
11.95177 444.983351579186
11.97188 482.978335911689
11.99199 477.001059630139
12.01211 495.011308510521
12.03222 504.995177900394
12.05234 508.071036988013
12.07245 552.008155816649
12.09256 529.966205116201
12.11268 587.963507521752
12.13279 584.999292530135
12.1529 609
12.17302 616.009031535462
12.19313 654.11674135811
12.21324 743.117892305363
12.23336 759.995207212457
12.25347 779.937827543421
12.27359 816.000585638606
12.2937 808
12.31381 887.012705259771
12.33393 841.929134820508
12.35404 838.035228451474
12.37415 836.102133666027
12.39427 763.116692267113
12.41438 704.041994240482
12.4345 667
12.45461 626.987841060669
12.47472 597.932172420311
12.49484 519.952362268548
12.51495 531.091156156574
12.53506 461.012114373646
12.55518 516.981919231971
12.57529 460.03452515885
12.5954 435
12.61552 450.988578605958
12.63563 409.936233718973
12.65575 404.10352020526
12.67586 455.972162852355
12.69597 423.061174141898
12.71609 394.017931597851
12.7362 377
12.75631 440.994190081182
12.77643 372.981289292095
12.79654 437.10055494214
12.81666 426.06073524483
12.83677 396.076857617203
12.85688 346.003361246928
12.877 383
12.89711 365.980328369978
12.91722 335.991524390636
12.93734 354.075162528188
12.95745 387.967409969445
12.97757 380.018634032203
12.99768 379.98721771896
13.01779 388.007437940691
13.03791 356.989074802831
13.05802 361.021777908395
13.07813 375.987176656608
13.09825 365.060773575715
13.11836 393.075578105995
13.13847 317.024754585794
13.15859 367.985717434955
13.1787 342
13.19882 345.998347932544
13.21893 333.004193547824
13.23904 364.088830181133
13.25916 398.967687305495
13.27927 389.052224418762
13.29938 364.978267841777
13.3195 402
13.33961 345.987943598711
13.35973 368.012976615722
13.37984 354.026324600727
13.39995 392.967348250426
13.42007 373.013221902075
13.44018 383.007737279963
13.46029 356.005437338301
13.48041 359.991251374481
13.50052 325.991237186069
13.52064 347.027782476386
13.54075 342.001884873081
13.56086 368.903209773022
13.58098 406.003595971315
13.60109 365.022861778511
13.6212 334
13.64132 310.998234407984
13.66143 345.102771848964
13.68154 392.944926117142
13.70166 315.094638323076
13.72177 332.942528001205
13.74189 352.996288382149
13.762 358
13.78211 363.999367517006
13.80223 354.984123073252
13.82234 352.015659846311
13.84245 368.947861518508
13.86257 374.038595599492
13.88268 331.031131843823
13.9028 333
13.92291 352.992812081345
13.94302 320.99385297853
13.96314 347.042429619302
13.98325 344.02522613317
14.00336 350.938123119204
14.02348 387.982547444501
14.04359 375.014495096599
14.06371 346.988085760246
14.08382 328.987009243628
14.10393 327.024219935901
14.12405 356.072813135732
14.14416 372.991166852169
14.16427 367.021286149676
14.18439 349.009617270963
14.2045 346
14.22461 381.000461053598
14.24473 352.983053588745
14.26484 364.993464405354
14.28496 329.093656783782
14.30507 321.906293953999
14.32518 401.985609805648
14.3453 355
14.36541 376.997710394156
14.38552 331.970624677567
14.40564 343.041562668238
14.42575 345.037318479722
14.44587 337.964110519559
14.46598 378.979512747509
14.48609 365.01256796525
14.50621 336.977350392539
14.52632 297.003358119082
14.54643 327.003298795888
14.56655 306.036341712081
14.58666 359.924308051127
14.60677 352.043453397036
14.62689 329.007197438794
14.647 325
14.66712 341.026524251717
14.68723 359.988650043913
14.70734 335.977281007279
14.72746 355.918394110499
14.74757 386.999673729853
14.76768 355.044379497889
14.7878 330
14.80791 356.009269602865
14.82803 350.971885604923
14.84814 341.023368628801
14.86825 351.06965672032
14.88837 309.988970825021
14.90848 364.960149773638
14.92859 361.007191363924
14.94871 354.993925307655
14.96882 340.000273949611
14.98894 342.950477712673
15.00905 315.059949854411
15.02916 369.981443647256
15.04928 326.028528551863
15.06939 347.980459628551
15.0895 356
15.10962 301.976863558794
15.12973 309.990612067952
15.14984 296.060344246302
15.16996 355.955204035885
15.19007 336.99683436181
15.21019 371.991668013241
15.2303 352
15.25041 340.993366673966
15.27053 333.030552997499
15.29064 352.935407093772
15.31075 300.966348063616
15.33087 376.924871170808
15.35098 350.067227494573
15.3711 302
15.39121 332.016486751124
15.41132 349.013228409126
15.43144 362.007298460682
15.45155 351.054301682006
15.47166 337.976654729394
15.49178 356.010287250363
15.51189 326.003104567314
15.53201 347.004080675602
15.55212 342.021252372683
15.57223 377.999206463758
15.59235 345.981370081707
15.61246 367.004789398512
15.63257 332.037092797276
15.65269 340.988233112489
15.6728 353
15.69291 332.989876252194
15.71303 330.028781725749
15.73314 350.99459561341
15.75326 332.004661026066
15.77337 346.999712823983
15.79348 328.010230539365
15.8136 338
15.83371 334.987958996154
15.85382 311.0019417753
15.87394 335.032867020567
15.89405 331.020010611558
15.91417 329.999116996906
15.93428 329.997349288433
15.95439 338.99217356927
15.97451 358.009148856521
15.99462 371.006659119302
16.01473 363.95935883729
16.03485 333.978037930541
16.05496 343.000663835476
16.07508 327.010722990774
16.09519 328.999295738649
16.1153 328
16.13542 330.97220954378
16.15553 291.993276755192
16.17564 322.038322066769
16.19576 327.929953448066
16.21587 373.01088550057
16.23598 322.023465064373
16.2561 337
16.27621 312.00991609501
16.29633 372.047678989606
16.31644 337.860214245897
16.33655 295.947154382574
16.35667 340.012562101683
16.37678 290.005163002115
16.39689 349.970709601338
16.41701 352.979443384901
16.43712 322.022353940668
16.45724 364.975249494188
16.47735 307.9618261606
16.49746 348.948744754808
16.51758 340.988839946161
16.53769 371.002333602308
16.5578 322
16.57792 311.022051922576
16.59803 334.999608047824
16.61814 322.023362584575
16.63826 353.97997046484
16.65837 336.015263416352
16.67849 349.990689051826
16.6986 349
16.71871 318.995518529253
16.73883 337.038470481848
16.75894 349.997673160534
16.77905 344.992874673924
16.79917 345.037716950519
16.81928 313.994651308969
16.8394 348
16.85951 324.988783678395
16.87962 319.993735635578
16.89974 310.005419820398
16.91985 334.900306546357
16.93996 352.074058859632
16.96008 308.968866720474
16.98019 388.988708564865
17.00031 332.975196199248
17.02042 334.011900427848
17.04053 339.029852276333
17.06065 359.965302705185
17.08076 313.083363065892
17.10087 312.93903863841
17.12099 354.997896526766
17.1411 329
17.16121 346.003701432639
17.18133 329.974394158753
17.20144 341.09228090872
17.22156 384.01317556077
17.24167 328.088392671077
17.26178 310.975715105465
17.2819 343
17.30201 320.990090608895
17.32212 328.028238890115
17.34224 356.022709462767
17.36235 344.064473263031
17.38247 329.978611045028
17.40258 355.995627751108
17.42269 335.008344438117
17.44281 344.013277251049
17.46292 360.988037317742
17.48303 327.960097625358
17.50315 329.057595444508
17.52326 355.964388825937
17.54338 373.96026970552
17.56349 409.009298782749
17.5836 349
17.60372 362.037575553487
17.62383 394.03570643081
17.64394 399.961019306572
17.66406 372.02259164263
17.68417 385.9653219946
17.70428 401.991660004484
17.7244 412
17.74451 441.011687946337
17.76463 458.033936286931
17.78474 468.939331952682
17.80485 404.154506838459
17.82497 376.994742522625
17.84508 381.021076148492
17.86519 350.998343496479
17.88531 387.012804595764
17.90542 376.971718595661
17.92554 350.960083792589
17.94565 351.076694628671
17.96576 389.97314597322
17.98588 371.025004784191
18.00599 360.001462422997
18.0261 366
18.04622 385.993465678048
18.06633 360.983986147282
18.08645 368.9965672223
18.10656 345.062735323571
18.12667 329.984077812786
18.14679 358.984757421337
18.1669 363
18.18701 318.993217246002
18.20713 340.029640207715
18.22724 338.988128420857
18.24735 333.04198057456
18.26747 324.952859222593
18.28758 370.995750996125
18.3077 335
18.32781 350.003146664366
18.34792 343.016956881301
18.36804 375.001140218474
18.38815 333.121765433757
18.40826 313.975144624899
18.42838 338.983398091474
18.44849 339.002081533944
18.46861 329.986590865862
18.48872 297.98902894978
18.50883 319.057060799468
18.52895 342.982701288378
18.54906 326.973220069553
18.56917 366.962494737886
18.58929 352.019286635559
18.6094 321
18.62951 335.009763609694
18.64963 348.01559194242
18.66974 349.967235923464
18.68986 334.967306693636
18.70997 359.033009215408
18.73008 311.996630776199
18.7502 369
18.77031 363.99981684594
18.79042 379.996319119943
18.81054 347.934372549488
18.83065 349.886878520563
18.85077 389.038765097558
18.87088 325.016028498615
18.89099 368.985023472447
18.91111 339.970516549016
18.93122 301.003033115576
18.95133 329.021258521621
18.97145 324.022005269591
18.99156 361.902536265534
19.01168 388.01305607909
19.03179 348.019040500908
19.0519 325
19.07202 309.012436795304
19.09213 342.035737420204
19.11224 340.975221354868
19.13236 337.972524372225
19.15247 355.001104499362
19.17258 338.010638765974
19.1927 350
19.21281 368.994943184372
19.23293 337.96441971662
19.25304 346.073144545209
19.27315 379.993558486197
19.29327 348.061634577819
19.31338 345.9397422548
19.33349 419.992657348023
19.35361 369.976426756433
19.37372 367.015888902919
19.39384 374.997007012907
19.41395 378.057317993808
19.43406 407.983791559615
19.45418 391.01677019848
19.47429 390.995885292016
19.4944 405
19.51452 434.017627302266
19.53463 432.981017321619
19.55475 423.000368600679
19.57486 445.898908183027
19.59497 495.977069968542
19.61509 484.997480859247
19.6352 527
19.65531 573.014637027106
19.67543 602.074580489649
19.69554 662.075297926731
19.71565 677.934725445292
19.73577 731.900525402501
19.75588 798.930278607501
19.776 867
19.79611 893.991385964429
19.81622 852.969287196322
19.83634 868.125422780292
19.85645 924.021322501417
19.87656 862.093600133906
19.89668 867.971786168661
19.91679 855.043515039629
19.93691 740.970545279041
19.95702 739.979610632339
19.97713 684.959679765503
19.99725 686.924776801838
20.01736 629.039200737795
20.03747 662.944142318365
20.05759 664.012397821032
20.0777 640
20.09782 648.0034688803
20.11793 638.984509285751
20.13804 639.022063207741
20.15816 652.98427295069
20.17827 653.001265085783
20.19838 636.055183241735
20.2185 582
20.23861 649.027268835668
20.25872 652.983770713948
20.27884 633.931094395459
20.29895 594.054159834128
20.31907 617.889603708352
20.33918 698.959631601221
20.35929 669.041273648603
20.37941 614.018161708595
20.39952 699.026967684243
20.41963 650.948749136854
20.43975 675.096080868296
20.45986 680.065954266116
20.47998 656.960389437727
20.50009 736.977817264959
20.5202 713
20.54032 690.014650516923
20.56043 737.094551642499
20.58054 798.111268850505
20.60066 853.874396107802
20.62077 914.937632681699
20.64088 972.873824843041
20.661 1148
20.68111 1288.1094108944
20.70123 1583.41185730554
20.72134 1842.67276468837
20.74145 2263.97483152399
20.76157 2579.66841542987
20.78168 2804.68175970165
20.80179 3114.94870539158
20.82191 2980.89871965727
20.84202 2775.69590918102
20.86214 2381.26077284967
20.88225 2055.08456979579
20.90236 1603.96954320046
20.92248 1183.29454548268
20.94259 1008.05695158263
20.9627 875
20.98282 729.961936672503
21.00293 772.022139015909
21.02305 718.864345599947
21.04316 707.976954193463
21.06327 717.991728664546
21.08339 709.015269711185
21.1035 680
21.12361 710.010200637133
21.14373 701.971058905542
21.16384 687.982248290208
21.18395 682.011977969458
21.20407 678.998100798422
21.22418 679.009249880145
21.2443 664
21.26441 664.000211626201
21.28452 654.980397418472
21.30464 639.006756215528
21.32475 669.873825603353
21.34486 695.076682661018
21.36498 628.021820212525
21.38509 671.971641561332
21.40521 702.007904536279
21.42532 703.9755476782
21.44543 648.885424332155
21.46555 589.974422483126
21.48566 609.9977986683
21.50577 588.995738637026
21.52589 634.969056336023
21.546 667
21.56612 611.940035707544
21.58623 573.97001192698
21.60634 559.969596108916
21.62646 555.945957038927
21.64657 589.009450138279
21.66668 545.034311303326
21.6868 530
21.70691 483.991445916018
21.72702 506.029580169818
21.74714 522.02434734563
21.76725 541.92784708884
21.78737 553.052957254719
21.80748 494.030584498211
21.82759 504.992914381085
21.84771 499.995903369809
21.86782 509.030610715405
21.88793 546.034685907715
21.90805 535.893090338644
21.92816 489.043678300908
21.94828 495.988806416574
21.96839 496.001034135783
21.9885 494
22.00862 494.031686680142
22.02873 537.015899925609
22.04884 509.946709690822
22.06896 503.010749785875
22.08907 493.003604097677
22.10919 502.992548686018
22.1293 506
22.14941 473.98612381071
22.16953 484.095867220197
22.18964 536.920499731966
22.20975 446.044736026185
22.22987 524.886461942033
22.24998 541.998210419243
22.27009 541.017508712124
22.29021 471.964720687487
22.31032 437.006943346815
22.33044 482.145753492247
22.35055 531.962652767219
22.37066 474.073599814968
22.39078 490.959897524638
22.41089 500.023048496757
22.431 453
22.45112 530.011445684539
22.47123 464.937757536324
22.49135 493.111380006727
22.51146 503.046722640896
22.53157 476.998641203572
22.55169 478.027552502369
22.5718 407
22.59191 494.030031758477
22.61203 473.923225729767
22.63214 452.038880577519
22.65225 475.058776942804
22.67237 431.977586670526
22.69248 499.962085793496
22.7126 479
22.73271 498.030233733678
22.75282 550.999087808272
22.77294 504.927654912924
22.79305 499.023373000912
22.81316 496.900207403055
22.83328 571.972883237488
22.85339 536.020843310577
22.87351 534.013111313948
22.89362 560.008411451073
22.91373 555.004098104991
22.93385 567.004047484907
22.95396 546.071706233908
22.97407 512.03323735334
22.99419 490.021384752301
23.0143 442
23.03442 462.02184573643
23.05453 465.999721763036
23.07464 470.00557850485
23.09476 462.045522547543
23.11487 442.988380132174
23.13498 469.984560695755
23.1551 455
23.17521 434.005762526308
23.19532 467.023374201617
23.21544 457.932905400224
23.23555 427.020809231422
23.25567 435.002317850713
23.27578 422.997368673445
23.29589 427.016464007011
23.31601 396.02433597296
23.33612 477.990614962769
23.35623 398.996065939264
23.37635 480.066188145468
23.39646 418.092995754951
23.41658 429.989584957372
23.43669 418.996098425141
23.4568 442
23.47692 409.988819977961
23.49703 431.0269366391
23.51714 438.045713058906
23.53726 457.063578937632
23.55737 411.960174871792
23.57749 499.973362593491
23.5976 473
23.61771 446.007880770094
23.63783 479.018632024913
23.65794 464.982048122287
23.67805 482.912102460098
23.69817 509.996256502945
23.71828 509.964395584158
23.73839 560.996428331605
23.75851 517.979930271357
23.77862 524.043155335384
23.79874 567.027624221805
23.81885 540.879756649714
23.83896 512.964957756958
23.85908 559.965024565882
23.87919 547.027920388483
23.8993 493
23.91942 521.02413820728
23.93953 513.966148163719
23.95965 501.016142946974
23.97976 512.018322558885
23.99987 483.035319738111
24.01999 485.987183115098
24.0401 494
24.06021 433.000579143494
24.08033 484.017754955481
24.10044 454.027495721041
24.12056 509.979177328692
24.14067 461.052210757405
24.16078 480.957996509141
24.1809 501
24.20101 457.972460833483
24.22112 431.025334649831
24.24124 471.991251395765
24.26135 426.056345582351
24.28146 455.906321584926
24.30158 483.99173622015
24.32169 464.02793747091
24.34181 419.010686893647
24.36192 478.012304276112
24.38203 449.028061317487
24.40215 518.081621178296
24.42226 479.119264235854
24.44237 458.955212984132
24.46249 498.001726888185
24.4826 469
24.50272 524.025396522788
24.52283 510.009933842822
24.54294 560.111789584276
24.56306 573.084346928328
24.58317 521.005745283596
24.60328 575.934011439545
24.6234 607
24.64351 597.005223008229
24.66362 630.030361734197
24.68374 642.004697650577
24.70385 646.972842189186
24.72397 658.992730099473
24.74408 660.988412165036
24.76419 679.994282654057
24.78431 700.029574213621
24.80442 777.041587150527
24.82453 777.006172553598
24.84465 787.937006225289
24.86476 719.151625646281
24.88488 671.020092230824
24.90499 659.011536406367
24.9251 633
24.94522 650.000235737747
24.96533 612.910232055849
24.98544 571.00672722521
25.00556 597.002802471521
25.02567 562.037075816141
25.04579 555.012621729443
25.0659 511
25.08601 531.02986207853
25.10613 579.990266978651
25.12624 546.021323698199
25.14635 581.082743008854
25.16647 491.06325801961
25.18658 521.974755907034
25.20669 515.992052819772
25.22681 561.013749735283
25.24692 559.002340575625
25.26704 564.950137868801
25.28715 512.899282487574
25.30726 514.926283328506
25.32738 549.996625909419
25.34749 537.990773925167
25.3676 586
25.38772 583.998098836712
25.40783 599.024493514962
25.42795 603.990549945979
25.44806 601.98462019798
25.46817 619.968874207199
25.48829 629.005044930319
25.5084 608
25.52851 589.979136861438
25.54863 539.970123600295
25.56874 540.950729686094
25.58886 500.001285722005
25.60897 536.97665546265
25.62908 517.010630127384
25.6492 538
25.66931 547.991854519675
25.68942 510.954658405205
25.70954 484.013413263045
25.72965 507.976333853911
25.74976 513.910426888578
25.76988 574.989031093924
25.78999 537.009875098415
25.81011 546.99217779348
25.83022 513.010589424522
25.85033 549.973638857282
25.87045 497.029135862026
25.89056 574.909403946339
25.91067 561.0034289454
25.93079 590.994296437515
25.9509 561
25.97102 541.01272823059
25.99113 570.029092374036
26.01124 559.932410203144
26.03136 544.917822448249
26.05147 624.904773940852
26.07158 637.020147985472
26.0917 615
26.11181 628.021829344901
26.13193 670.003130368498
26.15204 660.086615574254
26.17215 758.776733003356
26.19227 776.082542810317
26.21238 739.925500848802
26.23249 882.962080249307
26.25261 858.988808165032
26.27272 916.112538675382
26.29283 1036.15105185913
26.31295 1102.09901779205
26.33306 1190.59652423492
26.35318 1466.75875667515
26.37329 1704.81615765158
26.3934 2195
26.41352 2658.63425880357
26.43363 3483.26775773257
26.45374 4320.8865297994
26.47386 5482.31239496311
26.49397 6909.89292660028
26.51409 8281.30657639557
26.5342 9791
26.55431 11328.5688413595
26.57443 11984.5281864087
26.59454 12170.9373624384
26.61465 11707.6297662099
26.63477 10162.631047683
26.65488 8330.01068960228
26.67499 6293.87281509549
26.69511 4842.29463628997
26.71522 3366.65674147561
26.73534 2310.46033401172
26.75545 1736.89877064265
26.77556 1389.43548877102
26.79568 1241.16717010133
26.81579 1056.0537851685
26.8359 1010
26.85602 871.927723501865
26.87613 877.981895431909
26.89625 807.822850111577
26.91636 760.111674915153
26.93647 695.063328132352
26.95659 672.019095402191
26.9767 622
26.99681 622.991777805885
27.01693 573.917975623918
27.03704 539.975101917398
27.05716 543.970095645568
27.07727 547.039639594299
27.09738 507.019478773348
27.1175 523
27.13761 545.001312463666
27.15772 525.965836455969
27.17784 498.993490901252
27.19795 510.993943763938
27.21806 510.941330737275
27.23818 548.009615698464
27.25829 502.008752944693
27.27841 514.990500229515
27.29852 475.012798696749
27.31863 524.996849598896
27.33875 484.055408360967
27.35886 558.970449012216
27.37897 502.041876927526
27.39909 536.984584912578
27.4192 529
27.43932 528.001762118551
27.45943 506.913041893408
27.47954 438.92857202668
27.49966 447.950512817591
27.51977 455.023110893844
27.53988 446.965988279126
27.56 500
27.58011 477.000904731105
27.60023 513.027316614615
27.62034 495.963515469575
27.64045 503.930663836882
27.66057 534.964557981977
27.68068 534.032584408223
27.70079 499.998812306245
27.72091 531.006994297599
27.74102 511.977356224538
27.76113 521.070307523563
27.78125 570.020937644371
27.80136 555.952447491756
27.82148 610.981277557627
27.84159 563.038779170238
27.8617 526
27.88182 577.970682504118
27.90193 487.948285460242
27.92204 523.007244538186
27.94216 474.042857473923
27.96227 484.051001295159
27.98239 399.032995618487
28.0025 400
28.02261 444.005676245624
28.04273 429.995300050175
28.06284 444.002690749799
28.08295 425.042519210434
28.10307 426.975993441738
28.12318 436.014248439232
28.1433 406
28.16341 417.021901781195
28.18352 447.971674233439
28.20364 381.929629847667
28.22375 407.118287562657
28.24386 424.057428601818
28.26398 384.001311154859
28.28409 423.98312240776
28.3042 424
28.32432 413.993577083934
28.34443 408.992819798693
28.36455 401.974336666493
28.38466 401.95029775937
28.40477 431.999429464764
28.42489 406.00707660206
28.445 411
28.46511 398.008054661046
28.48523 429.998114413047
28.50534 405.019084870207
28.52546 445.978847407862
28.54557 420.010998865877
28.56568 429.032151686826
28.5858 376
28.60591 429.006336000933
28.62602 391.992046756166
28.64614 431.05065449221
28.66625 423.002325485556
28.68636 426.073257569043
28.70648 378.983488750018
28.72659 443.98799946572
28.74671 400.976653493596
28.76682 390.001748148999
28.78693 393.023766365198
28.80705 401.926646651784
28.82716 354.029324092582
28.84727 379.965987706551
28.86739 389.984244923565
28.8875 423
28.90762 365.978520028648
28.92773 394.030117694643
28.94784 384.995371658811
28.96796 396.009792251053
28.98807 387.95381761894
29.00818 435.999136069161
29.0283 391
29.04841 404.001784126533
29.06853 374.944267422599
29.08864 364.051617709456
29.10875 402.956931735394
29.12887 395.999191085416
29.14898 408.004510307798
29.16909 381.013583520861
29.18921 372.002861095582
29.20932 380.00128910031
29.22943 381.023963612269
29.24955 392.933996939616
29.26966 356.964051328863
29.28978 415.976722895774
29.30989 389.007692286417
29.33 397
29.35012 360.002836463292
29.37023 396.006605465744
29.39034 359.958429805506
29.41046 375.962148395055
29.43057 381.983929261845
29.45069 406.98465785628
29.4708 415
29.49091 363.990442986115
29.51103 398.09126066584
29.53114 445.035001071747
29.55125 433.065798677698
29.57137 414.007057029568
29.59148 422.98483832961
29.6116 429
29.63171 414.00138157363
29.65182 438.027068628218
29.67194 456.028600299802
29.69205 468.013141445127
29.71216 472.969492136529
29.73228 499.970906190575
29.75239 529.980750700916
29.7725 561
29.79262 526.956649605128
29.81273 523.091774735731
29.83285 586.944614397029
29.85296 509.028579143243
29.87307 567.965508363786
29.89319 525.014735645155
29.9133 532
29.93341 488.98607651204
29.95353 491.002420856026
29.97364 467.917055092904
29.99376 442.957740001213
30.01387 494.943363065404
30.03398 473.082348070266
30.0541 395
30.07421 452.022922399326
30.09432 442.966281808826
30.11444 423.005002096945
30.13455 437.978186732375
30.15467 427.03822879954
30.17478 417.966433600003
30.19489 460.005237523094
30.21501 388.960972645308
30.23512 371.057257895982
30.25523 450.046980853655
30.27535 413.86322620356
30.29546 384.018225072344
30.31557 381.010288159604
30.33569 372.998124808724
30.3558 388
30.37592 406.043892606865
30.39603 447.986269820962
30.41614 387.877071915415
30.43626 374.925638226114
30.45637 405.054291674693
30.47648 338.99938334976
30.4966 401
30.51671 354.980854255527
30.53683 362.023310643302
30.55694 370.041690820881
30.57705 401.949626276336
30.59717 399.022669049754
30.61728 387.004395005564
30.63739 387.001584256836
30.65751 375.99212089505
30.67762 363.997561375521
30.69773 379.051839774802
30.71785 404.966398739145
30.73796 368.027075407457
30.75808 385.988913138125
30.77819 380.995991823057
30.7983 395
30.81842 358.991666841872
30.83853 387.039020546093
30.85864 376.915578873513
30.87876 339.000353809505
30.89887 370.961944066917
30.91899 390.972995042398
30.9391 442
30.95921 350.97240714058
30.97933 380.0981951695
30.99944 429.05222341661
31.01955 427.074039725614
31.03967 404.968946747478
31.05978 458.958009856576
31.0799 459
31.10001 430.991967481148
31.12012 425.993145590169
31.14024 419.015345910173
31.16035 429.037072890825
31.18046 408.956432322013
31.20058 465.962362282295
31.22069 466.999552088763
31.2408 477
31.26092 425.910202431079
31.28103 364.045528009084
31.30115 439.019116569048
31.32126 368.097677807132
31.34137 387.946340512462
31.36149 399.000868301367
31.3816 392
31.40171 377.001701643171
31.42183 391.000367013971
31.44194 381.014878514238
31.46206 400.006459028844
31.48217 367.054558435258
31.50228 359.970750972543
31.5224 395
31.54251 358.978361203532
31.56262 354.048083560204
31.58274 416.042371932431
31.60285 385.100319751316
31.62297 371.987900216141
31.64308 380.007205019314
31.66319 361.005998438833
31.68331 368.009676935999
31.70342 385.006203217575
31.72353 375.969444954393
31.74365 356.979198276966
31.76376 370.922894284927
31.78387 403.013057674921
31.80399 372.998707109883
31.8241 409
31.84422 386.974342623549
31.86433 389.040304519267
31.88444 413.997676135859
31.90456 400.972905818396
31.92467 431.998917823523
31.94478 406.001248171273
31.9649 442
31.98501 446.993907070806
32.00513 426.955003204778
32.02524 405.013650144305
32.04535 421.037862933189
32.06547 388.990894699966
32.08558 427.988529022928
32.10569 398.012452106055
32.12581 401.00376233278
32.14592 392.979808480271
32.16604 365.937429322314
32.18615 354.072610212604
32.20626 406.925746986508
32.22638 411.007877298597
32.24649 400.013214141546
32.2666 375
32.28672 403.010645643039
32.30683 384.971365612728
32.32694 382.006237695283
32.34706 383.992763645159
32.36717 387.00405093458
32.38729 388.988926309484
32.4074 413
32.42751 375.986189760497
32.44763 382.039570467458
32.46774 407.029330286529
32.48785 403.055739936543
32.50797 386.977730987569
32.52808 408.022355539956
32.5482 358
32.56831 395.015215402795
32.58842 392.99436241612
32.60854 392.972305492147
32.62865 369.026063541312
32.64876 379.966262835434
32.66888 387.003322803649
32.68899 380.001760591479
32.7091 380
32.72922 390.047420806984
32.74933 441.998455419937
32.76945 396.943045441736
32.78956 416.964802245925
32.80967 414.990810927458
32.82979 430.001697260109
32.8499 399
32.87001 389.021077285081
32.89013 450.035853799219
32.91024 436.004322522231
32.93036 462.987877254273
32.95047 444.004013536784
32.97058 456.01639476458
32.9907 427
33.01081 483.013094080507
33.03092 458.972913593066
33.05104 462.039204708601
33.07115 474.016497612089
33.09127 457.012298341341
33.11138 458.008431544947
33.13149 442.001398801226
33.15161 455.005308697794
33.17172 447.978169190907
33.19183 431.007595758369
33.21195 445.98926495218
33.23206 426.005593366167
33.25217 439.00796242175
33.27229 412.008783972937
33.2924 415
33.31252 413.004806757707
33.33263 431.037013745653
33.35274 442.971972591316
33.37286 414.03824331826
33.39297 418.971346526994
33.41308 433.997658002277
33.4332 432
33.45331 444.994418834786
33.47343 410.95724790713
33.49354 410.041791338857
33.51365 429.996186612725
33.53377 413.027229355546
33.55388 410.985653383904
33.57399 426.000250808875
33.59411 407.989378021773
33.61422 395.995968631498
33.63434 397.00913792574
33.65445 398.986760635495
33.67456 390.008458687451
33.69468 399.974753498685
33.71479 422.000652118442
33.7349 410
33.75502 431.991542342384
33.77513 387.937056941681
33.79524 376.018652820714
33.81536 392.961139626881
33.83547 397.036777135948
33.85559 369.99489963916
33.8757 403
33.89581 362.98137312003
33.91593 363.042295715472
33.93604 400.070050861489
33.95615 409.07748290408
33.97627 362.036699501954
33.99638 362.011619524333
34.0165 338
34.03661 373.023443991203
34.05672 406.015988879641
34.07684 398.933251500222
34.09695 360.048613089004
34.11706 370.94426657926
34.13718 381.029411507773
34.15729 343.995316059352
34.17741 394.015284433673
34.19752 376.966672635933
34.21763 355.984008436639
34.23775 349.988580596721
34.25786 359.918731669218
34.27797 417.932818086141
34.29809 428.008314439052
34.3182 405
34.33831 403.004963218722
34.35843 413.001715917312
34.37854 421.078478283749
34.39866 482.899667364611
34.41877 498.016053862577
34.43888 475.031047215653
34.459 457
34.47911 500.027749658468
34.49922 525.97134033618
34.51934 478.992683633619
34.53945 521.922201258126
34.55957 510.042573806561
34.57968 514.938451920767
34.59979 585.995605551599
34.61991 536.984599591237
34.64002 560.037028868137
34.66013 563.944733269364
34.68025 541.134156859238
34.70036 629.962296240275
34.72047 576.037862804267
34.74059 623.96810162236
34.7607 652
34.78082 642.002753192888
34.80093 674.087019098221
34.82104 732.067857729991
34.84116 732.04137023284
34.86127 721.971771094195
34.88138 774.926506768493
34.9015 847
34.92161 874.992006542768
34.94173 828.924844534641
34.96184 808.033180893885
34.98195 832.018295668795
35.00207 797.030236489969
35.02218 791.034534691738
35.04229 731.019276443634
35.06241 722.992838214855
35.08252 681.949465898686
35.10264 645.973351162329
35.12275 650.021339175083
35.14286 636.100685876272
35.16298 588.989028000048
35.18309 631.00437501711
35.2032 584
35.22332 647.019422721713
35.24343 602.954023980712
35.26354 617.02786643032
35.28366 594.103132324845
35.30377 561.957526999425
35.32389 625.983342676455
35.344 610
35.36411 596.976564191454
35.38423 536.981761224107
35.40434 587.132411075934
35.42445 608.101915932026
35.44457 562.962467993117
35.46468 618.029935171495
35.4848 519
35.50491 571.016978811152
35.52502 544.977648740601
35.54514 554.00965426859
35.56525 549.955385161888
35.58536 579.003439817944
35.60548 544.02847757622
35.62559 543.994441248434
35.64571 556.009901353133
35.66582 581.020137666754
35.68593 582.970232936221
35.70605 554.95382354419
35.72616 547.026959510922
35.74627 545.931521696276
35.76639 603.999678606192
35.7865 562
35.80661 620.024235398052
35.82673 615.951225774022
35.84684 589.984068247785
35.86696 596.984667486018
35.88707 596.007193898331
35.90718 593.000405556767
35.9273 585
35.94741 547.985908907101
35.96752 554.046725923477
35.98764 593.957129299608
36.00775 522.139847891744
36.02787 526.931605915604
36.04798 570.980453584567
36.06809 555.02001908574
36.08821 511.982283770974
36.10832 497.008701283146
36.12843 510.996551471603
36.14855 497.00099193417
36.16866 513.980759111396
36.18878 510.000153258199
36.20889 534.973180018209
36.229 587
36.24912 554.944612445437
36.26923 543.112564896355
36.28934 646.054559894314
36.30946 609.968588348094
36.32957 721.79522542823
36.34968 805.976688386238
36.3698 835
36.38991 984.038227757509
36.41003 991.07774914654
36.43014 1113.2038577809
36.45025 1166.83808890372
36.47037 1239.97460560208
36.49048 1211.99772324486
36.51059 1229.02951470609
36.53071 1095.94392781191
36.55082 1039.94367923943
36.57094 955.838820745288
36.59105 888.820197439532
36.61116 810.132987639152
36.63128 753.067025316019
36.65139 660.056548302107
36.6715 563
36.69162 553.987405086559
36.71173 526.985747456185
36.73184 541.023975024138
36.75196 535.028978354793
36.77207 524.007137551944
36.79219 525.996699422208
36.8123 535
36.83241 533.986286201086
36.85253 499.991109557687
36.87264 523.037150310118
36.89275 505.132791088773
36.91287 456.008804532889
36.93298 498.941699609381
36.9531 523
36.97321 468.980864332922
36.99332 456.983532949216
37.01344 433.999303848954
37.03355 474.82236696098
37.05366 523.037155563943
37.07378 460.040781951785
37.09389 454.01218008459
37.11401 419.007972609102
37.13412 477.029396422961
37.15423 449.938068132063
37.17435 440.06367745185
37.19446 463.043446103058
37.21457 410.042353866473
37.23469 423.991020159231
37.2548 428
37.27491 444.0007171247
37.29503 436.012088814951
37.31514 446.950733213354
37.33526 416.932437803777
37.35537 490.968541086943
37.37548 446.030593547971
37.3956 466
37.41571 451.970958791411
37.43582 404.020668482032
37.45594 483.136537153172
37.47605 502.004039742078
37.49617 495.039620286611
37.51628 458.023930258415
37.53639 456.995695128233
37.55651 475.020113223464
37.57662 510.991667239854
37.59673 463.940046014104
37.61685 464.070446657773
37.63696 501.919415448069
37.65708 527.998777177185
37.67719 506.016548153327
37.6973 484
37.71742 490.988866612493
37.73753 484.066984690887
37.75764 552.029777286483
37.77776 513.0349845018
37.79787 526.033516630455
37.81798 469.024159897718
37.8381 476
37.85821 423.004439596114
37.87833 483.023965504726
37.89844 443.978738651378
37.91855 477.971342603115
37.93867 451.021392394896
37.95878 453.029123249423
37.97889 410.994244997604
37.99901 472.019797499444
38.01912 459.976165375468
38.03924 458.028075159991
38.05935 469.993943358301
38.07946 459.996801996067
38.09958 477.980089410169
38.11969 481.009276807628
38.1398 460
38.15992 489.039893767403
38.18003 520.028268832866
38.20015 512.890377452401
38.22026 473.961330432661
38.24037 530.969199748405
38.26049 514.989350344421
38.2806 567
38.30071 531.009889847001
38.32083 603.040130228644
38.34094 563.942228748242
38.36105 576.972148136089
38.38117 567.009842221115
38.40128 564.023709318048
38.4214 529
38.44151 543.004317300163
38.46162 533.992230692642
38.48174 528.961300623063
38.50185 501.032732284105
38.52196 503.011331631358
38.54208 477.035737834756
38.56219 451.003281092177
38.58231 466.014548250848
38.60242 489.003576171763
38.62253 476.984004359626
38.64265 455.851202934723
38.66276 392.009182829065
38.68287 438.958464437748
38.70299 416.017124802435
38.7231 404
38.74321 424.019246235262
38.76333 459.007893159108
38.78344 443.999881342244
38.80356 447.081290198549
38.82367 392.984230884096
38.84378 461.957187076986
38.8639 446
38.88401 452.010383122701
38.90412 456.973053866921
38.92424 421.994837702318
38.94435 448.96675512939
38.96447 441.986445326372
38.98458 473.974952663738
39.00469 466.01875212361
39.02481 450.026737146591
39.04492 543.053587575389
39.06503 524.933516316994
39.08515 500.99596055536
39.10526 500.047177786639
39.12538 477.972571228537
39.14549 542.979010905855
39.1656 556
39.18572 614.019659022803
39.20583 593.995442401949
39.22594 638.128932679346
39.24606 690.931832365632
39.26617 724.912840257313
39.28628 803.929402541937
39.3064 863
39.32651 955.04705630731
39.34663 1032.08467095165
39.36674 1067.02848928943
39.38685 1084.88924335126
39.40697 1126.02358316232
39.42708 1059.05856104498
39.44719 1024.02729156901
39.46731 927.942954890301
39.48742 811.878135719514
39.50754 725.997561002334
39.52765 747.840633126159
39.54776 610.17811196861
39.56788 600.020662950597
39.58799 522.045464571918
39.6081 466
39.62822 469.997982155853
39.64833 455.990574950531
39.66845 445.888695530717
39.68856 389.030514514609
39.70867 420.952907326606
39.72879 424.002876355653
39.7489 411
39.76901 379.01210611387
39.78913 438.032974388383
39.80924 421.025669295847
39.82935 467.960240109587
39.84947 442.020834184478
39.86958 454.999256613303
39.8897 427
39.90981 427.025388498734
39.92992 480.991849452521
39.95004 436.017010233153
39.97015 492.975602355553
39.99026 451.999800331283
40.01038 504.97493207393
40.03049 485.000869310778
40.05061 521.014784271321
40.07072 513.969882121692
40.09083 513.100677294889
40.11095 620.196135349238
40.13106 647.957502954235
40.15117 675.995444001766
40.17129 671.980770516588
40.1914 742
40.21152 739.001375009228
40.23163 771.061818131881
40.25174 769.852179742414
40.27186 661.145701524025
40.29197 644.014473659823
40.31208 606.052691195114
40.3322 561
40.35231 545.991348086766
40.37242 526.994997024422
40.39254 525.955259637177
40.41265 477.135481058832
40.43277 442.016635903715
40.45288 443.003122863339
40.47299 439.991184924789
40.49311 450.978185183721
40.51322 386.998598966762
40.53333 448.060974653183
40.55345 430.924392187343
40.57356 417.023962556065
40.59368 405.996165705785
40.61379 419.997237850895
40.6339 405
40.65402 390.020559145376
40.67413 426.014199824697
40.69424 412.01405565054
40.71436 440.986016085487
40.73447 413.048232168797
40.75458 404.985882131672
40.7747 431
40.79481 454.007471424305
40.81493 457.987235183593
40.83504 441.966397948079
40.85515 437.959998901726
40.87527 452.025985694561
40.89538 416.012148460962
40.91549 435.990998743076
40.93561 434.998433927878
40.95572 431.982604047218
40.97584 412.008102722463
40.99595 424.95120721738
41.01606 380.042495415369
41.03618 421.90422328389
41.05629 501.998966666873
41.0764 436
41.09652 417.995321699676
41.11663 417.036024622102
41.13675 444.973168265363
41.15686 408.015803415302
41.17697 439.958623892725
41.19709 441.00190693586
41.2172 437
41.23731 410.999631365168
41.25743 439.045357550757
41.27754 444.962222402148
41.29765 413.079908987217
41.31777 401.971965848451
41.33788 430.989276225639
41.358 416
41.37811 406.998172196124
41.39822 418.040302077316
41.41834 448.935528558566
41.43845 377.083179492239
41.45856 410.895577975848
41.47868 418.053156309139
41.49879 356.001733969562
41.51891 413.025947043992
41.53902 423.998692143058
41.55913 418.956819695266
41.57925 379.962524143995
41.59936 396.953832604368
41.61947 401.02202215174
41.63959 376.013449825636
41.6597 357
41.67982 363.024304485181
41.69993 392.02452453899
41.72004 388.975511707673
41.74016 375.035881946563
41.76027 360.003546181105
41.78038 375.969747069364
41.8005 397
41.82061 371.995459043252
41.84072 388.017811120108
41.86084 401.048798582339
41.88095 432.953520552542
41.90107 432.009740004672
41.92118 424.019430271656
41.94129 402.002641362504
41.96141 419.012791884192
41.98152 426.977504176533
42.00163 400.011427033256
42.02175 443.100194391052
42.04186 451.031740199132
42.06198 438.988752990785
42.08209 458.004165039111
42.1022 424
42.12232 426.003302546157
42.14243 431.045438540355
42.16254 480.073815765447
42.18266 490.998093540242
42.20277 509.927242223038
42.22289 572.975218511179
42.243 609
42.26311 660.007493174811
42.28323 658.056304267713
42.30334 763.285771587351
42.32345 871.928513903463
42.34357 850.993554725719
42.36368 919.9027793199
42.38379 977.008563786828
42.40391 899.955913347152
42.42402 840.963992019878
42.44414 811.939158916107
42.46425 767.849162629598
42.48436 701.117505452556
42.50448 655.041085736191
42.52459 601.037712206761
42.5447 525
42.56482 494.939792436202
42.58493 420.963187204178
42.60505 445.023797254614
42.62516 420.03293260875
42.64527 414.054087937798
42.66539 360.009063469816
42.6855 388
42.70561 386.987569525745
42.72573 361.986446418184
42.74584 365.996900384089
42.76595 359.976893171359
42.78607 381.98161610721
42.80618 373.019356879032
42.8263 355
42.84641 349.004621030751
42.86652 360.996329506056
42.88664 339.956963420343
42.90675 333.976968330348
42.92686 352.952956620545
42.94698 369.995851130869
42.96709 368.996145452058
42.98721 373.988451252399
43.00732 329.968189959565
43.02743 335.051153581006
43.04755 370.037186568461
43.06766 362.02615920638
43.08777 348.042308993823
43.10789 333.978793408021
43.128 397
43.14812 333.938938321958
43.16823 326.041920653205
43.18834 357.036108857551
43.20846 353.039095048759
43.22857 330.030665610689
43.24868 329.967409782132
43.2688 369
43.28891 345.994956600209
43.30902 358.001267103254
43.32914 339.974040946973
43.34925 346.955623067095
43.36937 361.98858297432
43.38948 356.021247172958
43.40959 328.012018442073
43.42971 326.013924872849
43.44982 368.032075445756
43.46993 368.958079431918
43.49005 330.922828907162
43.51016 333.906260116114
43.53028 378.016342149147
43.55039 321.010002227948
43.5705 355
43.59062 340.969283178909
43.61073 325.008693534497
43.63084 337.997372704977
43.65096 331.959466757081
43.67107 365.99431878582
43.69119 340.005619336293
43.7113 361
43.73141 365.991936026964
43.75153 336.949898671987
43.77164 328.072882852861
43.79175 375.990523084944
43.81187 343.01057251073
43.83198 370.990732071493
43.85209 345.011958688571
43.87221 345.004390291792
43.89232 339.973809219826
43.91244 314.006887614213
43.93255 345.069227232635
43.95266 353.990021650668
43.97278 364.988191175965
43.99289 372.997755800666
44.013 370
44.03312 350.989168303825
44.05323 346.984321395662
44.07335 337.027135606036
44.09346 365.952893866329
44.11357 370.010198307202
44.13369 367.99516410875
44.1538 383
44.17391 375.993332238607
44.19403 358.962198918295
44.21414 333.977483927496
44.23426 342.955228137645
44.25437 367.965326000625
44.27448 376.016286766949
44.2946 348
44.31471 351.005902866493
44.33482 359.003129910477
44.35494 356.987106079752
44.37505 345.047378043554
44.39516 337.948715525949
44.41528 367.018252381641
44.43539 322.000084886041
44.45551 370.013854836808
44.47562 350.975701411405
44.49573 342.983429278106
44.51585 326.992055144143
44.53596 336.988281269919
44.55607 335.990154354079
44.57619 341.01011942812
44.5963 316
44.61642 359.014893018755
44.63653 333.968714726961
44.65664 342.035944473534
44.67676 351.994781474379
44.69687 344.033835815845
44.71698 320.007811644574
44.7371 332
44.75721 344.003954490891
44.77732 345.992259934355
44.79744 337.004294691421
44.81755 345.009559622619
44.83767 332.998155195968
44.85778 345.998209636416
44.87789 334.002667894901
44.89801 346.009766001449
44.91812 355.992837443331
44.93823 355.053978842012
44.95835 404.016603187722
44.97846 364.071162186592
44.99858 358.00142077536
45.01869 354.992823225122
45.0388 368
45.05892 334.027849829815
45.07903 408.051800459086
45.09914 386.983553402809
45.11926 407.009424851033
45.13937 380.986319078235
45.15949 426.986211640421
45.1796 403
45.19971 375.016134814385
45.21983 441.057235585475
45.23994 424.927807857626
45.26005 414.928632764326
45.28017 452.991713508529
45.30028 431.00263354906
45.32039 452.997556536893
45.34051 445.012483413327
45.36062 497.026698183771
45.38074 484.974902894448
45.40085 488.999435669702
45.42096 480.002874253581
45.44108 483.011901405343
45.46119 456.011260867538
45.4813 455
45.50142 487.041480041388
45.52153 509.96968238801
45.54165 472.993475260883
45.56176 512.921159632365
45.58187 525.995687482109
45.60199 540.983651197501
45.6221 588
45.64221 639.027209941287
45.66233 674.985866747055
45.68244 629.91210619172
45.70256 636.856956575358
45.72267 721.951400873392
45.74278 700.012586054493
45.7629 707
45.78301 648.984049279813
45.80312 641.960596162105
45.82324 556.82932156922
45.84335 508.046329601363
45.86346 507.97224945913
45.88358 508.037040856839
45.90369 456.010376240631
45.92381 459.988317581059
45.94392 410.979769412434
45.96403 414.955164965683
45.98415 354.930984716644
46.00426 385.892714940152
46.02437 413.020903682881
46.04449 376.013708765068
46.0646 376
46.08472 389.013574670239
46.10483 400.006263094818
46.12494 384.915298461305
46.14506 345.991350385373
46.16517 375.006603262272
46.18528 334.022229710456
46.2054 353
46.22551 367.005348124652
46.24563 372.984093283221
46.26574 365.05142844278
46.28585 399.036832495045
46.30597 338.071012233159
46.32608 340.969213327277
46.34619 367.993185785593
46.36631 367.997669138813
46.38642 369.008031643359
46.40653 372.981179374071
46.42665 357.015724824964
46.44676 384.953902255094
46.46688 381.027028346688
46.48699 356.000693664998
46.5071 373
46.52722 365.996730930338
46.54733 378.02919858259
46.56744 391.00003299323
46.58756 381.021007218996
46.60767 372.021923486865
46.62779 364.989379844011
46.6479 388
46.66801 336.992926322306
46.68813 383.096741069353
46.70824 403.911832727067
46.72835 332.09961943376
46.74847 346.949305860113
46.76858 362.005885476414
46.78869 350.999106584736
46.80881 355.990382018572
46.82892 327.003471243427
46.84904 353.998990588043
46.86915 320.950591177745
46.88926 335.948467499561
46.90938 350.993781152352
46.92949 349.005889036791
46.9496 338
46.96972 358.030185303035
46.98983 365.940941207734
47.00995 318.019423600035
47.03006 376.918176307218
47.05017 368.033776895489
47.07029 363.99480770841
47.0904 372
47.11051 366.012073279417
47.13063 395.973235168465
47.15074 337.926468937264
47.17086 357.897485257306
47.19097 386.037513962604
47.21108 338.010538007982
47.2312 369
47.25131 342.9803844231
47.27142 333.03339797105
47.29154 378.02038557473
47.31165 360.976787214405
47.33176 383.064936527445
47.35188 318.007147019438
47.37199 370.987525697283
47.39211 343.992542627114
47.41222 367.022940410011
47.43233 366.987560683866
47.45245 365.010692297412
47.47256 370.99381663357
47.49267 365.025014765471
47.51279 348.002482844625
47.5329 350
47.55302 338.008212102331
47.57313 365.030482097941
47.59324 360.957988755749
47.61336 349.962173310451
47.63347 371.03699276232
47.65358 334.964736652708
47.6737 416
47.69381 347.966786092268
47.71393 330.991974173454
47.73404 334.09215930197
47.75415 392.985702855493
47.77427 355.009839248691
47.79438 381.015526771623
47.81449 321.016287211889
47.83461 350.026599857587
47.85472 372.974860022084
47.87483 330.985746205187
47.89495 373.158871861935
47.91506 396.101421085066
47.93518 320.019096334302
47.95529 358.991819435351
47.9754 335
47.99552 370.022484873238
48.01563 357.970010839555
48.03574 352.007629213044
48.05586 356.002460625933
48.07597 353.989452225653
48.09609 363.003038552295
48.1162 344
48.13631 351.010215153895
48.15643 362.981232709362
48.17654 335.969354535144
48.19665 337.009272924342
48.21677 325.999323369125
48.23688 337.995199726161
48.257 342
48.27711 375.997975444556
48.29722 347.002880925199
48.31734 371.961353048612
48.33745 316.960887129636
48.35756 351.955643368135
48.37768 341.001489723338
48.39779 367.984252794244
48.4179 385
48.43802 377.970969366382
48.45813 346.993714637914
48.47825 358.973051676292
48.49836 321.060097708756
48.51847 328.937506424357
48.53859 366.00124791183
48.5587 337
48.57881 348.991265218163
48.59893 309.995438878909
48.61904 351.072020440418
48.63916 348.0550476421
48.65927 337.947291713669
48.67938 389.987977300078
48.6995 354
48.71961 344.997256887703
48.73972 342.021326137023
48.75984 376.02556857588
48.77995 357.068894846891
48.80006 348.966214687761
48.82018 373.98950589497
48.84029 358.01595729861
48.86041 332.997420029387
48.88052 344.010814230618
48.90063 348.009972444441
48.92075 352.973604276107
48.94086 329.041883090497
48.96097 326.974634919968
48.98109 346.996551770199
49.0012 338
49.02132 343.027728934474
49.04143 367.98542477824
49.06154 340.00394280466
49.08166 365.0143778906
49.10177 331.000268099547
49.12188 362.001345025121
49.142 330
49.16211 369.005518620361
49.18223 343.992138270843
49.20234 378.074260856999
49.22245 380.089331191807
49.24257 336.02932828427
49.26268 357.951978756997
49.28279 386.011682996252
49.30291 333.986996791669
49.32302 353.029059320554
49.34313 362.994398792431
49.36325 365.054270030343
49.38336 383.046705197003
49.40348 346.98209740478
49.42359 395.006341615046
49.4437 334
49.46382 396.038810947969
49.48393 378.976775862277
49.50404 385.986815553587
49.52416 366.987743471674
49.54427 385.031162696748
49.56439 339.003126200993
49.5845 378
49.60461 380.014682691592
49.62473 426.00150476643
49.64484 385.968232922268
49.66495 411.948523117597
49.68507 408.996735344373
49.70518 428.978608232249
49.7253 441
49.74541 442.994628239112
49.76552 438.026249125779
49.78564 483.050502285829
49.80575 479.994482994688
49.82586 502.914117841766
49.84598 557.937037943057
49.86609 628.959362946397
49.8862 720
49.90632 796.035198653198
49.92643 820.093164416146
49.94655 937.344227582542
49.96666 1064.76666406173
49.98677 1190.77217088644
50.00689 1331.96369134994
50.027 1346
50.04711 1421.05553986248
50.06723 1522.09071519652
50.08734 1511.83621072196
50.10746 1375.3399428836
50.12757 1215.18443330968
50.14768 1124.08777328074
50.1678 1038
50.18791 993.95843840029
50.20802 885.932983886708
50.22814 858.89679700293
50.24825 760.253735731203
50.26837 666.176052834453
50.28848 545.070690621027
50.30859 514.02694126254
50.32871 430.973016890864
50.34882 414.974381422222
50.36893 372.974828834861
50.38905 391.053419898339
50.40916 391.029964117215
50.42927 374.018369381931
50.44939 377.98745110472
50.4695 402
50.48962 382.005420910027
50.50973 395.947711828067
50.52984 342.028705552363
50.54996 412.944544884907
50.57007 375.040810046469
50.59018 387.993710912079
50.6103 358
50.63041 343.026969262311
50.65053 415.004476204561
50.67064 348.902737475831
50.69075 364.894611371857
50.71087 389.00077300233
50.73098 368.030926553547
50.75109 350.994593627093
50.77121 368.995273563834
50.79132 332.973167984928
50.81143 339.041083575584
50.83155 363.017139830033
50.85166 356.008275369024
50.87178 365.98138307194
50.89189 373.009807404895
50.912 347
50.93212 379.0246821765
50.95223 379.994636921387
50.97234 375.9612962635
50.99246 351.010741779198
51.01257 362.996606961258
51.03269 354.9958136308
51.0528 372
51.07291 340.992756837141
51.09303 358.03773780371
51.11314 362.958801507557
51.13325 337.013230692244
51.15337 341.035568766395
51.17348 302.004147678837
51.1936 345
51.21371 375.006976628475
51.23382 367.960777252706
51.25394 334.041153329888
51.27405 372.077645101677
51.29416 295.025394696343
51.31428 354.969765244867
51.33439 324.010768692448
51.3545 343
51.37462 339.989002125541
51.39473 326.964244057381
51.41485 309.034602549651
51.43496 345.950021132561
51.45507 347.996524738691
51.47519 358.997744630202
51.4953 355
51.51541 371.014576686472
51.53553 374.913631791174
51.55564 302.995806947522
51.57576 358.964102773193
51.59587 326.997539623803
51.61598 367.997960945458
51.6361 313
51.65621 307.010590824194
51.67632 329.014334153704
51.69644 327.968162522735
51.71655 324.906953020934
51.73667 374.989246930231
51.75678 335.035681863998
51.77689 329.000908785266
51.79701 325.006553554422
51.81712 346.000169335234
51.83723 326.988103938253
51.85735 347.086845864448
51.87746 364.041286713013
51.89757 317.062771794176
51.91769 311.98365464258
51.9378 345
51.95792 313.99518998644
51.97803 333.988082933891
51.99814 310.04894028973
52.01826 366.983601767821
52.03837 329.996977372876
52.05848 369.010631157979
52.0786 313
52.09871 364.01765732683
52.11883 348.963924512177
52.13894 330.924868317944
52.15905 289.011129613248
52.17917 320.961395346565
52.19928 329.97605816746
52.21939 358.005564537894
52.23951 317.992454427799
52.25962 340.017913546515
52.27974 328.95227821225
52.29985 318.029798321367
52.31996 340.976205022698
52.34008 336.00595441798
52.36019 346.985087014967
52.3803 365
52.40042 310.97012970222
52.42053 327.049749568694
52.44064 351.033207509279
52.46076 363.978713658219
52.48087 363.035258924212
52.50099 331.007473272558
52.5211 342
52.54121 347.99168487355
52.56133 325.997292287075
52.58144 347.04215294555
52.60155 353.004973977345
52.62167 345.028789594116
52.64178 327.995804332762
52.6619 357
52.68201 379.999292226939
52.70212 359.97646534664
52.72224 345.988204893394
52.74235 350.949582381974
52.76246 370.006403114738
52.78258 347.01903441647
52.80269 348.991687304884
52.8228 357
52.84292 336.01527985672
52.86303 380.038100438079
52.88315 382.05066806075
52.90326 410.033878626749
52.92337 358.03639435461
52.94349 377.990925538782
52.9636 373
52.98371 381.002602678935
53.00383 388.041363080907
53.02394 412.960138750241
53.04406 357.079788755006
53.06417 362.953941378777
53.08428 396.963682634287
53.1044 406
53.12451 350.006987860138
53.14462 417.024720464956
53.16474 378.94681769855
53.18485 392.974920010348
53.20497 391.961937980987
53.22508 430.998271656581
53.24519 396.010063510296
53.26531 407.003537351397
53.28542 390.976801371478
53.30553 384.025687387904
53.32565 409.02132124079
53.34576 401.995248672727
53.36587 420.973420371303
53.38599 422.006751138568
53.4061 408
53.42622 405.975558029528
53.44633 382.033865785105
53.46644 433.030074376764
53.48656 405.027907277158
53.50667 420.992439312181
53.52678 404.009062655714
53.5469 419
53.56701 433.998948327114
53.58713 420.983787100819
53.60724 414.977336886367
53.62735 404.978974324706
53.64747 425.984222986458
53.66758 420.005612471392
53.68769 425.994043524577
53.70781 430.995384044961
53.72792 416.998134803728
53.74804 431.03355283232
53.76815 429.93357841453
53.78826 411.934639850988
53.80838 477.960873515019
53.82849 451.036298226756
53.8486 390
53.86872 421.028172722125
53.88883 413.95505552669
53.90894 388.992237157833
53.92906 404.96298264027
53.94917 423.94876174076
53.96929 457.000019706339
53.9894 419
54.00951 409.026101840315
54.02963 477.019721298168
54.04974 435.950551673464
54.06985 448.994519271859
54.08997 426.020533297072
54.11008 432.995285380288
54.1302 432
54.15031 455.004929976509
54.17042 448.998483122505
54.19054 448.956576810197
54.21065 420.987727160257
54.23076 451.977737899791
54.25088 434.010328292498
54.27099 442.998356947277
54.29111 436.0015930874
54.31122 457.025828331653
54.33133 447.8937596271
54.35145 382.083850563521
54.37156 486.894602317903
54.39167 445.08539464908
54.41179 442.978189312514
54.4319 492
54.45201 480.989750524954
54.47213 459.945823807364
54.49224 427.007483511122
54.51236 459.958140605007
54.53247 455.006169117771
54.55258 471.968725792308
54.5727 501
54.59281 501.996620407577
54.61292 504.019760725026
54.63304 532.034633832686
54.65315 537.969360662264
54.67327 563.956608213706
54.69338 598.945925381368
54.71349 670.962967913101
54.73361 719.003921913652
54.75372 710.010934536412
54.77383 760.106514439395
54.79395 807.99362654948
54.81406 766.085462073745
54.83417 758.958787483635
54.85429 761.041147587701
54.8744 632
54.89452 628.996917135289
54.91463 608.026549076163
54.93474 648.984480150832
54.95486 601.01460055836
54.97497 645.957631140892
54.99508 606.090456057866
55.0152 525
55.03531 544.007404911199
55.05543 525.956513281483
55.07554 514.023396664876
55.09565 534.977649939347
55.11577 539.95502204285
55.13588 580.991733203428
55.15599 558.004564434498
55.17611 575.005138779377
55.19622 569.000776743966
55.21634 592.07494848358
55.23645 608.921565971654
55.25656 565.979100988195
55.27668 612.998259997022
55.29679 547.036940878787
55.3169 517
55.33702 528.991101976799
55.35713 497.957230447953
55.37724 495.043234024047
55.39736 511.038296756659
55.41747 475.007261454025
55.43759 500.995823929882
55.4577 465
55.47781 430.00669834266
55.49793 470.029684515107
55.51804 454.963536305404
55.53815 442.075420558959
55.55827 402.02840171659
55.57838 407.99576553919
55.5985 408
55.61861 444.011731805288
55.63872 431.957738488056
55.65884 400.028562050683
55.67895 455.8593304312
55.69906 473.043669026578
55.71918 435.031241141879
55.73929 431.987820730532
55.75941 449.989232739722
55.77952 407.990064011972
55.79963 442.056462260263
55.81975 448.953940649659
55.83986 424.035005427615
55.85997 430.947628995729
55.88009 453.017882549505
55.9002 396
55.92031 450.005746405654
55.94043 400.947488480591
55.96054 412.03097468828
55.98066 405.029780325719
56.00077 394.014467886855
56.02088 394.976419023758
56.041 423
56.06111 399.992158996619
56.08122 394.977425122225
56.10134 368.020905188409
56.12145 403.981276572953
56.14157 381.998054135269
56.16168 415.977052614939
56.18179 408.007689934151
56.20191 408.007360291578
56.22202 414.977361975154
56.24213 378.983741606089
56.26225 403.076110049406
56.28236 410.036925192714
56.30248 373.046221346607
56.32259 354.980408848884
56.3427 423
56.36282 406.961707102412
56.38293 389.019806996984
56.40304 413.007082700337
56.42316 397.006862332613
56.44327 415.971238968401
56.46338 411.031403365623
56.4835 382
56.50361 419.017459556135
56.52373 432.006630165259
56.54384 435.996272670684
56.56395 431.992430644388
56.58407 437.010898656237
56.60418 428.982852664476
56.62429 458.997891700888
56.64441 428.983037869441
56.66452 411.991264561213
56.68464 398.958603164758
56.70475 374.952558112426
56.72486 371.967897808731
56.74498 400.967599054068
56.76509 413.011631551698
56.7852 373
56.80532 386.033999217961
56.82543 414.013793274919
56.84554 403.965559962597
56.86566 388.035426738778
56.88577 376.988462364379
56.90589 397.991682217916
56.926 405
56.94611 420.005829190572
56.96623 408.93380806394
56.98634 361.98322067142
57.00645 389.947872221596
57.02657 382.023014155957
57.04668 375.004212341724
57.0668 368
57.08691 364.004911846023
57.10702 392.042009213171
57.12714 410.924622314487
57.14725 353.018423561967
57.16736 392.972567682049
57.18748 364.014238491675
57.20759 390.981404977195
57.22771 399.98644420887
57.24782 361.984667270274
57.26793 380.043385237236
57.28805 397.010176968619
57.30816 398.9772907404
57.32827 409.020587670384
57.34839 379.007972139892
57.3685 391
57.38861 403.99776429216
57.40873 382.955304734459
57.42884 361.996648310891
57.44896 368.016415319211
57.46907 343.033249180601
57.48918 348.959944447501
57.5093 393
57.52941 375.998254444447
57.54952 390.997044392749
57.56964 373.012591837873
57.58975 401.973850070349
57.60987 380.040923782873
57.62998 364.014735186149
57.65009 357.989733356861
57.67021 392.008040360411
57.69032 381.986685825509
57.71043 369.957258290925
57.73055 337.9897711528
57.75066 361.958136591012
57.77078 361.011089390511
57.79089 354.000199522659
57.811 364
57.83112 379.991478860747
57.85123 355.982706460703
57.87134 360.9961125956
57.89146 347.014869433829
57.91157 359.956869773728
57.93168 384.994229278351
57.9518 367
57.97191 338.990120331111
57.99203 340.044011615105
58.01214 373.007972987459
58.03225 355.001283606707
58.05237 375.989559436253
58.07248 360.012279151501
58.09259 359.004311626211
58.11271 352.011471634714
58.13282 384.994504942753
58.15294 355.015750243214
58.17305 392.995776128285
58.19316 350.031870422744
58.21328 382.964292509344
58.23339 383.014196785952
58.2535 350
58.27362 338.979255496866
58.29373 321.025425533642
58.31385 365.076982943638
58.33396 364.023863692346
58.35407 359.001684543119
58.37419 358.999263400894
58.3943 354
58.41441 328.993894259808
58.43453 332.004367984021
58.45464 322.965133733115
58.47475 315.952444483057
58.49487 350.962698799812
58.51498 349.019865555894
58.5351 335
58.55521 348.996079604698
58.57532 333.018446274719
58.59544 381.059456760926
58.61555 379.000555950176
58.63566 376.08776355655
58.65578 311.026789079428
58.67589 325.000695959396
58.69601 314.02070729138
58.71612 387.020937050729
58.73623 343.94604012506
58.75635 353.054356207398
58.77646 358.018475336321
58.79657 347.004225072016
58.81669 352.997250210041
58.8368 365
58.85691 400.999791657668
58.87703 366.959527273903
58.89714 358.966283166451
58.91726 337.984005436993
58.93737 384.906181012193
58.95748 418.019380865329
58.9776 367
58.99771 355.994073809846
59.01782 334.990305472161
59.03794 349.059723127725
59.05805 376.961701327144
59.07817 377.011762475229
59.09828 378.977953951419
59.11839 392.017821336193
59.13851 343.006637600553
59.15862 407.027512454826
59.17873 372.948847564255
59.19885 380.071356148837
59.21896 398.011071268005
59.23908 381.003606614441
59.25919 401.984087974001
59.2793 429
59.29942 427.967501541683
59.31953 390.995407010786
59.33964 422.054278463774
59.35976 417.055596700596
59.37987 394.994866132908
59.39998 415.989080334755
59.4201 399
59.44021 377.006521753207
59.46033 414.041596852007
59.48044 408.942606772173
59.50055 392.939170826547
59.52067 440.959707244206
59.54078 441.985341863179
59.56089 479.984586158085
59.58101 483.993711025752
59.60112 482.025504294705
59.62124 522.048152229887
59.64135 534.08308022502
59.66146 582.950667920072
59.68158 584.980116641177
59.70169 639.967075574577
59.7218 707
59.74192 777.019555613424
59.76203 773.056596984298
59.78215 876.313858767922
59.80226 991.775665082586
59.82237 1072.98165932589
59.84249 1066.96832730507
59.8626 1174
59.88271 1125.98491909939
59.90283 1128.92593062041
59.92294 1006.74362175392
59.94305 910.225355741435
59.96317 824.083912041952
59.98328 789.047516250874
60.0034 738
60.02351 760.001694048346
60.04362 729.973074520558
60.06374 707.898171458862
60.08385 636.123147433511
60.10396 598.15919958794
60.12408 487.076618929901
60.14419 459.014513490105
60.16431 409.981450526905
60.18442 402.00738591733
60.20453 402.979981065014
60.22465 380.958066909342
60.24476 369.041543086893
60.26487 344.015519811406
60.28499 361.979449946451
60.3051 396
60.32522 378.002374134125
60.34533 405.024680807269
60.36544 398.988663734862
60.38556 393.058839848991
60.40567 360.984910742557
60.42578 404.975348145483
60.4459 386
60.46601 360.989803328338
60.48612 346.999057308905
60.50624 355.012613886874
60.52635 368.897383515947
60.54647 405.032309341032
60.56658 351.008204230733
60.58669 394.987887948905
60.60681 375.993009755107
60.62692 386.004948980358
60.64703 378.000134051953
60.66715 380.9494630672
60.68726 350.99944447773
60.70738 380.980731264435
60.72749 370.010289116647
60.7476 367
60.76772 398.018994385671
60.78783 393.974802380724
60.80794 374.958983455779
60.82806 358.016826413011
60.84817 352.021385981944
60.86828 339.988246263371
60.8884 367
60.90851 358.998731810358
60.92863 361.975020698566
60.94874 330.97081436235
60.96885 351.887741145115
60.98897 387.992611978512
61.00908 356.052376787419
61.02919 318.00215158834
61.04931 345.018323925328
61.06942 363.994946128722
61.08954 349.996868143958
61.10965 358.99135281949
61.12976 352.951575016706
61.14988 386.012880283993
61.16999 336.011604458747
61.1901 357
61.21022 351.994670811004
61.23033 366.043833666077
61.25045 384.967261092133
61.27056 357.007330133467
61.29067 386.949212853712
61.31079 395.009147186364
61.3309 369
61.35101 378.012424684832
61.37113 399.006674373051
61.39124 391.998043685503
61.41135 399.993985220575
61.43147 396.990592905656
61.45158 415.979813417278
61.4717 422
61.49181 412.008727686928
61.51192 451.029196024182
61.53204 455.993970036081
61.55215 451.042557051572
61.57226 437.96507516013
61.59238 479.966615946033
61.61249 484.006815935608
61.63261 462.985222365629
61.65272 453.039377033372
61.67283 513.032198430488
61.69295 489.962147052666
61.71306 505.963656309151
61.73317 505.019159612602
61.75329 484.016332166576
61.7734 462
61.79352 509.04682923627
61.81363 519.955773588992
61.83374 475.944788731838
61.85386 479.95897275808
61.87397 494.000982266547
61.89408 492.979000189914
61.9142 516
61.93431 474.99826766858
61.95442 509.010890108084
61.97454 471.901424757543
61.99465 450.96669228993
62.01477 480.965403801749
62.03488 491.983134626922
62.05499 509.003485087522
62.07511 480.989133666225
62.09522 485.02235963873
62.11533 509.023865671781
62.13545 511.986231497079
62.15556 505.011542087372
62.17568 502.998195574481
62.19579 506.997749306574
62.2159 499
62.23602 469.009149174224
62.25613 509.03782836415
62.27624 499.964529651422
62.29636 489.027662771302
62.31647 470.024410143494
62.33659 467.991904414011
62.3567 486
62.37681 471.999457697697
62.39693 469.935986398273
62.41704 416.008833032546
62.43715 461.004829408248
62.45727 406.039681785924
62.47738 430.982058399679
62.49749 410.016641207663
62.51761 409.024793781704
62.53772 461.990158592094
62.55784 402.943218843922
62.57795 423.018864178386
62.59806 398.033178647616
62.61818 405.991867080732
62.63829 395.012446998098
62.6584 382
62.67852 417.011136530461
62.69863 408.019606167809
62.71875 425.908711569488
62.73886 355.049765905164
62.75897 381.992136352839
62.77909 354.99790744462
62.7992 397
62.81931 374.98224390899
62.83943 351.977518132754
62.85954 355.071769093025
62.87965 396.986256560611
62.89977 373.006575742174
62.91988 389.011981054001
62.94 351
62.96011 372.006968601423
62.98022 368.008106530562
63.00034 385.990925357168
63.02045 363.011994904033
63.04056 373.029971620704
63.06068 344.988700974539
63.08079 388.991320473234
63.10091 371.999987279526
63.12102 395.000764075756
63.14113 365.968339404138
63.16125 368.00804526098
63.18136 370.953998597435
63.20147 393.031025929085
63.22159 347.005765491829
63.2417 371
63.26182 346.004279984187
63.28193 388.04920366564
63.30204 384.961375035835
63.32216 362.065729064109
63.34227 334.001716860859
63.36238 352.989642270831
63.3825 344
63.40261 348.008099944382
63.42272 363.00227333973
63.44284 359.015020180184
63.46295 372.013681933905
63.48307 350.018693846898
63.50318 362.971653875238
63.52329 383.001235435791
63.54341 367.99827356336
63.56352 385.022331406945
63.58363 381.933719577313
63.60375 339.042616710401
63.62386 395.96463846887
63.64398 368.998519756477
63.66409 417.979034834665
63.6842 416
63.70432 391.996052921219
63.72443 417.071729535675
63.74454 443.935671211473
63.76466 387.016747748881
63.78477 442.905440017613
63.80489 470.996490881388
63.825 471
63.84511 459.994964261795
63.86523 451.986526929232
63.88534 460.092190377962
63.90545 531.843452777741
63.92557 546.06074892766
63.94568 501.989817956874
63.96579 546.998768603855
63.98591 495.98111105224
64.00602 501.011522373066
64.02614 497.995222109943
64.04625 493.942858553241
64.06636 461.032753298609
64.08648 464.000890228936
64.10659 453.001965849649
64.1267 451
64.14682 415.982358284842
64.16693 422.009543217917
64.18705 417.99527463483
64.20716 422.991671493065
64.22727 410.057913528533
64.24739 370.003873875437
64.2675 390
64.28761 370.985712775765
64.30773 348.973165760349
64.32784 342.027275594583
64.34796 373.924806931297
64.36807 390.031584732483
64.38818 352.018771368025
64.4083 357
64.42841 343.0009472362
64.44852 361.006915753363
64.46864 345.958577202448
64.48875 339.966834564991
64.50886 357.992948271359
64.52898 350.994361778242
64.54909 368.996650557781
64.56921 356.992758467128
64.58932 355.009496896482
64.60943 371.027498666468
64.62955 387.031716181727
64.64966 393.006987635958
64.66977 366.092088012459
64.68989 297.018621262028
64.71 306
64.73012 336.028878679655
64.75023 353.994798879705
64.77034 342.005573930827
64.79046 354.015393227295
64.81057 333.993894155525
64.83068 355.005794000205
64.8508 326
64.87091 345.998652842919
64.89102 325.012323274457
64.91114 370.050405038313
64.93125 345.132935660192
64.95137 318.946937696653
64.97148 374.999196060077
64.99159 317.022113679972
65.01171 326.014895381368
65.03182 349.020523577017
65.05193 366.011247358639
65.07205 368.015364170582
65.09216 374.016375313806
65.11228 348.033070694586
65.13239 325.002883623334
65.1525 333
65.17262 343.014246707862
65.19273 351.982605077016
65.21284 334.010349978412
65.23296 356.988624895216
65.25307 338.024167418112
65.27319 348.982604438652
65.2933 374
65.31341 341.002034300238
65.33353 373.999160896096
65.35364 331.941824508209
65.37375 352.865177306038
65.39387 380.065151778008
65.41398 313.996130813615
65.43409 371.998157400738
65.45421 315.993797094901
65.47432 372.046222096344
65.49444 362.935117299872
65.51455 338.962595107789
65.53466 348.899396171557
65.55478 395.019247821344
65.57489 327.019323229387
65.595 344
65.61512 347.012299491359
65.63523 356.952189685328
65.65535 318.071327918103
65.67546 400.9026311893
65.69557 374.084967410312
65.71569 341.999049521307
65.7358 362
65.75591 366.008645304683
65.77603 387.992984503945
65.79614 358.960560811894
65.81626 366.958410342566
65.83637 373.032454809626
65.85648 337.023593717257
65.8766 333
65.89671 334.014282380549
65.91682 374.011647509873
65.93694 351.95680236873
65.95705 355.947572958168
65.97716 366.040855007345
65.99728 332.010586099164
66.01739 349.992555596174
66.03751 351.003884993528
66.05762 357.977926665917
66.07773 330.026651134971
66.09785 386.087272966338
66.11796 369.081983493343
66.13807 335.034737808709
66.15819 328.992940283873
66.1783 348
66.19842 339.997049327537
66.21853 349.014166989211
66.23864 345.966019393588
66.25876 322.043618984
66.27887 311.99548992959
66.29898 319.996279680615
66.3191 306
66.33921 284.015970590755
66.35933 349.054619695288
66.37944 338.972355024701
66.39955 343.99022101237
66.41967 339.002610454539
66.43978 342.00294363187
66.45989 333.00218003082
66.48001 333.998241199918
66.50012 321.9855619386
66.52023 326.056201944749
66.54035 368.004909939189
66.56046 340.007233446537
66.58058 361.008336097125
66.60069 320.011299803392
66.6208 329
66.64092 323.018948258227
66.66103 362.029556535677
66.68114 351.977134635606
66.70126 353.995729400204
66.72137 351.000071258596
66.74149 351.005464556856
66.7616 340
66.78171 368.008923304031
66.80183 360.970405534444
66.82194 342.972872489726
66.84205 337.98652177609
66.86217 343.011903791919
66.88228 329.99744240263
66.90239 349.990747160137
66.92251 343.982599216599
66.94262 312.00728653683
66.96274 351.053446052421
66.98285 354.027314501443
67.00296 375.991893467651
67.02308 355.02426082794
67.04319 345.998273491741
67.0633 351
67.08342 339.984746884838
67.10353 338.035692882487
67.12365 381.106602256345
67.14376 398.03093508569
67.16387 368.029717725587
67.18399 360.009415003486
67.2041 344
67.22421 389.005674190297
67.24433 363.986091572062
67.26444 382.010196009894
67.28456 371.974535257563
67.30467 403.985595976822
67.32478 387.006154956483
67.3449 402
67.36501 395.998589997162
67.38512 413.035223911124
67.40524 445.016367062173
67.42535 445.924355512262
67.44546 492.972390482717
67.46558 467.022343443624
67.48569 486.971189674166
67.50581 556.028701604638
67.52592 591.023130288653
67.54603 620.061692904112
67.56615 673.14309005233
67.58626 718.950312662494
67.60637 733.96274516887
67.62649 778.972602010909
67.6466 825
67.66672 832.996087321977
67.68683 817.95068764695
67.70694 760.840581972202
67.72706 684.094722842935
67.74717 669.006783616444
67.76728 648.042024902261
67.7874 622
67.80751 692.021786810989
67.82763 686.980743927087
67.84774 688.997860520113
67.86785 695.890743743738
67.88797 748.992425588299
67.90808 722.982959341054
67.92819 786.98002067975
67.94831 778.995191030874
67.96842 815.082277635663
67.98853 892.026797439271
68.00865 892.189787015676
68.02876 1006.95764870438
68.04888 938.024096439696
68.06899 1007.96101679799
68.0891 1039
68.10922 1025.92090354656
68.12933 921.929828414112
68.14944 949.073958094935
68.16956 944.070613252931
68.18967 898.071965225502
68.20979 885.972983484634
68.2299 970
68.25001 942.964890863551
68.27013 867.894728268104
68.29024 797.836260166743
68.31035 700.25612171619
68.33047 625.035231195742
68.35058 627.021895555367
68.3707 564
68.39081 521.995956954697
68.41092 530.001739588826
68.43104 517.978249322421
68.45115 508.947771079879
68.47126 477.055214861977
68.49138 460.014588782197
68.51149 438.015232136898
68.5316 402
68.55172 383.012987163168
68.57183 411.017538440518
68.59195 390.909717469645
68.61206 367.99082897598
68.63217 385.995313192359
68.65229 367.009952379912
68.6724 362
68.69251 357.986751617031
68.71263 326.994973260049
68.73274 354.056483243435
68.75286 366.980830936528
68.77297 368.037495033758
68.79308 332.013887783173
68.8132 357
68.83331 387.995364630202
68.85342 356.989459302063
68.87354 386.091334419059
68.89365 402.094499212041
68.91376 344.039790558214
68.93388 370.975673696437
68.95399 363.010340696876
68.97411 353.002357552976
68.99422 366.010797374779
69.01433 367.995243266028
69.03445 354.922411898222
69.05456 328.977979062517
69.07467 370.947594893331
69.09479 375.006656253614
69.1149 364
69.13502 356.969575051452
69.15513 320.993675522445
69.17524 351.059355175071
69.19536 359.002373778338
69.21547 366.966094204568
69.23558 385.011690055133
69.2557 354
69.27581 367.007926347847
69.29593 365.980228032642
69.31604 353.996096696791
69.33615 363.962702419523
69.35627 367.028458354631
69.37638 346.989641531795
69.39649 379.991912396814
69.41661 370.998325174252
69.43672 381.000275967797
69.45683 361.962919596934
69.47695 343.970458527136
69.49706 348.933866979202
69.51718 386.992204778287
69.53729 361.014130678089
69.5574 353
69.57752 368.034110493138
69.59763 390.959804464191
69.61774 338.972426202
69.63786 364.991438463815
69.65797 338.009551488267
69.67809 363.991018903832
69.6982 358
69.71831 370.011570782177
69.73843 372.936860321012
69.75854 327.033427563307
69.77865 382.987783654445
69.79877 331.036545294334
69.81888 365.958449470776
69.839 364
69.85911 320.998734349003
69.87922 355.026683790036
69.89934 350.970409709099
69.91945 351.051609198099
69.93956 375.986587273923
69.95968 359.023782613172
69.97979 349.994579634328
69.9999 370
70.02002 377.016984405371
70.04013 394.990284717571
70.06025 361.909816431692
70.08036 345.990556460379
70.10047 355.00516319908
70.12059 345.995421007273
70.1407 373
70.16081 370.991718700687
70.18093 353.983555721307
70.20104 355.02549057128
70.22116 367.002573397285
70.24127 360.984732975066
70.26138 380.997759807226
70.2815 363
70.30161 358.99214756052
70.32172 341.010185802328
70.34184 369.009804152776
70.36195 337.1035875453
70.38207 319.977840500724
70.40218 354.964183203852
70.42229 367.008855242076
70.44241 344.001152726459
70.46252 367.008567819443
70.48263 342.940407214242
70.50275 318.010350816587
70.52286 335.995382135374
70.54297 327.975459116512
70.56309 359.998168358333
70.5832 332
70.60332 342.018703802646
70.62343 346.983359816067
70.64354 328.973550825867
70.66366 333.949822056418
70.68377 360.987487633982
70.70388 345.025436430415
70.724 332
70.74411 348.003437669357
70.76423 345.006619368485
70.78434 346.945018219929
70.80445 311.981991059406
70.82457 346.006302163462
70.84468 302.019948367229
70.86479 324.989431231979
70.88491 322.999050832688
70.90502 324.986490475484
70.92513 309.021167070378
70.94525 341.012463784683
70.96536 326.961090417242
70.98548 369.996360891157
71.00559 324.021379858998
71.0257 324
71.04582 359.026880296519
71.06593 365.981497443037
71.08604 343.95513814827
71.10616 330.010433667724
71.12627 327.01085129413
71.14639 324.990371752279
71.1665 350
71.18661 333.004706168282
71.20673 363.003560357601
71.22684 333.967551813438
71.24695 339.022537656421
71.26707 306.04658448722
71.28718 297.989202894367
71.3073 311
71.32741 304.999657084691
71.34752 326.044889017822
71.36764 367.012379422594
71.38775 349.995180911537
71.40786 366.033810468418
71.42798 325.008537585679
71.44809 355.989479461203
71.4682 334
71.48832 307.027733012079
71.50843 357.00996290288
71.52855 314.922991726518
71.54866 316.011109525373
71.56877 301.978381051063
71.58889 341.987378021925
71.609 332
71.62911 326.015174204358
71.64923 370.02680814588
71.66934 356.980825863278
71.68946 362.006803532228
71.70957 349.000965721417
71.72968 364.985190645868
71.7498 356
71.76991 321.002300619379
71.79002 338.96856301002
71.81014 287.039139974576
71.83025 358.968532021082
71.85037 302.037861150082
71.87048 347.944775972336
71.89059 364.005282121477
71.91071 345.990572267407
71.93082 334.999449399765
71.95093 350.049624438886
71.97105 374.96898552703
71.99116 343.008652506902
72.01127 362.013333591943
72.03139 326.005289425031
72.0515 346
72.07162 326.999957041466
72.09173 363.071597190357
72.11184 389.994175444901
72.13196 368.042010497938
72.15207 357.017055352556
72.17218 346.996202034736
72.1923 353
72.21241 329.002938254353
72.23253 360.019925814794
72.25264 341.95904337106
72.27275 342.955434155202
72.29287 361.986676294774
72.31298 355.017434251668
72.33309 346.991944415754
72.35321 361.986886457699
72.37332 319.005146275051
72.39344 368.04754613807
72.41355 342.927181262357
72.43366 343.957851202758
72.45378 354.022226095764
72.47389 329.986909707911
72.494 383
72.51412 333.970113350088
72.53423 352.03508798711
72.55434 352.985835338433
72.57446 350.996119643875
72.59457 345.03672231691
72.61469 329.983287579947
72.6348 390
72.65491 360.979580729416
72.67503 346.010674951273
72.69514 361.024939142944
72.71525 363.015685382106
72.73537 364.963268795955
72.75548 390.011211258341
72.7756 354
72.79571 381.01669078637
72.81582 393.998059800683
72.83594 382.96056531696
72.85605 369.976918378933
72.87616 388.004401601799
72.89628 363.021058338481
72.91639 354.007534631807
72.9365 347
72.95662 398.011960653906
72.97673 367.971454823377
72.99685 375.996648080431
73.01696 365.963378478639
73.03707 401.991499153954
73.05719 371.012871003707
73.0773 377
73.09741 396.004774468617
73.11753 394.989208776818
73.13764 383.966746575196
73.15776 368.013439052403
73.17787 378.956916958999
73.19798 412.973961663459
73.2181 421
73.23821 406.992930815281
73.25832 415.046155675411
73.27844 469.029277729916
73.29855 445.037858279239
73.31867 467.935718316099
73.33878 505.974316773208
73.35889 515.002604797735
73.37901 508.000588281341
73.39912 526.033394892637
73.41923 534.918631913167
73.43935 449.891016851786
73.45946 464.960116763317
73.47957 447.067355772728
73.49969 413.996202844083
73.5198 444
73.53992 414.973560435171
73.56003 423.056708927221
73.58014 459.013272439325
73.60026 427.10412580638
73.62037 393.988208683773
73.64048 418.006537124539
73.6606 382
73.68071 404.017048278042
73.70083 411.955576103182
73.72094 368.959412177611
73.74105 374.998880997396
73.76117 356.030174060134
73.78128 357.97077000015
73.80139 391.994735076024
73.82151 373.988244983011
73.84162 360.99103003195
73.86174 344.945579687255
73.88185 320.995958243296
73.90196 339.96263048286
73.92208 344.004580350011
73.94219 346.989715257161
73.9623 366
73.98242 328.97404541587
74.00253 333.026354483318
74.02264 348.024834277429
74.04276 359.973671752602
74.06287 359.048534620099
74.08299 320.999956178737
74.1031 351
74.12321 328.995817964286
74.14333 345.011342786107
74.16344 338.009684511645
74.18355 354.992949039205
74.20367 331.055494956167
74.22378 318.962273084804
74.2439 369
74.26401 319.984162149029
74.28412 337.032100386872
74.30424 342.943631382902
74.32435 309.006882800335
74.34446 337.951127146804
74.36458 338.008279227416
74.38469 333.003096366769
74.40481 328.001605298478
74.42492 332.993358492918
74.44503 318.994659634472
74.46515 334.060021763505
74.48526 350.000173784298
74.50537 347.973148855454
74.52549 366.011957705764
74.5456 311
74.56571 325.015947197551
74.58583 344.005197335097
74.60594 329.938053527985
74.62606 308.967882428007
74.64617 348.964560246199
74.66628 342.011869425803
74.6864 334
74.70651 322.017942543167
74.72662 379.011773989178
74.74674 333.905089573266
74.76685 319.99454858025
74.78697 322.990692820516
74.80708 331.991205563073
74.82719 333.005759712538
74.84731 326.009717077716
74.86742 358.008455347993
74.88753 334.960152212349
74.90765 330.035874219089
74.92776 345.996112528462
74.94787 338.993120886816
74.96799 348.007212680394
74.9881 316
75.00822 334.034609374913
