3.00117 20203
3.02128 19145
3.0414 19131
3.06151 18495
3.08162 17789
3.10174 17685
3.12185 17022
3.14197 16638
3.16208 15966
3.18219 15362
3.20231 15058
3.22242 14475
3.24253 14039
3.26265 13626
3.28276 13013
3.30288 12974
3.32299 12499
3.3431 11921
3.36322 11836
3.38333 11056
3.40344 11086
3.42356 10661
3.44367 10217
3.46379 10073
3.4839 9353
3.50401 9276
3.52413 8754
3.54424 8379
3.56435 8341
3.58447 7876
3.60458 7734
3.62469 7261
3.64481 7018
3.66492 6951
3.68504 6365
3.70515 6310
3.72526 5701
3.74538 5776
3.76549 5737
3.7856 5100
3.80572 5129
3.82583 4905
3.84595 4643
3.86606 4593
3.88617 4083
3.90629 4140
3.9264 3869
3.94651 3632
3.96663 3765
3.98674 3432
4.00686 3376
4.02697 3102
4.04708 3026
4.0672 2907
4.08731 2578
4.10742 2549
4.12754 2513
4.14765 2396
4.16776 2458
4.18788 2166
4.20799 2153
4.22811 2084
4.24822 1920
4.26833 1922
4.28845 1780
4.30856 1787
4.32867 1684
4.34879 1691
4.3689 1662
4.38902 1543
4.40913 1447
4.42924 1466
4.44936 1450
4.46947 1487
4.48958 1328
4.5097 1321
4.52981 1289
4.54992 1288
4.57004 1283
4.59015 1130
4.61027 1173
4.63038 1127
4.65049 1132
4.67061 1094
4.69072 985
4.71083 1063
4.73095 989
4.75106 977
4.77118 984
4.79129 960
4.8114 862
4.83152 920
4.85163 884
4.87174 820
4.89186 837
4.91197 829
4.93209 786
4.9522 802
4.97231 779
4.99243 718
5.01254 772
5.03265 757
5.05277 737
5.07288 719
5.09299 653
5.11311 671
5.13322 653
5.15334 667
5.17345 674
5.19356 595
5.21368 593
5.23379 591
5.2539 589
5.27402 528
5.29413 491
5.31425 498
5.33436 535
5.35447 510
5.37459 520
5.3947 448
5.41481 461
5.43493 443
5.45504 438
5.47516 438
5.49527 453
5.51538 443
5.5355 414
5.55561 418
5.57572 417
5.59584 339
5.61595 430
5.63606 410
5.65618 356
5.67629 365
5.69641 358
5.71652 377
5.73663 331
5.75675 361
5.77686 318
5.79697 339
5.81709 363
5.8372 370
5.85732 307
5.87743 295
5.89754 334
5.91766 340
5.93777 294
5.95788 311
5.978 307
5.99811 302
6.01823 302
6.03834 291
6.05845 290
6.07857 281
6.09868 337
6.11879 313
6.13891 302
6.15902 310
6.17913 321
6.19925 280
6.21936 274
6.23948 281
6.25959 284
6.2797 302
6.29982 298
6.31993 283
6.34004 295
6.36016 281
6.38027 274
6.40039 264
6.4205 291
6.44061 297
6.46073 266
6.48084 263
6.50095 313
6.52107 256
6.54118 280
6.56129 309
6.58141 275
6.60152 244
6.62164 270
6.64175 271
6.66186 249
6.68198 265
6.70209 257
6.7222 272
6.74232 244
6.76243 278
6.78255 240
6.80266 247
6.82277 265
6.84289 259
6.863 279
6.88311 259
6.90323 259
6.92334 222
6.94346 252
6.96357 241
6.98368 240
7.0038 250
7.02391 261
7.04402 260
7.06414 257
7.08425 236
7.10436 244
7.12448 268
7.14459 278
7.16471 254
7.18482 245
7.20493 283
7.22505 243
7.24516 216
7.26527 255
7.28539 247
7.3055 234
7.32562 244
7.34573 268
7.36584 284
7.38596 236
7.40607 259
7.42618 226
7.4463 257
7.46641 271
7.48653 241
7.50664 262
7.52675 259
7.54687 266
7.56698 248
7.58709 241
7.60721 268
7.62732 280
7.64743 274
7.66755 245
7.68766 232
7.70778 253
7.72789 260
7.748 251
7.76812 227
7.78823 258
7.80834 242
7.82846 229
7.84857 243
7.86869 251
7.8888 271
7.90891 232
7.92903 252
7.94914 262
7.96925 248
7.98937 246
8.00948 249
8.0296 284
8.04971 244
8.06982 246
8.08994 249
8.11005 291
8.13016 260
8.15028 262
8.17039 305
8.1905 243
8.21062 302
8.23073 248
8.25085 274
8.27096 265
8.29107 241
8.31119 239
8.3313 243
8.35141 272
8.37153 284
8.39164 283
8.41176 291
8.43187 254
8.45198 266
8.4721 250
8.49221 296
8.51232 269
8.53244 315
8.55255 278
8.57266 257
8.59278 248
8.61289 276
8.63301 267
8.65312 266
8.67323 326
8.69335 291
8.71346 277
8.73357 307
8.75369 284
8.7738 309
8.79392 317
8.81403 310
8.83414 291
8.85426 322
8.87437 330
8.89448 345
8.9146 330
8.93471 278
8.95483 268
8.97494 269
8.99505 276
9.01517 259
9.03528 268
9.05539 215
9.07551 268
9.09562 281
9.11573 271
9.13585 225
9.15596 257
9.17608 268
9.19619 255
9.2163 248
9.23642 265
9.25653 226
9.27664 254
9.29676 241
9.31687 276
9.33699 228
9.3571 243
9.37721 256
9.39733 259
9.41744 305
9.43755 255
9.45767 263
9.47778 264
9.4979 252
9.51801 267
9.53812 254
9.55824 244
9.57835 261
9.59846 233
9.61858 258
9.63869 272
9.6588 243
9.67892 259
9.69903 264
9.71915 274
9.73926 280
9.75937 309
9.77949 272
9.7996 276
9.81971 277
9.83983 274
9.85994 275
9.88006 270
9.90017 258
9.92028 266
9.9404 238
9.96051 256
9.98062 282
10.00074 249
10.02085 261
10.04097 249
10.06108 234
10.08119 256
10.10131 264
10.12142 258
10.14153 265
10.16165 230
10.18176 248
10.20187 228
10.22199 273
10.2421 251
10.26222 290
10.28233 239
10.30244 269
10.32256 234
10.34267 253
10.36278 291
10.3829 304
10.40301 338
10.42313 388
10.44324 386
10.46335 384
10.48347 413
10.50358 408
10.52369 400
10.54381 332
10.56392 339
10.58403 300
10.60415 302
10.62426 263
10.64438 272
10.66449 278
10.6846 243
10.70472 265
10.72483 241
10.74494 234
10.76506 249
10.78517 240
10.80529 280
10.8254 255
10.84551 250
10.86563 252
10.88574 223
10.90585 219
10.92597 245
10.94608 222
10.9662 255
10.98631 259
11.00642 271
11.02654 244
11.04665 232
11.06676 259
11.08688 266
11.10699 240
11.1271 272
11.14722 250
11.16733 235
11.18745 235
11.20756 247
11.22767 232
11.24779 249
11.2679 252
11.28801 200
11.30813 229
11.32824 237
11.34836 237
11.36847 254
11.38858 240
11.4087 228
11.42881 258
11.44892 237
11.46904 275
11.48915 270
11.50927 243
11.52938 226
11.54949 220
11.56961 233
11.58972 239
11.60983 274
11.62995 225
11.65006 246
11.67017 254
11.69029 221
11.7104 234
11.73052 232
11.75063 254
11.77074 249
11.79086 227
11.81097 228
11.83108 237
11.8512 248
11.87131 254
11.89143 237
11.91154 243
11.93165 250
11.95177 225
11.97188 256
11.99199 246
12.01211 253
12.03222 260
12.05234 242
12.07245 254
12.09256 252
12.11268 235
12.13279 266
12.1529 244
12.17302 292
12.19313 252
12.21324 263
12.23336 261
12.25347 252
12.27359 230
12.2937 249
12.31381 272
12.33393 244
12.35404 229
12.37415 260
12.39427 254
12.41438 259
12.4345 235
12.45461 245
12.47472 248
12.49484 231
12.51495 239
12.53506 244
12.55518 238
12.57529 236
12.5954 226
12.61552 224
12.63563 234
12.65575 246
12.67586 224
12.69597 229
12.71609 228
12.7362 221
12.75631 229
12.77643 225
12.79654 218
12.81666 228
12.83677 220
12.85688 232
12.877 239
12.89711 218
12.91722 193
12.93734 228
12.95745 246
12.97757 246
12.99768 254
13.01779 230
13.03791 224
13.05802 237
13.07813 271
13.09825 244
13.11836 251
13.13847 266
13.15859 242
13.1787 278
13.19882 274
13.21893 247
13.23904 199
13.25916 247
13.27927 269
13.29938 262
13.3195 277
13.33961 224
13.35973 244
13.37984 232
13.39995 270
13.42007 244
13.44018 221
13.46029 250
13.48041 263
13.50052 228
13.52064 252
13.54075 272
13.56086 251
13.58098 327
13.60109 300
13.6212 316
13.64132 328
13.66143 324
13.68154 310
13.70166 306
13.72177 291
13.74189 279
13.762 303
13.78211 308
13.80223 347
13.82234 326
13.84245 380
13.86257 386
13.88268 312
13.9028 332
13.92291 321
13.94302 277
13.96314 296
13.98325 241
14.00336 245
14.02348 245
14.04359 243
14.06371 263
14.08382 241
14.10393 231
14.12405 215
14.14416 242
14.16427 211
14.18439 235
14.2045 241
14.22461 229
14.24473 228
14.26484 219
14.28496 214
14.30507 223
14.32518 184
14.3453 234
14.36541 241
14.38552 211
14.40564 242
14.42575 218
14.44587 230
14.46598 202
14.48609 227
14.50621 242
14.52632 218
14.54643 184
14.56655 211
14.58666 212
14.60677 226
14.62689 244
14.647 226
14.66712 228
14.68723 206
14.70734 228
14.72746 233
14.74757 217
14.76768 228
14.7878 240
14.80791 245
14.82803 244
14.84814 234
14.86825 254
14.88837 272
14.90848 274
14.92859 232
14.94871 252
14.96882 284
14.98894 229
15.00905 274
15.02916 276
15.04928 286
15.06939 286
15.0895 279
15.10962 290
15.12973 244
15.14984 250
15.16996 260
15.19007 253
15.21019 252
15.2303 267
15.25041 248
15.27053 230
15.29064 234
15.31075 224
15.33087 216
15.35098 202
15.3711 231
15.39121 204
15.41132 210
15.43144 231
15.45155 219
15.47166 232
15.49178 197
15.51189 215
15.53201 209
15.55212 209
15.57223 233
15.59235 223
15.61246 233
15.63257 216
15.65269 205
15.6728 196
15.69291 226
15.71303 231
15.73314 241
15.75326 244
15.77337 271
15.79348 230
15.8136 230
15.83371 232
15.85382 233
15.87394 213
15.89405 231
15.91417 234
15.93428 216
15.95439 218
15.97451 229
15.99462 226
16.01473 182
16.03485 204
16.05496 188
16.07508 216
16.09519 213
16.1153 251
16.13542 220
16.15553 214
16.17564 216
16.19576 218
16.21587 228
16.23598 212
16.2561 194
16.27621 212
16.29633 228
16.31644 213
16.33655 217
16.35667 204
16.37678 197
16.39689 204
16.41701 195
16.43712 192
16.45724 217
16.47735 214
16.49746 212
16.51758 224
16.53769 231
16.5578 234
16.57792 200
16.59803 196
16.61814 208
16.63826 246
16.65837 194
16.67849 215
16.6986 213
16.71871 207
16.73883 223
16.75894 209
16.77905 231
16.79917 227
16.81928 234
16.8394 197
16.85951 235
16.87962 202
16.89974 234
16.91985 212
16.93996 204
16.96008 200
16.98019 180
17.00031 220
17.02042 220
17.04053 227
17.06065 199
17.08076 222
17.10087 192
17.12099 218
17.1411 169
17.16121 208
17.18133 188
17.20144 197
17.22156 190
17.24167 240
17.26178 199
17.2819 200
17.30201 223
17.32212 208
17.34224 247
17.36235 197
17.38247 201
17.40258 208
17.42269 240
17.44281 205
17.46292 209
17.48303 230
17.50315 215
17.52326 218
17.54338 232
17.56349 200
17.5836 222
17.60372 204
17.62383 209
17.64394 215
17.66406 245
17.68417 262
17.70428 232
17.7244 222
17.74451 215
17.76463 216
17.78474 208
17.80485 229
17.82497 221
17.84508 226
17.86519 216
17.88531 226
17.90542 213
17.92554 254
17.94565 227
17.96576 232
17.98588 186
18.00599 211
18.0261 211
18.04622 213
18.06633 232
18.08645 232
18.10656 238
18.12667 204
18.14679 223
18.1669 216
18.18701 200
18.20713 237
18.22724 211
18.24735 222
18.26747 203
18.28758 193
18.3077 226
18.32781 208
18.34792 231
18.36804 209
18.38815 207
18.40826 218
18.42838 218
18.44849 210
18.46861 219
18.48872 244
18.50883 214
18.52895 188
18.54906 205
18.56917 199
18.58929 215
18.6094 231
18.62951 192
18.64963 210
18.66974 231
18.68986 191
18.70997 184
18.73008 212
18.7502 235
18.77031 240
18.79042 232
18.81054 227
18.83065 226
18.85077 221
18.87088 211
18.89099 220
18.91111 227
18.93122 207
18.95133 219
18.97145 213
18.99156 203
19.01168 240
19.03179 242
19.0519 226
19.07202 211
19.09213 216
19.11224 227
19.13236 199
19.15247 184
19.17258 233
19.1927 241
19.21281 233
19.23293 241
19.25304 247
19.27315 248
19.29327 252
19.31338 269
19.33349 271
19.35361 249
19.37372 263
19.39384 261
19.41395 245
19.43406 242
19.45418 239
19.47429 248
19.4944 253
19.51452 232
19.53463 280
19.55475 281
19.57486 292
19.59497 286
19.61509 289
19.6352 251
19.65531 278
19.67543 324
19.69554 286
19.71565 294
19.73577 268
19.75588 329
19.776 308
19.79611 288
19.81622 264
19.83634 310
19.85645 277
19.87656 294
19.89668 309
19.91679 264
19.93691 266
19.95702 304
19.97713 294
19.99725 265
20.01736 266
20.03747 269
20.05759 290
20.0777 269
20.09782 265
20.11793 289
20.13804 286
20.15816 268
20.17827 284
20.19838 289
20.2185 298
20.23861 305
20.25872 304
20.27884 251
20.29895 335
20.31907 296
20.33918 310
20.35929 339
20.37941 310
20.39952 290
20.41963 296
20.43975 305
20.45986 330
20.47998 324
20.50009 391
20.5202 354
20.54032 354
20.56043 346
20.58054 373
20.60066 381
20.62077 458
20.64088 427
20.661 488
20.68111 552
20.70123 740
20.72134 893
20.74145 1265
20.76157 1691
20.78168 2298
20.80179 3154
20.82191 4044
20.84202 4662
20.86214 4586
20.88225 4088
20.90236 3192
20.92248 2268
20.94259 1663
20.9627 1134
20.98282 989
21.00293 898
21.02305 927
21.04316 828
21.06327 812
21.08339 668
21.1035 614
21.12361 535
21.14373 465
21.16384 442
21.18395 359
21.20407 390
21.22418 351
21.2443 380
21.26441 372
21.28452 356
21.30464 412
21.32475 356
21.34486 345
21.36498 365
21.38509 300
21.40521 311
21.42532 342
21.44543 297
21.46555 307
21.48566 310
21.50577 285
21.52589 303
21.546 293
21.56612 327
21.58623 247
21.60634 280
21.62646 301
21.64657 268
21.66668 276
21.6868 294
21.70691 272
21.72702 275
21.74714 284
21.76725 289
21.78737 307
21.80748 318
21.82759 373
21.84771 330
21.86782 411
21.88793 469
21.90805 557
21.92816 664
21.94828 822
21.96839 846
21.9885 1093
22.00862 1047
22.02873 1004
22.04884 901
22.06896 754
22.08907 655
22.10919 424
22.1293 380
22.14941 412
22.16953 355
22.18964 358
22.20975 321
22.22987 313
22.24998 351
22.27009 367
22.29021 362
22.31032 363
22.33044 388
22.35055 329
22.37066 336
22.39078 347
22.41089 303
22.431 319
22.45112 335
22.47123 337
22.49135 334
22.51146 329
22.53157 318
22.55169 308
22.5718 343
22.59191 337
22.61203 331
22.63214 329
22.65225 303
22.67237 295
22.69248 300
22.7126 292
22.73271 313
22.75282 257
22.77294 308
22.79305 292
22.81316 313
22.83328 351
22.85339 340
22.87351 397
22.89362 382
22.91373 398
22.93385 392
22.95396 390
22.97407 427
22.99419 401
23.0143 429
23.03442 412
23.05453 431
23.07464 397
23.09476 411
23.11487 378
23.13498 404
23.1551 398
23.17521 454
23.19532 432
23.21544 453
23.23555 420
23.25567 401
23.27578 400
23.29589 347
23.31601 345
23.33612 367
23.35623 348
23.37635 373
23.39646 371
23.41658 405
23.43669 433
23.4568 478
23.47692 519
23.49703 613
23.51714 634
23.53726 677
23.55737 679
23.57749 757
23.5976 732
23.61771 691
23.63783 636
23.65794 555
23.67805 539
23.69817 494
23.71828 518
23.73839 430
23.75851 452
23.77862 469
23.79874 450
23.81885 453
23.83896 497
23.85908 516
23.87919 561
23.8993 588
23.91942 563
23.93953 596
23.95965 631
23.97976 616
23.99987 625
24.01999 586
24.0401 556
24.06021 532
24.08033 520
24.10044 475
24.12056 471
24.14067 536
24.16078 504
24.1809 466
24.20101 529
24.22112 536
24.24124 656
24.26135 663
24.28146 651
24.30158 668
24.32169 653
24.34181 596
24.36192 527
24.38203 506
24.40215 487
24.42226 434
24.44237 406
24.46249 400
24.4826 385
24.50272 369
24.52283 349
24.54294 329
24.56306 320
24.58317 338
24.60328 352
24.6234 348
24.64351 322
24.66362 313
24.68374 308
24.70385 343
24.72397 285
24.74408 349
24.76419 317
24.78431 329
24.80442 343
24.82453 326
24.84465 305
24.86476 334
24.88488 296
24.90499 300
24.9251 259
24.94522 316
24.96533 285
24.98544 317
25.00556 294
25.02567 301
25.04579 286
25.0659 279
25.08601 288
25.10613 300
25.12624 303
25.14635 276
25.16647 299
25.18658 281
25.20669 306
25.22681 325
25.24692 333
25.26704 300
25.28715 317
25.30726 351
25.32738 363
25.34749 365
25.3676 377
25.38772 384
25.40783 418
25.42795 471
25.44806 511
25.46817 546
25.48829 627
25.5084 638
25.52851 695
25.54863 741
25.56874 763
25.58886 729
25.60897 741
25.62908 705
25.6492 675
25.66931 693
25.68942 606
25.70954 595
25.72965 514
25.74976 520
25.76988 474
25.78999 470
25.81011 417
25.83022 417
25.85033 444
25.87045 471
25.89056 425
25.91067 395
25.93079 409
25.9509 431
25.97102 426
25.99113 393
26.01124 419
26.03136 414
26.05147 465
26.07158 469
26.0917 492
26.11181 509
26.13193 550
26.15204 529
26.17215 593
26.19227 641
26.21238 664
26.23249 710
26.25261 716
26.27272 810
26.29283 854
26.31295 1028
26.33306 1075
26.35318 1244
26.37329 1373
26.3934 1568
26.41352 1852
26.43363 2121
26.45374 2519
26.47386 2991
26.49397 3974
26.51409 5607
26.5342 7635
26.55431 10324
26.57443 13842
26.59454 17599
26.61465 19979
26.63477 20342
26.65488 17943
26.67499 13851
26.69511 10707
26.71522 7919
26.73534 4999
26.75545 2789
26.77556 1833
26.79568 1446
26.81579 1277
26.8359 1157
26.85602 1142
26.87613 1041
26.89625 941
26.91636 939
26.93647 942
26.95659 938
26.9767 949
26.99681 897
27.01693 1029
27.03704 1068
27.05716 1070
27.07727 1035
27.09738 965
27.1175 902
27.13761 805
27.15772 751
27.17784 720
27.19795 608
27.21806 618
27.23818 622
27.25829 637
27.27841 694
27.29852 683
27.31863 799
27.33875 837
27.35886 941
27.37897 1015
27.39909 1202
27.4192 1321
27.43932 1450
27.45943 1500
27.47954 1491
27.49966 1351
27.51977 1179
27.53988 1108
27.56 945
27.58011 874
27.60023 838
27.62034 798
27.64045 861
27.66057 923
27.68068 1010
27.70079 1145
27.72091 1354
27.74102 1585
27.76113 1638
27.78125 1587
27.80136 1708
27.82148 1646
27.84159 1501
27.8617 1605
27.88182 1654
27.90193 1705
27.92204 1682
27.94216 1756
27.96227 1613
27.98239 1530
28.0025 1445
28.02261 1193
28.04273 1073
28.06284 895
28.08295 773
28.10307 692
28.12318 628
28.1433 548
28.16341 546
28.18352 530
28.20364 602
28.22375 596
28.24386 592
28.26398 643
28.28409 618
28.3042 635
28.32432 570
28.34443 537
28.36455 516
28.38466 486
28.40477 481
28.42489 447
28.445 429
28.46511 414
28.48523 376
28.50534 382
28.52546 387
28.54557 357
28.56568 361
28.5858 348
28.60591 332
28.62602 328
28.64614 314
28.66625 281
28.68636 315
28.70648 313
28.72659 294
28.74671 252
28.76682 267
28.78693 271
28.80705 286
28.82716 270
28.84727 293
28.86739 300
28.8875 294
28.90762 284
28.92773 292
28.94784 268
28.96796 269
28.98807 271
29.00818 266
29.0283 299
29.04841 308
29.06853 291
29.08864 275
29.10875 268
29.12887 275
29.14898 281
29.16909 281
29.18921 274
29.20932 321
29.22943 317
29.24955 281
29.26966 296
29.28978 322
29.30989 297
29.33 276
29.35012 331
29.37023 350
29.39034 352
29.41046 388
29.43057 390
29.45069 381
29.4708 400
29.49091 379
29.51103 415
29.53114 382
29.55125 375
29.57137 386
29.59148 331
29.6116 390
29.63171 360
29.65182 427
29.67194 422
29.69205 457
29.71216 425
29.73228 467
29.75239 496
29.7725 479
29.79262 512
29.81273 431
29.83285 499
29.85296 451
29.87307 448
29.89319 428
29.9133 454
29.93341 439
29.95353 425
29.97364 426
29.99376 438
30.01387 422
30.03398 403
30.0541 450
30.07421 443
30.09432 435
30.11444 427
30.13455 478
30.15467 521
30.17478 529
30.19489 550
30.21501 510
30.23512 555
30.25523 535
30.27535 541
30.29546 571
30.31557 576
30.33569 584
30.3558 591
30.37592 568
30.39603 592
30.41614 582
30.43626 567
30.45637 578
30.47648 575
30.4966 531
30.51671 506
30.53683 463
30.55694 456
30.57705 391
30.59717 358
30.61728 395
30.63739 394
30.65751 421
30.67762 400
30.69773 455
30.71785 445
30.73796 506
30.75808 495
30.77819 542
30.7983 534
30.81842 508
30.83853 514
30.85864 452
30.87876 421
30.89887 419
30.91899 385
30.9391 303
30.95921 358
30.97933 308
30.99944 294
31.01955 277
31.03967 279
31.05978 277
31.0799 285
31.10001 247
31.12012 262
31.14024 243
31.16035 275
31.18046 294
31.20058 317
31.22069 327
31.2408 342
31.26092 322
31.28103 343
31.30115 333
31.32126 398
31.34137 366
31.36149 309
31.3816 375
31.40171 338
31.42183 332
31.44194 357
31.46206 352
31.48217 337
31.50228 299
31.5224 289
31.54251 286
31.56262 258
31.58274 264
31.60285 263
31.62297 267
31.64308 270
31.66319 268
31.68331 264
31.70342 265
31.72353 295
31.74365 288
31.76376 247
31.78387 285
31.80399 282
31.8241 254
31.84422 271
31.86433 287
31.88444 225
31.90456 273
31.92467 293
31.94478 246
31.9649 273
31.98501 272
32.00513 262
32.02524 242
32.04535 303
32.06547 289
32.08558 265
32.10569 330
32.12581 268
32.14592 273
32.16604 312
32.18615 300
32.20626 276
32.22638 300
32.24649 306
32.2666 272
32.28672 316
32.30683 304
32.32694 318
32.34706 316
32.36717 325
32.38729 311
32.4074 344
32.42751 320
32.44763 316
32.46774 336
32.48785 307
32.50797 312
32.52808 297
32.5482 288
32.56831 278
32.58842 282
32.60854 280
32.62865 288
32.64876 270
32.66888 298
32.68899 258
32.7091 229
32.72922 240
32.74933 233
32.76945 272
32.78956 275
32.80967 268
32.82979 240
32.8499 286
32.87001 297
32.89013 329
32.91024 337
32.93036 308
32.95047 320
32.97058 295
32.9907 335
33.01081 298
33.03092 327
33.05104 281
33.07115 272
33.09127 258
33.11138 275
33.13149 272
33.15161 251
33.17172 257
33.19183 266
33.21195 261
33.23206 306
33.25217 240
33.27229 258
33.2924 310
33.31252 269
33.33263 270
33.35274 264
33.37286 261
33.39297 248
33.41308 269
33.4332 263
33.45331 262
33.47343 251
33.49354 244
33.51365 248
33.53377 201
33.55388 226
33.57399 238
33.59411 228
33.61422 233
33.63434 277
33.65445 263
33.67456 258
33.69468 296
33.71479 266
33.7349 313
33.75502 298
33.77513 330
33.79524 285
33.81536 306
33.83547 334
33.85559 293
33.8757 309
33.89581 331
33.91593 307
33.93604 280
33.95615 279
33.97627 255
33.99638 262
34.0165 287
34.03661 330
34.05672 307
34.07684 298
34.09695 285
34.11706 302
34.13718 346
34.15729 322
34.17741 364
34.19752 351
34.21763 371
34.23775 376
34.25786 344
34.27797 353
34.29809 374
34.3182 342
34.33831 356
34.35843 374
34.37854 370
34.39866 349
34.41877 392
34.43888 371
34.459 363
34.47911 366
34.49922 398
34.51934 355
34.53945 349
34.55957 345
34.57968 326
34.59979 342
34.61991 385
34.64002 331
34.66013 359
34.68025 391
34.70036 321
34.72047 404
34.74059 348
34.7607 332
34.78082 320
34.80093 362
34.82104 355
34.84116 406
34.86127 375
34.88138 436
34.9015 419
34.92161 382
34.94173 425
34.96184 369
34.98195 429
35.00207 394
35.02218 447
35.04229 420
35.06241 427
35.08252 366
35.10264 386
35.12275 402
35.14286 378
35.16298 389
35.18309 381
35.2032 383
35.22332 366
35.24343 446
35.26354 439
35.28366 412
35.30377 441
35.32389 438
35.344 401
35.36411 439
35.38423 433
35.40434 423
35.42445 416
35.44457 387
35.46468 417
35.4848 402
35.50491 386
35.52502 354
35.54514 409
35.56525 383
35.58536 373
35.60548 407
35.62559 345
35.64571 349
35.66582 310
35.68593 346
35.70605 307
35.72616 273
35.74627 294
35.76639 308
35.7865 297
35.80661 319
35.82673 283
35.84684 271
35.86696 283
35.88707 308
35.90718 291
35.9273 289
35.94741 293
35.96752 301
35.98764 280
36.00775 270
36.02787 287
36.04798 314
36.06809 328
36.08821 314
36.10832 329
36.12843 311
36.14855 285
36.16866 344
36.18878 318
36.20889 333
36.229 308
36.24912 324
36.26923 344
36.28934 370
36.30946 358
36.32957 413
36.34968 458
36.3698 471
36.38991 542
36.41003 697
36.43014 811
36.45025 1006
36.47037 1167
36.49048 1399
36.51059 1483
36.53071 1497
36.55082 1437
36.57094 1206
36.59105 1040
36.61116 935
36.63128 873
36.65139 724
36.6715 556
36.69162 465
36.71173 443
36.73184 442
36.75196 369
36.77207 385
36.79219 380
36.8123 359
36.83241 375
36.85253 355
36.87264 348
36.89275 361
36.91287 354
36.93298 349
36.9531 365
36.97321 370
36.99332 359
37.01344 368
37.03355 329
37.05366 341
37.07378 334
37.09389 327
37.11401 303
37.13412 281
37.15423 303
37.17435 270
37.19446 299
37.21457 303
37.23469 284
37.2548 280
37.27491 300
37.29503 284
37.31514 300
37.33526 291
37.35537 314
37.37548 306
37.3956 304
37.41571 274
37.43582 292
37.45594 306
37.47605 288
37.49617 321
37.51628 303
37.53639 307
37.55651 313
37.57662 287
37.59673 315
37.61685 286
37.63696 289
37.65708 328
37.67719 313
37.6973 294
37.71742 303
37.73753 285
37.75764 280
37.77776 267
37.79787 281
37.81798 260
37.8381 229
37.85821 244
37.87833 238
37.89844 202
37.91855 238
37.93867 231
37.95878 260
37.97889 233
37.99901 228
38.01912 211
38.03924 223
38.05935 220
38.07946 253
38.09958 238
38.11969 253
38.1398 221
38.15992 235
38.18003 242
38.20015 285
38.22026 203
38.24037 249
38.26049 263
38.2806 237
38.30071 229
38.32083 261
38.34094 270
38.36105 252
38.38117 264
38.40128 258
38.4214 305
38.44151 257
38.46162 282
38.48174 277
38.50185 299
38.52196 288
38.54208 311
38.56219 264
38.58231 298
38.60242 289
38.62253 298
38.64265 297
38.66276 275
38.68287 241
38.70299 278
38.7231 280
38.74321 241
38.76333 266
38.78344 254
38.80356 256
38.82367 280
38.84378 262
38.8639 250
38.88401 245
38.90412 234
38.92424 267
38.94435 260
38.96447 233
38.98458 250
39.00469 281
39.02481 264
39.04492 273
39.06503 307
39.08515 293
39.10526 282
39.12538 296
39.14549 311
39.1656 320
39.18572 358
39.20583 343
39.22594 372
39.24606 383
39.26617 413
39.28628 460
39.3064 524
39.32651 545
39.34663 739
39.36674 830
39.38685 1020
39.40697 1192
39.42708 1391
39.44719 1387
39.46731 1261
39.48742 1047
39.50754 887
39.52765 822
39.54776 865
39.56788 675
39.58799 537
39.6081 423
39.62822 376
39.64833 302
39.66845 317
39.68856 282
39.70867 302
39.72879 318
39.7489 265
39.76901 254
39.78913 262
39.80924 259
39.82935 257
39.84947 253
39.86958 274
39.8897 270
39.90981 257
39.92992 245
39.95004 259
39.97015 252
39.99026 258
40.01038 282
40.03049 300
40.05061 290
40.07072 323
40.09083 318
40.11095 318
40.13106 381
40.15117 422
40.17129 473
40.1914 544
40.21152 694
40.23163 710
40.25174 744
40.27186 715
40.29197 719
40.31208 633
40.3322 527
40.35231 508
40.37242 502
40.39254 464
40.41265 382
40.43277 343
40.45288 323
40.47299 276
40.49311 244
40.51322 261
40.53333 230
40.55345 256
40.57356 250
40.59368 235
40.61379 272
40.6339 239
40.65402 220
40.67413 261
40.69424 217
40.71436 242
40.73447 248
40.75458 225
40.7747 255
40.79481 222
40.81493 266
40.83504 211
40.85515 246
40.87527 261
40.89538 257
40.91549 227
40.93561 233
40.95572 244
40.97584 258
40.99595 231
41.01606 263
41.03618 213
41.05629 229
41.0764 252
41.09652 263
41.11663 253
41.13675 241
41.15686 255
41.17697 239
41.19709 225
41.2172 279
41.23731 283
41.25743 275
41.27754 276
41.29765 251
41.31777 251
41.33788 290
41.358 232
41.37811 256
41.39822 234
41.41834 239
41.43845 269
41.45856 239
41.47868 250
41.49879 285
41.51891 271
41.53902 307
41.55913 273
41.57925 332
41.59936 324
41.61947 350
41.63959 354
41.6597 370
41.67982 365
41.69993 369
41.72004 399
41.74016 442
41.76027 424
41.78038 437
41.8005 444
41.82061 414
41.84072 371
41.86084 395
41.88095 334
41.90107 334
41.92118 308
41.94129 289
41.96141 289
41.98152 255
42.00163 266
42.02175 270
42.04186 276
42.06198 260
42.08209 261
42.1022 294
42.12232 294
42.14243 274
42.16254 313
42.18266 313
42.20277 301
42.22289 347
42.243 395
42.26311 422
42.28323 511
42.30334 507
42.32345 596
42.34357 696
42.36368 853
42.38379 958
42.40391 1022
42.42402 1105
42.44414 1054
42.46425 892
42.48436 805
42.50448 683
42.52459 694
42.5447 626
42.56482 579
42.58493 449
42.60505 394
42.62516 349
42.64527 334
42.66539 331
42.6855 362
42.70561 321
42.72573 336
42.74584 313
42.76595 338
42.78607 301
42.80618 315
42.8263 329
42.84641 317
42.86652 308
42.88664 285
42.90675 283
42.92686 284
42.94698 280
42.96709 270
42.98721 277
43.00732 270
43.02743 249
43.04755 260
43.06766 228
43.08777 234
43.10789 229
43.128 270
43.14812 231
43.16823 269
43.18834 246
43.20846 220
43.22857 231
43.24868 232
43.2688 226
43.28891 207
43.30902 221
43.32914 217
43.34925 224
43.36937 222
43.38948 246
43.40959 238
43.42971 224
43.44982 222
43.46993 202
43.49005 261
43.51016 215
43.53028 249
43.55039 249
43.5705 245
43.59062 258
43.61073 212
43.63084 225
43.65096 236
43.67107 256
43.69119 205
43.7113 223
43.73141 208
43.75153 226
43.77164 218
43.79175 239
43.81187 181
43.83198 211
43.85209 237
43.87221 215
43.89232 183
43.91244 211
43.93255 227
43.95266 224
43.97278 232
43.99289 240
44.013 225
44.03312 240
44.05323 224
44.07335 239
44.09346 228
44.11357 231
44.13369 219
44.1538 240
44.17391 229
44.19403 225
44.21414 237
44.23426 227
44.25437 226
44.27448 231
44.2946 218
44.31471 225
44.33482 217
44.35494 208
44.37505 203
44.39516 218
44.41528 205
44.43539 225
44.45551 198
44.47562 217
44.49573 219
44.51585 225
44.53596 243
44.55607 238
44.57619 220
44.5963 227
44.61642 232
44.63653 238
44.65664 238
44.67676 211
44.69687 249
44.71698 227
44.7371 211
44.75721 225
44.77732 247
44.79744 252
44.81755 226
44.83767 222
44.85778 256
44.87789 233
44.89801 243
44.91812 238
44.93823 254
44.95835 245
44.97846 236
44.99858 252
45.01869 259
45.0388 236
45.05892 292
45.07903 232
45.09914 224
45.11926 230
45.13937 250
45.15949 251
45.1796 219
45.19971 264
45.21983 254
45.23994 255
45.26005 266
45.28017 220
45.30028 240
45.32039 239
45.34051 224
45.36062 238
45.38074 250
45.40085 278
45.42096 267
45.44108 314
45.46119 315
45.4813 290
45.50142 290
45.52153 278
45.54165 319
45.56176 344
45.58187 383
45.60199 375
45.6221 426
45.64221 416
45.66233 481
45.68244 533
45.70256 588
45.72267 711
45.74278 773
45.7629 715
45.78301 775
45.80312 639
45.82324 562
45.84335 492
45.86346 514
45.88358 505
45.90369 479
45.92381 392
45.94392 337
45.96403 281
45.98415 237
46.00426 273
46.02437 228
46.04449 251
46.0646 231
46.08472 253
46.10483 227
46.12494 227
46.14506 211
46.16517 254
46.18528 226
46.2054 242
46.22551 238
46.24563 220
46.26574 240
46.28585 231
46.30597 191
46.32608 228
46.34619 223
46.36631 265
46.38642 212
46.40653 208
46.42665 187
46.44676 210
46.46688 200
46.48699 203
46.5071 205
46.52722 191
46.54733 172
46.56744 206
46.58756 197
46.60767 189
46.62779 200
46.6479 200
46.66801 197
46.68813 197
46.70824 238
46.72835 216
46.74847 225
46.76858 230
46.78869 214
46.80881 216
46.82892 226
46.84904 222
46.86915 233
46.88926 208
46.90938 217
46.92949 224
46.9496 245
46.96972 232
46.98983 220
47.00995 196
47.03006 226
47.05017 271
47.07029 285
47.0904 238
47.11051 254
47.13063 248
47.15074 248
47.17086 252
47.19097 234
47.21108 228
47.2312 259
47.25131 234
47.27142 241
47.29154 244
47.31165 221
47.33176 279
47.35188 232
47.37199 251
47.39211 247
47.41222 259
47.43233 235
47.45245 256
47.47256 240
47.49267 237
47.51279 251
47.5329 229
47.55302 226
47.57313 222
47.59324 212
47.61336 218
47.63347 226
47.65358 214
47.6737 250
47.69381 201
47.71393 218
47.73404 193
47.75415 211
47.77427 214
47.79438 186
47.81449 188
47.83461 206
47.85472 207
47.87483 214
47.89495 192
47.91506 229
47.93518 206
47.95529 235
47.9754 233
47.99552 193
48.01563 237
48.03574 229
48.05586 230
48.07597 238
48.09609 237
48.1162 253
48.13631 229
48.15643 259
48.17654 227
48.19665 232
48.21677 239
48.23688 231
48.257 266
48.27711 225
48.29722 278
48.31734 269
48.33745 236
48.35756 239
48.37768 255
48.39779 240
48.4179 225
48.43802 212
48.45813 224
48.47825 215
48.49836 234
48.51847 243
48.53859 210
48.5587 248
48.57881 224
48.59893 233
48.61904 227
48.63916 236
48.65927 224
48.67938 243
48.6995 272
48.71961 257
48.73972 253
48.75984 246
48.77995 245
48.80006 266
48.82018 239
48.84029 252
48.86041 254
48.88052 269
48.90063 275
48.92075 284
48.94086 264
48.96097 255
48.98109 284
49.0012 277
49.02132 265
49.04143 250
49.06154 265
49.08166 264
49.10177 283
49.12188 283
49.142 303
49.16211 308
49.18223 308
49.20234 340
49.22245 300
49.24257 293
49.26268 307
49.28279 255
49.30291 312
49.32302 275
49.34313 293
49.36325 227
49.38336 274
49.40348 208
49.42359 238
49.4437 241
49.46382 249
49.48393 263
49.50404 245
49.52416 261
49.54427 258
49.56439 251
49.5845 264
49.60461 292
49.62473 253
49.64484 299
49.66495 300
49.68507 312
49.70518 314
49.7253 361
49.74541 372
49.76552 404
49.78564 390
49.80575 445
49.82586 429
49.84598 434
49.86609 504
49.8862 496
49.90632 569
49.92643 615
49.94655 684
49.96666 800
49.98677 952
50.00689 1082
50.027 1277
50.04711 1465
50.06723 1666
50.08734 1930
50.10746 2016
50.12757 2029
50.14768 1666
50.1678 1393
50.18791 1140
50.20802 1081
50.22814 1095
50.24825 1031
50.26837 989
50.28848 740
50.30859 531
50.32871 408
50.34882 401
50.36893 341
50.38905 344
50.40916 404
50.42927 393
50.44939 400
50.4695 378
50.48962 476
50.50973 435
50.52984 472
50.54996 460
50.57007 438
50.59018 454
50.6103 442
50.63041 463
50.65053 420
50.67064 403
50.69075 400
50.71087 369
50.73098 383
50.75109 373
50.77121 348
50.79132 345
50.81143 326
50.83155 318
50.85166 318
50.87178 307
50.89189 273
50.912 265
50.93212 281
50.95223 275
50.97234 272
50.99246 247
51.01257 273
51.03269 279
51.0528 284
51.07291 263
51.09303 295
51.11314 263
51.13325 230
51.15337 297
51.17348 284
51.1936 273
51.21371 316
51.23382 287
51.25394 294
51.27405 294
51.29416 293
51.31428 298
51.33439 301
51.3545 285
51.37462 274
51.39473 281
51.41485 244
51.43496 235
51.45507 262
51.47519 224
51.4953 241
51.51541 237
51.53553 214
51.55564 208
51.57576 214
51.59587 241
51.61598 191
51.6361 202
51.65621 221
51.67632 191
51.69644 219
51.71655 185
51.73667 173
51.75678 209
51.77689 195
51.79701 178
51.81712 180
51.83723 207
51.85735 210
51.87746 199
51.89757 185
51.91769 190
51.9378 197
51.95792 195
51.97803 175
51.99814 208
52.01826 239
52.03837 204
52.05848 188
52.0786 196
52.09871 211
52.11883 191
52.13894 190
52.15905 213
52.17917 210
52.19928 222
52.21939 221
52.23951 195
52.25962 193
52.27974 211
52.29985 223
52.31996 197
52.34008 187
52.36019 257
52.3803 221
52.40042 231
52.42053 220
52.44064 256
52.46076 217
52.48087 197
52.50099 232
52.5211 225
52.54121 248
52.56133 214
52.58144 254
52.60155 240
52.62167 225
52.64178 244
52.6619 228
52.68201 247
52.70212 220
52.72224 260
52.74235 220
52.76246 227
52.78258 218
52.80269 236
52.8228 213
52.84292 223
52.86303 228
52.88315 231
52.90326 236
52.92337 260
52.94349 212
52.9636 242
52.98371 232
53.00383 243
53.02394 237
53.04406 244
53.06417 233
53.08428 266
53.1044 244
53.12451 233
53.14462 249
53.16474 269
53.18485 273
53.20497 265
53.22508 309
53.24519 286
53.26531 233
53.28542 240
53.30553 260
53.32565 227
53.34576 229
53.36587 249
53.38599 253
53.4061 213
53.42622 227
53.44633 233
53.46644 223
53.48656 235
53.50667 246
53.52678 232
53.5469 207
53.56701 206
53.58713 213
53.60724 215
53.62735 215
53.64747 234
53.66758 227
53.68769 230
53.70781 229
53.72792 210
53.74804 238
53.76815 212
53.78826 189
53.80838 231
53.82849 201
53.8486 200
53.86872 235
53.88883 223
53.90894 218
53.92906 205
53.94917 232
53.96929 212
53.9894 217
54.00951 235
54.02963 235
54.04974 215
54.06985 240
54.08997 242
54.11008 221
54.1302 219
54.15031 203
54.17042 228
54.19054 222
54.21065 214
54.23076 239
54.25088 234
54.27099 225
54.29111 244
54.31122 265
54.33133 217
54.35145 226
54.37156 247
54.39167 251
54.41179 228
54.4319 217
54.45201 257
54.47213 248
54.49224 265
54.51236 257
54.53247 258
54.55258 251
54.5727 256
54.59281 271
54.61292 288
54.63304 301
54.65315 291
54.67327 328
54.69338 351
54.71349 414
54.73361 456
54.75372 475
54.77383 534
54.79395 623
54.81406 695
54.83417 710
54.85429 670
54.8744 635
54.89452 517
54.91463 454
54.93474 455
54.95486 466
54.97497 504
54.99508 415
55.0152 423
55.03531 391
55.05543 288
55.07554 286
55.09565 301
55.11577 276
55.13588 261
55.15599 286
55.17611 316
55.19622 322
55.21634 354
55.23645 359
55.25656 397
55.27668 415
55.29679 374
55.3169 409
55.33702 383
55.35713 354
55.37724 338
55.39736 326
55.41747 338
55.43759 308
55.4577 303
55.47781 280
55.49793 267
55.51804 271
55.53815 229
55.55827 236
55.57838 214
55.5985 247
55.61861 221
55.63872 232
55.65884 238
55.67895 250
55.69906 232
55.71918 235
55.73929 254
55.75941 235
55.77952 222
55.79963 229
55.81975 214
55.83986 196
55.85997 211
55.88009 189
55.9002 204
55.92031 176
55.94043 186
55.96054 196
55.98066 218
56.00077 220
56.02088 225
56.041 191
56.06111 203
56.08122 212
56.10134 215
56.12145 206
56.14157 216
56.16168 212
56.18179 227
56.20191 187
56.22202 189
56.24213 230
56.26225 196
56.28236 210
56.30248 204
56.32259 213
56.3427 199
56.36282 178
56.38293 177
56.40304 175
56.42316 201
56.44327 185
56.46338 196
56.4835 211
56.50361 192
56.52373 202
56.54384 216
56.56395 206
56.58407 209
56.60418 181
56.62429 207
56.64441 221
56.66452 223
56.68464 221
56.70475 204
56.72486 224
56.74498 221
56.76509 185
56.7852 197
56.80532 199
56.82543 202
56.84554 215
56.86566 196
56.88577 191
56.90589 210
56.926 192
56.94611 187
56.96623 198
56.98634 169
57.00645 200
57.02657 186
57.04668 182
57.0668 184
57.08691 237
57.10702 216
57.12714 198
57.14725 206
57.16736 242
57.18748 213
57.20759 241
57.22771 206
57.24782 199
57.26793 208
57.28805 213
57.30816 206
57.32827 227
57.34839 229
57.3685 232
57.38861 223
57.40873 213
57.42884 199
57.44896 184
57.46907 204
57.48918 218
57.5093 203
57.52941 211
57.54952 194
57.56964 214
57.58975 223
57.60987 213
57.62998 206
57.65009 200
57.67021 212
57.69032 212
57.71043 204
57.73055 219
57.75066 228
57.77078 201
57.79089 197
57.811 198
57.83112 212
57.85123 185
57.87134 210
57.89146 215
57.91157 221
57.93168 203
57.9518 196
57.97191 215
57.99203 211
58.01214 215
58.03225 217
58.05237 205
58.07248 202
58.09259 190
58.11271 204
58.13282 203
58.15294 186
58.17305 199
58.19316 228
58.21328 183
58.23339 204
58.2535 207
58.27362 201
58.29373 195
58.31385 204
58.33396 184
58.35407 221
58.37419 215
58.3943 213
58.41441 232
58.43453 224
58.45464 224
58.47475 215
58.49487 203
58.51498 236
58.5351 221
58.55521 232
58.57532 233
58.59544 222
58.61555 226
58.63566 244
58.65578 245
58.67589 230
58.69601 234
58.71612 228
58.73623 205
58.75635 220
58.77646 222
58.79657 230
58.81669 220
58.8368 199
58.85691 197
58.87703 193
58.89714 205
58.91726 207
58.93737 225
58.95748 202
58.9776 194
58.99771 183
59.01782 219
59.03794 224
59.05805 220
59.07817 193
59.09828 228
59.11839 181
59.13851 229
59.15862 200
59.17873 194
59.19885 173
59.21896 214
59.23908 222
59.25919 218
59.2793 219
59.29942 223
59.31953 212
59.33964 216
59.35976 226
59.37987 228
59.39998 207
59.4201 219
59.44021 219
59.46033 241
59.48044 226
59.50055 250
59.52067 247
59.54078 241
59.56089 278
59.58101 255
59.60112 279
59.62124 286
59.64135 294
59.66146 322
59.68158 329
59.70169 375
59.7218 413
59.74192 431
59.76203 490
59.78215 578
59.80226 678
59.82237 748
59.84249 874
59.8626 978
59.88271 1092
59.90283 1214
59.92294 1193
59.94305 1100
59.96317 1035
59.98328 866
60.0034 703
60.02351 684
60.04362 703
60.06374 724
60.08385 721
60.10396 636
60.12408 558
60.14419 458
60.16431 356
60.18442 293
60.20453 292
60.22465 281
60.24476 295
60.26487 255
60.28499 263
60.3051 222
60.32522 245
60.34533 233
60.36544 228
60.38556 248
60.40567 239
60.42578 258
60.4459 218
60.46601 223
60.48612 230
60.50624 220
60.52635 208
60.54647 200
60.56658 208
60.58669 217
60.60681 221
60.62692 231
60.64703 211
60.66715 224
60.68726 196
60.70738 231
60.72749 211
60.7476 236
60.76772 202
60.78783 204
60.80794 189
60.82806 213
60.84817 223
60.86828 222
60.8884 214
60.90851 205
60.92863 245
60.94874 207
60.96885 216
60.98897 221
61.00908 219
61.02919 231
61.04931 242
61.06942 211
61.08954 234
61.10965 214
61.12976 206
61.14988 243
61.16999 242
61.1901 223
61.21022 225
61.23033 227
61.25045 205
61.27056 233
61.29067 223
61.31079 199
61.3309 227
61.35101 257
61.37113 224
61.39124 228
61.41135 235
61.43147 225
61.45158 202
61.4717 222
61.49181 200
61.51192 217
61.53204 240
61.55215 183
61.57226 228
61.59238 231
61.61249 225
61.63261 245
61.65272 222
61.67283 231
61.69295 255
61.71306 235
61.73317 236
61.75329 230
61.7734 249
61.79352 211
61.81363 220
61.83374 207
61.85386 224
61.87397 233
61.89408 252
61.9142 235
61.93431 253
61.95442 223
61.97454 209
61.99465 203
62.01477 217
62.03488 251
62.05499 197
62.07511 215
62.09522 203
62.11533 183
62.13545 230
62.15556 215
62.17568 192
62.19579 220
62.2159 230
62.23602 190
62.25613 196
62.27624 221
62.29636 220
62.31647 180
62.33659 237
62.3567 197
62.37681 196
62.39693 186
62.41704 198
62.43715 195
62.45727 210
62.47738 189
62.49749 205
62.51761 209
62.53772 185
62.55784 225
62.57795 201
62.59806 216
62.61818 176
62.63829 202
62.6584 175
62.67852 229
62.69863 198
62.71875 200
62.73886 210
62.75897 228
62.77909 197
62.7992 197
62.81931 193
62.83943 208
62.85954 228
62.87965 211
62.89977 214
62.91988 173
62.94 188
62.96011 189
62.98022 223
63.00034 241
63.02045 232
63.04056 198
63.06068 210
63.08079 230
63.10091 227
63.12102 237
63.14113 208
63.16125 210
63.18136 234
63.20147 201
63.22159 211
63.2417 212
63.26182 213
63.28193 233
63.30204 197
63.32216 208
63.34227 242
63.36238 230
63.3825 208
63.40261 226
63.42272 255
63.44284 218
63.46295 220
63.48307 235
63.50318 237
63.52329 215
63.54341 228
63.56352 233
63.58363 249
63.60375 248
63.62386 233
63.64398 241
63.66409 243
63.6842 254
63.70432 256
63.72443 257
63.74454 278
63.76466 289
63.78477 297
63.80489 298
63.825 302
63.84511 317
63.86523 311
63.88534 364
63.90545 376
63.92557 361
63.94568 404
63.96579 386
63.98591 399
64.00602 425
64.02614 384
64.04625 374
64.06636 313
64.08648 321
64.10659 310
64.1267 293
64.14682 323
64.16693 308
64.18705 308
64.20716 273
64.22727 270
64.24739 239
64.2675 217
64.28761 213
64.30773 192
64.32784 173
64.34796 208
64.36807 192
64.38818 189
64.4083 195
64.42841 175
64.44852 195
64.46864 200
64.48875 200
64.50886 164
64.52898 204
64.54909 202
64.56921 195
64.58932 201
64.60943 191
64.62955 191
64.64966 182
64.66977 186
64.68989 190
64.71 194
64.73012 189
64.75023 183
64.77034 176
64.79046 204
64.81057 201
64.83068 202
64.8508 217
64.87091 189
64.89102 204
64.91114 175
64.93125 226
64.95137 182
64.97148 187
64.99159 206
65.01171 231
65.03182 196
65.05193 197
65.07205 206
65.09216 214
65.11228 219
65.13239 189
65.1525 242
65.17262 220
65.19273 224
65.21284 222
65.23296 215
65.25307 232
65.27319 208
65.2933 196
65.31341 210
65.33353 218
65.35364 202
65.37375 224
65.39387 192
65.41398 231
65.43409 213
65.45421 212
65.47432 210
65.49444 197
65.51455 205
65.53466 212
65.55478 215
65.57489 191
65.595 192
65.61512 211
65.63523 220
65.65535 235
65.67546 226
65.69557 235
65.71569 230
65.7358 191
65.75591 223
65.77603 193
65.79614 204
65.81626 190
65.83637 179
65.85648 196
65.8766 204
65.89671 199
65.91682 179
65.93694 194
65.95705 169
65.97716 191
65.99728 221
66.01739 196
66.03751 180
66.05762 200
66.07773 184
66.09785 185
66.11796 186
66.13807 182
66.15819 207
66.1783 194
66.19842 222
66.21853 220
66.23864 170
66.25876 217
66.27887 217
66.29898 191
66.3191 209
66.33921 199
66.35933 214
66.37944 207
66.39955 219
66.41967 198
66.43978 227
66.45989 230
66.48001 205
66.50012 179
66.52023 193
66.54035 205
66.56046 196
66.58058 197
66.60069 186
66.6208 181
66.64092 186
66.66103 188
66.68114 181
66.70126 192
66.72137 195
66.74149 183
66.7616 193
66.78171 174
66.80183 162
66.82194 195
66.84205 188
66.86217 193
66.88228 189
66.90239 228
66.92251 186
66.94262 182
66.96274 190
66.98285 202
67.00296 174
67.02308 224
67.04319 188
67.0633 204
67.08342 219
67.10353 215
67.12365 230
67.14376 222
67.16387 206
67.18399 206
67.2041 202
67.22421 201
67.24433 215
67.26444 214
67.28456 211
67.30467 221
67.32478 250
67.3449 262
67.36501 239
67.38512 253
67.40524 247
67.42535 256
67.44546 274
67.46558 264
67.48569 276
67.50581 302
67.52592 368
67.54603 345
67.56615 430
67.58626 478
67.60637 500
67.62649 580
67.6466 635
67.66672 704
67.68683 798
67.70694 786
67.72706 756
67.74717 694
67.76728 580
67.7874 548
67.80751 478
67.82763 528
67.84774 554
67.86785 612
67.88797 581
67.90808 614
67.92819 617
67.94831 602
67.96842 589
67.98853 644
68.00865 638
68.02876 770
68.04888 830
68.06899 849
68.0891 950
68.10922 977
68.12933 1000
68.14944 886
68.16956 804
68.18967 772
68.20979 795
68.2299 830
68.25001 875
68.27013 934
68.29024 904
68.31035 778
68.33047 760
68.35058 621
68.3707 533
68.39081 456
68.41092 455
68.43104 437
68.45115 424
68.47126 400
68.49138 407
68.51149 360
68.5316 313
68.55172 261
68.57183 258
68.59195 236
68.61206 229
68.63217 249
68.65229 198
68.6724 227
68.69251 209
68.71263 208
68.73274 213
68.75286 212
68.77297 201
68.79308 205
68.8132 197
68.83331 223
68.85342 212
68.87354 210
68.89365 202
68.91376 201
68.93388 186
68.95399 207
68.97411 190
68.99422 207
69.01433 179
69.03445 183
69.05456 211
69.07467 193
69.09479 189
69.1149 190
69.13502 192
69.15513 203
69.17524 189
69.19536 200
69.21547 213
69.23558 201
69.2557 206
69.27581 213
69.29593 201
69.31604 215
69.33615 205
69.35627 182
69.37638 205
69.39649 215
69.41661 212
69.43672 216
69.45683 217
69.47695 210
69.49706 186
69.51718 197
69.53729 205
69.5574 214
69.57752 215
69.59763 202
69.61774 199
69.63786 178
69.65797 205
69.67809 197
69.6982 200
69.71831 205
69.73843 176
69.75854 202
69.77865 209
69.79877 195
69.81888 196
69.839 191
69.85911 203
69.87922 197
69.89934 185
69.91945 200
69.93956 210
69.95968 215
69.97979 186
69.9999 175
70.02002 185
70.04013 197
70.06025 189
70.08036 187
70.10047 181
70.12059 196
70.1407 218
70.16081 166
70.18093 184
70.20104 164
70.22116 185
70.24127 178
70.26138 198
70.2815 154
70.30161 169
70.32172 159
70.34184 159
70.36195 159
70.38207 197
70.40218 168
70.42229 163
70.44241 167
70.46252 174
70.48263 164
70.50275 181
70.52286 173
70.54297 174
70.56309 191
70.5832 189
70.60332 155
70.62343 192
70.64354 179
70.66366 175
70.68377 165
70.70388 188
70.724 174
70.74411 188
70.76423 181
70.78434 199
70.80445 153
70.82457 181
70.84468 156
70.86479 182
70.88491 197
70.90502 183
70.92513 186
70.94525 182
70.96536 170
70.98548 210
71.00559 181
71.0257 164
71.04582 185
71.06593 157
71.08604 189
71.10616 155
71.12627 160
71.14639 184
71.1665 160
71.18661 167
71.20673 182
71.22684 189
71.24695 153
71.26707 186
71.28718 182
71.3073 167
71.32741 157
71.34752 182
71.36764 175
71.38775 205
71.40786 180
71.42798 181
71.44809 188
71.4682 194
71.48832 174
71.50843 199
71.52855 208
71.54866 179
71.56877 179
71.58889 191
71.609 177
71.62911 189
71.64923 156
71.66934 211
71.68946 161
71.70957 205
71.72968 194
71.7498 179
71.76991 168
71.79002 185
71.81014 182
71.83025 176
71.85037 163
71.87048 185
71.89059 167
71.91071 169
71.93082 171
71.95093 161
71.97105 183
71.99116 181
72.01127 190
72.03139 172
72.0515 186
72.07162 167
72.09173 177
72.11184 207
72.13196 168
72.15207 191
72.17218 164
72.1923 157
72.21241 198
72.23253 167
72.25264 165
72.27275 171
72.29287 188
72.31298 149
72.33309 174
72.35321 194
72.37332 171
72.39344 167
72.41355 166
72.43366 186
72.45378 151
72.47389 188
72.494 182
72.51412 164
72.53423 195
72.55434 182
72.57446 164
72.59457 167
72.61469 170
72.6348 174
72.65491 181
72.67503 165
72.69514 189
72.71525 187
72.73537 177
72.75548 158
72.7756 161
72.79571 187
72.81582 176
72.83594 208
72.85605 171
72.87616 170
72.89628 162
72.91639 180
72.9365 183
72.95662 175
72.97673 186
72.99685 162
73.01696 201
73.03707 177
73.05719 184
73.0773 190
73.09741 202
73.11753 176
73.13764 206
73.15776 198
73.17787 216
73.19798 222
73.2181 237
73.23821 218
73.25832 238
73.27844 257
73.29855 268
73.31867 270
73.33878 307
73.35889 309
73.37901 316
73.39912 317
73.41923 326
73.43935 346
73.45946 335
73.47957 306
73.49969 305
73.5198 266
73.53992 255
73.56003 264
73.58014 287
73.60026 307
73.62037 298
73.64048 240
73.6606 287
73.68071 248
73.70083 236
73.72094 223
73.74105 194
73.76117 206
73.78128 174
73.80139 210
73.82151 183
73.84162 181
73.86174 184
73.88185 180
73.90196 199
73.92208 172
73.94219 172
73.9623 181
73.98242 164
74.00253 183
74.02264 170
74.04276 195
74.06287 169
74.08299 176
74.1031 161
74.12321 162
74.14333 144
74.16344 175
74.18355 181
74.20367 171
74.22378 185
74.2439 167
74.26401 173
74.28412 174
74.30424 181
74.32435 182
74.34446 183
74.36458 173
74.38469 195
74.40481 191
74.42492 165
74.44503 175
74.46515 171
74.48526 167
74.50537 190
74.52549 182
74.5456 171
74.56571 174
74.58583 196
74.60594 219
74.62606 175
74.64617 179
74.66628 147
74.6864 179
74.70651 192
74.72662 187
74.74674 183
74.76685 193
74.78697 188
74.80708 177
74.82719 171
74.84731 182
74.86742 159
74.88753 182
74.90765 176
74.92776 186
74.94787 182
74.96799 189
74.9881 179
75.00822 186
