3.00117 20376
3.02128 20445
3.0414 19492
3.06151 18896
3.08162 18346
3.10174 17807
3.12185 17365
3.14197 16526
3.16208 16424
3.18219 16139
3.20231 15219
3.22242 15280
3.24253 14573
3.26265 14122
3.28276 13894
3.30288 13072
3.32299 12858
3.3431 12354
3.36322 11952
3.38333 11654
3.40344 11047
3.42356 10963
3.44367 10547
3.46379 10254
3.4839 9882
3.50401 9656
3.52413 9326
3.54424 9113
3.56435 8708
3.58447 8238
3.60458 7882
3.62469 7830
3.64481 7356
3.66492 7138
3.68504 6940
3.70515 6476
3.72526 6367
3.74538 6012
3.76549 5711
3.7856 5645
3.80572 5173
3.82583 5013
3.84595 5032
3.86606 4694
3.88617 4560
3.90629 4230
3.9264 4284
3.94651 4029
3.96663 3895
3.98674 3788
4.00686 3414
4.02697 3423
4.04708 3290
4.0672 3070
4.08731 3070
4.10742 2833
4.12754 2784
4.14765 2604
4.16776 2372
4.18788 2399
4.20799 2231
4.22811 2360
4.24822 2256
4.26833 2024
4.28845 1941
4.30856 1950
4.32867 1897
4.34879 1947
4.3689 1797
4.38902 1772
4.40913 1634
4.42924 1605
4.44936 1670
4.46947 1502
4.48958 1482
4.5097 1450
4.52981 1509
4.54992 1492
4.57004 1318
4.59015 1353
4.61027 1317
4.63038 1240
4.65049 1363
4.67061 1225
4.69072 1228
4.71083 1179
4.73095 1154
4.75106 1124
4.77118 1067
4.79129 1169
4.8114 1074
4.83152 997
4.85163 1070
4.87174 932
4.89186 917
4.91197 966
4.93209 941
4.9522 864
4.97231 855
4.99243 898
5.01254 871
5.03265 883
5.05277 819
5.07288 749
5.09299 797
5.11311 761
5.13322 737
5.15334 785
5.17345 691
5.19356 694
5.21368 684
5.23379 672
5.2539 627
5.27402 696
5.29413 615
5.31425 683
5.33436 606
5.35447 620
5.37459 537
5.3947 549
5.41481 582
5.43493 578
5.45504 554
5.47516 554
5.49527 527
5.51538 576
5.5355 589
5.55561 508
5.57572 499
5.59584 473
5.61595 505
5.63606 455
5.65618 426
5.67629 458
5.69641 445
5.71652 431
5.73663 444
5.75675 433
5.77686 465
5.79697 435
5.81709 473
5.8372 432
5.85732 429
5.87743 444
5.89754 417
5.91766 449
5.93777 395
5.95788 429
5.978 393
5.99811 442
6.01823 397
6.03834 424
6.05845 436
6.07857 386
6.09868 349
6.11879 395
6.13891 410
6.15902 367
6.17913 425
6.19925 363
6.21936 364
6.23948 367
6.25959 359
6.2797 372
6.29982 360
6.31993 351
6.34004 357
6.36016 369
6.38027 380
6.40039 352
6.4205 344
6.44061 369
6.46073 358
6.48084 377
6.50095 306
6.52107 336
6.54118 351
6.56129 322
6.58141 351
6.60152 300
6.62164 319
6.64175 329
6.66186 341
6.68198 310
6.70209 327
6.7222 324
6.74232 333
6.76243 294
6.78255 333
6.80266 320
6.82277 314
6.84289 331
6.863 302
6.88311 303
6.90323 305
6.92334 284
6.94346 326
6.96357 309
6.98368 311
7.0038 322
7.02391 309
7.04402 302
7.06414 319
7.08425 350
7.10436 347
7.12448 312
7.14459 290
7.16471 331
7.18482 355
7.20493 307
7.22505 326
7.24516 309
7.26527 306
7.28539 306
7.3055 298
7.32562 316
7.34573 330
7.36584 316
7.38596 281
7.40607 337
7.42618 301
7.4463 300
7.46641 306
7.48653 311
7.50664 298
7.52675 286
7.54687 319
7.56698 312
7.58709 315
7.60721 273
7.62732 317
7.64743 312
7.66755 330
7.68766 301
7.70778 333
7.72789 332
7.748 331
7.76812 345
7.78823 304
7.80834 321
7.82846 331
7.84857 305
7.86869 310
7.8888 320
7.90891 317
7.92903 320
7.94914 273
7.96925 282
7.98937 334
8.00948 336
8.0296 309
8.04971 297
8.06982 296
8.08994 301
8.11005 299
8.13016 275
8.15028 309
8.17039 319
8.1905 322
8.21062 306
8.23073 282
8.25085 318
8.27096 313
8.29107 295
8.31119 315
8.3313 311
8.35141 314
8.37153 314
8.39164 304
8.41176 320
8.43187 312
8.45198 350
8.4721 306
8.49221 318
8.51232 315
8.53244 321
8.55255 297
8.57266 319
8.59278 285
8.61289 299
8.63301 351
8.65312 330
8.67323 293
8.69335 316
8.71346 315
8.73357 306
8.75369 363
8.7738 330
8.79392 343
8.81403 361
8.83414 342
8.85426 311
8.87437 356
8.89448 322
8.9146 328
8.93471 323
8.95483 288
8.97494 275
8.99505 338
9.01517 310
9.03528 322
9.05539 303
9.07551 288
9.09562 309
9.11573 283
9.13585 294
9.15596 309
9.17608 300
9.19619 326
9.2163 324
9.23642 306
9.25653 312
9.27664 312
9.29676 294
9.31687 326
9.33699 323
9.3571 304
9.37721 307
9.39733 307
9.41744 303
9.43755 325
9.45767 355
9.47778 322
9.4979 319
9.51801 280
9.53812 289
9.55824 325
9.57835 281
9.59846 342
9.61858 281
9.63869 292
9.6588 282
9.67892 330
9.69903 285
9.71915 314
9.73926 302
9.75937 298
9.77949 271
9.7996 279
9.81971 288
9.83983 293
9.85994 309
9.88006 308
9.90017 293
9.92028 290
9.9404 280
9.96051 289
9.98062 306
10.00074 349
10.02085 309
10.04097 295
10.06108 308
10.08119 309
10.10131 243
10.12142 291
10.14153 283
10.16165 331
10.18176 305
10.20187 325
10.22199 299
10.2421 318
10.26222 281
10.28233 276
10.30244 299
10.32256 309
10.34267 296
10.36278 358
10.3829 266
10.40301 280
10.42313 291
10.44324 322
10.46335 329
10.48347 300
10.50358 296
10.52369 289
10.54381 319
10.56392 317
10.58403 313
10.60415 343
10.62426 304
10.64438 330
10.66449 336
10.6846 317
10.70472 290
10.72483 332
10.74494 324
10.76506 310
10.78517 282
10.80529 318
10.8254 315
10.84551 324
10.86563 313
10.88574 283
10.90585 316
10.92597 316
10.94608 294
10.9662 309
10.98631 300
11.00642 314
11.02654 325
11.04665 303
11.06676 324
11.08688 313
11.10699 294
11.1271 327
11.14722 333
11.16733 316
11.18745 324
11.20756 356
11.22767 335
11.24779 332
11.2679 308
11.28801 341
11.30813 276
11.32824 341
11.34836 316
11.36847 357
11.38858 312
11.4087 351
11.42881 336
11.44892 341
11.46904 341
11.48915 314
11.50927 342
11.52938 309
11.54949 333
11.56961 346
11.58972 299
11.60983 329
11.62995 351
11.65006 374
11.67017 342
11.69029 343
11.7104 383
11.73052 353
11.75063 353
11.77074 381
11.79086 364
11.81097 393
11.83108 425
11.8512 412
11.87131 468
11.89143 487
11.91154 444
11.93165 459
11.95177 490
11.97188 501
11.99199 535
12.01211 514
12.03222 535
12.05234 561
12.07245 629
12.09256 629
12.11268 633
12.13279 665
12.1529 678
12.17302 733
12.19313 693
12.21324 757
12.23336 724
12.25347 729
12.27359 786
12.2937 743
12.31381 723
12.33393 705
12.35404 715
12.37415 645
12.39427 699
12.41438 592
12.4345 555
12.45461 551
12.47472 565
12.49484 499
12.51495 475
12.53506 521
12.55518 461
12.57529 472
12.5954 445
12.61552 391
12.63563 418
12.65575 408
12.67586 377
12.69597 383
12.71609 367
12.7362 376
12.75631 366
12.77643 337
12.79654 324
12.81666 328
12.83677 336
12.85688 364
12.877 358
12.89711 317
12.91722 312
12.93734 346
12.95745 265
12.97757 301
12.99768 286
13.01779 291
13.03791 303
13.05802 265
13.07813 319
13.09825 293
13.11836 250
13.13847 291
13.15859 272
13.1787 266
13.19882 303
13.21893 295
13.23904 288
13.25916 277
13.27927 295
13.29938 313
13.3195 269
13.33961 269
13.35973 312
13.37984 250
13.39995 292
13.42007 272
13.44018 299
13.46029 288
13.48041 253
13.50052 249
13.52064 294
13.54075 260
13.56086 256
13.58098 258
13.60109 283
13.6212 272
13.64132 276
13.66143 261
13.68154 308
13.70166 266
13.72177 263
13.74189 245
13.762 291
13.78211 274
13.80223 271
13.82234 257
13.84245 270
13.86257 263
13.88268 266
13.9028 263
13.92291 222
13.94302 234
13.96314 238
13.98325 233
14.00336 267
14.02348 262
14.04359 245
14.06371 256
14.08382 260
14.10393 274
14.12405 247
14.14416 275
14.16427 272
14.18439 224
14.2045 245
14.22461 244
14.24473 264
14.26484 239
14.28496 244
14.30507 253
14.32518 264
14.3453 245
14.36541 241
14.38552 251
14.40564 239
14.42575 245
14.44587 254
14.46598 251
14.48609 260
14.50621 259
14.52632 250
14.54643 214
14.56655 257
14.58666 239
14.60677 243
14.62689 226
14.647 242
14.66712 228
14.68723 257
14.70734 252
14.72746 271
14.74757 253
14.76768 222
14.7878 265
14.80791 247
14.82803 277
14.84814 251
14.86825 231
14.88837 259
14.90848 229
14.92859 246
14.94871 231
14.96882 269
14.98894 249
15.00905 243
15.02916 255
15.04928 230
15.06939 225
15.0895 225
15.10962 247
15.12973 251
15.14984 235
15.16996 246
15.19007 268
15.21019 236
15.2303 245
15.25041 224
15.27053 270
15.29064 216
15.31075 248
15.33087 210
15.35098 270
15.3711 232
15.39121 251
15.41132 249
15.43144 222
15.45155 244
15.47166 241
15.49178 209
15.51189 253
15.53201 249
15.55212 215
15.57223 276
15.59235 242
15.61246 228
15.63257 258
15.65269 258
15.6728 257
15.69291 231
15.71303 228
15.73314 212
15.75326 253
15.77337 247
15.79348 248
15.8136 256
15.83371 226
15.85382 236
15.87394 260
15.89405 252
15.91417 251
15.93428 221
15.95439 243
15.97451 212
15.99462 243
16.01473 234
16.03485 232
16.05496 223
16.07508 232
16.09519 227
16.1153 211
16.13542 231
16.15553 270
16.17564 229
16.19576 219
16.21587 262
16.23598 237
16.2561 244
16.27621 214
16.29633 237
16.31644 221
16.33655 217
16.35667 236
16.37678 221
16.39689 222
16.41701 243
16.43712 255
16.45724 232
16.47735 237
16.49746 236
16.51758 218
16.53769 238
16.5578 219
16.57792 266
16.59803 246
16.61814 259
16.63826 253
16.65837 231
16.67849 222
16.6986 230
16.71871 207
16.73883 213
16.75894 250
16.77905 237
16.79917 230
16.81928 240
16.8394 247
16.85951 233
16.87962 215
16.89974 227
16.91985 233
16.93996 218
16.96008 212
16.98019 215
17.00031 215
17.02042 238
17.04053 246
17.06065 205
17.08076 228
17.10087 226
17.12099 240
17.1411 216
17.16121 223
17.18133 222
17.20144 255
17.22156 208
17.24167 222
17.26178 227
17.2819 253
17.30201 227
17.32212 241
17.34224 221
17.36235 225
17.38247 233
17.40258 224
17.42269 216
17.44281 224
17.46292 213
17.48303 225
17.50315 246
17.52326 253
17.54338 247
17.56349 263
17.5836 239
17.60372 249
17.62383 247
17.64394 221
17.66406 273
17.68417 217
17.70428 235
17.7244 277
17.74451 251
17.76463 279
17.78474 244
17.80485 255
17.82497 239
17.84508 247
17.86519 247
17.88531 254
17.90542 283
17.92554 264
17.94565 265
17.96576 279
17.98588 266
18.00599 249
18.0261 297
18.04622 303
18.06633 299
18.08645 280
18.10656 307
18.12667 323
18.14679 361
18.1669 391
18.18701 448
18.20713 456
18.22724 545
18.24735 572
18.26747 580
18.28758 493
18.3077 521
18.32781 490
18.34792 438
18.36804 392
18.38815 343
18.40826 315
18.42838 328
18.44849 304
18.46861 263
18.48872 254
18.50883 308
18.52895 289
18.54906 250
18.56917 255
18.58929 287
18.6094 272
18.62951 266
18.64963 265
18.66974 242
18.68986 255
18.70997 237
18.73008 272
18.7502 249
18.77031 269
18.79042 252
18.81054 282
18.83065 256
18.85077 247
18.87088 253
18.89099 265
18.91111 275
18.93122 259
18.95133 249
18.97145 262
18.99156 214
19.01168 262
19.03179 252
19.0519 247
19.07202 236
19.09213 257
19.11224 258
19.13236 238
19.15247 251
19.17258 261
19.1927 262
19.21281 270
19.23293 270
19.25304 260
19.27315 264
19.29327 254
19.31338 234
19.33349 297
19.35361 270
19.37372 291
19.39384 291
19.41395 265
19.43406 287
19.45418 252
19.47429 314
19.4944 302
19.51452 323
19.53463 292
19.55475 332
19.57486 360
19.59497 357
19.61509 410
19.6352 412
19.65531 461
19.67543 502
19.69554 496
19.71565 599
19.73577 617
19.75588 666
19.776 697
19.79611 713
19.81622 748
19.83634 764
19.85645 792
19.87656 824
19.89668 746
19.91679 731
19.93691 732
19.95702 689
19.97713 672
19.99725 676
20.01736 690
20.03747 655
20.05759 644
20.0777 626
20.09782 658
20.11793 721
20.13804 676
20.15816 643
20.17827 670
20.19838 731
20.2185 671
20.23861 712
20.25872 773
20.27884 712
20.29895 685
20.31907 728
20.33918 692
20.35929 721
20.37941 686
20.39952 666
20.41963 752
20.43975 707
20.45986 740
20.47998 755
20.50009 760
20.5202 730
20.54032 744
20.56043 836
20.58054 832
20.60066 845
20.62077 949
20.64088 1096
20.661 1334
20.68111 1584
20.70123 1940
20.72134 2601
20.74145 3286
20.76157 4070
20.78168 4923
20.80179 5217
20.82191 5170
20.84202 4708
20.86214 3848
20.88225 3081
20.90236 2188
20.92248 1500
20.94259 1111
20.9627 874
20.98282 725
21.00293 708
21.02305 703
21.04316 689
21.06327 667
21.08339 708
21.1035 567
21.12361 618
21.14373 605
21.16384 624
21.18395 543
21.20407 538
21.22418 568
21.2443 605
21.26441 589
21.28452 610
21.30464 552
21.32475 571
21.34486 586
21.36498 591
21.38509 599
21.40521 547
21.42532 563
21.44543 582
21.46555 548
21.48566 564
21.50577 573
21.52589 505
21.546 532
21.56612 504
21.58623 523
21.60634 520
21.62646 527
21.64657 523
21.66668 517
21.6868 471
21.70691 507
21.72702 519
21.74714 493
21.76725 469
21.78737 466
21.80748 476
21.82759 452
21.84771 430
21.86782 463
21.88793 452
21.90805 416
21.92816 437
21.94828 396
21.96839 441
21.9885 424
22.00862 413
22.02873 433
22.04884 396
22.06896 471
22.08907 431
22.10919 380
22.1293 413
22.14941 461
22.16953 426
22.18964 414
22.20975 396
22.22987 405
22.24998 394
22.27009 409
22.29021 413
22.31032 440
22.33044 430
22.35055 396
22.37066 367
22.39078 374
22.41089 404
22.431 390
22.45112 386
22.47123 345
22.49135 410
22.51146 375
22.53157 370
22.55169 332
22.5718 385
22.59191 399
22.61203 351
22.63214 369
22.65225 355
22.67237 366
22.69248 361
22.7126 371
22.73271 423
22.75282 385
22.77294 407
22.79305 355
22.81316 403
22.83328 401
22.85339 383
22.87351 376
22.89362 369
22.91373 397
22.93385 377
22.95396 374
22.97407 383
22.99419 364
23.0143 377
23.03442 364
23.05453 353
23.07464 361
23.09476 370
23.11487 362
23.13498 338
23.1551 349
23.17521 359
23.19532 345
23.21544 362
23.23555 368
23.25567 356
23.27578 346
23.29589 334
23.31601 337
23.33612 337
23.35623 343
23.37635 358
23.39646 360
23.41658 359
23.43669 337
23.4568 338
23.47692 338
23.49703 346
23.51714 363
23.53726 328
23.55737 358
23.57749 349
23.5976 382
23.61771 347
23.63783 376
23.65794 360
23.67805 380
23.69817 407
23.71828 408
23.73839 411
23.75851 398
23.77862 362
23.79874 417
23.81885 410
23.83896 382
23.85908 402
23.87919 369
23.8993 390
23.91942 387
23.93953 393
23.95965 385
23.97976 387
23.99987 396
24.01999 382
24.0401 392
24.06021 387
24.08033 386
24.10044 402
24.12056 390
24.14067 386
24.16078 397
24.1809 378
24.20101 409
24.22112 373
24.24124 414
24.26135 398
24.28146 380
24.30158 442
24.32169 392
24.34181 413
24.36192 405
24.38203 387
24.40215 425
24.42226 433
24.44237 413
24.46249 444
24.4826 433
24.50272 416
24.52283 422
24.54294 461
24.56306 478
24.58317 487
24.60328 481
24.6234 543
24.64351 555
24.66362 560
24.68374 631
24.70385 620
24.72397 601
24.74408 621
24.76419 621
24.78431 683
24.80442 730
24.82453 647
24.84465 711
24.86476 691
24.88488 710
24.90499 673
24.9251 680
24.94522 664
24.96533 634
24.98544 577
25.00556 582
25.02567 657
25.04579 589
25.0659 544
25.08601 569
25.10613 553
25.12624 548
25.14635 613
25.16647 575
25.18658 572
25.20669 553
25.22681 553
25.24692 530
25.26704 511
25.28715 536
25.30726 498
25.32738 488
25.34749 418
25.3676 464
25.38772 472
25.40783 453
25.42795 437
25.44806 456
25.46817 436
25.48829 428
25.5084 418
25.52851 464
25.54863 445
25.56874 393
25.58886 454
25.60897 433
25.62908 466
25.6492 434
25.66931 499
25.68942 442
25.70954 489
25.72965 478
25.74976 477
25.76988 528
25.78999 512
25.81011 497
25.83022 467
25.85033 492
25.87045 486
25.89056 522
25.91067 501
25.93079 549
25.9509 550
25.97102 557
25.99113 612
26.01124 556
26.03136 556
26.05147 621
26.07158 610
26.0917 704
26.11181 733
26.13193 713
26.15204 767
26.17215 797
26.19227 815
26.21238 877
26.23249 1002
26.25261 902
26.27272 1071
26.29283 1207
26.31295 1265
26.33306 1479
26.35318 1799
26.37329 2061
26.3934 2546
26.41352 3189
26.43363 4257
26.45374 5517
26.47386 7543
26.49397 10023
26.51409 13416
26.5342 16765
26.55431 19822
26.57443 21431
26.59454 21235
26.61465 19467
26.63477 17017
26.65488 13352
26.67499 9651
26.69511 6881
26.71522 4746
26.73534 3040
26.75545 2093
26.77556 1589
26.79568 1334
26.81579 1242
26.8359 1111
26.85602 987
26.87613 943
26.89625 872
26.91636 836
26.93647 794
26.95659 668
26.9767 660
26.99681 626
27.01693 586
27.03704 525
27.05716 590
27.07727 558
27.09738 535
27.1175 497
27.13761 516
27.15772 488
27.17784 485
27.19795 445
27.21806 447
27.23818 439
27.25829 450
27.27841 451
27.29852 462
27.31863 497
27.33875 469
27.35886 499
27.37897 509
27.39909 493
27.4192 450
27.43932 497
27.45943 442
27.47954 416
27.49966 400
27.51977 413
27.53988 368
27.56 404
27.58011 420
27.60023 398
27.62034 384
27.64045 378
27.66057 391
27.68068 346
27.70079 370
27.72091 382
27.74102 365
27.76113 353
27.78125 398
27.80136 369
27.82148 385
27.84159 402
27.8617 377
27.88182 362
27.90193 336
27.92204 358
27.94216 323
27.96227 355
27.98239 331
28.0025 364
28.02261 347
28.04273 346
28.06284 339
28.08295 333
28.10307 349
28.12318 359
28.1433 373
28.16341 389
28.18352 343
28.20364 342
28.22375 351
28.24386 341
28.26398 305
28.28409 311
28.3042 313
28.32432 306
28.34443 303
28.36455 321
28.38466 328
28.40477 298
28.42489 314
28.445 314
28.46511 309
28.48523 289
28.50534 313
28.52546 306
28.54557 316
28.56568 321
28.5858 323
28.60591 307
28.62602 311
28.64614 298
28.66625 275
28.68636 335
28.70648 335
28.72659 277
28.74671 296
28.76682 310
28.78693 298
28.80705 310
28.82716 286
28.84727 313
28.86739 290
28.8875 278
28.90762 278
28.92773 331
28.94784 287
28.96796 271
28.98807 284
29.00818 313
29.0283 287
29.04841 275
29.06853 288
29.08864 241
29.10875 275
29.12887 267
29.14898 278
29.16909 286
29.18921 302
29.20932 297
29.22943 315
29.24955 300
29.26966 270
29.28978 344
29.30989 300
29.33 292
29.35012 321
29.37023 269
29.39034 279
29.41046 294
29.43057 291
29.45069 281
29.4708 279
29.49091 289
29.51103 290
29.53114 287
29.55125 270
29.57137 314
29.59148 312
29.6116 269
29.63171 272
29.65182 289
29.67194 296
29.69205 272
29.71216 310
29.73228 300
29.75239 317
29.7725 291
29.79262 331
29.81273 298
29.83285 284
29.85296 302
29.87307 292
29.89319 269
29.9133 268
29.93341 289
29.95353 291
29.97364 298
29.99376 263
30.01387 315
30.03398 268
30.0541 273
30.07421 272
30.09432 288
30.11444 299
30.13455 279
30.15467 269
30.17478 286
30.19489 263
30.21501 284
30.23512 273
30.25523 278
30.27535 273
30.29546 284
30.31557 249
30.33569 260
30.3558 255
30.37592 315
30.39603 280
30.41614 290
30.43626 281
30.45637 280
30.47648 280
30.4966 277
30.51671 271
30.53683 236
30.55694 303
30.57705 260
30.59717 265
30.61728 241
30.63739 266
30.65751 278
30.67762 289
30.69773 285
30.71785 252
30.73796 264
30.75808 222
30.77819 270
30.7983 258
30.81842 270
30.83853 262
30.85864 250
30.87876 270
30.89887 258
30.91899 287
30.9391 278
30.95921 266
30.97933 263
30.99944 269
31.01955 280
31.03967 270
31.05978 288
31.0799 259
31.10001 291
31.12012 262
31.14024 261
31.16035 283
31.18046 285
31.20058 290
31.22069 251
31.2408 251
31.26092 275
31.28103 281
31.30115 274
31.32126 243
31.34137 254
31.36149 294
31.3816 273
31.40171 244
31.42183 231
31.44194 282
31.46206 256
31.48217 253
31.50228 243
31.5224 262
31.54251 296
31.56262 259
31.58274 300
31.60285 218
31.62297 238
31.64308 240
31.66319 244
31.68331 262
31.70342 261
31.72353 262
31.74365 268
31.76376 254
31.78387 275
31.80399 272
31.8241 278
31.84422 258
31.86433 259
31.88444 272
31.90456 255
31.92467 262
31.94478 261
31.9649 280
31.98501 294
32.00513 262
32.02524 229
32.04535 256
32.06547 293
32.08558 239
32.10569 268
32.12581 268
32.14592 299
32.16604 256
32.18615 268
32.20626 276
32.22638 238
32.24649 273
32.2666 276
32.28672 265
32.30683 269
32.32694 289
32.34706 276
32.36717 296
32.38729 249
32.4074 268
32.42751 294
32.44763 301
32.46774 325
32.48785 276
32.50797 289
32.52808 307
32.5482 295
32.56831 270
32.58842 283
32.60854 243
32.62865 258
32.64876 257
32.66888 280
32.68899 282
32.7091 267
32.72922 258
32.74933 267
32.76945 283
32.78956 273
32.80967 243
32.82979 280
32.8499 238
32.87001 270
32.89013 255
32.91024 263
32.93036 283
32.95047 249
32.97058 255
32.9907 255
33.01081 241
33.03092 278
33.05104 257
33.07115 252
33.09127 265
33.11138 255
33.13149 252
33.15161 270
33.17172 296
33.19183 274
33.21195 272
33.23206 260
33.25217 316
33.27229 262
33.2924 287
33.31252 284
33.33263 274
33.35274 271
33.37286 254
33.39297 295
33.41308 299
33.4332 287
33.45331 232
33.47343 302
33.49354 257
33.51365 272
33.53377 287
33.55388 303
33.57399 243
33.59411 288
33.61422 286
33.63434 276
33.65445 266
33.67456 233
33.69468 294
33.71479 251
33.7349 276
33.75502 277
33.77513 244
33.79524 251
33.81536 242
33.83547 240
33.85559 271
33.8757 265
33.89581 239
33.91593 267
33.93604 268
33.95615 274
33.97627 235
33.99638 266
34.0165 298
34.03661 252
34.05672 235
34.07684 266
34.09695 267
34.11706 277
34.13718 255
34.15729 235
34.17741 285
34.19752 287
34.21763 242
34.23775 273
34.25786 240
34.27797 246
34.29809 268
34.3182 263
34.33831 270
34.35843 279
34.37854 304
34.39866 285
34.41877 323
34.43888 295
34.459 304
34.47911 324
34.49922 343
34.51934 322
34.53945 336
34.55957 345
34.57968 325
34.59979 344
34.61991 344
34.64002 371
34.66013 364
34.68025 415
34.70036 383
34.72047 418
34.74059 430
34.7607 433
34.78082 487
34.80093 488
34.82104 513
34.84116 505
34.86127 511
34.88138 502
34.9015 500
34.92161 544
34.94173 463
34.96184 462
34.98195 440
35.00207 484
35.02218 456
35.04229 475
35.06241 468
35.08252 435
35.10264 425
35.12275 455
35.14286 420
35.16298 436
35.18309 448
35.2032 397
35.22332 414
35.24343 429
35.26354 379
35.28366 390
35.30377 427
35.32389 459
35.344 384
35.36411 397
35.38423 451
35.40434 413
35.42445 436
35.44457 400
35.46468 413
35.4848 436
35.50491 412
35.52502 416
35.54514 406
35.56525 408
35.58536 415
35.60548 389
35.62559 415
35.64571 436
35.66582 377
35.68593 454
35.70605 441
35.72616 399
35.74627 433
35.76639 471
35.7865 402
35.80661 447
35.82673 444
35.84684 446
35.86696 458
35.88707 485
35.90718 442
35.9273 489
35.94741 462
35.96752 445
35.98764 425
36.00775 462
36.02787 455
36.04798 460
36.06809 411
36.08821 439
36.10832 442
36.12843 454
36.14855 469
36.16866 437
36.18878 477
36.20889 485
36.229 425
36.24912 445
36.26923 510
36.28934 575
36.30946 634
36.32957 692
36.34968 798
36.3698 920
36.38991 1092
36.41003 1173
36.43014 1447
36.45025 1686
36.47037 1650
36.49048 1737
36.51059 1623
36.53071 1419
36.55082 1251
36.57094 1174
36.59105 1003
36.61116 821
36.63128 681
36.65139 564
36.6715 489
36.69162 433
36.71173 438
36.73184 393
36.75196 415
36.77207 357
36.79219 399
36.8123 398
36.83241 384
36.85253 371
36.87264 393
36.89275 390
36.91287 363
36.93298 385
36.9531 352
36.97321 377
36.99332 364
37.01344 367
37.03355 396
37.05366 381
37.07378 410
37.09389 385
37.11401 369
37.13412 380
37.15423 397
37.17435 401
37.19446 388
37.21457 378
37.23469 393
37.2548 360
37.27491 345
37.29503 385
37.31514 432
37.33526 414
37.35537 388
37.37548 408
37.3956 368
37.41571 409
37.43582 388
37.45594 385
37.47605 422
37.49617 424
37.51628 416
37.53639 445
37.55651 408
37.57662 425
37.59673 451
37.61685 420
37.63696 415
37.65708 425
37.67719 436
37.6973 406
37.71742 402
37.73753 425
37.75764 416
37.77776 409
37.79787 467
37.81798 420
37.8381 392
37.85821 390
37.87833 392
37.89844 393
37.91855 411
37.93867 395
37.95878 389
37.97889 416
37.99901 381
38.01912 415
38.03924 416
38.05935 342
38.07946 446
38.09958 422
38.11969 413
38.1398 427
38.15992 411
38.18003 442
38.20015 440
38.22026 463
38.24037 418
38.26049 453
38.2806 429
38.30071 435
38.32083 475
38.34094 458
38.36105 446
38.38117 460
38.40128 478
38.4214 478
38.44151 524
38.46162 446
38.48174 459
38.50185 440
38.52196 434
38.54208 415
38.56219 429
38.58231 458
38.60242 430
38.62253 356
38.64265 422
38.66276 429
38.68287 410
38.70299 398
38.7231 395
38.74321 364
38.76333 372
38.78344 373
38.80356 365
38.82367 379
38.84378 392
38.8639 401
38.88401 381
38.90412 393
38.92424 368
38.94435 378
38.96447 371
38.98458 406
39.00469 405
39.02481 383
39.04492 423
39.06503 413
39.08515 427
39.10526 426
39.12538 430
39.14549 456
39.1656 468
39.18572 475
39.20583 558
39.22594 559
39.24606 618
39.26617 741
39.28628 799
39.3064 988
39.32651 1155
39.34663 1316
39.36674 1473
39.38685 1587
39.40697 1555
39.42708 1544
39.44719 1343
39.46731 1235
39.48742 1090
39.50754 954
39.52765 855
39.54776 698
39.56788 588
39.58799 498
39.6081 372
39.62822 365
39.64833 374
39.66845 349
39.68856 315
39.70867 323
39.72879 336
39.7489 308
39.76901 328
39.78913 279
39.80924 302
39.82935 313
39.84947 292
39.86958 330
39.8897 325
39.90981 335
39.92992 324
39.95004 322
39.97015 358
39.99026 348
40.01038 357
40.03049 396
40.05061 412
40.07072 463
40.09083 539
40.11095 557
40.13106 664
40.15117 692
40.17129 811
40.1914 842
40.21152 887
40.23163 877
40.25174 831
40.27186 790
40.29197 750
40.31208 689
40.3322 608
40.35231 518
40.37242 490
40.39254 434
40.41265 384
40.43277 354
40.45288 353
40.47299 354
40.49311 297
40.51322 307
40.53333 306
40.55345 279
40.57356 301
40.59368 324
40.61379 291
40.6339 317
40.65402 304
40.67413 313
40.69424 295
40.71436 325
40.73447 281
40.75458 307
40.7747 327
40.79481 305
40.81493 307
40.83504 299
40.85515 326
40.87527 306
40.89538 301
40.91549 327
40.93561 281
40.95572 313
40.97584 328
40.99595 311
41.01606 306
41.03618 302
41.05629 268
41.0764 294
41.09652 319
41.11663 300
41.13675 330
41.15686 304
41.17697 309
41.19709 293
41.2172 291
41.23731 321
41.25743 275
41.27754 264
41.29765 300
41.31777 281
41.33788 293
41.358 247
41.37811 283
41.39822 315
41.41834 282
41.43845 289
41.45856 299
41.47868 312
41.49879 293
41.51891 287
41.53902 264
41.55913 286
41.57925 269
41.59936 312
41.61947 292
41.63959 316
41.6597 266
41.67982 304
41.69993 278
41.72004 296
41.74016 280
41.76027 280
41.78038 271
41.8005 272
41.82061 270
41.84072 326
41.86084 300
41.88095 285
41.90107 292
41.92118 300
41.94129 314
41.96141 280
41.98152 296
42.00163 308
42.02175 304
42.04186 312
42.06198 329
42.08209 305
42.1022 305
42.12232 360
42.14243 353
42.16254 405
42.18266 363
42.20277 448
42.22289 467
42.243 513
42.26311 587
42.28323 700
42.30334 778
42.32345 1020
42.34357 1055
42.36368 1134
42.38379 1229
42.40391 1096
42.42402 1019
42.44414 979
42.46425 829
42.48436 743
42.50448 722
42.52459 610
42.5447 518
42.56482 458
42.58493 384
42.60505 322
42.62516 305
42.64527 275
42.66539 251
42.6855 294
42.70561 238
42.72573 266
42.74584 245
42.76595 260
42.78607 273
42.80618 271
42.8263 267
42.84641 248
42.86652 249
42.88664 251
42.90675 238
42.92686 272
42.94698 242
42.96709 260
42.98721 234
43.00732 245
43.02743 258
43.04755 260
43.06766 217
43.08777 246
43.10789 276
43.128 232
43.14812 263
43.16823 228
43.18834 227
43.20846 239
43.22857 255
43.24868 228
43.2688 236
43.28891 239
43.30902 251
43.32914 256
43.34925 203
43.36937 231
43.38948 251
43.40959 246
43.42971 232
43.44982 235
43.46993 250
43.49005 248
43.51016 229
43.53028 248
43.55039 237
43.5705 244
43.59062 236
43.61073 250
43.63084 239
43.65096 222
43.67107 235
43.69119 262
43.7113 239
43.73141 244
43.75153 242
43.77164 254
43.79175 242
43.81187 257
43.83198 239
43.85209 254
43.87221 236
43.89232 246
43.91244 224
43.93255 256
43.95266 250
43.97278 262
43.99289 259
44.013 264
44.03312 260
44.05323 235
44.07335 259
44.09346 259
44.11357 281
44.13369 274
44.1538 250
44.17391 250
44.19403 273
44.21414 279
44.23426 262
44.25437 270
44.27448 245
44.2946 252
44.31471 252
44.33482 220
44.35494 243
44.37505 234
44.39516 228
44.41528 254
44.43539 235
44.45551 221
44.47562 244
44.49573 247
44.51585 215
44.53596 241
44.55607 248
44.57619 253
44.5963 228
44.61642 207
44.63653 262
44.65664 226
44.67676 278
44.69687 226
44.71698 248
44.7371 240
44.75721 233
44.77732 242
44.79744 248
44.81755 266
44.83767 264
44.85778 244
44.87789 235
44.89801 256
44.91812 239
44.93823 234
44.95835 246
44.97846 247
44.99858 258
45.01869 250
45.0388 276
45.05892 255
45.07903 285
45.09914 277
45.11926 251
45.13937 286
45.15949 265
45.1796 280
45.19971 294
45.21983 279
45.23994 261
45.26005 301
45.28017 298
45.30028 309
45.32039 295
45.34051 329
45.36062 336
45.38074 294
45.40085 335
45.42096 287
45.44108 314
45.46119 318
45.4813 374
45.50142 359
45.52153 396
45.54165 427
45.56176 409
45.58187 411
45.60199 511
45.6221 546
45.64221 588
45.66233 699
45.68244 801
45.70256 854
45.72267 839
45.74278 837
45.7629 708
45.78301 655
45.80312 586
45.82324 550
45.84335 544
45.86346 471
45.88358 450
45.90369 383
45.92381 359
45.94392 330
45.96403 310
45.98415 278
46.00426 282
46.02437 272
46.04449 291
46.0646 294
46.08472 259
46.10483 271
46.12494 259
46.14506 264
46.16517 284
46.18528 289
46.2054 269
46.22551 260
46.24563 251
46.26574 278
46.28585 252
46.30597 270
46.32608 236
46.34619 263
46.36631 252
46.38642 294
46.40653 253
46.42665 263
46.44676 283
46.46688 249
46.48699 247
46.5071 249
46.52722 239
46.54733 227
46.56744 280
46.58756 239
46.60767 270
46.62779 257
46.6479 258
46.66801 273
46.68813 257
46.70824 236
46.72835 251
46.74847 212
46.76858 221
46.78869 260
46.80881 235
46.82892 257
46.84904 242
46.86915 290
46.88926 225
46.90938 273
46.92949 258
46.9496 249
46.96972 249
46.98983 247
47.00995 252
47.03006 248
47.05017 269
47.07029 239
47.0904 252
47.11051 235
47.13063 257
47.15074 238
47.17086 219
47.19097 225
47.21108 281
47.2312 259
47.25131 217
47.27142 224
47.29154 236
47.31165 252
47.33176 234
47.35188 225
47.37199 249
47.39211 246
47.41222 244
47.43233 240
47.45245 245
47.47256 251
47.49267 241
47.51279 231
47.5329 245
47.55302 258
47.57313 226
47.59324 254
47.61336 257
47.63347 255
47.65358 236
47.6737 258
47.69381 280
47.71393 266
47.73404 290
47.75415 278
47.77427 256
47.79438 270
47.81449 252
47.83461 252
47.85472 250
47.87483 244
47.89495 255
47.91506 250
47.93518 265
47.95529 240
47.9754 267
47.99552 242
48.01563 237
48.03574 235
48.05586 256
48.07597 239
48.09609 221
48.1162 239
48.13631 220
48.15643 269
48.17654 220
48.19665 242
48.21677 232
48.23688 247
48.257 224
48.27711 223
48.29722 236
48.31734 232
48.33745 221
48.35756 231
48.37768 225
48.39779 224
48.4179 248
48.43802 230
48.45813 241
48.47825 216
48.49836 234
48.51847 254
48.53859 244
48.5587 238
48.57881 244
48.59893 252
48.61904 242
48.63916 265
48.65927 253
48.67938 247
48.6995 238
48.71961 241
48.73972 249
48.75984 245
48.77995 229
48.80006 257
48.82018 245
48.84029 269
48.86041 268
48.88052 267
48.90063 222
48.92075 249
48.94086 240
48.96097 249
48.98109 239
49.0012 272
49.02132 236
49.04143 256
49.06154 238
49.08166 229
49.10177 248
49.12188 246
49.142 220
49.16211 245
49.18223 248
49.20234 238
49.22245 237
49.24257 259
49.26268 217
49.28279 251
49.30291 251
49.32302 218
49.34313 260
49.36325 211
49.38336 240
49.40348 276
49.42359 240
49.4437 246
49.46382 248
49.48393 286
49.50404 249
49.52416 270
49.54427 288
49.56439 261
49.5845 279
49.60461 297
49.62473 304
49.64484 280
49.66495 310
49.68507 333
49.70518 334
49.7253 331
49.74541 382
49.76552 351
49.78564 404
49.80575 425
49.82586 498
49.84598 505
49.86609 589
49.8862 653
49.90632 776
49.92643 855
49.94655 1063
49.96666 1217
49.98677 1550
50.00689 1727
50.027 1988
50.04711 2210
50.06723 2321
50.08734 2161
50.10746 2001
50.12757 1718
50.14768 1515
50.1678 1429
50.18791 1290
50.20802 1241
50.22814 1097
50.24825 934
50.26837 711
50.28848 567
50.30859 459
50.32871 384
50.34882 347
50.36893 325
50.38905 330
50.40916 318
50.42927 298
50.44939 313
50.4695 315
50.48962 311
50.50973 314
50.52984 320
50.54996 343
50.57007 335
50.59018 308
50.6103 332
50.63041 294
50.65053 320
50.67064 293
50.69075 284
50.71087 254
50.73098 271
50.75109 269
50.77121 271
50.79132 253
50.81143 270
50.83155 249
50.85166 258
50.87178 248
50.89189 241
50.912 246
50.93212 265
50.95223 234
50.97234 245
50.99246 230
51.01257 229
51.03269 237
51.0528 223
51.07291 240
51.09303 252
51.11314 249
51.13325 214
51.15337 244
51.17348 271
51.1936 227
51.21371 208
51.23382 242
51.25394 235
51.27405 231
51.29416 227
51.31428 229
51.33439 234
51.3545 266
51.37462 229
51.39473 229
51.41485 203
51.43496 232
51.45507 211
51.47519 224
51.4953 201
51.51541 217
51.53553 232
51.55564 222
51.57576 212
51.59587 244
51.61598 226
51.6361 245
51.65621 233
51.67632 189
51.69644 224
51.71655 211
51.73667 202
51.75678 199
51.77689 211
51.79701 226
51.81712 209
51.83723 192
51.85735 219
51.87746 233
51.89757 220
51.91769 224
51.9378 231
51.95792 221
51.97803 231
51.99814 223
52.01826 225
52.03837 228
52.05848 226
52.0786 223
52.09871 229
52.11883 258
52.13894 243
52.15905 235
52.17917 257
52.19928 246
52.21939 236
52.23951 197
52.25962 230
52.27974 213
52.29985 237
52.31996 210
52.34008 207
52.36019 224
52.3803 246
52.40042 237
52.42053 227
52.44064 202
52.46076 228
52.48087 203
52.50099 205
52.5211 220
52.54121 224
52.56133 212
52.58144 205
52.60155 208
52.62167 227
52.64178 207
52.6619 197
52.68201 215
52.70212 225
52.72224 223
52.74235 231
52.76246 222
52.78258 197
52.80269 232
52.8228 213
52.84292 220
52.86303 226
52.88315 271
52.90326 240
52.92337 234
52.94349 242
52.9636 231
52.98371 266
53.00383 258
53.02394 240
53.04406 238
53.06417 256
53.08428 224
53.1044 245
53.12451 216
53.14462 257
53.16474 229
53.18485 244
53.20497 214
53.22508 226
53.24519 243
53.26531 226
53.28542 241
53.30553 229
53.32565 242
53.34576 251
53.36587 227
53.38599 237
53.4061 243
53.42622 225
53.44633 256
53.46644 242
53.48656 242
53.50667 270
53.52678 242
53.5469 248
53.56701 261
53.58713 233
53.60724 266
53.62735 259
53.64747 274
53.66758 269
53.68769 270
53.70781 243
53.72792 278
53.74804 266
53.76815 269
53.78826 260
53.80838 306
53.82849 272
53.8486 335
53.86872 285
53.88883 297
53.90894 284
53.92906 280
53.94917 287
53.96929 288
53.9894 288
54.00951 287
54.02963 313
54.04974 329
54.06985 301
54.08997 300
54.11008 285
54.1302 322
54.15031 345
54.17042 327
54.19054 331
54.21065 335
54.23076 345
54.25088 341
54.27099 347
54.29111 356
54.31122 364
54.33133 345
54.35145 330
54.37156 347
54.39167 325
54.41179 342
54.4319 350
54.45201 357
54.47213 358
54.49224 391
54.51236 377
54.53247 367
54.55258 349
54.5727 403
54.59281 392
54.61292 423
54.63304 459
54.65315 461
54.67327 526
54.69338 607
54.71349 687
54.73361 774
54.75372 773
54.77383 855
54.79395 864
54.81406 826
54.83417 820
54.85429 753
54.8744 673
54.89452 617
54.91463 626
54.93474 663
54.95486 579
54.97497 576
54.99508 537
55.0152 469
55.03531 442
55.05543 401
55.07554 441
55.09565 415
55.11577 437
55.13588 453
55.15599 498
55.17611 487
55.19622 504
55.21634 585
55.23645 566
55.25656 578
55.27668 572
55.29679 481
55.3169 481
55.33702 441
55.35713 428
55.37724 448
55.39736 430
55.41747 426
55.43759 407
55.4577 354
55.47781 308
55.49793 352
55.51804 326
55.53815 295
55.55827 276
55.57838 289
55.5985 289
55.61861 310
55.63872 280
55.65884 313
55.67895 257
55.69906 319
55.71918 307
55.73929 264
55.75941 309
55.77952 287
55.79963 293
55.81975 265
55.83986 288
55.85997 298
55.88009 287
55.9002 297
55.92031 293
55.94043 266
55.96054 265
55.98066 270
56.00077 245
56.02088 259
56.041 246
56.06111 252
56.08122 244
56.10134 264
56.12145 263
56.14157 260
56.16168 272
56.18179 308
56.20191 282
56.22202 261
56.24213 249
56.26225 270
56.28236 237
56.30248 255
56.32259 251
56.3427 240
56.36282 260
56.38293 246
56.40304 245
56.42316 264
56.44327 247
56.46338 266
56.4835 256
56.50361 266
56.52373 257
56.54384 233
56.56395 225
56.58407 257
56.60418 257
56.62429 269
56.64441 264
56.66452 215
56.68464 262
56.70475 236
56.72486 245
56.74498 248
56.76509 251
56.7852 250
56.80532 248
56.82543 259
56.84554 225
56.86566 225
56.88577 244
56.90589 242
56.926 237
56.94611 241
56.96623 237
56.98634 272
57.00645 244
57.02657 241
57.04668 271
57.0668 239
57.08691 239
57.10702 273
57.12714 253
57.14725 295
57.16736 296
57.18748 291
57.20759 228
57.22771 253
57.24782 254
57.26793 245
57.28805 238
57.30816 255
57.32827 255
57.34839 235
57.3685 240
57.38861 228
57.40873 248
57.42884 222
57.44896 243
57.46907 213
57.48918 221
57.5093 237
57.52941 233
57.54952 222
57.56964 213
57.58975 222
57.60987 225
57.62998 234
57.65009 229
57.67021 264
57.69032 219
57.71043 238
57.73055 232
57.75066 226
57.77078 257
57.79089 216
57.811 234
57.83112 247
57.85123 225
57.87134 212
57.89146 213
57.91157 230
57.93168 222
57.9518 241
57.97191 222
57.99203 204
58.01214 229
58.03225 240
58.05237 227
58.07248 221
58.09259 215
58.11271 220
58.13282 229
58.15294 205
58.17305 229
58.19316 223
58.21328 226
58.23339 244
58.2535 244
58.27362 224
58.29373 228
58.31385 208
58.33396 241
58.35407 212
58.37419 236
58.3943 234
58.41441 226
58.43453 210
58.45464 207
58.47475 233
58.49487 255
58.51498 220
58.5351 216
58.55521 197
58.57532 220
58.59544 208
58.61555 209
58.63566 201
58.65578 237
58.67589 212
58.69601 238
58.71612 236
58.73623 233
58.75635 217
58.77646 210
58.79657 196
58.81669 214
58.8368 251
58.85691 255
58.87703 227
58.89714 213
58.91726 226
58.93737 215
58.95748 212
58.9776 217
58.99771 234
59.01782 226
59.03794 247
59.05805 206
59.07817 248
59.09828 219
59.11839 227
59.13851 232
59.15862 227
59.17873 234
59.19885 229
59.21896 250
59.23908 262
59.25919 244
59.2793 260
59.29942 251
59.31953 220
59.33964 272
59.35976 270
59.37987 259
59.39998 231
59.4201 270
59.44021 258
59.46033 296
59.48044 258
59.50055 284
59.52067 287
59.54078 288
59.56089 337
59.58101 327
59.60112 366
59.62124 396
59.64135 408
59.66146 437
59.68158 524
59.70169 560
59.7218 630
59.74192 681
59.76203 801
59.78215 993
59.80226 1095
59.82237 1280
59.84249 1395
59.8626 1501
59.88271 1417
59.90283 1362
59.92294 1248
59.94305 1135
59.96317 972
59.98328 978
60.0034 882
60.02351 838
60.04362 807
60.06374 768
60.08385 712
60.10396 584
60.12408 514
60.14419 396
60.16431 346
60.18442 284
60.20453 308
60.22465 276
60.24476 275
60.26487 266
60.28499 291
60.3051 255
60.32522 264
60.34533 258
60.36544 233
60.38556 266
60.40567 254
60.42578 259
60.4459 249
60.46601 262
60.48612 242
60.50624 244
60.52635 236
60.54647 235
60.56658 256
60.58669 246
60.60681 249
60.62692 226
60.64703 231
60.66715 215
60.68726 237
60.70738 225
60.72749 209
60.7476 228
60.76772 227
60.78783 229
60.80794 231
60.82806 236
60.84817 230
60.86828 214
60.8884 244
60.90851 211
60.92863 208
60.94874 202
60.96885 225
60.98897 217
61.00908 219
61.02919 232
61.04931 229
61.06942 248
61.08954 224
61.10965 220
61.12976 220
61.14988 248
61.16999 194
61.1901 212
61.21022 227
61.23033 254
61.25045 226
61.27056 228
61.29067 239
61.31079 235
61.3309 240
61.35101 229
61.37113 245
61.39124 259
61.41135 252
61.43147 250
61.45158 267
61.4717 254
61.49181 273
61.51192 239
61.53204 238
61.55215 257
61.57226 293
61.59238 254
61.61249 272
61.63261 254
61.65272 259
61.67283 268
61.69295 274
61.71306 256
61.73317 270
61.75329 270
61.7734 293
61.79352 289
61.81363 277
61.83374 277
61.85386 285
61.87397 273
61.89408 314
61.9142 303
61.93431 296
61.95442 297
61.97454 320
61.99465 313
62.01477 306
62.03488 324
62.05499 316
62.07511 339
62.09522 359
62.11533 361
62.13545 388
62.15556 375
62.17568 365
62.19579 387
62.2159 397
62.23602 397
62.25613 385
62.27624 339
62.29636 343
62.31647 360
62.33659 352
62.3567 331
62.37681 327
62.39693 309
62.41704 288
62.43715 288
62.45727 287
62.47738 290
62.49749 273
62.51761 247
62.53772 280
62.55784 280
62.57795 265
62.59806 260
62.61818 245
62.63829 258
62.6584 238
62.67852 256
62.69863 247
62.71875 236
62.73886 238
62.75897 262
62.77909 227
62.7992 244
62.81931 222
62.83943 259
62.85954 228
62.87965 220
62.89977 208
62.91988 205
62.94 256
62.96011 232
62.98022 212
63.00034 239
63.02045 237
63.04056 227
63.06068 214
63.08079 233
63.10091 240
63.12102 239
63.14113 242
63.16125 265
63.18136 244
63.20147 239
63.22159 225
63.2417 226
63.26182 217
63.28193 247
63.30204 222
63.32216 212
63.34227 263
63.36238 214
63.3825 261
63.40261 218
63.42272 238
63.44284 235
63.46295 250
63.48307 261
63.50318 248
63.52329 250
63.54341 249
63.56352 291
63.58363 261
63.60375 248
63.62386 269
63.64398 290
63.66409 234
63.6842 285
63.70432 294
63.72443 310
63.74454 265
63.76466 307
63.78477 310
63.80489 325
63.825 358
63.84511 354
63.86523 370
63.88534 419
63.90545 457
63.92557 445
63.94568 463
63.96579 461
63.98591 404
64.00602 382
64.02614 401
64.04625 340
64.06636 317
64.08648 337
64.10659 340
64.1267 321
64.14682 333
64.16693 333
64.18705 289
64.20716 261
64.22727 276
64.24739 245
64.2675 251
64.28761 218
64.30773 257
64.32784 209
64.34796 266
64.36807 240
64.38818 211
64.4083 252
64.42841 210
64.44852 225
64.46864 202
64.48875 221
64.50886 226
64.52898 223
64.54909 231
64.56921 228
64.58932 210
64.60943 213
64.62955 214
64.64966 226
64.66977 232
64.68989 215
64.71 221
64.73012 196
64.75023 202
64.77034 225
64.79046 193
64.81057 206
64.83068 193
64.8508 218
64.87091 208
64.89102 219
64.91114 200
64.93125 190
64.95137 189
64.97148 219
64.99159 209
65.01171 235
65.03182 224
65.05193 203
65.07205 197
65.09216 226
65.11228 192
65.13239 212
65.1525 240
65.17262 220
65.19273 224
65.21284 222
65.23296 225
65.25307 204
65.27319 204
65.2933 204
65.31341 227
65.33353 221
65.35364 226
65.37375 210
65.39387 220
65.41398 198
65.43409 196
65.45421 192
65.47432 214
65.49444 227
65.51455 206
65.53466 228
65.55478 221
65.57489 217
65.595 240
65.61512 255
65.63523 247
65.65535 252
65.67546 233
65.69557 235
65.71569 250
65.7358 240
65.75591 250
65.77603 234
65.79614 207
65.81626 234
65.83637 230
65.85648 262
65.8766 232
65.89671 237
65.91682 234
65.93694 238
65.95705 221
65.97716 230
65.99728 245
66.01739 232
66.03751 181
66.05762 202
66.07773 203
66.09785 207
66.11796 198
66.13807 206
66.15819 218
66.1783 218
66.19842 226
66.21853 245
66.23864 221
66.25876 207
66.27887 224
66.29898 194
66.3191 210
66.33921 210
66.35933 204
66.37944 235
66.39955 222
66.41967 206
66.43978 220
66.45989 224
66.48001 182
66.50012 226
66.52023 224
66.54035 203
66.56046 206
66.58058 221
66.60069 207
66.6208 199
66.64092 234
66.66103 196
66.68114 203
66.70126 214
66.72137 229
66.74149 232
66.7616 220
66.78171 216
66.80183 217
66.82194 200
66.84205 213
66.86217 219
66.88228 243
66.90239 227
66.92251 208
66.94262 234
66.96274 215
66.98285 187
67.00296 241
67.02308 206
67.04319 219
67.0633 214
67.08342 215
67.10353 193
67.12365 220
67.14376 217
67.16387 264
67.18399 239
67.2041 249
67.22421 237
67.24433 239
67.26444 255
67.28456 245
67.30467 250
67.32478 279
67.3449 284
67.36501 260
67.38512 313
67.40524 322
67.42535 377
67.44546 375
67.46558 408
67.48569 398
67.50581 459
67.52592 499
67.54603 601
67.56615 670
67.58626 764
67.60637 808
67.62649 925
67.6466 897
67.66672 947
67.68683 934
67.70694 799
67.72706 752
67.74717 691
67.76728 649
67.7874 668
67.80751 730
67.82763 743
67.84774 683
67.86785 765
67.88797 777
67.90808 741
67.92819 763
67.94831 822
67.96842 855
67.98853 931
68.00865 1045
68.02876 1085
68.04888 1161
68.06899 1224
68.0891 1200
68.10922 1151
68.12933 1083
68.14944 1026
68.16956 1072
68.18967 1146
68.20979 1068
68.2299 1122
68.25001 1068
68.27013 1004
68.29024 874
68.31035 759
68.33047 660
68.35058 631
68.3707 536
68.39081 537
68.41092 479
68.43104 493
68.45115 448
68.47126 407
68.49138 352
68.51149 329
68.5316 285
68.55172 265
68.57183 267
68.59195 225
68.61206 239
68.63217 245
68.65229 241
68.6724 259
68.69251 240
68.71263 260
68.73274 235
68.75286 247
68.77297 242
68.79308 218
68.8132 231
68.83331 241
68.85342 231
68.87354 221
68.89365 261
68.91376 231
68.93388 237
68.95399 220
68.97411 219
68.99422 217
69.01433 222
69.03445 221
69.05456 207
69.07467 239
69.09479 214
69.1149 204
69.13502 226
69.15513 218
69.17524 203
69.19536 201
69.21547 204
69.23558 227
69.2557 217
69.27581 217
69.29593 229
69.31604 232
69.33615 208
69.35627 217
69.37638 197
69.39649 207
69.41661 204
69.43672 215
69.45683 203
69.47695 196
69.49706 198
69.51718 182
69.53729 199
69.5574 174
69.57752 200
69.59763 175
69.61774 189
69.63786 195
69.65797 213
69.67809 198
69.6982 198
69.71831 210
69.73843 216
69.75854 213
69.77865 225
69.79877 212
69.81888 199
69.839 202
69.85911 206
69.87922 194
69.89934 223
69.91945 201
69.93956 198
69.95968 199
69.97979 234
69.9999 224
70.02002 207
70.04013 195
70.06025 205
70.08036 196
70.10047 197
70.12059 219
70.1407 209
70.16081 229
70.18093 204
70.20104 221
70.22116 194
70.24127 190
70.26138 190
70.2815 206
70.30161 194
70.32172 221
70.34184 200
70.36195 226
70.38207 206
70.40218 205
70.42229 223
70.44241 196
70.46252 200
70.48263 186
70.50275 189
70.52286 201
70.54297 186
70.56309 210
70.5832 205
70.60332 204
70.62343 193
70.64354 206
70.66366 203
70.68377 196
70.70388 185
70.724 194
70.74411 210
70.76423 220
70.78434 191
70.80445 189
70.82457 171
70.84468 203
70.86479 183
70.88491 191
70.90502 205
70.92513 175
70.94525 182
70.96536 184
70.98548 185
71.00559 203
71.0257 179
71.04582 184
71.06593 194
71.08604 191
71.10616 179
71.12627 199
71.14639 199
71.1665 189
71.18661 192
71.20673 190
71.22684 176
71.24695 198
71.26707 189
71.28718 200
71.3073 182
71.32741 186
71.34752 191
71.36764 197
71.38775 189
71.40786 182
71.42798 186
71.44809 193
71.4682 201
71.48832 200
71.50843 214
71.52855 186
71.54866 193
71.56877 176
71.58889 227
71.609 202
71.62911 183
71.64923 206
71.66934 178
71.68946 202
71.70957 187
71.72968 191
71.7498 202
71.76991 189
71.79002 191
71.81014 191
71.83025 216
71.85037 217
71.87048 194
71.89059 227
71.91071 190
71.93082 176
71.95093 186
71.97105 171
71.99116 196
72.01127 201
72.03139 214
72.0515 179
72.07162 172
72.09173 229
72.11184 220
72.13196 176
72.15207 202
72.17218 202
72.1923 217
72.21241 192
72.23253 196
72.25264 191
72.27275 178
72.29287 190
72.31298 174
72.33309 232
72.35321 223
72.37332 169
72.39344 204
72.41355 205
72.43366 192
72.45378 191
72.47389 198
72.494 202
72.51412 193
72.53423 204
72.55434 187
72.57446 223
72.59457 209
72.61469 193
72.6348 212
72.65491 196
72.67503 205
72.69514 206
72.71525 211
72.73537 190
72.75548 218
72.7756 205
72.79571 222
72.81582 185
72.83594 194
72.85605 203
72.87616 230
72.89628 211
72.91639 200
72.9365 217
72.95662 202
72.97673 216
72.99685 222
73.01696 202
73.03707 211
73.05719 221
73.0773 255
73.09741 240
73.11753 260
73.13764 252
73.15776 256
73.17787 263
73.19798 245
73.2181 274
73.23821 309
73.25832 319
73.27844 344
73.29855 345
73.31867 412
73.33878 413
73.35889 427
73.37901 486
73.39912 477
73.41923 440
73.43935 378
73.45946 352
73.47957 314
73.49969 328
73.5198 338
73.53992 311
73.56003 303
73.58014 323
73.60026 338
73.62037 317
73.64048 305
73.6606 250
73.68071 251
73.70083 225
73.72094 254
73.74105 218
73.76117 212
73.78128 209
73.80139 201
73.82151 189
73.84162 185
73.86174 199
73.88185 200
73.90196 217
73.92208 216
73.94219 197
73.9623 206
73.98242 220
74.00253 194
74.02264 206
74.04276 198
74.06287 209
74.08299 224
74.1031 197
74.12321 187
74.14333 193
74.16344 211
74.18355 209
74.20367 186
74.22378 193
74.2439 196
74.26401 187
74.28412 194
74.30424 183
74.32435 194
74.34446 213
74.36458 180
74.38469 193
74.40481 164
74.42492 207
74.44503 205
74.46515 189
74.48526 196
74.50537 211
74.52549 193
74.5456 193
74.56571 202
74.58583 205
74.60594 187
74.62606 190
74.64617 218
74.66628 213
74.6864 205
74.70651 194
74.72662 179
74.74674 199
74.76685 212
74.78697 208
74.80708 199
74.82719 232
74.84731 193
74.86742 190
74.88753 204
74.90765 197
74.92776 200
74.94787 195
74.96799 190
74.9881 202
75.00822 213
