3.00117 20311.0729721305
3.02128 19972.9137827228
3.0414 18906
3.06151 18932.8799260273
3.08162 18168.2458434436
3.10174 17762.5316174827
3.12185 17370.7243010968
3.14197 16573.8280501071
3.16208 16315.2505091833
3.18219 15831.330268829
3.20231 15258.8706090532
3.22242 15145.651389972
3.24253 14478.9891336914
3.26265 14001.0762142261
3.28276 13607.8949660198
3.30288 13185.2734818959
3.32299 12857.3489636154
3.3431 11996
3.36322 11942.9012058339
3.38333 11493.0663161313
3.40344 11025.7034324433
3.42356 11018.4054402993
3.44367 10515.8457308193
3.46379 10110.1262387742
3.4839 9810
3.50401 9232.87998665578
3.52413 9241.69441263777
3.54424 8747.20891570641
3.56435 8576.4962514802
3.58447 8225.55039108972
3.60458 7947.21142616536
3.62469 7638.26987763456
3.64481 7067.8737933855
3.66492 7157.11478928535
3.68504 7007.22581368464
3.70515 6646.77619295995
3.72526 6609.88298010799
3.74538 5869.46335509897
3.76549 5831.01445462365
3.7856 5553
3.80572 5338.01504437086
3.82583 5358.58805197083
3.84595 4859.13667589081
3.86606 4847.734895068
3.88617 4817.46655160739
3.90629 4434.06103059087
3.9264 4484
3.94651 4030.85018358866
3.96663 3999.92459840188
3.98674 3782.51816183019
4.00686 3647.07612539573
4.02697 3607.19493277355
4.04708 3395.19357531621
4.0672 3306
4.08731 3222.82879501523
4.10742 2877.08348071687
4.12754 3226.03761484868
4.14765 2803.94134216476
4.16776 2766.76183938661
4.18788 2796.1215367159
4.20799 2614.04443654244
4.22811 2587.92785453343
4.24822 2388.99411279704
4.26833 2516.93517558084
4.28845 2324.96640949246
4.30856 2510.84220973334
4.32867 2323.46265294684
4.34879 2131.98798585963
4.3689 2271
4.38902 2166.85457849032
4.40913 2113.08112368047
4.42924 2181.94855324732
4.44936 2046.29951138303
4.46947 1997.88503299697
4.48958 2066.09783763592
4.5097 1894
4.52981 2037.99653749197
4.54992 1841.86659329067
4.57004 1875.10952160082
4.59015 1849.16104962062
4.61027 1829.89721697227
4.63038 1902.05199229586
4.65049 1753.04485297026
4.67061 1780.02321172027
4.69072 1768.95149593733
4.71083 1710.91228810613
4.73095 1679.03483618139
4.75106 1704.03601027929
4.77118 1656.01059635256
4.79129 1692.98631737818
4.8114 1694
4.83152 1708.96193725876
4.85163 1612.84325042569
4.87174 1559.01715379507
4.89186 1606.89617936301
4.91197 1622.04283534064
4.93209 1583.00449977605
4.9522 1603
4.97231 1587.99640537112
4.99243 1589.97326956873
5.01254 1540.87581824943
5.03265 1505.96071693285
5.05277 1518.10353087403
5.07288 1423.98388666726
5.09299 1543.95923316127
5.11311 1535.99611911932
5.13322 1571.03032661738
5.15334 1568.96962839182
5.17345 1555.9640597591
5.19356 1549.96804244011
5.21368 1555.05245006309
5.23379 1485.99847969477
5.2539 1562
5.27402 1552.95299817499
5.29413 1524.02052088007
5.31425 1538.8763970622
5.33436 1463.98963877629
5.35447 1547.91596492941
5.37459 1541.998023995
5.3947 1595
5.41481 1643.01173577301
5.43493 1632.92638173155
5.45504 1618.19663553102
5.47516 1746.01535264632
5.49527 1651.95087658185
5.51538 1824.88866903075
5.5355 1805
5.55561 1858.03535578951
5.57572 1887.98561647902
5.59584 1896.20073927999
5.61595 2058.69568080015
5.63606 2096.97746150348
5.65618 2110.01440323821
5.67629 2084.99467704281
5.69641 2141.03211841987
5.71652 2189.04276474086
5.73663 2259.17558379562
5.75675 2366.04341418397
5.77686 2341.87909191366
5.79697 2491.82527428044
5.81709 2486.0480030371
5.8372 2428
5.85732 2593.10787486265
5.87743 2550.78693161844
5.89754 2450.06678148134
5.91766 2582.79410929534
5.93777 2565.15430212834
5.95788 2438.12373140968
5.978 2325
5.99811 2243.00817518595
6.01823 2266.82000787621
6.03834 2057.82071189409
6.05845 2094.09295094428
6.07857 1943.15565101107
6.09868 1931.03473475585
6.11879 1833.04272787726
6.13891 1788.97630837434
6.15902 1701.8837837895
6.17913 1586.86384010396
6.19925 1510.77324738502
6.21936 1436.98705596175
6.23948 1495.97927704086
6.25959 1440.04009741608
6.2797 1383
6.29982 1352.96920690434
6.31993 1301.87770046804
6.34004 1239.03329443104
6.36016 1290.04185305277
6.38027 1185.1413612857
6.40039 1173.97433394239
6.4205 1211
6.44061 1125.97013316628
6.46073 1139.08692207207
6.48084 1192.05001906547
6.50095 1163.21472273662
6.52107 1071.06325972789
6.54118 1077.99956100061
6.56129 1063.99021380036
6.58141 1100.99488634306
6.60152 1042.95846791211
6.62164 1031.94102667941
6.64175 994.032562827817
6.66186 1017.1338898372
6.68198 902.019612706939
6.70209 972.993206603533
6.7222 902
6.74232 970.1158090182
6.76243 1022.89835021586
6.78255 884.752057416651
6.80266 885.888113253688
6.82277 924.011627266646
6.84289 882.018240952365
6.863 857
6.88311 823.022807320235
6.90323 889.94344787329
6.92334 790.011859983308
6.94346 883.014509399664
6.96357 777.02417449028
6.98368 877.944087392138
7.0038 819
7.02391 789.002826688548
7.04402 804.014393948954
7.06414 803.962940913047
7.08425 770.103357241516
7.10436 752.936050983764
7.12448 805.979592826023
7.14459 776.022381603914
7.16471 744.988300532715
7.18482 735.016000890647
7.20493 759.00189075541
7.22505 740.991773552598
7.24516 755.994062721769
7.26527 736.035264370967
7.28539 725.999248417441
7.3055 724
7.32562 691.970481236261
7.34573 668.958464515131
7.36584 666.12560251348
7.38596 761.893596481661
7.40607 733.114675092598
7.42618 678.994946269735
7.4463 719
7.46641 695.994641989207
7.48653 705.985005628021
7.50664 669.945689725791
7.52675 673.94235964925
7.54687 689.012456299146
7.56698 669.004594904946
7.58709 673.010579383394
7.60721 642.004376114161
7.62732 688.031065860634
7.64743 675.952393364996
7.66755 650.963565436124
7.68766 654.945390407649
7.70778 683.996195342851
7.72789 661.0122374375
7.748 652
7.76812 644.982377707368
7.78823 628.000386499116
7.80834 640.003574655386
7.82846 632.984995549536
7.84857 665.931385532053
7.86869 677.029578281353
7.8888 582
7.90891 597.029512761026
7.92903 648.030774317634
7.94914 641.985965517483
7.96925 638.055364995371
7.98937 603.0308620724
8.00948 603.00015970804
8.0296 595
8.04971 604.006873251846
8.06982 615.007352598827
8.08994 610.955340012551
8.11005 588.003215765433
8.13016 612.953938707447
8.15028 616.009989078158
8.17039 607.998965629488
8.1905 612
8.21062 595.000181400308
8.23073 618.04137495168
8.25085 623.939796564973
8.27096 605.934421493967
8.29107 659.999301443696
8.31119 609.012587495495
8.3313 628
8.35141 590.976303828582
8.37153 573.031204801298
8.39164 608.030229996996
8.41176 599.007348667967
8.43187 608.996198751618
8.45198 598.009362820959
8.4721 598
8.49221 591.991599334958
8.51232 575.999478692818
8.53244 594.049919999105
8.55255 587.165370078795
8.57266 525.926412590169
8.59278 626.962731152256
8.61289 585.004721343216
8.63301 627.000169246715
8.65312 574.978010844638
8.67323 591.975039021529
8.69335 541.974504471265
8.71346 577.968643608402
8.73357 548.051984329253
8.75369 546.984823997902
8.7738 578
8.79392 542.94693797977
8.81403 526.081746947398
8.83414 602.023057886077
8.85426 551.051479352491
8.87437 575.978923289043
8.89448 557.012391280431
8.9146 576
8.93471 588.983038517238
8.95483 534.966770262347
8.97494 569.126595980381
8.99505 597.114921963951
9.01517 511.078851516999
9.03528 527.950079572727
9.05539 560.998991279985
9.07551 540.990459746189
9.09562 546.029622486093
9.11573 587.056986232365
9.13585 602.971017458053
9.15596 571.078210691933
9.17608 540.019683569573
9.19619 536.991865221741
9.2163 569
9.23642 603.016246810104
9.25653 608.01535611697
9.27664 624.01107959352
9.29676 622.975434903816
9.31687 642.997037135312
9.33699 632.995082246842
9.3571 666
9.37721 670.997182253195
9.39733 672.019768570457
9.41744 689.013417562908
9.43755 684.010493757346
9.45767 686.993881378087
9.47778 673.044913956822
9.4979 619
9.51801 623.002295836345
9.53812 610.984928964918
9.55824 608.021947173719
9.57835 612.94289866785
9.59846 581.000184905214
9.61858 602.00940862887
9.63869 575.988536893798
9.6588 646
9.67892 628.939600048489
9.69903 583.007024922618
9.71915 619.030284563048
9.73926 595.034640687363
9.75937 599.00370216052
9.77949 574.017693835828
9.7996 554
9.81971 594.028067338814
9.83983 624.966320555721
9.85994 553.827652076212
9.88006 496.034481310553
9.90017 510.958710547787
9.92028 532.98247529233
9.9404 562
9.96051 592.971481092336
9.98062 507.009250444756
10.00074 596.058780724573
10.02085 526.174188046127
10.04097 536.890079236215
10.06108 599.005922665672
10.08119 531.033552637713
10.10131 525.026737601372
10.12142 574.984505516959
10.14153 517.980987548916
10.16165 561.062052155184
10.18176 545.012308673541
10.20187 559.009378445178
10.22199 525.014157925517
10.2421 515
10.26222 513.039805203421
10.28233 576.052288057086
10.30244 566.963218389757
10.32256 554.053503065517
10.34267 530.972762813051
10.36278 569.998426595176
10.3829 527
10.40301 537.022273313201
10.42313 572.992792977961
10.44324 529.906834042765
10.46335 508.99913999027
10.48347 517.985471539182
10.50358 520.006240370988
10.52369 517.992346819033
10.54381 534.994855777865
10.56392 512.007884159318
10.58403 531.954844743862
10.60415 479.034536975233
10.62426 545.966898638344
10.64438 507.993743760533
10.66449 564.992528263122
10.6846 529
10.70472 569.00983594975
10.72483 524.927387934038
10.74494 502.973851945245
10.76506 501.936010042152
10.78517 553.944136471129
10.80529 549.020233832496
10.8254 517
10.84551 565.015483482277
10.86563 568.021002027072
10.88574 588.969553610518
10.90585 538.105491827748
10.92597 530.983180573861
10.94608 546.975937745865
10.9662 560
10.98631 527.000017400523
11.00642 558.014925589443
11.02654 532.915948000715
11.04665 506.004445095475
11.06676 530.913229552286
11.08688 562.004710003612
11.10699 536.00471710425
11.1271 552
11.14722 540.974138573126
11.16733 512.961698408005
11.18745 507.066631963372
11.20756 548.947816092314
11.22767 551.000117053824
11.24779 555.003941484257
11.2679 541
11.28801 570.022768546534
11.30813 588.938837662156
11.32824 522.953868016942
11.34836 552.949112121676
11.36847 549.001788715509
11.38858 557.008777816386
11.4087 530
11.42881 541.02112755877
11.44892 584.012470283194
11.46904 536.791170757656
11.48915 463.881706620988
11.50927 580.92989135799
11.52938 523.057529270525
11.54949 530.982987260345
11.56961 563.020381280186
11.58972 598.002913174802
11.60983 564.930020715428
11.62995 547.079061167949
11.65006 587.02835178236
11.67017 534.020960221687
11.69029 579.975631133749
11.7104 590
11.73052 590.036717762557
11.75063 626.966274360066
11.77074 564.956358319174
11.79086 590.995430477685
11.81097 558.012310005022
11.83108 601.936924643644
11.8512 634
11.87131 589.985176436072
11.89143 595.0293602331
11.91154 610.022086388516
11.93165 601.113969304121
11.95177 545.033667001269
11.97188 579.927663313385
11.99199 639.991734565822
12.01211 619.990545409928
12.03222 611.975593190869
12.05234 568.928413564488
12.07245 563.053966823552
12.09256 589.976017230679
12.11268 570.048864254502
12.13279 525.005211685416
12.1529 545
12.17302 532.9709523737
12.19313 518.029733004463
12.21324 543.96547079286
12.23336 509.949200998495
12.25347 572.996417161258
12.27359 510.017169407346
12.2937 536
12.31381 522.987520146197
12.33393 519.036990736404
12.35404 551.020043076715
12.37415 535.042262677364
12.39427 531.998636322222
12.41438 531.995718924893
12.4345 521
12.45461 470.007145486396
12.47472 546.068544087917
12.49484 563.983783218444
12.51495 555.022978509016
12.53506 534.088956531865
12.55518 487.015662197843
12.57529 511.979363380145
12.5954 521
12.61552 455.983627460777
12.63563 499.072275081126
12.65575 512.983991618399
12.67586 511.96781916667
12.69597 544.943767012585
12.71609 554.02032487787
12.7362 488
12.75631 485.007129706115
12.77643 488.986193810137
12.79654 487.057069170079
12.81666 521.019193102068
12.83677 479.021423211633
12.85688 519.936588683796
12.877 544
12.89711 473.990523262305
12.91722 514.031862006
12.93734 508.991650366407
12.95745 521.978426635805
12.97757 519.000758237667
12.99768 520.012584165825
13.01779 495.010360213673
13.03791 489.001458818846
13.05802 495.009048747336
13.07813 503.004017202749
13.09825 497.972826003551
13.11836 482.043342243695
13.13847 464.005593658219
13.15859 475.990727786385
13.1787 489
13.19882 491.009665072903
13.21893 494.962643803052
13.23904 459.994537301843
13.25916 492.940805977645
13.27927 494.021566695647
13.29938 485.992908740211
13.3195 494
13.33961 455.979827668148
13.35973 438.012562027985
13.37984 466.073764400408
13.39995 493.97263049281
13.42007 494.991645494388
13.44018 505.000418935672
13.46029 481.022801738482
13.48041 454.015353396772
13.50052 515.024368452815
13.52064 485.934143007527
13.54075 497.134935888537
13.56086 544.020044622716
13.58098 488.041101215766
13.60109 489.993422123196
13.6212 482
13.64132 462.021206622737
13.66143 511.047102851456
13.68154 508.986465939225
13.70166 504.050187175103
13.72177 472.004733363124
13.74189 499.987253035576
13.762 494
13.78211 470.008850714706
13.80223 500.974873164731
13.82234 445.954512186139
13.84245 475.917717429594
13.86257 466.073748478157
13.88268 425.985275052672
13.9028 486
13.92291 489.98886132974
13.94302 460.964839256755
13.96314 443.045442530417
13.98325 486.946044061506
14.00336 466.081202514202
14.02348 445.981482958223
14.04359 477.998919694123
14.06371 445.986475417393
14.08382 457.043499083728
14.10393 494.999016975161
14.12405 465.964332813294
14.14416 481.962187540767
14.16427 479.033823514449
14.18439 470.980716849856
14.2045 523
14.22461 452.954845066431
14.24473 416.063827263848
14.26484 488.049956483111
14.28496 452.069601917088
14.30507 461.944943949672
14.32518 480.028536693885
14.3453 436
14.36541 480.014060994201
14.38552 468.98578997284
14.40564 465.973914053603
14.42575 444.020176022735
14.44587 451.994519573258
14.46598 448.991591098155
14.48609 459.008223544637
14.50621 435.007855151177
14.52632 485.031346576824
14.54643 472.958172235356
14.56655 457.999087282645
14.58666 463.994971728237
14.60677 452.041379333644
14.62689 426.002747167976
14.647 451
14.66712 470.953593950123
14.68723 408.015842203613
14.70734 484.087146893571
14.72746 470.993841467572
14.74757 491.052698953885
14.76768 428.987513709862
14.7878 512
14.80791 475.96909249087
14.82803 445.00000091965
14.84814 465.058344171018
14.86825 473.082582841188
14.88837 433.984328627151
14.90848 470.018052206084
14.92859 415.995837698524
14.94871 492.025090646084
14.96882 480.984717963175
14.98894 474.920395825664
15.00905 428.040130064798
15.02916 498.906218612496
15.04928 489.021977666329
15.06939 493.986920806641
15.0895 515
15.10962 479.952475822112
15.12973 459.042244789313
15.14984 499.989589610699
15.16996 447.085434672528
15.19007 445.97709356827
15.21019 447.009216593546
15.2303 436
15.25041 478.999611685973
15.27053 435.961517906166
15.29064 455.064242627345
15.31075 469.011063042847
15.33087 459.003993384536
15.35098 463.002890439521
15.3711 452
15.39121 454.001261421735
15.41132 459.017431822854
15.43144 467.938973489888
15.45155 412.087997880014
15.47166 429.883630461956
15.49178 490.962054848717
15.51189 484.02430811796
15.53201 444.008198553491
15.55212 496.018973493012
15.57223 468.973122176679
15.59235 479.005315149705
15.61246 455.064321704437
15.63257 433.015892336525
15.65269 442.980695448559
15.6728 481
15.69291 453.998421869408
15.71303 475.997582774501
15.73314 440.940982366519
15.75326 453.892543105065
15.77337 498.022973926269
15.79348 442.027812002262
15.8136 461
15.83371 443.985054550704
15.85382 427.002214623022
15.87394 460.137959559414
15.89405 516.032089205025
15.91417 454.053747283543
15.93428 487.927721556692
15.95439 532.010288018938
15.97451 490.008128123423
15.99462 543.991533911486
16.01473 472.949735478815
16.03485 506.073857311085
16.05496 482.115143874903
16.07508 442.9871828322
16.09519 482.995488057811
16.1153 452
16.13542 462.016134413151
16.15553 469.01215472908
16.17564 482.02237338773
16.19576 479.045823243886
16.21587 439.071692987945
16.23598 425.944172278541
16.2561 510
16.27621 477.97762900516
16.29633 457.981699144636
16.31644 448.008015139387
16.33655 467.935507110633
16.35667 485.990948032605
16.37678 477.022952524214
16.39689 456.001858572601
16.41701 471.009927494974
16.43712 486.013818610996
16.45724 488.957065829374
16.47735 448.903386077278
16.49746 438.946236371182
16.51758 473.994123570626
16.53769 449.010191712024
16.5578 453
16.57792 462.007341493537
16.59803 465.994702724899
16.61814 455.977626716287
16.63826 445.028475302767
16.65837 438.973713595701
16.67849 461.004141895495
16.6986 433
16.71871 470.022042135983
16.73883 488.98945108416
16.75894 469.967819987236
16.77905 456.067064153596
16.79917 425.015930954896
16.81928 445.960743426798
16.8394 470
16.85951 441.998745005111
16.87962 474.034247661909
16.89974 486.999506557282
16.91985 473.090017889371
16.93996 441.979713879831
16.96008 472.00799176475
16.98019 427.011382946806
17.00031 449.015159502926
17.02042 454.984959083571
17.04053 447.035812214339
17.06065 486.030573826685
17.08076 464.044081675939
17.10087 453.033698940114
17.12099 426.000709320566
17.1411 445
17.16121 445.020673633809
17.18133 498.987360246276
17.20144 448.001664869115
17.22156 504.954723019588
17.24167 460.083729908086
17.26178 449.963608883437
17.2819 486
17.30201 433.982692579594
17.32212 448.037558419537
17.34224 473.001519892758
17.36235 455.04895245173
17.38247 453.968604378229
17.40258 481.983702774299
17.42269 469.020623883304
17.44281 438.008738970829
17.46292 492.040114691808
17.48303 489.965617357036
17.50315 483.061907279592
17.52326 517.98540355863
17.54338 494.021363381343
17.56349 495.993765211219
17.5836 503
17.60372 488.973345045963
17.62383 470.014721668355
17.64394 512.112661127117
17.66406 553.969740746234
17.68417 546.023820348117
17.70428 537.002328298937
17.7244 536
17.74451 519.985170434989
17.76463 502.032858852884
17.78474 528.938115678837
17.80485 467.005811916091
17.82497 519.979729148329
17.84508 485.994712567547
17.86519 529.004014673074
17.88531 484.010547685821
17.90542 544.971596731732
17.92554 439.921605583881
17.94565 507.182374262805
17.96576 510.087396714105
17.98588 472.002904353705
18.00599 490.002280792569
18.0261 468
18.04622 499.997243723812
18.06633 451.930540230922
18.08645 451.105021627157
18.10656 496.975337439924
18.12667 482.994411507729
18.14679 507.997298284263
18.1669 490
18.18701 495.988218016034
18.20713 463.02715355447
18.22724 518.034462878237
18.24735 483.067855401865
18.26747 480.033059078981
18.28758 449.983103767337
18.3077 500
18.32781 473.999653944702
18.34792 507.009918778963
18.36804 482.975450418874
18.38815 493.998969763957
18.40826 469.062041157989
18.42838 456.986801527252
18.44849 489.979617524775
18.46861 497.973030453376
18.48872 421.971943373049
18.50883 463.093101165069
18.52895 494.993903217999
18.54906 471.056660350293
18.56917 469.938094191184
18.58929 520.99391101305
18.6094 491
18.62951 491.003571576637
18.64963 495.015863239165
18.66974 506.99670067662
18.68986 494.013752722258
18.70997 499.987492902023
18.73008 494.026447321197
18.7502 465
18.77031 483.010630642595
18.79042 488.993459057055
18.81054 495.081577801285
18.83065 541.996753738055
18.85077 478.145245426476
18.87088 429.948206348087
18.89099 532.973343424788
18.91111 529.01534298648
18.93122 599.021148494277
18.95133 553.938468659558
18.97145 548.98472253888
18.99156 539.952816065943
19.01168 591.960011178441
19.03179 590.017105927123
19.0519 580
19.07202 668.022367692547
19.09213 615.934555025691
19.11224 626.054246708012
19.13236 633.028200475846
19.15247 617.992111955305
19.17258 645.968316566579
19.1927 663
19.21281 664.006370138503
19.23293 693.054457364059
19.25304 707.946531261431
19.27315 668.009496526713
19.29327 720.878824178349
19.31338 754.062686904222
19.33349 651.019252085513
19.35361 703.032120605309
19.37372 717.981308601653
19.39384 700.00308261022
19.41395 714.001935764277
19.43406 701.003298076321
19.45418 712.000125003812
19.47429 704.992934370409
19.4944 729
19.51452 714.035686831913
19.53463 779.018694539199
19.55475 736.95672221583
19.57486 765.964013333207
19.59497 756.992521594554
19.61509 792.978761401707
19.6352 811
19.65531 808.028675964421
19.67543 890.030240376388
19.69554 852.991514158039
19.71565 892.986005836887
19.73577 858.004755296187
19.75588 900.969307037122
19.776 883
19.79611 871.029640705648
19.81622 944.992842623802
19.83634 880.997829681014
19.85645 963.830919261386
19.87656 951.121531970809
19.89668 903.006324345916
19.91679 939.973507336235
19.93691 950.968783168066
19.95702 851.933960285924
19.97713 844.011247374629
19.99725 847.052901567555
20.01736 875.993538696473
20.03747 871.939628769663
20.05759 926.007673364585
20.0777 849
20.09782 861.010765144744
20.11793 853.024139387782
20.13804 877.951467488165
20.15816 813.075747338003
20.17827 814.022061609417
20.19838 775.01656238977
20.2185 818
20.23861 894.00036710074
20.25872 837.963866502354
20.27884 837.953571955009
20.29895 791.027497691351
20.31907 820.975060541838
20.33918 809.00165739859
20.35929 824.000556200416
20.37941 797.986665315294
20.39952 785.994425250297
20.41963 793.05116298829
20.43975 853.173426798715
20.45986 893.026986221819
20.47998 857.003923020963
20.50009 901.972063404933
20.5202 921
20.54032 886.010707475893
20.56043 913.947509557098
20.58054 818.857447720489
20.60066 814.950484879279
20.62077 822.027675547351
20.64088 803.983641838493
20.661 845
20.68111 835.99665080964
20.70123 853.043938216938
20.72134 884.065684496075
20.74145 917.917797235849
20.76157 968.866812296008
20.78168 1067.94054221012
20.80179 1098.96917278963
20.82191 1178.01106305621
20.84202 1123.92419655117
20.86214 1092.04913814238
20.88225 1093.72010746991
20.90236 903.278654663171
20.92248 879.967745631972
20.94259 866.050201840076
20.9627 734
20.98282 773.087656873126
21.00293 818.953667032171
21.02305 744.879694731808
21.04316 744.000200224409
21.06327 721.034156958049
21.08339 713.000698890142
21.1035 702
21.12361 703.042578389645
21.14373 804.992734075378
21.16384 700.854546617249
21.18395 711.954292143542
21.20407 698.013389825039
21.22418 717.964748356063
21.2443 751
21.26441 757.989949431432
21.28452 738.015540829928
21.30464 775.01758817333
21.32475 749.044455098278
21.34486 744.060194850352
21.36498 689.040608613975
21.38509 691.981394501692
21.40521 738.018959527754
21.42532 750.987145176581
21.44543 726.970864771834
21.46555 716.972801378763
21.48566 706.993378570496
21.50577 717.998938617526
21.52589 697.017935184221
21.546 673
21.56612 725.085463783232
21.58623 776.939942281353
21.60634 667.807716728655
21.62646 646.926338300623
21.64657 691.968620600372
21.66668 665.066492933049
21.6868 632
21.70691 724.990439106786
21.72702 629.001146849823
21.74714 737.101734673304
21.76725 680.130518189729
21.78737 691.964710986687
21.80748 694.000167982475
21.82759 716.97412602417
21.84771 764.00100160733
21.86782 718.946052339079
21.88793 695.011907434869
21.90805 723.085862975219
21.92816 735.051945605817
21.94828 694.017119266087
21.96839 696.011038114538
21.9885 650
22.00862 655.003075929366
22.02873 653.033662180013
22.04884 675.93984097201
22.06896 612.048047234569
22.08907 637.980117820713
22.10919 635.978590332073
22.1293 703
22.14941 646.976200175105
22.16953 639.98955856873
22.18964 612.947583413417
22.20975 619.870371734836
22.22987 666.03470091264
22.24998 609.988685625976
22.27009 674.997818978445
22.29021 617.997690206664
22.31032 676.017374200482
22.33044 628.935313994313
22.35055 633.967597165671
22.37066 599.010371085879
22.39078 634.963177198465
22.41089 640.009857279062
22.431 608
22.45112 588.018508784484
22.47123 634.063367098259
22.49135 644.956128628911
22.51146 625.991842768526
22.53157 640.02027582734
22.55169 605.006217954571
22.5718 622
22.59191 620.009613382528
22.61203 658.03163579726
22.63214 628.845803785139
22.65225 563.982182618769
22.67237 614.989176009136
22.69248 571.014747879218
22.7126 607
22.73271 589.980365846057
22.75282 585.063847882202
22.77294 663.003739985256
22.79305 599.073276168688
22.81316 632.948135555873
22.83328 622.005513916213
22.85339 627.010893990111
22.87351 588.997139097476
22.89362 602.973124053286
22.91373 549.994946248854
22.93385 611.161838590069
22.95396 635.004532736893
22.97407 643.936559256227
22.99419 675.023871683674
23.0143 581
23.03442 630.070134367039
23.05453 638.897176325361
23.07464 545.905882655963
23.09476 583.815605714317
23.11487 653.999362205137
23.13498 609.018722789317
23.1551 634
23.17521 608.980214079426
23.19532 592.018431139901
23.21544 621.003471394191
23.23555 598.018513003236
23.25567 618.967162958891
23.27578 620.014459589567
23.29589 612.990952720564
23.31601 634.993372914712
23.33612 599.996030440061
23.35623 635.044028457487
23.37635 634.977129456365
23.39646 633.991506730032
23.41658 632.016734935524
23.43669 615.995487268647
23.4568 639
23.47692 632.03298258521
23.49703 665.920956602935
23.51714 558.91861971442
23.53726 603.939530256553
23.55737 585.004076003499
23.57749 619.98591925465
23.5976 615
23.61771 607.007330813538
23.63783 630.00979622455
23.65794 624.019643103663
23.67805 645.002862325174
23.69817 611.066024689149
23.71828 597.963092419584
23.73839 656.983278116772
23.75851 646.987834377603
23.77862 636.001270579438
23.79874 630.942915767619
23.81885 609.080598850207
23.83896 668.974419165848
23.85908 627.030024223346
23.87919 635.995626079019
23.8993 636
23.91942 664.990158260294
23.93953 629.99904204123
23.95965 657.979308325971
23.97976 617.01003937283
23.99987 664.925940501067
24.01999 676.008127888388
24.0401 652
24.06021 653.019917084381
24.08033 690.970103831896
24.10044 636.983453679995
24.12056 680.954181367361
24.14067 647.080496219523
24.16078 622.981357578674
24.1809 664
24.20101 665.995641693144
24.22112 653.975411005468
24.24124 618.933432013544
24.26135 610.926548549464
24.28146 654.953529961024
24.30158 652.996663536242
24.32169 663.006353236389
24.34181 640.00439384265
24.36192 669.998540080616
24.38203 645.017738442963
24.40215 693.057740347008
24.42226 672.047313411997
24.44237 672.982271588412
24.46249 681.996912838684
24.4826 681
24.50272 649.948785906295
24.52283 612.017324544377
24.54294 653.028585140149
24.56306 628.041600446243
24.58317 646.92345876995
24.60328 681.025241256849
24.6234 631
24.64351 670.992625729209
24.66362 603.975700240802
24.68374 632.997520342647
24.70385 599.956801913721
24.72397 674.914134337093
24.74408 672.031110569847
24.76419 647.008133503231
24.78431 665.037648717342
24.80442 741.998657953236
24.82453 670.921331433565
24.84465 681.073626878493
24.86476 695.981834401755
24.88488 702.003368946667
24.90499 692.003748581649
24.9251 684
24.94522 658.990543377518
24.96533 663.997908807396
24.98544 640.922308985804
25.00556 619.948951813129
25.02567 662.000519460776
25.04579 626.002911715558
25.0659 679
25.08601 701.967596750936
25.10613 612.98182129319
25.12624 678.084779259151
25.14635 649.124297351073
25.16647 619.029387116009
25.18658 630.925816475697
25.20669 699.019302941919
25.22681 585.973162069955
25.24692 628.041756775032
25.26704 634.059626284973
25.28715 684.016144735191
25.30726 660.950631463702
25.32738 719.000861479249
25.34749 666.003017353786
25.3676 727
25.38772 717.966229194294
25.40783 700.008735931108
25.42795 711.981624307434
25.44806 667.148790357322
25.46817 602.034374691278
25.48829 623.981343586679
25.5084 625
25.52851 569.014821201974
25.54863 653.03427154154
25.56874 595.917647031724
25.58886 611.961197729106
25.60897 596.054431966076
25.62908 576.978657159599
25.6492 622
25.66931 612.986458193085
25.68942 608.038324107191
25.70954 653.992441226866
25.72965 609.050080040901
25.74976 627.987139729075
25.76988 610.002473894491
25.78999 639.980399720895
25.81011 650.984001608902
25.83022 624.04104731163
25.85033 683.949750273321
25.87045 596.022226731542
25.89056 699.909014097032
25.91067 634.116792528814
25.93079 621.983497070063
25.9509 649
25.97102 612.978421744209
25.99113 621.018720677933
26.01124 618.978988003866
26.03136 622.929358252647
26.05147 662.003747535635
26.07158 626.016026054394
26.0917 656
26.11181 681.994484727821
26.13193 645.948520657979
26.15204 626.968503557068
26.17215 639.80258195511
26.19227 734.967324916152
26.21238 669.078889559915
26.23249 643.988944229741
26.25261 686.020519446493
26.27272 699.980796209856
26.29283 676.008782604241
26.31295 712.07963355991
26.33306 729.944998562426
26.35318 764.984061847873
26.37329 766.990358343182
26.3934 810
26.41352 840.033801079274
26.43363 909.178932146643
26.45374 1073.36996421671
26.47386 1226.82390017102
26.49397 1325.67642374806
26.51409 1632.87001868759
26.5342 1864
26.55431 2305.17212631052
26.57443 2474.13941766833
26.59454 2570.14988084048
26.61465 2601.03509996158
26.63477 2518.26122960942
26.65488 2254.32433489556
26.67499 1940.12681101473
26.69511 1713.8633223115
26.71522 1368.64230445445
26.73534 1079.62391320543
26.75545 950.65744649246
26.77556 796.21934895361
26.79568 757.998617025743
26.81579 756.007741288392
26.8359 724
26.85602 694.997064000153
26.87613 698.967139081543
26.89625 674.069592346721
26.91636 726.017753960584
26.93647 641.136500625316
26.95659 599.003161753876
26.9767 606
26.99681 613.000690537962
27.01693 610.996568827687
27.03704 622.069431355126
27.05716 656.005004078862
27.07727 612.082213704406
27.09738 579.008111866951
27.1175 597
27.13761 630.996951812859
27.15772 615.035745071826
27.17784 680.019045232673
27.19795 614.190696082627
27.21806 593.921626339298
27.23818 639.006361693236
27.25829 597.002266893244
27.27841 635.00619945497
27.29852 601.969673699868
27.31863 603.020291974379
27.33875 612.015186695931
27.35886 627.92702770271
27.37897 661.008959786321
27.39909 630.003140211592
27.4192 651
27.43932 633.010443925952
27.45943 674.038827335574
27.47954 667.980518754758
27.49966 683.914761250298
27.51977 729.963796322444
27.53988 733.989719434196
27.56 740
27.58011 715.037468582719
27.60023 834.024485806376
27.62034 738.860696944299
27.64045 762.874505715769
27.66057 774.039663896813
27.68068 722.066496551388
27.70079 669.010479219623
27.72091 688.024376361809
27.74102 712.957194831082
27.76113 642.981877247069
27.78125 684.012478870748
27.80136 641.027664817033
27.82148 664.009248733648
27.84159 621.004366113834
27.8617 671
27.88182 690.957672681907
27.90193 631.981651405725
27.92204 675.08792599244
27.94216 672.088193057589
27.96227 633.985080356724
27.98239 669.002527931919
28.0025 619
28.02261 613.989297616902
28.04273 586.032353077586
28.06284 631.978368746164
28.08295 576.019819557784
28.10307 608.043518778228
28.12318 534.99798574718
28.1433 620
28.16341 602.98790513695
28.18352 603.992823559667
28.20364 593.046102049642
28.22375 625.952224592191
28.24386 573.01239729695
28.26398 611.000624284907
28.28409 559.016454611622
28.3042 584
28.32432 622.014460903989
28.34443 608.947529991378
28.36455 564.887987521465
28.38466 548.929607945284
28.40477 600.982504432049
28.42489 560.024300442335
28.445 557
28.46511 595.975045949443
28.48523 506.998351472207
28.50534 588.062508952211
28.52546 537.068118528721
28.54557 566.936387735708
28.56568 576.019130531678
28.5858 548
28.60591 543.005234208177
28.62602 548.983552010771
28.64614 526.009090603853
28.66625 568.856261641716
28.68636 599.033915260484
28.70648 558.02201405729
28.72659 576.980385043323
28.74671 592.984738399845
28.76682 545.990277094652
28.78693 584.064226078871
28.80705 587.908972164252
28.82716 549.997048223267
28.84727 576.007444821791
28.86739 535.013037798634
28.8875 540
28.90762 545.048770987916
28.92773 609.01385309095
28.94784 571.988893510038
28.96796 597.045650485386
28.98807 532.033776548196
29.00818 571.962168733611
29.0283 581
29.04841 603.993787171015
29.06853 548.904795086501
29.08864 531.097357332356
29.10875 597.963421657077
29.12887 561.026999721265
29.14898 589.966704802243
29.16909 587.018767331844
29.18921 553.003268551469
29.20932 585.005508101535
29.22943 551.952351449856
29.24955 543.998268901209
29.26966 558.88981000422
29.28978 619.993147070782
29.30989 579.011262543944
29.33 611
29.35012 648.00309744967
29.37023 631.990755190751
29.39034 648.043432723152
29.41046 650.053798146909
29.43057 637.916132988448
29.45069 726.983735087988
29.4708 679
29.49091 668.022796984087
29.51103 692.88419694775
29.53114 583.017910890605
29.55125 715.727460304605
29.57137 720.055043024677
29.59148 719.950077419762
29.6116 789
29.63171 786.989631883373
29.65182 795.058252468866
29.67194 882.1429630029
29.69205 941.228609357093
29.71216 1040.92714609659
29.73228 1034.95758186591
29.75239 1117.98822982438
29.7725 1062
29.79262 1050.99973919604
29.81273 1025.92387942216
29.83285 962.85105717884
29.85296 907.130488224155
29.87307 851.019417907038
29.89319 857.016294128706
29.9133 780
29.93341 734.971345623907
29.95353 667.945216749876
29.97364 673.037369749222
29.99376 678.016706953016
30.01387 663.022791567183
30.03398 652.008492000056
30.0541 655
30.07421 681.998466246175
30.09432 664.013821160258
30.11444 702.015195006848
30.13455 678.006055969323
30.15467 697.019330654551
30.17478 654.017428567614
30.19489 688.970735451138
30.21501 733.009522546682
30.23512 729.987615176048
30.25523 742.086182081379
30.27535 804.008907982545
30.29546 769.976746327658
30.31557 826.972113515328
30.33569 803.99204373931
30.3558 861
30.37592 817.94908158003
30.39603 804.021809701719
30.41614 827.039519318731
30.43626 828.043823422084
30.45637 788.072742045205
30.47648 759.987104184486
30.4966 795
30.51671 774.980782719229
30.53683 739.958016978009
30.55694 723.996485531232
30.57705 728.001903859188
30.59717 720.010652676649
30.61728 705.039462295913
30.63739 660.007017814215
30.65751 680.010435108027
30.67762 673.972232451227
30.69773 670.090634718164
30.71785 756.077817998854
30.73796 711.124930699238
30.75808 687.984074645283
30.77819 716.991769285364
30.7983 704
30.81842 682.015032406336
30.83853 714.005746098492
30.85864 675.902803823541
30.87876 649.006335520572
30.89887 649.028354310944
30.91899 620.003809633373
30.9391 630
30.95921 601.991700700547
30.97933 606.003272476074
30.99944 598.997670744909
31.01955 601.030933240718
31.03967 578.01786107329
31.05978 585.984882348822
31.0799 585
31.10001 549.994114273357
31.12012 566.018146350815
31.14024 561.949802567599
31.16035 545.943666792702
31.18046 588.968854473925
31.20058 580.979998809601
31.22069 609.01798799121
31.2408 529
31.26092 562.020177911465
31.28103 540.978950213922
31.30115 553.023123163075
31.32126 541.045717560447
31.34137 527.988578530899
31.36149 543.999404759871
31.3816 525
31.40171 533.025616439744
31.42183 579.970710797064
31.44194 506.897432409969
31.46206 510.962445049251
31.48217 523.959385203029
31.50228 557.986889841158
31.5224 539
31.54251 521.007457422525
31.56262 542.98690193884
31.58274 502.9672211112
31.60285 522.952761684172
31.62297 516.030517941571
31.64308 497.015031637138
31.66319 498.985158577813
31.68331 528.99585097761
31.70342 491.982509482996
31.72353 512.041565319531
31.74365 521.990285707628
31.76376 520.970848230694
31.78387 544.978717936863
31.80399 544.001281078458
31.8241 535
31.84422 493.988452451161
31.86433 518.044158573323
31.88444 526.984386110967
31.90456 517.00232449449
31.92467 531.958852522207
31.94478 561.974317922829
31.9649 561
31.98501 506.992223068804
32.00513 530.019991756098
32.02524 503.905963485644
32.04535 482.913866501651
32.06547 541.96599921018
32.08558 516.026296466953
32.10569 505.013975092756
32.12581 476.0093964297
32.14592 524.009606327278
32.16604 490.974703640283
32.18615 522.088708635409
32.20626 524.061500684636
32.22638 495.990185766895
32.24649 529.995392463456
32.2666 516
32.28672 551.001017077913
32.30683 506.933513865769
32.32694 492.00066774664
32.34706 491.009355098074
32.36717 487.990332153552
32.38729 494.006110461798
32.4074 474
32.42751 487.995763325186
32.44763 456.973616996084
32.46774 481.11649699668
32.48785 524.039093285668
32.50797 479.998412112703
32.52808 520.000870764941
32.5482 477
32.56831 513.002478994139
32.58842 476.986274898273
32.60854 510.08242783141
32.62865 510.131173620246
32.64876 457.973122518818
32.66888 525.954302221134
32.68899 515.012981065257
32.7091 500
32.72922 479.999175444607
32.74933 491.998394575777
32.76945 476.990116552238
32.78956 498.924875368554
32.80967 519.031620358212
32.82979 479.006302948273
32.8499 506
32.87001 527.01263437384
32.89013 537.942571622463
32.91024 487.016477953048
32.93036 537.989795168765
32.95047 498.989693088611
32.97058 550.994188423361
32.9907 500
33.01081 533.023869710411
33.03092 559.011886684994
33.05104 563.994389966488
33.07115 540.142368644058
33.09127 487.993800511412
33.11138 545.942145144513
33.13149 566.00133026184
33.15161 550.983884414844
33.17172 522.000255552703
33.19183 539.997743629926
33.21195 523.021573182223
33.23206 547.024110060143
33.25217 506.016827509165
33.27229 535.98811657131
33.2924 539
33.31252 569.016193124625
33.33263 549.929846349964
33.35274 506.971498609227
33.37286 524.941949229164
33.39297 545.978336603129
33.41308 548.018062083347
33.4332 531
33.45331 570.015575650576
33.47343 570.972334027855
33.49354 558.01359789619
33.51365 574.99220452555
33.53377 558.028938392308
33.55388 541.027415986179
33.57399 520.990727844669
33.59411 561.006393999544
33.61422 532.965968637899
33.63434 523.020022315873
33.65445 553.134778729064
33.67456 595.021995282187
33.69468 546.031163496466
33.71479 574.962086101907
33.7349 620
33.75502 520.968711001109
33.77513 582.095562354495
33.79524 589.964204377059
33.81536 581.984314468925
33.83547 594.997665916301
33.85559 581.00846659766
33.8757 566
33.89581 547.999954034799
33.91593 563.017721773244
33.93604 583.114667741047
33.95615 639.036505393938
33.97627 574.038984702961
33.99638 618.941513764324
34.0165 639
34.03661 616.995688836779
34.05672 637.042547798274
34.07684 661.945342670924
34.09695 611.026469921139
34.11706 644.961697512422
34.13718 627.017962035754
34.15729 627.999020454992
34.17741 628.006560963668
34.19752 660.041139942247
34.21763 686.997581522989
34.23775 674.017432339146
34.25786 691.028516023414
34.27797 657.001088128798
34.29809 707.966227127132
34.3182 732
34.33831 658.984464046074
34.35843 687.053675533693
34.37854 700.020315302134
34.39866 712.997909619552
34.41877 700.0216510154
34.43888 698.985131355695
34.459 715
34.47911 709.008201986245
34.49922 750.039288353229
34.51934 758.951080467871
34.53945 730.995107114377
34.55957 765.943603315133
34.57968 771.03289563583
34.59979 744.984271337623
34.61991 807.007147841508
34.64002 763.96785224655
34.66013 774.023988589624
34.68025 779.032299468518
34.70036 799.980444417463
34.72047 796.997730083778
34.74059 797.012416225504
34.7607 770
34.78082 832.060155289601
34.80093 851.97996682896
34.82104 843.052058711243
34.84116 902.878386557875
34.86127 932.00629857505
34.88138 920.990061654457
34.9015 952
34.92161 940.976838086576
34.94173 908.045063815005
34.96184 954.936500268431
34.98195 860.114168008622
35.00207 866.076106451201
35.02218 764.037538117618
35.04229 824.960965637346
35.06241 845.984982694207
35.08252 804.982367536346
35.10264 797.914645636145
35.12275 752.074802404993
35.14286 832.945628928219
35.16298 766.09725349861
35.18309 735.963804898368
35.2032 836
35.22332 753.915994882651
35.24343 741.054760087851
35.26354 778.019538910776
35.28366 772.960471842902
35.30377 805.012473437265
35.32389 759.013952290594
35.344 783
35.36411 816.991971874155
35.38423 788.037375180223
35.40434 840.976794254979
35.42445 789.931377805067
35.44457 912.825448324991
35.46468 955.997238761156
35.4848 980
35.50491 1053.999307825
35.52502 978.929560513749
35.54514 982.137160952023
35.56525 1038.06989232126
35.58536 962.033467487663
35.60548 1022.95072001684
35.62559 1014.01255316975
35.64571 1000.99275713891
35.66582 974.966584478237
35.68593 957.025293968287
35.70605 977.9375018403
35.72616 915.083713802641
35.74627 919.9703324774
35.76639 916.01715362136
35.7865 873
35.80661 873.999967543555
35.82673 859.976249186438
35.84684 855.013512026059
35.86696 863.998587413466
35.88707 857.005527616932
35.90718 844.04565947404
35.9273 779
35.94741 770.005030397409
35.96752 784.021003837238
35.98764 772.829377870065
36.00775 663.100162318971
36.02787 705.930585004992
36.04798 708.010682133525
36.06809 705.003244030462
36.08821 686.986977950493
36.10832 672.012197472286
36.12843 696.006319127923
36.14855 679.986683851956
36.16866 687.019314614732
36.18878 671.979865757086
36.20889 710.999700142647
36.229 670
36.24912 674.002521120449
36.26923 668.018391908622
36.28934 698.040470049887
36.30946 688.066723072124
36.32957 666.968960958943
36.34968 710.981069808715
36.3698 688
36.38991 676.005424170983
36.41003 706.065913307938
36.43014 748.056651051803
36.45025 769.916645624886
36.47037 798.019270292785
36.49048 764.996591566937
36.51059 806.987070459021
36.53071 783.974958249314
36.55082 741.98050473742
36.57094 739.993646207081
36.59105 718.908476421666
36.61116 686.022551416684
36.63128 700.971681525838
36.65139 716.006252623082
36.6715 677
36.69162 651.017988743852
36.71173 692.034266122857
36.73184 674.923971299462
36.75196 640.051233803938
36.77207 640.940925367783
36.79219 683.001920165618
36.8123 653
36.83241 696.998987476579
36.85253 644.958313519877
36.87264 672.078042691886
36.89275 673.111352198494
36.91287 625.001668617786
36.93298 672.951407591184
36.9531 681
36.97321 649.993508360946
36.99332 649.985484331018
37.01344 628.010700243695
37.03355 649.024619378242
37.05366 613.021387209404
37.07378 642.965672973471
37.09389 642.020026244328
37.11401 589.983907911009
37.13412 592.019658860845
37.15423 607.00645028446
37.17435 610.042116219263
37.19446 637.958787450261
37.21457 635.037322308911
37.23469 607.006730982475
37.2548 626
37.27491 673.001548450715
37.29503 632.93484996185
37.31514 621.031261513776
37.33526 636.020270913895
37.35537 607.025457837432
37.37548 608.005683683634
37.3956 593
37.41571 611.011378953629
37.43582 621.997523512501
37.45594 624.051950765788
37.47605 644.089186716031
37.49617 571.061984678229
37.51628 598.933702661512
37.53639 639.010506859668
37.55651 597.006016393734
37.57662 650.005887451314
37.59673 612.013391507583
37.61685 666.016253358364
37.63696 606.105199688968
37.65708 611.957006733206
37.67719 646.998589145862
37.6973 633
37.71742 645.960103609069
37.73753 586.015879971494
37.75764 656.055926428819
37.77776 623.023783684003
37.79787 656.966112400473
37.81798 625.072275224774
37.8381 563
37.85821 595.019127144662
37.87833 621.050961872099
37.89844 647.968108890609
37.91855 602.066468372696
37.93867 619.941642346626
37.95878 644.003773994128
37.97889 612.023761992378
37.99901 593.020861986202
38.01912 655.009047719808
38.03924 618.99894907316
38.05935 663.043713934502
38.07946 632.0610007926
38.09958 622.017762889159
38.11969 590.011894626138
38.1398 584
38.15992 583.005039246766
38.18003 593.010920279795
38.20015 601.04894633452
38.22026 622.99239060123
38.24037 604.039015605772
38.26049 598.985701127686
38.2806 634
38.30071 605.994018047746
38.32083 614.985158199368
38.34094 583.971317614286
38.36105 592.003352741154
38.38117 583.970293662618
38.40128 622.985540832746
38.4214 606
38.44151 609.996977470826
38.46162 598.012074595403
38.48174 613.939385069428
38.50185 557.032259886127
38.52196 590.972941047288
38.54208 574.987156021784
38.56219 612.001170110609
38.58231 577.001328726219
38.60242 627.036678122824
38.62253 624.990581241396
38.64265 620.926256927963
38.66276 576.043350173746
38.68287 579.013127724311
38.70299 560.993980976585
38.7231 611
38.74321 617.96690141414
38.76333 540.999739991074
38.78344 597.009628781794
38.80356 549.984135942
38.82367 622.938253293153
38.84378 600.022956900695
38.8639 595
38.88401 539.987879851613
38.90412 563.034561981934
38.92424 585.040572078551
38.94435 603.98384177644
38.96447 594.029124458515
38.98458 580.997406037774
39.00469 591.998505858564
39.02481 579.991246748326
39.04492 579.02829310058
39.06503 615.013333758472
39.08515 583.876898774061
39.10526 562.934146794643
39.12538 608.010619208908
39.14549 559.001062071034
39.1656 611
39.18572 599.009818055891
39.20583 661.123547717892
39.22594 703.947959138508
39.24606 653.003916475566
39.26617 701.957673171514
39.28628 690.997240832249
39.3064 708
39.32651 658.993794877488
39.34663 699.066572860933
39.36674 731.0993939028
39.38685 774.048886379086
39.40697 711.046944287805
39.42708 740.954079946172
39.44719 749.019483205996
39.46731 698.992376100619
39.48742 716.001574087884
39.50754 669.844282174427
39.52765 610.991148380119
39.54776 643.971032863014
39.56788 628.003747685416
39.58799 635.013196510152
39.6081 581
39.62822 593.024557144825
39.64833 596.970453025387
39.66845 568.956219719002
39.68856 572.963729844603
39.70867 580.033195118713
39.72879 549.99901960121
39.7489 574
39.76901 540.992975937313
39.78913 567.058657059795
39.80924 599.061452979304
39.82935 608.098935585445
39.84947 553.014475005107
39.86958 593.963999251738
39.8897 575
39.90981 515.001347780262
39.92992 562.019143488886
39.95004 534.960428808654
39.97015 550.932400338223
39.99026 568.973862796731
40.01038 569.025507287506
40.03049 539.00023530692
40.05061 568.012148902646
40.07072 563.977790417916
40.09083 551.020712826573
40.11095 578.02224994775
40.13106 557.062762832093
40.15117 551.941372573521
40.17129 598.999960782135
40.1914 572
40.21152 632.016708982661
40.23163 605.016410181285
40.25174 661.052955982157
40.27186 619.149148845578
40.29197 574.976927315703
40.31208 618.987390778215
40.3322 587
40.35231 584.001032844064
40.37242 568.967722811116
40.39254 537.979459676018
40.41265 561.869620679274
40.43277 599.024749295283
40.45288 545.036481625126
40.47299 558.978564760591
40.49311 580.986168607952
40.51322 535.999068965862
40.53333 563.971252874525
40.55345 518.059102586269
40.57356 599.936405575879
40.59368 572.987124867837
40.61379 623.007398287022
40.6339 545
40.65402 576.022809263482
40.67413 554.96311857145
40.69424 570.115711293937
40.71436 617.04402792393
40.73447 549.049330241803
40.75458 581.951320208792
40.7747 603
40.79481 591.991953038503
40.81493 575.976682292585
40.83504 572.037286310025
40.85515 596.991222225713
40.87527 576.031267692501
40.89538 594.926195542126
40.91549 666.002978601074
40.93561 593.973659777854
40.95572 597.01094979007
40.97584 582.951896438284
40.99595 570.01179452067
41.01606 590.942240986175
41.03618 602.024910622954
41.05629 560.010794269478
41.0764 567
41.09652 570.024550129727
41.11663 611.039803076709
41.13675 609.971268841388
41.15686 598.038399945051
41.17697 568.055259532372
41.19709 549.988354001185
41.2172 587
41.23731 555.996779811812
41.25743 577.998015130044
41.27754 555.017020837467
41.29765 585.029669281739
41.31777 535.030963276459
41.33788 551.007287302838
41.358 509
41.37811 530.027614153286
41.39822 574.000716253454
41.41834 540.949103615772
41.43845 538.015501008047
41.45856 528.970773086966
41.47868 556.995802427601
41.49879 535.006686572439
41.51891 538.99776057855
41.53902 530.016328276772
41.55913 554.980504588473
41.57925 517.999077613652
41.59936 557.953332153315
41.61947 539.045666385605
41.63959 522.004494971522
41.6597 503
41.67982 471.021213076321
41.69993 532.064619808147
41.72004 540.024350251156
41.74016 554.052270622597
41.76027 504.022668879815
41.78038 529.985385380727
41.8005 528
41.82061 563.986618233835
41.84072 494.980011759525
41.86084 541.076774361476
41.88095 536.028190092342
41.90107 549.950014339837
41.92118 586.969921696933
41.94129 585.024540674329
41.96141 523.9891863065
41.98152 555.046226324959
42.00163 575.98778320428
42.02175 560.002911843159
42.04186 573.010814404375
42.06198 553.000429180587
42.08209 575.992009472787
42.1022 584
42.12232 624.011001367948
42.14243 597.952734219888
42.16254 589.021361985514
42.18266 603.98679198671
42.20277 593.03790075087
42.22289 586.978106864556
42.243 669
42.26311 686.973630762649
42.28323 615.963852540771
42.30334 652.090383595165
42.32345 666.018878044786
42.34357 659.987069017252
42.36368 675.997183844105
42.38379 664.003932113768
42.40391 657.98743862059
42.42402 621.982938748092
42.44414 624.989920462643
42.46425 593.88346451138
42.48436 560.004458440742
42.50448 577.991850767037
42.52459 564.009187745694
42.5447 556
42.56482 562.013630449167
42.58493 566.967884944579
42.60505 532.963286826622
42.62516 553.917580470316
42.64527 582.006015493461
42.66539 563.997528139046
42.6855 577
42.70561 513.984376227377
42.72573 540.068155744459
42.74584 556.955396207627
42.76595 532.942950484758
42.78607 581.991595566602
42.80618 528.059769144657
42.8263 520
42.84641 578.007706798613
42.86652 554.994329838506
42.88664 574.996836484235
42.90675 550.999733644897
42.92686 578.97383730849
42.94698 563.016356932214
42.96709 558.005163409664
42.98721 535.988543970056
43.00732 519.988574101179
43.02743 526.058274190033
43.04755 560.946091372606
43.06766 498.07179736804
43.08777 513.962062770762
43.10789 518.002778485438
43.128 523
43.14812 545.993693529667
43.16823 518.98393420974
43.18834 536.03902212383
43.20846 540.009381934373
43.22857 536.996810046193
43.24868 551.968063379812
43.2688 577
43.28891 560.017123488822
43.30902 616.993049846087
43.32914 538.860997057466
43.34925 531.921492504587
43.36937 552.025508096913
43.38948 522.989998345736
43.40959 560.998175589752
43.42971 523.989262787435
43.44982 535.004781619446
43.46993 516.972012360842
43.49005 524.092960312597
43.51016 554.039378680111
43.53028 497.039181046051
43.55039 498.993930147757
43.5705 503
43.59062 512.995622088298
43.61073 501.004462844382
43.63084 526.062916521608
43.65096 542.013138486885
43.67107 518.043857905821
43.69119 497.005395825868
43.7113 504
43.73141 537.003919874362
43.75153 523.996580758239
43.77164 533.984907716792
43.79175 513.000684850715
43.81187 534.982543562509
43.83198 515.040177986759
43.85209 488.994084832594
43.87221 527.014271419098
43.89232 520.969387227398
43.91244 498.014730037804
43.93255 534.100784290213
43.95266 549.0330424969
43.97278 511.043055325484
43.99289 485.001142938078
44.013 496
44.03312 495.002728228381
44.05323 516.062300001862
44.07335 549.988247234358
44.09346 518.033414908517
44.11357 528.986465482831
44.13369 524.000705168306
44.1538 526
44.17391 507.000001714189
44.19403 529.031991152612
44.21414 538.01425296012
44.23426 543.016154293835
44.25437 526.015984228653
44.27448 538.961346334298
44.2946 588
44.31471 591.977802738422
44.33482 546.011227647614
44.35494 584.957448214717
44.37505 517.030994512701
44.39516 582.87001570167
44.41528 584.047295623482
44.43539 538.004942362522
44.45551 551.995585263083
44.47562 524.003319719009
44.49573 574.092215091798
44.51585 581.808915900999
44.53596 491.006268220299
44.55607 571.910288622921
44.57619 547.03427826988
44.5963 511
44.61642 569.004011761105
44.63653 525.993798821214
44.65664 572.043786863052
44.67676 545.053054631653
44.69687 552.958672886843
44.71698 565.024047169746
44.7371 531
44.75721 564.004173412461
44.77732 537.984222909617
44.79744 570.145834415343
44.81755 604.196906068795
44.83767 490.990409056338
44.85778 590.986514880896
44.87789 498.019447531998
44.89801 560.024667576474
44.91812 543.978566887529
44.93823 556.036897417073
44.95835 563.956657760716
44.97846 528.077011321361
44.99858 514.974549638195
45.01869 556.988465616007
45.0388 538
45.05892 496.993965441841
45.07903 520.029415325155
45.09914 520.998228971835
45.11926 524.008289822017
45.13937 514.00512925729
45.15949 515.004553587945
45.1796 504
45.19971 534.012874408429
45.21983 526.933286915533
45.23994 490.041514262308
45.26005 548.933115544145
45.28017 531.008466762536
45.30028 551.995322904383
45.32039 523.018410831787
45.34051 512.011625718108
45.36062 539.994567299069
45.38074 521.050570387196
45.40085 560.918299956742
45.42096 474.068952523699
45.44108 505.993054689662
45.46119 479.987655890351
45.4813 550
45.50142 511.968867755385
45.52153 505.951821219706
45.54165 465.048110428737
45.56176 536.905328517189
45.58187 524.049417991835
45.60199 512.993564841103
45.6221 538
45.64221 545.996460377582
45.66233 550.061541948575
45.68244 590.954824697027
45.70256 515.109001864129
45.72267 522.942698588503
45.74278 549.993971922637
45.7629 532
45.78301 513.012442875515
45.80312 548.986560019024
45.82324 494.949874205374
45.84335 526.88052601302
45.86346 541.057672034833
45.88358 500.012635895477
45.90369 520.990236138651
45.92381 519.997118043361
45.94392 511.976673759263
45.96403 495.036671594689
45.98415 550.098105015092
46.00426 531.147519403303
46.02437 468.978879458556
46.04449 533.987136936921
46.0646 501
46.08472 512.9972509603
46.10483 492.008103387601
46.12494 530.064316672816
46.14506 533.023432802581
46.16517 517.036316187198
46.18528 494.007812714749
46.2054 490
46.22551 462.006615189349
46.24563 504.021217484768
46.26574 476.949192342413
46.28585 474.004951759977
46.30597 466.994495069565
46.32608 489.965048667445
46.34619 504.016525094213
46.36631 460.003947081251
46.38642 508.013569315651
46.40653 474.973518536292
46.42665 493.031266739517
46.44676 495.939943583768
46.46688 526.034333203885
46.48699 460.998435861027
46.5071 521
46.52722 465.98508610459
46.54733 510.030796429381
46.56744 477.936457554193
46.58756 485.930467975768
46.60767 512.008661695405
46.62779 480.014648199258
46.6479 475
46.66801 487.00001893642
46.68813 482.012319237659
46.70824 504.035979201329
46.72835 489.147335219804
46.74847 435.977466800862
46.76858 500.965858971462
46.78869 478.012995554834
46.80881 476.999088779337
46.82892 464.994419434534
46.84904 476.042490276973
46.86915 493.010461272765
46.88926 486.016285483355
46.90938 481.007401205
46.92949 473.00052550702
46.9496 477
46.96972 476.011447133311
46.98983 490.994598796614
47.00995 472.984697157543
47.03006 492.932234168765
47.05017 508.037574904737
47.07029 462.012944923306
47.0904 474
47.11051 482.990087827521
47.13063 439.925980105957
47.15074 414.022761693516
47.17086 458.879909558741
47.19097 508.952746716333
47.21108 506.045543604997
47.2312 451
47.25131 472.016487764396
47.27142 484.991751440053
47.29154 480.047818406344
47.31165 509.039506132647
47.33176 455.070658822
47.35188 455.004391264041
47.37199 440.994449842453
47.39211 485.024728421733
47.41222 509.996939404895
47.43233 482.93500060857
47.45245 445.963390188044
47.47256 461.921745115997
47.49267 498.975684057055
47.51279 482.022028572879
47.5329 444
47.55302 472.030433339779
47.57313 485.00691560746
47.59324 484.979757315015
47.61336 473.993800849651
47.63347 481.021153763155
47.65358 462.979388133776
47.6737 514
47.69381 493.976102533365
47.71393 455.982280186908
47.73404 470.04728050725
47.75415 477.05007219906
47.77427 445.027212161049
47.79438 454.973224158478
47.81449 466.013163539316
47.83461 433.006510467567
47.85472 482.022140577604
47.87483 473.026460873494
47.89495 508.970064986715
47.91506 463.9932744492
47.93518 509.998361027408
47.95529 459.012315913246
47.9754 483
47.99552 477.013519038016
48.01563 503.988776859797
48.03574 464.960597603554
48.05586 479.970844324247
48.07597 472.026547421418
48.09609 455.009178820364
48.1162 454
48.13631 487.983600559017
48.15643 433.046708296208
48.17654 521.014817456448
48.19665 449.031976780633
48.21677 506.997154861907
48.23688 433.042095767385
48.257 473
48.27711 500.993031550286
48.29722 479.008920037831
48.31734 499.950640909305
48.33745 454.036938171878
48.35756 511.997302851741
48.37768 443.053149838079
48.39779 454.979494151902
48.4179 486
48.43802 483.976036314714
48.45813 456.987813382388
48.47825 481.119401909199
48.49836 502.097083736685
48.51847 428.017944667201
48.53859 482.98046906398
48.5587 473
48.57881 475.989996912782
48.59893 444.005168840564
48.61904 476.013053666227
48.63916 449.028911941706
48.65927 465.967676043092
48.67938 466.02095827687
48.6995 441
48.71961 461.027493764243
48.73972 508.995242315882
48.75984 475.011357960301
48.77995 515.000333244051
48.80006 476.004393867557
48.82018 510.006496919645
48.84029 451.023119573228
48.86041 457.016604175958
48.88052 483.008867884191
48.90063 476.986394630663
48.92075 477.023881158836
48.94086 480.040176067543
48.96097 448.023602568475
48.98109 463.98246014507
49.0012 500
49.02132 501.956042804113
49.04143 453.007326978213
49.06154 495.007807400064
49.08166 459.004870985842
49.10177 487.026801190612
49.12188 433.003326307634
49.142 492
49.16211 487.992219606319
49.18223 492.024852668003
49.20234 511.035963987949
49.22245 511.079178978582
49.24257 474.002458826781
49.26268 500.991894927871
49.28279 488.992945459927
49.30291 524.001998271186
49.32302 487.966764834888
49.34313 481.001061212291
49.36325 474.978958087918
49.38336 474.970001942546
49.40348 490.006819750946
49.42359 469.002761372726
49.4437 485
49.46382 488.006477019715
49.48393 494.985034989722
49.50404 478.006973721618
49.52416 493.019901812891
49.54427 471.972509123009
49.56439 521.98858070015
49.5845 502
49.60461 498.99445212831
49.62473 475.980267094345
49.64484 480.014296744742
49.66495 484.971673146945
49.68507 494.016191717188
49.70518 465.027689868471
49.7253 471
49.74541 532.008067348655
49.76552 502.977977480197
49.78564 497.941033732996
49.80575 462.043452372626
49.82586 531.878038881725
49.84598 549.999176353083
49.86609 548.008199593121
49.8862 524
49.90632 536.031789190613
49.92643 573.047917578661
49.94655 584.966375414096
49.96666 577.926900347599
49.98677 625.020045309999
50.00689 580.986802793921
50.027 680
50.04711 678.989396569858
50.06723 673.992705981519
50.08734 663.991670530487
50.10746 657.058026872339
50.12757 620.01643104709
50.14768 629.010966438745
50.1678 593
50.18791 606.022447596289
50.20802 629.95643268963
50.22814 551.935977351556
50.24825 563.069978149631
50.26837 498.025095518592
50.28848 534.989055796751
50.30859 507.998511620713
50.32871 548.007911695973
50.34882 520.972359626116
50.36893 514.994489892564
50.38905 504.986374275226
50.40916 506.996738536209
50.42927 507.988159708274
50.44939 514.006181043504
50.4695 493
50.48962 508.007130364159
50.50973 504.011107185914
50.52984 533.076078778145
50.54996 552.032833793811
50.57007 510.061803903187
50.59018 491.000932273073
50.6103 493
50.63041 477.992876341193
50.65053 466.977935862095
50.67064 457.020820984762
50.69075 485.926280820114
50.71087 495.022741289225
50.73098 474.00449565938
50.75109 475.013319833015
50.77121 443.009326162866
50.79132 498.020825137536
50.81143 469.967563049449
50.83155 478.015377142915
50.85166 474.976318650031
50.87178 495.99988519108
50.89189 478.001621948714
50.912 481
50.93212 442.023725303553
50.95223 500.995571277821
50.97234 440.969152859916
50.99246 479.002261835742
51.01257 430.019426773978
51.03269 477.975236485738
51.0528 478
51.07291 445.009896383022
51.09303 496.024812001964
51.11314 463.940638960197
51.13325 465.968415446411
51.15337 473.986331672612
51.17348 482.001319853195
51.1936 472
51.21371 458.985821365778
51.23382 435.012738623764
51.25394 475.050624222242
51.27405 462.083224493658
51.29416 441.981312729331
51.31428 463.00139751428
51.33439 441.003315332787
51.3545 455
51.37462 449.01456071906
51.39473 483.032223509375
51.41485 470.912347024381
51.43496 438.030541945913
51.45507 442.98060646847
51.47519 455.991378509047
51.4953 459
51.51541 427.016425385369
51.53553 492.001907263602
51.55564 441.006582100168
51.57576 496.999550688052
51.59587 435.033503959529
51.61598 479.962062547339
51.6361 471
51.65621 465.002364519052
51.67632 474.011891595562
51.69644 490.044716331153
51.71655 496.088870708377
51.73667 453.981309596117
51.75678 509.972921850349
51.77689 486.012523003756
51.79701 476.987288729045
51.81712 442.998328641584
51.83723 476.043988291026
51.85735 483.009089961712
51.87746 497.956815733819
51.89757 504.041146145016
51.91769 457.016988812475
51.9378 462
51.95792 486.971593121749
51.97803 444.032674841511
51.99814 518.068627498036
52.01826 492.031407923342
52.03837 523.930509749926
52.05848 545.011404927774
52.0786 509
52.09871 483.003795404579
52.11883 516.053846452561
52.13894 523.942050837208
52.15905 483.045514126697
52.17917 502.940983949067
52.19928 525.013889412199
52.21939 497.000757857291
52.23951 515.996485991485
52.25962 498.032547065683
52.27974 541.908967260734
52.29985 432.886409351148
52.31996 492.838421035574
52.34008 512.042074018336
52.36019 463.000865840597
52.3803 500
52.40042 477.994367089645
52.42053 493.98761830804
52.44064 471.03519122433
52.46076 522.951946013581
52.48087 506.014434933478
52.50099 513.007754155035
52.5211 478
52.54121 496.006158003474
52.56133 474.930338069765
52.58144 447.054471105155
52.60155 509.896294369569
52.62167 499.057456345402
52.64178 466.01942334317
52.6619 472
52.68201 512.007706045053
52.70212 496.977568651556
52.72224 486.999469081279
52.74235 487.015725095641
52.76246 478.002796133105
52.78258 481.006115404122
52.80269 460.013908830337
52.8228 450
52.84292 494.029785640949
52.86303 508.043506887557
52.88315 525.874088286802
52.90326 445.030553860102
52.92337 505.921519509554
52.94349 503.010322510889
52.9636 492
52.98371 488.010805649878
53.00383 518.003889402558
53.02394 489.9474042904
53.04406 484.991644567207
53.06417 490.980943380557
53.08428 504.995337806343
53.1044 511
53.12451 547.003530080594
53.14462 519.970114132826
53.16474 507.992280890639
53.18485 514.924428017196
53.20497 546.005704745181
53.22508 514.017728359486
53.24519 517.005972378022
53.26531 494.002942276316
53.28542 526.015374939255
53.30553 514.992739577619
53.32565 523.995248027775
53.34576 520.939706957329
53.36587 551.057194187742
53.38599 477.004188703249
53.4061 542
53.42622 523.970047724191
53.44633 508.965141973354
53.46644 481.994974785305
53.48656 505.951723388504
53.50667 518.975691351066
53.52678 534.005395054216
53.5469 518
53.56701 546.015583493597
53.58713 540.911988875155
53.60724 470.958864451515
53.62735 505.909255395394
53.64747 518.972151501404
53.66758 538.015047061307
53.68769 507.995519487707
53.70781 556.016392095114
53.72792 549.985113589802
53.74804 535.934063517888
53.76815 512.083246906172
53.78826 576.956251818656
53.80838 537.046570594427
53.82849 525.993897902096
53.8486 551
53.86872 580.99400484963
53.88883 547.963051414312
53.90894 551.030323768216
53.92906 551.053857439553
53.94917 519.004431744883
53.96929 541.99419632229
53.9894 532
54.00951 529.985616768786
54.02963 489.991548151258
54.04974 516.019663655892
54.06985 507.950241101497
54.08997 548.986776771158
54.11008 521.01609546724
54.1302 536
54.15031 548.01503121053
54.17042 585.009391544505
54.19054 556.918069565067
54.21065 535.97902974083
54.23076 549.03239977175
54.25088 511.017870705268
54.27099 527.987556946447
54.29111 548.0143807801
54.31122 563.967501417015
54.33133 511.990417273442
54.35145 553.063988769105
54.37156 537.042822256093
54.39167 526.030824799517
54.41179 500.003371081401
54.4319 523
54.45201 550.000935813996
54.47213 532.975695848102
54.49224 521.958819958228
54.51236 500.993575346926
54.53247 524.974701221076
54.55258 522.007888015876
54.5727 521
54.59281 526.004394815605
54.61292 528.985946916703
54.63304 517.041144184322
54.65315 551.999328386629
54.67327 529.974456486235
54.69338 575.997020034459
54.71349 536.005391379491
54.73361 573.015539875064
54.75372 582.023660922503
54.77383 616.004053531909
54.79395 591.987901506707
54.81406 605.032021505968
54.83417 561.035345888924
54.85429 574.989765290834
54.8744 581
54.89452 582.998077338352
54.91463 567.951225517398
54.93474 549.06104826948
54.95486 603.965031868272
54.97497 568.066226500055
54.99508 557.978245864097
55.0152 582
55.03531 561.997581959656
55.05543 571.986135645078
55.07554 534.921929035694
55.09565 521.959416035972
55.11577 550.967029018553
55.13588 552.014516227703
55.15599 539.998342972197
55.17611 552.00059974725
55.19622 545.006775019617
55.21634 565.021139953672
55.23645 555.958939320869
55.25656 551.967430462791
55.27668 561.03372447593
55.29679 510.00327863829
55.3169 546
55.33702 521.98219473302
55.35713 528.003902444073
55.37724 513.966818777526
55.39736 515.94433460172
55.41747 539.030147085909
55.43759 496.003385221272
55.4577 537
55.47781 538.985250063018
55.49793 502.963039854703
55.51804 505.053543874936
55.53815 528.019769255854
55.55827 505.988412531043
55.57838 540.984415540708
55.5985 518
55.61861 495.993257917507
55.63872 498.028371624458
55.65884 530.003026917507
55.67895 508.011366255616
55.69906 524.996477512949
55.71918 499.029116838829
55.73929 503.973995562143
55.75941 558.999994816592
55.77952 515.983695775236
55.79963 545.035517177333
55.81975 540.990129109549
55.83986 547.003795599055
55.85997 531.027403256595
55.88009 520.002815029867
55.9002 511
55.92031 493.000390510304
55.94043 501.983415562217
55.96054 469.94917108936
55.98066 474.93595093661
56.00077 505.992834031459
56.02088 495.988247590153
56.041 517
56.06111 485.015924489487
56.08122 562.026172620448
56.10134 511.887346479449
56.12145 501.949535260472
56.14157 512.036188973904
56.16168 477.9950981315
56.18179 529.970996809098
56.20191 555.997937967079
56.22202 540.991310456899
56.24213 544.004684445347
56.26225 540.990409498066
56.28236 539.999396545336
56.30248 536.012257342997
56.32259 525.996514813632
56.3427 544
56.36282 545.016945553216
56.38293 577.033937435476
56.40304 564.904044489876
56.42316 526.959551579233
56.44327 590.932519048855
56.46338 592.005900603855
56.4835 605
56.50361 622.006896920817
56.52373 620.958173259816
56.54384 599.058088473346
56.56395 650.997438982115
56.58407 590.09010035268
56.60418 573.990681811751
56.62429 584.996123308933
56.64441 578.987295337294
56.66452 552.99836409264
56.68464 565.98644358023
56.70475 545.011625590053
56.72486 571.987939188684
56.74498 545.0288490002
56.76509 545.984125252973
56.7852 564
56.80532 495.985209395652
56.82543 541.048642219149
56.84554 527.960585129313
56.86566 525.996709627199
56.88577 521.011470016074
56.90589 514.003432861456
56.926 511
56.94611 515.995895761357
56.96623 511.041424409451
56.98634 553.016772071694
57.00645 519.092534557249
57.02657 498.036464243232
57.04668 482.973235978957
57.0668 529
57.08691 495.986937840509
57.10702 510.038370414842
57.12714 552.079709946509
57.14725 574.017464303312
57.16736 537.113622595291
57.18748 499.986564620644
57.20759 538.995608956645
57.22771 506.986222973261
57.24782 506.00304848652
57.26793 495.973708194846
57.28805 499.115749764488
57.30816 555.977772613138
57.32827 516.060691644705
57.34839 506.997815224761
57.3685 500
57.38861 476.001245864857
57.40873 501.026864485377
57.42884 501.00068590908
57.44896 496.068053714258
57.46907 453.011054810945
57.48918 482.975622260627
57.5093 471
57.52941 452.014260009746
57.54952 503.017845948341
57.56964 477.954982147691
57.58975 472.050234393646
57.60987 447.979570333067
57.62998 493.969011416543
57.65009 494.998582274925
57.67021 511.004198177129
57.69032 501.984406092306
57.71043 485.969011599648
57.73055 468.999362520126
57.75066 482.974635703988
57.77078 476.029637057764
57.79089 459.981350675872
57.811 518
57.83112 462.949051339275
57.85123 469.078287743297
57.87134 507.953135672128
57.89146 464.940739245609
57.91157 551.945374276105
57.93168 500.070258623534
57.9518 469
57.97191 474.002519755232
57.99203 470.983343942529
58.01214 465.02504270797
58.03225 491.941399391849
58.05237 490.047755000857
58.07248 459.991433282886
58.09259 490.001317044205
58.11271 463.00553582835
58.13282 502.997282232404
58.15294 445.897559929452
58.17305 440.049892945094
58.19316 470.908633985772
58.21328 503.015049200059
58.23339 472.989646713783
58.2535 515
58.27362 421.955581467541
58.29373 465.091611245138
58.31385 495.044759975028
58.33396 509.99715047813
58.35407 498.022187573848
58.37419 485.00843905499
58.3943 470
58.41441 483.007994252504
58.43453 478.946150398684
58.45464 431.950431128915
58.47475 455.834913261031
58.49487 511.005699960659
58.51498 464.026494316027
58.5351 476
58.55521 465.00446098539
58.57532 497.021941636281
58.59544 490.961568654776
58.61555 475.026425033582
58.63566 481.930484439955
58.65578 509.027190658467
58.67589 456.001672877836
58.69601 517.032139223877
58.71612 520.940019943249
58.73623 451.972216265199
58.75635 481.037656569937
58.77646 466.99415628691
58.79657 493.982043338581
58.81669 482.002925926848
58.8368 493
58.85691 480.984500629164
58.87703 446.967340121026
58.89714 455.081404303853
58.91726 500.960526043424
58.93737 485.045822318454
58.95748 463.010915438504
58.9776 461
58.99771 481.027318160905
59.01782 531.990877718892
59.03794 472.9154029498
59.05805 474.979135107194
59.07817 483.937084700392
59.09828 535.994241244992
59.11839 497.012950004309
59.13851 510.010089313355
59.15862 505.971944066177
59.17873 482.012668611336
59.19885 515.053393416807
59.21896 509.026717701846
59.23908 500.012751981326
59.25919 492.99169611005
59.2793 529
59.29942 530.965492197651
59.31953 485.965151142279
59.33964 493.028499881553
59.35976 498.990059517052
59.37987 514.952941826671
59.39998 548.981304598059
59.4201 541
59.44021 510.990840901915
59.46033 501.977970814802
59.48044 486.004798339793
59.50055 502.980038433708
59.52067 488.042566927793
59.54078 476.972040483195
59.56089 532.974673737479
59.58101 543.984712010932
59.60112 513.011967846909
59.62124 553.019430679099
59.64135 516.901484949316
59.66146 514.931096957753
59.68158 549.999803745258
59.70169 517.014539761792
59.7218 529
59.74192 581.006319657529
59.76203 549.975593093576
59.78215 572.080406249266
59.80226 599.927141758611
59.82237 633.989874878612
59.84249 618.004725492903
59.8626 618
59.88271 597.006793568694
59.90283 646.06902916481
59.92294 657.968353146088
59.94305 634.045906263909
59.96317 633.973262618885
59.98328 652.99633976168
60.0034 634
60.02351 609.998747180019
60.04362 636.048443516497
60.06374 671.987496005924
60.08385 632.087714463032
60.10396 646.8558431535
60.12408 699.053658361263
60.14419 591.012044394694
60.16431 670.031565420948
60.18442 645.935374949272
60.20453 606.006562407398
60.22465 633.021390866349
60.24476 622.976055471064
60.26487 645.030999548307
60.28499 599.000280994642
60.3051 645
60.32522 619.971926078855
60.34533 622.031482302631
60.36544 637.995757724244
60.38556 615.066279155521
60.40567 586.030427525448
60.42578 571.017130791258
60.4459 558
60.46601 566.992095452736
60.48612 534.989286017846
60.50624 549.010109429071
60.52635 547.92729137819
60.54647 588.007827307665
60.56658 543.022781883316
60.58669 564.986238136626
60.60681 568.995140124923
60.62692 562.002424845572
60.64703 566.991113517298
60.66715 549.963402695064
60.68726 546.990288401432
60.70738 552.995753464972
60.72749 545.01389406374
60.7476 530
60.76772 590.008773926824
60.78783 545.960998365569
60.80794 554.982029597586
60.82806 530.965502010046
60.84817 575.000318435918
60.86828 533.010042745741
60.8884 577
60.90851 565.961992010389
60.92863 501.046822496326
60.94874 598.094781863238
60.96885 562.096417511814
60.98897 557.023407968371
61.00908 533.982546810554
61.02919 579.992886900948
61.04931 548.985268087557
61.06942 556.03214154707
61.08954 571.938962976847
61.10965 532.045016588736
61.12976 586.993605898897
61.14988 529.03993571233
61.16999 556.96655916416
61.1901 604
61.21022 569.987298151625
61.23033 583.992685922337
61.25045 547.915777314451
61.27056 541.971197475263
61.29067 546.044495265902
61.31079 522.976108005028
61.3309 602
61.35101 535.984494518352
61.37113 577.066135271438
61.39124 573.935483968612
61.41135 555.944431131908
61.43147 597.977475823056
61.45158 568.04620992174
61.4717 543
61.49181 553.990776212726
61.51192 526.017310152334
61.53204 572.006154018844
61.55215 533.021594859541
61.57226 570.943070348186
61.59238 575.976658281277
61.61249 606.008706938936
61.63261 556.994896227705
61.65272 583.992733520571
61.67283 547.013858866695
61.69295 594.001143947133
61.71306 539.069574869486
61.73317 544.015370616704
61.75329 512.002313997693
61.7734 541
61.79352 537.000219534415
61.81363 546.996025843659
61.83374 541.044521999276
61.85386 576.994184549337
61.87397 538.064612898955
61.89408 539.941163442397
61.9142 603
61.93431 534.960224663237
61.95442 500.009437858143
61.97454 532.066001039835
61.99465 558.91447128559
62.01477 581.03600493765
62.03488 532.01845783673
62.05499 559.982528422622
62.07511 560.982606305246
62.09522 533.023645940087
62.11533 577.986682340102
62.13545 518.924179409566
62.15556 549.90690760517
62.17568 567.012650094407
62.19579 547.00237161153
62.2159 566
62.23602 585.003766404063
62.25613 579.997109696492
62.27624 578.972090622982
62.29636 556.027335175672
62.31647 561.972882946043
62.33659 570.008457674574
62.3567 552
62.37681 581.986738311011
62.39693 521.995064723322
62.41704 579.062633321114
62.43715 547.117673283495
62.45727 537.948112219756
62.47738 566.034837646261
62.49749 496.010140769213
62.51761 544.02505658606
62.53772 553.992776781792
62.55784 547.981392127737
62.57795 532.954231853572
62.59806 536.901038615327
62.61818 585.024515914088
62.63829 513.011349391571
62.6584 559
62.67852 542.961976832878
62.69863 514.974876944407
62.71875 499.941736979599
62.73886 491.917613913454
62.75897 557.95255307567
62.77909 528.029934024835
62.7992 491
62.81931 532.01994219722
62.83943 545.994874722168
62.85954 528.929425385587
62.87965 504.944372482114
62.89977 556.955174884685
62.91988 537.046023124421
62.94 510
62.96011 539.999410919101
62.98022 512.999560974939
63.00034 537.994153983029
63.02045 501.058636701204
63.04056 505.997243946312
63.06068 485.029689736767
63.08079 466.999498780054
63.10091 492.023264341666
63.12102 532.006879660685
63.14113 514.99168037318
63.16125 517.933916462516
63.18136 461.098846066866
63.20147 456.936236311199
63.22159 504.994801636997
63.2417 484
63.26182 498.985300276608
63.28193 464.003511744228
63.30204 507.059136359065
63.32216 496.050023367058
63.34227 481.010722327225
63.36238 476.006149798297
63.3825 489
63.40261 542.991767201763
63.42272 472.962304470921
63.44284 487.000647185979
63.46295 463.976151187134
63.48307 516.923667857392
63.50318 513.066692005736
63.52329 433.017283089835
63.54341 456.017328053366
63.56352 471.009264417635
63.58363 488.035751611027
63.60375 500.962208621512
63.62386 470.033882289609
63.64398 479.97958157061
63.66409 491.001050069277
63.6842 484
63.70432 482.978342279275
63.72443 448.973145790125
63.74454 455.019754036145
63.76466 459.977719979417
63.78477 479.969932373115
63.80489 489.002364526281
63.825 484
63.84511 498.995568155736
63.86523 481.023480548837
63.88534 526.054291352459
63.90545 517.041923717692
63.92557 506.029744808631
63.94568 483.00535141073
63.96579 497.991376962804
63.98591 508.005495866098
64.00602 517.998493156539
64.02614 503.966051500202
64.04625 497.016972992636
64.06636 503.026167141309
64.08648 483.993252454039
64.10659 508.998059851362
64.1267 482
64.14682 478.016333114434
64.16693 498.015955768634
64.18705 486.919542830873
64.20716 470.925161564722
64.22727 530.979096333344
64.24739 478.035890174059
64.2675 443
64.28761 482.020622555781
64.30773 502.000681127058
64.32784 497.003271428303
64.34796 489.091050374385
64.36807 432.020040720126
64.38818 462.979035747612
64.4083 453
64.42841 472.018388549982
64.44852 485.959032809044
64.46864 430.003268862815
64.48875 480.951687883185
64.50886 453.020770090472
64.52898 475.993021798173
64.54909 461.995300140126
64.56921 488.997058967462
64.58932 437.942319143198
64.60943 420.04620467347
64.62955 468.060589204916
64.64966 463.993318946313
64.66977 479.007368435981
64.68989 456.003687708891
64.71 471
64.73012 465.995167480618
64.75023 452.932598558954
64.77034 399.974825363495
64.79046 438.89372209345
64.81057 467.995915721573
64.83068 458.007120118588
64.8508 456
64.87091 447.007332904143
64.89102 467.987270539141
64.91114 426.952811038155
64.93125 437.956105216539
64.95137 444.989283477757
64.97148 453.001352241425
64.99159 453.987415734862
65.01171 489.004018590003
65.03182 461.966436197255
65.05193 447.00137760228
65.07205 455.022704213382
65.09216 468.943664001765
65.11228 483.03837129506
65.13239 427.99841197971
65.1525 476
65.17262 436.002372143633
65.19273 483.010703074595
65.21284 443.985148237617
65.23296 474.008785472172
65.25307 428.034213184977
65.27319 458.974726306414
65.2933 497
65.31341 499.982936745588
65.33353 441.918676628681
65.35364 423.042769234971
65.37375 462.922399627207
65.39387 472.994943679904
65.41398 482.984784979794
65.43409 486.012715149738
65.45421 444.986589863327
65.47432 443.004449577698
65.49444 458.095823566902
65.51455 504.972807340938
65.53466 456.020660832081
65.55478 503.95062977356
65.57489 508.015961314751
65.595 486
65.61512 529.998714606587
65.63523 483.961251019495
65.65535 504.068303458753
65.67546 504.047478594591
65.69557 484.983768613107
65.71569 509.00243530029
65.7358 481
65.75591 520.025306403546
65.77603 543.983090806482
65.79614 516.970668441374
65.81626 515.032929856589
65.83637 498.959650218621
65.85648 551.981019663273
65.8766 525
65.89671 527.003168099205
65.91682 522.993619148799
65.93694 530.056425837531
65.95705 542.123938281571
65.97716 465.047592178035
65.99728 514.936583616789
66.01739 531.01645537131
66.03751 484.989425487821
66.05762 500.025102286988
66.07773 513.006423945503
66.09785 508.961376479851
66.11796 510.897450919386
66.13807 572.002543762836
66.15819 520.008522066485
66.1783 555
66.19842 526.961549203496
66.21853 499.955918740283
66.23864 479.025520710558
66.25876 502.031402525051
66.27887 463.992285884545
66.29898 519.951545939965
66.3191 519
66.33921 492.003393804148
66.35933 510.975470012099
66.37944 465.961418387316
66.39955 486.94556919425
66.41967 483.025522436692
66.43978 474.989463668627
66.45989 480.017080068685
66.48001 427.99298440645
66.50012 471.063625098202
66.52023 510.006340247739
66.54035 486.917417609219
66.56046 462.030125965915
66.58058 458.989957694262
66.60069 481.982743894114
66.6208 495
66.64092 428.97002208273
66.66103 457.071245468102
66.68114 474.954370720723
66.70126 442.001708585905
66.72137 475.955828176765
66.74149 466.022583574138
66.7616 426
66.78171 466.018393096883
66.80183 471.981970572116
66.82194 450.932862453395
66.84205 419.028982275837
66.86217 439.929013947502
66.88228 476.00769655246
66.90239 441.006658654167
66.92251 464.012532395528
66.94262 469.999533375222
66.96274 459.929578220203
66.98285 421.994727619149
67.00296 445.996152372003
67.02308 417.020523186136
67.04319 438.970396361941
67.0633 495
67.08342 472.976630300795
67.10353 470.003839863221
67.12365 460.9431225791
67.14376 436.025647258521
67.16387 441.973637323887
67.18399 459.992954665765
67.2041 476
67.22421 498.996023622357
67.24433 466.965996504095
67.26444 469.018559005128
67.28456 475.975360158418
67.30467 490.989533768717
67.32478 483.01924228577
67.3449 463
67.36501 468.014308570772
67.38512 502.015497205057
67.40524 492.967778119114
67.42535 492.944999061035
67.44546 519.982659299709
67.46558 513.993774509267
67.48569 531.998901500187
67.50581 501.974603845911
67.52592 467.007011465758
67.54603 509.065790382567
67.56615 539.081011847278
67.58626 566.007142277932
67.60637 529.072261921062
67.62649 509.985440410714
67.6466 560
67.66672 535.952112974571
67.68683 507.0140065139
67.70694 533.003587802013
67.72706 514.98522522315
67.74717 545.988755265506
67.76728 521.019226757253
67.7874 526
67.80751 532.006733885842
67.82763 545.994260710213
67.84774 519.931644378605
67.86785 495.028529889243
67.88797 493.000700936558
67.90808 509.942012314157
67.92819 558.018811189248
67.94831 477.998665888521
67.96842 563.063561204332
67.98853 541.908587710183
68.00865 511.062703989045
68.02876 564.941924447072
68.04888 560.992400636843
68.06899 579.008836571609
68.0891 544
68.10922 588.997625643035
68.12933 541.986123649579
68.14944 586.06170298977
68.16956 574.037141313662
68.18967 560.051270096946
68.20979 532.983470970555
68.2299 596
68.25001 531.963455958022
68.27013 517.071226132602
68.29024 566.975604572847
68.31035 501.114957719038
68.33047 504.982935343362
68.35058 494.020441306342
68.3707 479
68.39081 473.994732888102
68.41092 468.01649863181
68.43104 501.050455569519
68.45115 497.929694403242
68.47126 466.033960402428
68.49138 474.972304896549
68.51149 492.008136250729
68.5316 461
68.55172 479.997602056208
68.57183 455.998202517619
68.59195 484.048374806668
68.61206 466.0923497802
68.63217 427.007021261583
68.65229 445.997551519
68.6724 444
68.69251 499.004940211965
68.71263 453.931511818435
68.73274 451.05955460019
68.75286 478.997978235866
68.77297 461.006382297216
68.79308 469.013960204816
68.8132 446
68.83331 490.007382382636
68.85342 455.955172810915
68.87354 438.018875897669
68.89365 446.056592104365
68.91376 410.998840412943
68.93388 444.983113869164
68.95399 431.004171071957
68.97411 447.011215131542
68.99422 473.043983573591
69.01433 499.939692336301
69.03445 434.000360558005
69.05456 496.938810467109
69.07467 459.07220232635
69.09479 449.98919908306
69.1149 467
69.13502 441.009630012796
69.15513 467.9686964467
69.17524 413.985820646513
69.19536 469.89059047037
69.21547 471.062877905794
69.23558 439.976359408431
69.2557 483
69.27581 427.003097574212
69.29593 490.020057311072
69.31604 435.933111383752
69.33615 459.923259746203
69.35627 466.995128756225
69.37638 469.016773018747
69.39649 436.014292329195
69.41661 422.996892203114
69.43672 426.023611519875
69.45683 451.997566492403
69.47695 439.053934355311
69.49706 478.014219530815
69.51718 421.046989144846
69.53729 432.969669862353
69.5574 484
69.57752 434.976331962151
69.59763 459.042130048041
69.61774 455.947669524747
69.63786 426.043264950986
69.65797 424.969281552618
69.67809 462.975006048388
69.6982 494
69.71831 442.974177990953
69.73843 422.009393184793
69.75854 436.011619563643
69.77865 439.939923224706
69.79877 475.974157444843
69.81888 463.024107245397
69.839 442
69.85911 428.004319417483
69.87922 451.014602557742
69.89934 447.98513110593
69.91945 439.955727356103
69.93956 427.962878177862
69.95968 460.993814251627
69.97979 448.990249096967
69.9999 482
70.02002 412.959499306948
70.04013 426.02517182181
70.06025 428.045245781583
70.08036 469.916482769552
70.10047 484.027523279456
70.12059 458.001971668328
70.1407 475
70.16081 456.986048897292
70.18093 436.986496057363
70.20104 449.080374196049
70.22116 484.023331574102
70.24127 432.066808558974
70.26138 440.938738931372
70.2815 509
70.30161 489.984363776662
70.32172 463.961717476679
70.34184 435.040582033269
70.36195 488.921566716681
70.38207 469.066798028728
70.40218 440.996393054489
70.42229 467.986528238789
70.44241 475.996545510226
70.46252 462.985760503904
70.48263 457.010778454704
70.50275 473.038585706077
70.52286 476.024472972689
70.54297 464.985664978032
70.56309 481.005618237415
70.5832 446
70.60332 462.039623705394
70.62343 496.018013464284
70.64354 487.97953580295
70.66366 482.025515504466
70.68377 474.966174658735
70.70388 508.000038244457
70.724 475
70.74411 482.005594061507
70.76423 477.979494198964
70.78434 468.003413037282
70.80445 471.034890762978
70.82457 453.981393181974
70.84468 484.994083576253
70.86479 462.006017459198
70.88491 481.01512319363
70.90502 489.974542809317
70.92513 455.995299888101
70.94525 490.095723071995
70.96536 495.067256401521
70.98548 450.023246556685
71.00559 461.986010133486
71.0257 479
71.04582 459.974667803921
71.06593 448.016512601926
71.08604 477.064439836506
71.10616 493.011455942744
71.12627 474.027694709593
71.14639 481.976655670157
71.1665 518
71.18661 446.998587885695
71.20673 505.014497644752
71.22684 444.915103837439
71.24695 463.906016387274
71.26707 485.978243460866
71.28718 500.985108582506
71.3073 508
71.32741 504.013842241114
71.34752 539.9932065684
71.36764 493.938869181591
71.38775 498.983035412255
71.40786 487.034534760568
71.42798 491.958646515727
71.44809 532.006991408089
71.4682 474
71.48832 481.017744127854
71.50843 487.010117996374
71.52855 501.037546899979
71.54866 508.008428331842
71.56877 496.019753413598
71.58889 482.010359377091
71.609 479
71.62911 531.994325011086
71.64923 464.937270376623
71.66934 471.999914993085
71.68946 458.951862338935
71.70957 500.018985067418
71.72968 450.996895491448
71.7498 504
71.76991 462.992700485049
71.79002 494.016874061287
71.81014 487.037307965236
71.83025 529.960799062941
71.85037 493.09534566593
71.87048 450.997112788768
71.89059 474.002465725365
71.91071 444.99952543349
71.93082 472.002878604203
71.95093 454.024256967106
71.97105 482.913451537668
71.99116 406.041401110134
72.01127 461.917217869047
72.03139 468.007411635162
72.0515 457
72.07162 442.983069701176
72.09173 433.010241749191
72.11184 453.039195750657
72.13196 464.979767600872
72.15207 472.005304794467
72.17218 454.028700256918
72.1923 440
72.21241 485.01486803104
72.23253 483.984163444066
72.25264 487.037085984852
72.27275 490.113692457771
72.29287 441.956203737399
72.31298 519.98232461187
72.33309 457.027367178124
72.35321 460.011062010415
72.37332 467.998983970522
72.39344 480.08341826487
72.41355 513.928923028286
72.43366 445.064302425854
72.45378 463.991749358682
72.47389 444.001901168662
72.494 467
72.51412 457.982107199155
72.53423 457.038905887153
72.55434 494.043503545792
72.57446 483.070410435819
72.59457 446.036189081984
72.61469 443.992422099718
72.6348 460
72.65491 454.998381828588
72.67503 463.025061773486
72.69514 469.962284454599
72.71525 442.009513429243
72.73537 461.984532438309
72.75548 461.977680059842
72.7756 487
72.79571 432.995797646932
72.81582 498.091792354152
72.83594 538.914816160416
72.85605 459.093304227617
72.87616 478.973461804255
72.89628 465.994661207093
72.91639 490.999439786879
72.9365 466
72.95662 484.016986053038
72.97673 483.993146728049
72.99685 476.950886406208
73.01696 452.024328410845
73.03707 444.044866288559
73.05719 414.989231262997
73.0773 478
73.09741 473.987013648446
73.11753 453.98071637886
73.13764 454.035578881023
73.15776 475.985620667729
73.17787 473.980629310891
73.19798 502.978384443667
73.2181 497
73.23821 456.981867686884
73.25832 447.026539840705
73.27844 490.057436029544
73.29855 494.003233835221
73.31867 497.999792858359
73.33878 488.017123272955
73.35889 472.004613307484
73.37901 468.998645250259
73.39912 469.011111401802
73.41923 489.027032045954
73.43935 505.060642372629
73.45946 538.932411009225
73.47957 542.073958207444
73.49969 476.012110889455
73.5198 503
73.53992 493.959128266699
73.56003 469.048529878239
73.58014 520.984684882329
73.60026 462.044510190364
73.62037 498.952986777338
73.64048 488.025342540041
73.6606 468
73.68071 448.999380105743
73.70083 467.03672986875
73.72094 488.039387462383
73.74105 499.019589989571
73.76117 478.027368619633
73.78128 476.984905723309
73.80139 492.00020606145
73.82151 476.993304378465
73.84162 475.003280058601
73.86174 474.988580013512
73.88185 464.974131059101
73.90196 461.983380749519
73.92208 471.004944424967
73.94219 461.994235597611
73.9623 484
73.98242 456.983271935008
74.00253 464.014681123378
74.02264 460.978901689884
74.04276 454.988876169459
74.06287 463.008482172837
74.08299 448.001856784836
74.1031 461
74.12321 462.995194021197
74.14333 457.018021380272
74.16344 484.048778203396
74.18355 474.146328343706
74.20367 413.998471573244
74.22378 465.969907830568
74.2439 456
74.26401 478.996031142694
74.28412 440.982709186166
74.30424 452.999248025755
74.32435 434.005096817006
74.34446 443.042523664867
74.36458 404.999134723845
74.38469 449.980753543987
74.40481 449.989754514801
74.42492 436.001727571701
74.44503 453.033940958113
74.46515 464.985678727937
74.48526 460.952016440723
74.50537 492.014509838845
74.52549 441.022304635756
74.5456 427
74.56571 427.013195900088
74.58583 470.04306813598
74.60594 462.931888339323
74.62606 433.005425221612
74.64617 456.959073445915
74.66628 468.99893672255
74.6864 460
74.70651 433.992293070756
74.72662 447.04546122283
74.74674 485.977530891663
74.76685 439.060372312895
74.78697 448.008098192421
74.80708 422.004895036499
74.82719 452.980121542259
74.84731 466.990074216717
74.86742 440.000831259768
74.88753 460.99812103947
74.90765 428.927781975024
74.92776 428.957326002409
74.94787 451.981580752207
74.96799 452.999355167289
74.9881 458
75.00822 449.987818342101
