3.00117 19681
3.02128 19340
3.0414 19164
3.06151 18500
3.08162 17803
3.10174 17293
3.12185 16820
3.14197 16339
3.16208 15716
3.18219 15449
3.20231 14987
3.22242 14250
3.24253 14320
3.26265 13786
3.28276 13313
3.30288 12682
3.32299 12237
3.3431 12194
3.36322 11446
3.38333 11302
3.40344 10645
3.42356 10470
3.44367 10283
3.46379 9745
3.4839 9427
3.50401 9200
3.52413 8655
3.54424 8701
3.56435 8040
3.58447 7955
3.60458 7482
3.62469 7392
3.64481 7110
3.66492 7004
3.68504 6666
3.70515 6402
3.72526 6152
3.74538 5876
3.76549 5468
3.7856 5364
3.80572 5199
3.82583 5007
3.84595 4787
3.86606 4584
3.88617 4377
3.90629 4181
3.9264 3830
3.94651 3851
3.96663 3566
3.98674 3503
4.00686 3303
4.02697 3179
4.04708 3136
4.0672 2950
4.08731 2870
4.10742 2646
4.12754 2500
4.14765 2558
4.16776 2460
4.18788 2282
4.20799 2061
4.22811 2174
4.24822 2095
4.26833 2108
4.28845 1842
4.30856 1790
4.32867 1818
4.34879 1783
4.3689 1753
4.38902 1692
4.40913 1604
4.42924 1535
4.44936 1576
4.46947 1586
4.48958 1423
4.5097 1363
4.52981 1372
4.54992 1389
4.57004 1408
4.59015 1242
4.61027 1274
4.63038 1175
4.65049 1261
4.67061 1234
4.69072 1172
4.71083 1106
4.73095 1062
4.75106 1167
4.77118 1148
4.79129 1003
4.8114 1045
4.83152 941
4.85163 1008
4.87174 976
4.89186 951
4.91197 900
4.93209 951
4.9522 938
4.97231 911
4.99243 858
5.01254 875
5.03265 839
5.05277 885
5.07288 818
5.09299 723
5.11311 741
5.13322 666
5.15334 685
5.17345 780
5.19356 667
5.21368 650
5.23379 686
5.2539 674
5.27402 656
5.29413 603
5.31425 606
5.33436 592
5.35447 609
5.37459 581
5.3947 570
5.41481 563
5.43493 573
5.45504 550
5.47516 562
5.49527 552
5.51538 512
5.5355 502
5.55561 538
5.57572 477
5.59584 490
5.61595 494
5.63606 512
5.65618 472
5.67629 453
5.69641 479
5.71652 507
5.73663 426
5.75675 438
5.77686 474
5.79697 416
5.81709 410
5.8372 437
5.85732 388
5.87743 415
5.89754 418
5.91766 429
5.93777 429
5.95788 407
5.978 420
5.99811 400
6.01823 431
6.03834 413
6.05845 370
6.07857 413
6.09868 411
6.11879 373
6.13891 377
6.15902 422
6.17913 435
6.19925 410
6.21936 399
6.23948 390
6.25959 383
6.2797 416
6.29982 402
6.31993 340
6.34004 387
6.36016 359
6.38027 381
6.40039 326
6.4205 357
6.44061 369
6.46073 356
6.48084 369
6.50095 298
6.52107 381
6.54118 342
6.56129 377
6.58141 334
6.60152 356
6.62164 371
6.64175 351
6.66186 353
6.68198 359
6.70209 355
6.7222 339
6.74232 311
6.76243 318
6.78255 344
6.80266 328
6.82277 352
6.84289 393
6.863 338
6.88311 375
6.90323 360
6.92334 330
6.94346 360
6.96357 338
6.98368 316
7.0038 346
7.02391 340
7.04402 353
7.06414 343
7.08425 331
7.10436 324
7.12448 352
7.14459 339
7.16471 316
7.18482 318
7.20493 349
7.22505 356
7.24516 325
7.26527 347
7.28539 355
7.3055 328
7.32562 341
7.34573 353
7.36584 273
7.38596 303
7.40607 329
7.42618 337
7.4463 340
7.46641 333
7.48653 365
7.50664 340
7.52675 330
7.54687 308
7.56698 313
7.58709 366
7.60721 323
7.62732 352
7.64743 300
7.66755 334
7.68766 350
7.70778 364
7.72789 333
7.748 332
7.76812 314
7.78823 367
7.80834 342
7.82846 352
7.84857 329
7.86869 368
7.8888 359
7.90891 375
7.92903 357
7.94914 382
7.96925 360
7.98937 350
8.00948 323
8.0296 349
8.04971 371
8.06982 369
8.08994 360
8.11005 382
8.13016 367
8.15028 319
8.17039 378
8.1905 342
8.21062 389
8.23073 386
8.25085 386
8.27096 384
8.29107 376
8.31119 339
8.3313 380
8.35141 405
8.37153 377
8.39164 408
8.41176 374
8.43187 420
8.45198 397
8.4721 363
8.49221 363
8.51232 436
8.53244 370
8.55255 412
8.57266 378
8.59278 377
8.61289 428
8.63301 398
8.65312 402
8.67323 414
8.69335 410
8.71346 380
8.73357 437
8.75369 409
8.7738 419
8.79392 416
8.81403 411
8.83414 396
8.85426 403
8.87437 363
8.89448 354
8.9146 369
8.93471 377
8.95483 336
8.97494 304
8.99505 344
9.01517 298
9.03528 331
9.05539 337
9.07551 305
9.09562 363
9.11573 335
9.13585 335
9.15596 288
9.17608 332
9.19619 342
9.2163 272
9.23642 301
9.25653 351
9.27664 290
9.29676 269
9.31687 326
9.33699 304
9.3571 330
9.37721 351
9.39733 298
9.41744 271
9.43755 303
9.45767 292
9.47778 310
9.4979 309
9.51801 279
9.53812 269
9.55824 299
9.57835 308
9.59846 287
9.61858 308
9.63869 310
9.6588 301
9.67892 287
9.69903 280
9.71915 336
9.73926 307
9.75937 264
9.77949 306
9.7996 278
9.81971 314
9.83983 296
9.85994 271
9.88006 284
9.90017 307
9.92028 327
9.9404 265
9.96051 300
9.98062 304
10.00074 296
10.02085 305
10.04097 308
10.06108 283
10.08119 291
10.10131 292
10.12142 297
10.14153 301
10.16165 303
10.18176 270
10.20187 287
10.22199 281
10.2421 288
10.26222 270
10.28233 277
10.30244 289
10.32256 276
10.34267 286
10.36278 307
10.3829 318
10.40301 313
10.42313 345
10.44324 320
10.46335 330
10.48347 347
10.50358 311
10.52369 323
10.54381 332
10.56392 326
10.58403 300
10.60415 288
10.62426 285
10.64438 291
10.66449 287
10.6846 285
10.70472 301
10.72483 277
10.74494 287
10.76506 282
10.78517 305
10.80529 273
10.8254 280
10.84551 319
10.86563 282
10.88574 301
10.90585 273
10.92597 265
10.94608 286
10.9662 278
10.98631 303
11.00642 282
11.02654 288
11.04665 304
11.06676 267
11.08688 294
11.10699 270
11.1271 277
11.14722 285
11.16733 259
11.18745 282
11.20756 281
11.22767 276
11.24779 293
11.2679 306
11.28801 261
11.30813 267
11.32824 279
11.34836 259
11.36847 304
11.38858 257
11.4087 279
11.42881 286
11.44892 284
11.46904 317
11.48915 270
11.50927 295
11.52938 256
11.54949 276
11.56961 305
11.58972 263
11.60983 281
11.62995 289
11.65006 277
11.67017 280
11.69029 318
11.7104 289
11.73052 287
11.75063 303
11.77074 303
11.79086 259
11.81097 283
11.83108 304
11.8512 277
11.87131 305
11.89143 317
11.91154 285
11.93165 314
11.95177 288
11.97188 349
11.99199 289
12.01211 290
12.03222 316
12.05234 325
12.07245 324
12.09256 308
12.11268 306
12.13279 277
12.1529 336
12.17302 292
12.19313 308
12.21324 287
12.23336 320
12.25347 261
12.27359 304
12.2937 308
12.31381 330
12.33393 295
12.35404 300
12.37415 278
12.39427 320
12.41438 289
12.4345 278
12.45461 294
12.47472 302
12.49484 315
12.51495 308
12.53506 263
12.55518 284
12.57529 273
12.5954 285
12.61552 276
12.63563 300
12.65575 237
12.67586 287
12.69597 307
12.71609 266
12.7362 282
12.75631 242
12.77643 269
12.79654 290
12.81666 276
12.83677 291
12.85688 266
12.877 275
12.89711 251
12.91722 249
12.93734 269
12.95745 261
12.97757 272
12.99768 271
13.01779 274
13.03791 287
13.05802 284
13.07813 273
13.09825 288
13.11836 307
13.13847 266
13.15859 276
13.1787 280
13.19882 247
13.21893 277
13.23904 282
13.25916 267
13.27927 284
13.29938 292
13.3195 262
13.33961 274
13.35973 266
13.37984 283
13.39995 287
13.42007 269
13.44018 253
13.46029 282
13.48041 292
13.50052 339
13.52064 308
13.54075 268
13.56086 334
13.58098 245
13.60109 330
13.6212 310
13.64132 325
13.66143 323
13.68154 306
13.70166 312
13.72177 284
13.74189 290
13.762 297
13.78211 377
13.80223 353
13.82234 395
13.84245 348
13.86257 319
13.88268 330
13.9028 321
13.92291 329
13.94302 282
13.96314 259
13.98325 297
14.00336 282
14.02348 309
14.04359 291
14.06371 266
14.08382 257
14.10393 270
14.12405 244
14.14416 275
14.16427 244
14.18439 257
14.2045 257
14.22461 257
14.24473 276
14.26484 266
14.28496 268
14.30507 232
14.32518 259
14.3453 246
14.36541 248
14.38552 248
14.40564 250
14.42575 275
14.44587 274
14.46598 238
14.48609 295
14.50621 250
14.52632 265
14.54643 237
14.56655 221
14.58666 246
14.60677 240
14.62689 231
14.647 240
14.66712 272
14.68723 252
14.70734 255
14.72746 255
14.74757 276
14.76768 264
14.7878 284
14.80791 261
14.82803 293
14.84814 263
14.86825 290
14.88837 277
14.90848 318
14.92859 333
14.94871 329
14.96882 284
14.98894 278
15.00905 276
15.02916 259
15.04928 286
15.06939 274
15.0895 284
15.10962 258
15.12973 264
15.14984 284
15.16996 289
15.19007 238
15.21019 276
15.2303 262
15.25041 244
15.27053 257
15.29064 238
15.31075 252
15.33087 271
15.35098 253
15.3711 259
15.39121 237
15.41132 229
15.43144 233
15.45155 237
15.47166 242
15.49178 260
15.51189 251
15.53201 222
15.55212 217
15.57223 236
15.59235 255
15.61246 231
15.63257 239
15.65269 236
15.6728 286
15.69291 264
15.71303 238
15.73314 252
15.75326 248
15.77337 285
15.79348 297
15.8136 274
15.83371 256
15.85382 263
15.87394 288
15.89405 261
15.91417 253
15.93428 279
15.95439 255
15.97451 231
15.99462 260
16.01473 218
16.03485 242
16.05496 265
16.07508 252
16.09519 233
16.1153 249
16.13542 244
16.15553 228
16.17564 228
16.19576 244
16.21587 243
16.23598 223
16.2561 256
16.27621 263
16.29633 244
16.31644 247
16.33655 247
16.35667 230
16.37678 274
16.39689 264
16.41701 268
16.43712 252
16.45724 252
16.47735 273
16.49746 280
16.51758 253
16.53769 227
16.5578 232
16.57792 247
16.59803 267
16.61814 243
16.63826 227
16.65837 262
16.67849 258
16.6986 238
16.71871 264
16.73883 238
16.75894 242
16.77905 227
16.79917 272
16.81928 225
16.8394 245
16.85951 248
16.87962 238
16.89974 262
16.91985 262
16.93996 269
16.96008 230
16.98019 276
17.00031 236
17.02042 242
17.04053 261
17.06065 253
17.08076 266
17.10087 257
17.12099 233
17.1411 244
17.16121 237
17.18133 261
17.20144 234
17.22156 258
17.24167 240
17.26178 248
17.2819 252
17.30201 234
17.32212 246
17.34224 245
17.36235 257
17.38247 257
17.40258 272
17.42269 288
17.44281 273
17.46292 286
17.48303 246
17.50315 264
17.52326 261
17.54338 250
17.56349 264
17.5836 291
17.60372 272
17.62383 270
17.64394 301
17.66406 284
17.68417 291
17.70428 256
17.7244 232
17.74451 242
17.76463 289
17.78474 244
17.80485 221
17.82497 272
17.84508 253
17.86519 287
17.88531 294
17.90542 294
17.92554 240
17.94565 267
17.96576 263
17.98588 262
18.00599 247
18.0261 232
18.04622 222
18.06633 254
18.08645 269
18.10656 236
18.12667 259
18.14679 247
18.1669 266
18.18701 214
18.20713 243
18.22724 277
18.24735 249
18.26747 261
18.28758 260
18.3077 225
18.32781 248
18.34792 274
18.36804 253
18.38815 274
18.40826 279
18.42838 256
18.44849 251
18.46861 241
18.48872 251
18.50883 249
18.52895 260
18.54906 209
18.56917 237
18.58929 260
18.6094 248
18.62951 271
18.64963 276
18.66974 250
18.68986 263
18.70997 278
18.73008 229
18.7502 272
18.77031 298
18.79042 282
18.81054 267
18.83065 232
18.85077 310
18.87088 250
18.89099 256
18.91111 276
18.93122 250
18.95133 252
18.97145 217
18.99156 251
19.01168 232
19.03179 260
19.0519 296
19.07202 300
19.09213 268
19.11224 289
19.13236 291
19.15247 262
19.17258 304
19.1927 299
19.21281 288
19.23293 253
19.25304 323
19.27315 317
19.29327 324
19.31338 298
19.33349 296
19.35361 339
19.37372 281
19.39384 340
19.41395 331
19.43406 361
19.45418 311
19.47429 381
19.4944 343
19.51452 342
19.53463 374
19.55475 386
19.57486 394
19.59497 386
19.61509 429
19.6352 435
19.65531 465
19.67543 523
19.69554 489
19.71565 475
19.73577 487
19.75588 507
19.776 493
19.79611 496
19.81622 488
19.83634 459
19.85645 476
19.87656 502
19.89668 438
19.91679 480
19.93691 461
19.95702 427
19.97713 418
19.99725 422
20.01736 411
20.03747 419
20.05759 394
20.0777 412
20.09782 437
20.11793 409
20.13804 428
20.15816 437
20.17827 395
20.19838 371
20.2185 409
20.23861 393
20.25872 349
20.27884 402
20.29895 397
20.31907 402
20.33918 430
20.35929 425
20.37941 425
20.39952 440
20.41963 426
20.43975 413
20.45986 435
20.47998 453
20.50009 435
20.5202 460
20.54032 435
20.56043 493
20.58054 535
20.60066 532
20.62077 574
20.64088 738
20.661 865
20.68111 1166
20.70123 1403
20.72134 1833
20.74145 2466
20.76157 3001
20.78168 3505
20.80179 3934
20.82191 3982
20.84202 3596
20.86214 3063
20.88225 2434
20.90236 1765
20.92248 1338
20.94259 1062
20.9627 875
20.98282 808
21.00293 823
21.02305 692
21.04316 630
21.06327 569
21.08339 486
21.1035 478
21.12361 446
21.14373 399
21.16384 423
21.18395 437
21.20407 378
21.22418 407
21.2443 390
21.26441 372
21.28452 370
21.30464 364
21.32475 357
21.34486 367
21.36498 329
21.38509 384
21.40521 384
21.42532 355
21.44543 363
21.46555 357
21.48566 365
21.50577 372
21.52589 353
21.546 358
21.56612 363
21.58623 346
21.60634 378
21.62646 367
21.64657 375
21.66668 348
21.6868 349
21.70691 352
21.72702 388
21.74714 322
21.76725 391
21.78737 342
21.80748 412
21.82759 410
21.84771 456
21.86782 530
21.88793 575
21.90805 704
21.92816 706
21.94828 834
21.96839 824
21.9885 818
22.00862 732
22.02873 702
22.04884 633
22.06896 566
22.08907 499
22.10919 435
22.1293 408
22.14941 393
22.16953 405
22.18964 359
22.20975 380
22.22987 358
22.24998 426
22.27009 376
22.29021 399
22.31032 383
22.33044 356
22.35055 317
22.37066 365
22.39078 365
22.41089 350
22.431 332
22.45112 350
22.47123 327
22.49135 330
22.51146 308
22.53157 362
22.55169 303
22.5718 349
22.59191 351
22.61203 350
22.63214 348
22.65225 337
22.67237 357
22.69248 336
22.7126 347
22.73271 364
22.75282 335
22.77294 352
22.79305 337
22.81316 356
22.83328 343
22.85339 387
22.87351 368
22.89362 392
22.91373 392
22.93385 447
22.95396 431
22.97407 422
22.99419 393
23.0143 437
23.03442 432
23.05453 437
23.07464 444
23.09476 445
23.11487 457
23.13498 443
23.1551 419
23.17521 433
23.19532 451
23.21544 371
23.23555 348
23.25567 363
23.27578 365
23.29589 406
23.31601 381
23.33612 378
23.35623 398
23.37635 411
23.39646 419
23.41658 454
23.43669 514
23.4568 557
23.47692 552
23.49703 562
23.51714 580
23.53726 573
23.55737 636
23.57749 544
23.5976 565
23.61771 467
23.63783 470
23.65794 459
23.67805 428
23.69817 456
23.71828 416
23.73839 451
23.75851 434
23.77862 402
23.79874 445
23.81885 433
23.83896 451
23.85908 427
23.87919 439
23.8993 474
23.91942 500
23.93953 541
23.95965 501
23.97976 505
23.99987 482
24.01999 491
24.0401 504
24.06021 538
24.08033 545
24.10044 529
24.12056 581
24.14067 581
24.16078 569
24.1809 592
24.20101 629
24.22112 654
24.24124 614
24.26135 620
24.28146 593
24.30158 626
24.32169 554
24.34181 490
24.36192 469
24.38203 436
24.40215 441
24.42226 393
24.44237 395
24.46249 418
24.4826 402
24.50272 331
24.52283 375
24.54294 359
24.56306 342
24.58317 375
24.60328 395
24.6234 350
24.64351 374
24.66362 366
24.68374 355
24.70385 348
24.72397 362
24.74408 331
24.76419 368
24.78431 346
24.80442 344
24.82453 308
24.84465 352
24.86476 391
24.88488 335
24.90499 323
24.9251 352
24.94522 423
24.96533 344
24.98544 353
25.00556 333
25.02567 345
25.04579 354
25.0659 375
25.08601 352
25.10613 332
25.12624 354
25.14635 388
25.16647 393
25.18658 372
25.20669 416
25.22681 362
25.24692 383
25.26704 399
25.28715 401
25.30726 418
25.32738 455
25.34749 480
25.3676 491
25.38772 532
25.40783 491
25.42795 506
25.44806 535
25.46817 553
25.48829 545
25.5084 524
25.52851 565
25.54863 549
25.56874 589
25.58886 554
25.60897 585
25.62908 569
25.6492 570
25.66931 530
25.68942 520
25.70954 500
25.72965 485
25.74976 462
25.76988 429
25.78999 471
25.81011 453
25.83022 435
25.85033 465
25.87045 446
25.89056 463
25.91067 433
25.93079 435
25.9509 469
25.97102 473
25.99113 466
26.01124 464
26.03136 519
26.05147 502
26.07158 530
26.0917 636
26.11181 616
26.13193 623
26.15204 653
26.17215 683
26.19227 705
26.21238 760
26.23249 830
26.25261 852
26.27272 945
26.29283 975
26.31295 1171
26.33306 1290
26.35318 1482
26.37329 1796
26.3934 2089
26.41352 2589
26.43363 3509
26.45374 4375
26.47386 5959
26.49397 8060
26.51409 10454
26.5342 12517
26.55431 14436
26.57443 15444
26.59454 15766
26.61465 14466
26.63477 12178
26.65488 9586
26.67499 7193
26.69511 5055
26.71522 3527
26.73534 2215
26.75545 1522
26.77556 1281
26.79568 1094
26.81579 1087
26.8359 858
26.85602 940
26.87613 879
26.89625 883
26.91636 797
26.93647 853
26.95659 793
26.9767 805
26.99681 764
27.01693 737
27.03704 731
27.05716 711
27.07727 698
27.09738 648
27.1175 561
27.13761 571
27.15772 582
27.17784 548
27.19795 612
27.21806 563
27.23818 613
27.25829 612
27.27841 644
27.29852 738
27.31863 837
27.33875 878
27.35886 837
27.37897 925
27.39909 1029
27.4192 985
27.43932 917
27.45943 904
27.47954 870
27.49966 838
27.51977 771
27.53988 810
27.56 744
27.58011 760
27.60023 857
27.62034 834
27.64045 931
27.66057 972
27.68068 930
27.70079 1038
27.72091 995
27.74102 1031
27.76113 1002
27.78125 997
27.80136 1119
27.82148 1187
27.84159 1217
27.8617 1269
27.88182 1340
27.90193 1311
27.92204 1249
27.94216 1157
27.96227 1049
27.98239 899
28.0025 814
28.02261 744
28.04273 675
28.06284 628
28.08295 633
28.10307 568
28.12318 595
28.1433 605
28.16341 589
28.18352 520
28.20364 606
28.22375 536
28.24386 562
28.26398 490
28.28409 523
28.3042 494
28.32432 465
28.34443 479
28.36455 424
28.38466 427
28.40477 446
28.42489 434
28.445 410
28.46511 381
28.48523 374
28.50534 397
28.52546 330
28.54557 367
28.56568 393
28.5858 337
28.60591 354
28.62602 356
28.64614 314
28.66625 347
28.68636 357
28.70648 331
28.72659 361
28.74671 340
28.76682 342
28.78693 325
28.80705 369
28.82716 385
28.84727 354
28.86739 306
28.8875 307
28.90762 303
28.92773 328
28.94784 368
28.96796 336
28.98807 355
29.00818 335
29.0283 339
29.04841 301
29.06853 377
29.08864 348
29.10875 331
29.12887 321
29.14898 332
29.16909 326
29.18921 358
29.20932 337
29.22943 347
29.24955 391
29.26966 372
29.28978 379
29.30989 389
29.33 433
29.35012 410
29.37023 439
29.39034 437
29.41046 453
29.43057 425
29.45069 390
29.4708 388
29.49091 395
29.51103 400
29.53114 370
29.55125 367
29.57137 374
29.59148 356
29.6116 403
29.63171 397
29.65182 404
29.67194 384
29.69205 394
29.71216 408
29.73228 407
29.75239 424
29.7725 406
29.79262 449
29.81273 417
29.83285 406
29.85296 410
29.87307 430
29.89319 443
29.9133 437
29.93341 419
29.95353 391
29.97364 410
29.99376 446
30.01387 439
30.03398 477
30.0541 489
30.07421 517
30.09432 489
30.11444 518
30.13455 555
30.15467 530
30.17478 517
30.19489 510
30.21501 511
30.23512 474
30.25523 467
30.27535 444
30.29546 476
30.31557 473
30.33569 521
30.3558 511
30.37592 458
30.39603 504
30.41614 475
30.43626 491
30.45637 458
30.47648 476
30.4966 426
30.51671 348
30.53683 417
30.55694 401
30.57705 395
30.59717 385
30.61728 382
30.63739 406
30.65751 412
30.67762 465
30.69773 435
30.71785 460
30.73796 413
30.75808 448
30.77819 435
30.7983 430
30.81842 411
30.83853 429
30.85864 434
30.87876 389
30.89887 405
30.91899 367
30.9391 355
30.95921 366
30.97933 296
30.99944 311
31.01955 329
31.03967 361
31.05978 353
31.0799 314
31.10001 352
31.12012 343
31.14024 338
31.16035 375
31.18046 351
31.20058 365
31.22069 362
31.2408 378
31.26092 358
31.28103 373
31.30115 327
31.32126 383
31.34137 348
31.36149 330
31.3816 333
31.40171 339
31.42183 325
31.44194 361
31.46206 320
31.48217 332
31.50228 290
31.5224 309
31.54251 307
31.56262 312
31.58274 306
31.60285 283
31.62297 295
31.64308 288
31.66319 273
31.68331 270
31.70342 321
31.72353 324
31.74365 303
31.76376 307
31.78387 311
31.80399 270
31.8241 279
31.84422 314
31.86433 279
31.88444 282
31.90456 270
31.92467 281
31.94478 325
31.9649 293
31.98501 295
32.00513 326
32.02524 296
32.04535 353
32.06547 308
32.08558 320
32.10569 316
32.12581 299
32.14592 335
32.16604 316
32.18615 335
32.20626 328
32.22638 342
32.24649 317
32.2666 318
32.28672 325
32.30683 331
32.32694 351
32.34706 351
32.36717 379
32.38729 324
32.4074 342
32.42751 373
32.44763 326
32.46774 340
32.48785 376
32.50797 342
32.52808 316
32.5482 314
32.56831 358
32.58842 260
32.60854 316
32.62865 311
32.64876 287
32.66888 288
32.68899 347
32.7091 332
32.72922 286
32.74933 280
32.76945 289
32.78956 328
32.80967 306
32.82979 289
32.8499 318
32.87001 324
32.89013 342
32.91024 320
32.93036 308
32.95047 336
32.97058 325
32.9907 298
33.01081 338
33.03092 336
33.05104 310
33.07115 336
33.09127 325
33.11138 311
33.13149 303
33.15161 316
33.17172 344
33.19183 322
33.21195 331
33.23206 336
33.25217 320
33.27229 314
33.2924 301
33.31252 301
33.33263 322
33.35274 299
33.37286 284
33.39297 311
33.41308 328
33.4332 262
33.45331 284
33.47343 275
33.49354 328
33.51365 299
33.53377 296
33.55388 253
33.57399 288
33.59411 302
33.61422 285
33.63434 272
33.65445 274
33.67456 314
33.69468 302
33.71479 337
33.7349 299
33.75502 317
33.77513 310
33.79524 344
33.81536 352
33.83547 342
33.85559 336
33.8757 329
33.89581 360
33.91593 313
33.93604 368
33.95615 331
33.97627 327
33.99638 283
34.0165 320
34.03661 374
34.05672 354
34.07684 317
34.09695 356
34.11706 391
34.13718 391
34.15729 396
34.17741 409
34.19752 415
34.21763 343
34.23775 375
34.25786 351
34.27797 414
34.29809 395
34.3182 404
34.33831 396
34.35843 400
34.37854 450
34.39866 413
34.41877 428
34.43888 391
34.459 420
34.47911 419
34.49922 476
34.51934 438
34.53945 473
34.55957 461
34.57968 482
34.59979 479
34.61991 514
34.64002 499
34.66013 492
34.68025 500
34.70036 491
34.72047 506
34.74059 513
34.7607 490
34.78082 487
34.80093 488
34.82104 514
34.84116 497
34.86127 513
34.88138 485
34.9015 540
34.92161 533
34.94173 517
34.96184 538
34.98195 534
35.00207 541
35.02218 512
35.04229 502
35.06241 466
35.08252 449
35.10264 482
35.12275 456
35.14286 488
35.16298 495
35.18309 444
35.2032 466
35.22332 426
35.24343 461
35.26354 437
35.28366 468
35.30377 448
35.32389 425
35.344 454
35.36411 436
35.38423 445
35.40434 438
35.42445 441
35.44457 486
35.46468 478
35.4848 470
35.50491 446
35.52502 479
35.54514 446
35.56525 446
35.58536 455
35.60548 417
35.62559 428
35.64571 417
35.66582 375
35.68593 395
35.70605 417
35.72616 390
35.74627 383
35.76639 378
35.7865 375
35.80661 369
35.82673 385
35.84684 374
35.86696 396
35.88707 392
35.90718 374
35.9273 391
35.94741 392
35.96752 377
35.98764 395
36.00775 325
36.02787 337
36.04798 344
36.06809 340
36.08821 349
36.10832 337
36.12843 363
36.14855 363
36.16866 361
36.18878 370
36.20889 380
36.229 412
36.24912 367
36.26923 454
36.28934 463
36.30946 510
36.32957 575
36.34968 678
36.3698 757
36.38991 947
36.41003 1014
36.43014 1170
36.45025 1276
36.47037 1366
36.49048 1447
36.51059 1321
36.53071 1183
36.55082 1014
36.57094 998
36.59105 817
36.61116 749
36.63128 582
36.65139 569
36.6715 533
36.69162 473
36.71173 453
36.73184 448
36.75196 427
36.77207 403
36.79219 409
36.8123 406
36.83241 400
36.85253 407
36.87264 365
36.89275 422
36.91287 378
36.93298 343
36.9531 351
36.97321 364
36.99332 398
37.01344 386
37.03355 369
37.05366 322
37.07378 339
37.09389 334
37.11401 362
37.13412 322
37.15423 315
37.17435 333
37.19446 325
37.21457 337
37.23469 349
37.2548 399
37.27491 349
37.29503 395
37.31514 364
37.33526 349
37.35537 336
37.37548 352
37.3956 343
37.41571 342
37.43582 294
37.45594 390
37.47605 399
37.49617 351
37.51628 369
37.53639 375
37.55651 369
37.57662 408
37.59673 396
37.61685 375
37.63696 364
37.65708 398
37.67719 346
37.6973 343
37.71742 332
37.73753 349
37.75764 330
37.77776 341
37.79787 319
37.81798 334
37.8381 299
37.85821 310
37.87833 303
37.89844 269
37.91855 286
37.93867 268
37.95878 299
37.97889 316
37.99901 296
38.01912 321
38.03924 295
38.05935 300
38.07946 287
38.09958 299
38.11969 312
38.1398 328
38.15992 299
38.18003 292
38.20015 293
38.22026 326
38.24037 286
38.26049 305
38.2806 317
38.30071 303
38.32083 278
38.34094 305
38.36105 293
38.38117 339
38.40128 287
38.4214 296
38.44151 293
38.46162 316
38.48174 333
38.50185 319
38.52196 309
38.54208 315
38.56219 324
38.58231 313
38.60242 344
38.62253 305
38.64265 323
38.66276 302
38.68287 313
38.70299 303
38.7231 314
38.74321 311
38.76333 336
38.78344 314
38.80356 335
38.82367 313
38.84378 328
38.8639 297
38.88401 317
38.90412 309
38.92424 321
38.94435 270
38.96447 322
38.98458 305
39.00469 310
39.02481 328
39.04492 314
39.06503 356
39.08515 317
39.10526 314
39.12538 333
39.14549 348
39.1656 371
39.18572 370
39.20583 417
39.22594 463
39.24606 519
39.26617 602
39.28628 655
39.3064 829
39.32651 897
39.34663 1003
39.36674 1180
39.38685 1217
39.40697 1183
39.42708 1194
39.44719 1105
39.46731 926
39.48742 827
39.50754 718
39.52765 689
39.54776 603
39.56788 525
39.58799 396
39.6081 359
39.62822 318
39.64833 342
39.66845 325
39.68856 306
39.70867 301
39.72879 327
39.7489 363
39.76901 270
39.78913 340
39.80924 319
39.82935 299
39.84947 313
39.86958 315
39.8897 296
39.90981 359
39.92992 341
39.95004 341
39.97015 370
39.99026 346
40.01038 360
40.03049 371
40.05061 374
40.07072 433
40.09083 456
40.11095 490
40.13106 585
40.15117 634
40.17129 706
40.1914 737
40.21152 742
40.23163 719
40.25174 661
40.27186 668
40.29197 605
40.31208 584
40.3322 542
40.35231 492
40.37242 438
40.39254 369
40.41265 393
40.43277 332
40.45288 314
40.47299 327
40.49311 317
40.51322 317
40.53333 329
40.55345 309
40.57356 297
40.59368 288
40.61379 297
40.6339 300
40.65402 298
40.67413 320
40.69424 288
40.71436 282
40.73447 288
40.75458 291
40.7747 316
40.79481 286
40.81493 303
40.83504 311
40.85515 319
40.87527 292
40.89538 309
40.91549 297
40.93561 310
40.95572 314
40.97584 358
40.99595 318
41.01606 294
41.03618 313
41.05629 294
41.0764 292
41.09652 305
41.11663 314
41.13675 330
41.15686 352
41.17697 338
41.19709 298
41.2172 305
41.23731 310
41.25743 303
41.27754 290
41.29765 277
41.31777 287
41.33788 298
41.358 323
41.37811 281
41.39822 291
41.41834 294
41.43845 295
41.45856 296
41.47868 336
41.49879 308
41.51891 338
41.53902 345
41.55913 307
41.57925 335
41.59936 354
41.61947 342
41.63959 343
41.6597 363
41.67982 418
41.69993 411
41.72004 370
41.74016 377
41.76027 360
41.78038 379
41.8005 352
41.82061 366
41.84072 339
41.86084 323
41.88095 329
41.90107 333
41.92118 326
41.94129 318
41.96141 312
41.98152 318
42.00163 361
42.02175 311
42.04186 326
42.06198 318
42.08209 305
42.1022 313
42.12232 352
42.14243 373
42.16254 392
42.18266 435
42.20277 423
42.22289 476
42.243 518
42.26311 590
42.28323 648
42.30334 714
42.32345 843
42.34357 971
42.36368 970
42.38379 1041
42.40391 927
42.42402 940
42.44414 823
42.46425 763
42.48436 715
42.50448 611
42.52459 590
42.5447 548
42.56482 456
42.58493 362
42.60505 364
42.62516 332
42.64527 363
42.66539 369
42.6855 326
42.70561 296
42.72573 333
42.74584 328
42.76595 340
42.78607 320
42.80618 320
42.8263 305
42.84641 300
42.86652 278
42.88664 296
42.90675 297
42.92686 272
42.94698 259
42.96709 293
42.98721 278
43.00732 302
43.02743 273
43.04755 289
43.06766 287
43.08777 257
43.10789 271
43.128 264
43.14812 277
43.16823 310
43.18834 300
43.20846 285
43.22857 294
43.24868 266
43.2688 291
43.28891 270
43.30902 260
43.32914 294
43.34925 299
43.36937 277
43.38948 287
43.40959 256
43.42971 287
43.44982 286
43.46993 291
43.49005 285
43.51016 301
43.53028 258
43.55039 290
43.5705 287
43.59062 263
43.61073 301
43.63084 269
43.65096 263
43.67107 276
43.69119 250
43.7113 277
43.73141 259
43.75153 268
43.77164 272
43.79175 298
43.81187 274
43.83198 235
43.85209 275
43.87221 252
43.89232 243
43.91244 269
43.93255 269
43.95266 278
43.97278 289
43.99289 252
44.013 278
44.03312 254
44.05323 294
44.07335 255
44.09346 287
44.11357 291
44.13369 273
44.1538 252
44.17391 267
44.19403 253
44.21414 272
44.23426 257
44.25437 281
44.27448 275
44.2946 274
44.31471 274
44.33482 273
44.35494 273
44.37505 245
44.39516 276
44.41528 246
44.43539 306
44.45551 282
44.47562 262
44.49573 241
44.51585 249
44.53596 269
44.55607 263
44.57619 277
44.5963 303
44.61642 255
44.63653 281
44.65664 289
44.67676 291
44.69687 283
44.71698 262
44.7371 285
44.75721 282
44.77732 264
44.79744 266
44.81755 254
44.83767 230
44.85778 287
44.87789 273
44.89801 277
44.91812 262
44.93823 259
44.95835 266
44.97846 307
44.99858 272
45.01869 266
45.0388 267
45.05892 263
45.07903 292
45.09914 272
45.11926 263
45.13937 284
45.15949 317
45.1796 313
45.19971 301
45.21983 308
45.23994 282
45.26005 292
45.28017 338
45.30028 318
45.32039 288
45.34051 295
45.36062 322
45.38074 316
45.40085 315
45.42096 350
45.44108 340
45.46119 374
45.4813 327
45.50142 353
45.52153 338
45.54165 357
45.56176 411
45.58187 432
45.60199 515
45.6221 524
45.64221 595
45.66233 643
45.68244 683
45.70256 731
45.72267 710
45.74278 695
45.7629 643
45.78301 645
45.80312 550
45.82324 543
45.84335 484
45.86346 448
45.88358 449
45.90369 406
45.92381 368
45.94392 338
45.96403 312
45.98415 277
46.00426 284
46.02437 270
46.04449 300
46.0646 287
46.08472 264
46.10483 274
46.12494 246
46.14506 260
46.16517 298
46.18528 294
46.2054 246
46.22551 259
46.24563 275
46.26574 265
46.28585 244
46.30597 267
46.32608 252
46.34619 255
46.36631 286
46.38642 265
46.40653 260
46.42665 287
46.44676 257
46.46688 228
46.48699 264
46.5071 244
46.52722 250
46.54733 231
46.56744 229
46.58756 261
46.60767 293
46.62779 208
46.6479 252
46.66801 244
46.68813 239
46.70824 214
46.72835 243
46.74847 239
46.76858 247
46.78869 261
46.80881 256
46.82892 263
46.84904 270
46.86915 232
46.88926 237
46.90938 272
46.92949 271
46.9496 265
46.96972 291
46.98983 286
47.00995 282
47.03006 291
47.05017 321
47.07029 281
47.0904 285
47.11051 292
47.13063 228
47.15074 271
47.17086 270
47.19097 285
47.21108 277
47.2312 267
47.25131 271
47.27142 313
47.29154 268
47.31165 242
47.33176 257
47.35188 270
47.37199 284
47.39211 270
47.41222 269
47.43233 253
47.45245 265
47.47256 227
47.49267 278
47.51279 273
47.5329 251
47.55302 276
47.57313 244
47.59324 250
47.61336 246
47.63347 260
47.65358 228
47.6737 268
47.69381 258
47.71393 211
47.73404 232
47.75415 237
47.77427 243
47.79438 273
47.81449 247
47.83461 260
47.85472 259
47.87483 274
47.89495 253
47.91506 281
47.93518 295
47.95529 289
47.9754 297
47.99552 274
48.01563 277
48.03574 302
48.05586 272
48.07597 302
48.09609 303
48.1162 303
48.13631 302
48.15643 285
48.17654 280
48.19665 236
48.21677 264
48.23688 274
48.257 272
48.27711 273
48.29722 305
48.31734 256
48.33745 276
48.35756 278
48.37768 263
48.39779 278
48.4179 251
48.43802 266
48.45813 274
48.47825 289
48.49836 298
48.51847 312
48.53859 303
48.5587 302
48.57881 276
48.59893 252
48.61904 263
48.63916 266
48.65927 313
48.67938 291
48.6995 276
48.71961 298
48.73972 290
48.75984 282
48.77995 310
48.80006 289
48.82018 244
48.84029 255
48.86041 304
48.88052 274
48.90063 274
48.92075 281
48.94086 292
48.96097 300
48.98109 286
49.0012 278
49.02132 307
49.04143 316
49.06154 307
49.08166 312
49.10177 288
49.12188 309
49.142 301
49.16211 312
49.18223 320
49.20234 330
49.22245 312
49.24257 310
49.26268 303
49.28279 304
49.30291 285
49.32302 288
49.34313 273
49.36325 287
49.38336 295
49.40348 300
49.42359 267
49.4437 270
49.46382 285
49.48393 294
49.50404 296
49.52416 310
49.54427 293
49.56439 338
49.5845 281
49.60461 354
49.62473 363
49.64484 343
49.66495 370
49.68507 402
49.70518 373
49.7253 391
49.74541 417
49.76552 436
49.78564 453
49.80575 469
49.82586 485
49.84598 600
49.86609 562
49.8862 663
49.90632 768
49.92643 883
49.94655 971
49.96666 1180
49.98677 1374
50.00689 1538
50.027 1685
50.04711 1896
50.06723 1846
50.08734 1866
50.10746 1510
50.12757 1390
50.14768 1251
50.1678 1151
50.18791 1079
50.20802 986
50.22814 850
50.24825 761
50.26837 575
50.28848 469
50.30859 439
50.32871 398
50.34882 393
50.36893 412
50.38905 413
50.40916 380
50.42927 413
50.44939 413
50.4695 428
50.48962 438
50.50973 398
50.52984 413
50.54996 416
50.57007 395
50.59018 426
50.6103 390
50.63041 359
50.65053 352
50.67064 350
50.69075 353
50.71087 322
50.73098 322
50.75109 332
50.77121 296
50.79132 296
50.81143 329
50.83155 310
50.85166 294
50.87178 305
50.89189 308
50.912 304
50.93212 312
50.95223 293
50.97234 312
50.99246 295
51.01257 290
51.03269 273
51.0528 309
51.07291 336
51.09303 341
51.11314 295
51.13325 328
51.15337 298
51.17348 317
51.1936 289
51.21371 303
51.23382 288
51.25394 273
51.27405 276
51.29416 272
51.31428 284
51.33439 256
51.3545 249
51.37462 252
51.39473 227
51.41485 240
51.43496 266
51.45507 235
51.47519 276
51.4953 266
51.51541 242
51.53553 256
51.55564 231
51.57576 220
51.59587 242
51.61598 226
51.6361 239
51.65621 237
51.67632 243
51.69644 253
51.71655 251
51.73667 241
51.75678 233
51.77689 208
51.79701 228
51.81712 205
51.83723 235
51.85735 265
51.87746 219
51.89757 230
51.91769 256
51.9378 249
51.95792 245
51.97803 243
51.99814 251
52.01826 251
52.03837 228
52.05848 263
52.0786 253
52.09871 287
52.11883 255
52.13894 293
52.15905 234
52.17917 243
52.19928 245
52.21939 225
52.23951 250
52.25962 263
52.27974 240
52.29985 275
52.31996 276
52.34008 231
52.36019 224
52.3803 274
52.40042 268
52.42053 266
52.44064 250
52.46076 262
52.48087 257
52.50099 262
52.5211 270
52.54121 242
52.56133 258
52.58144 257
52.60155 236
52.62167 284
52.64178 287
52.6619 285
52.68201 234
52.70212 251
52.72224 276
52.74235 263
52.76246 267
52.78258 237
52.80269 275
52.8228 270
52.84292 247
52.86303 277
52.88315 278
52.90326 304
52.92337 269
52.94349 274
52.9636 289
52.98371 294
53.00383 289
53.02394 278
53.04406 279
53.06417 280
53.08428 294
53.1044 296
53.12451 294
53.14462 271
53.16474 263
53.18485 310
53.20497 315
53.22508 321
53.24519 296
53.26531 291
53.28542 302
53.30553 303
53.32565 305
53.34576 266
53.36587 286
53.38599 288
53.4061 276
53.42622 321
53.44633 271
53.46644 281
53.48656 269
53.50667 258
53.52678 287
53.5469 270
53.56701 289
53.58713 302
53.60724 261
53.62735 264
53.64747 296
53.66758 280
53.68769 286
53.70781 279
53.72792 268
53.74804 307
53.76815 272
53.78826 314
53.80838 289
53.82849 285
53.8486 307
53.86872 304
53.88883 315
53.90894 272
53.92906 295
53.94917 295
53.96929 310
53.9894 284
54.00951 300
54.02963 276
54.04974 304
54.06985 309
54.08997 291
54.11008 289
54.1302 264
54.15031 273
54.17042 299
54.19054 310
54.21065 284
54.23076 282
54.25088 272
54.27099 276
54.29111 329
54.31122 314
54.33133 285
54.35145 296
54.37156 306
54.39167 278
54.41179 311
54.4319 289
54.45201 284
54.47213 308
54.49224 311
54.51236 288
54.53247 349
54.55258 313
54.5727 319
54.59281 376
54.61292 388
54.63304 394
54.65315 422
54.67327 448
54.69338 526
54.71349 577
54.73361 665
54.75372 643
54.77383 699
54.79395 702
54.81406 680
54.83417 674
54.85429 584
54.8744 579
54.89452 595
54.91463 521
54.93474 487
54.95486 505
54.97497 540
54.99508 451
55.0152 381
55.03531 362
55.05543 351
55.07554 394
55.09565 356
55.11577 334
55.13588 378
55.15599 405
55.17611 417
55.19622 425
55.21634 485
55.23645 483
55.25656 454
55.27668 468
55.29679 431
55.3169 410
55.33702 427
55.35713 373
55.37724 402
55.39736 368
55.41747 331
55.43759 349
55.4577 336
55.47781 320
55.49793 295
55.51804 274
55.53815 294
55.55827 295
55.57838 278
55.5985 264
55.61861 288
55.63872 317
55.65884 293
55.67895 272
55.69906 289
55.71918 261
55.73929 285
55.75941 258
55.77952 289
55.79963 276
55.81975 267
55.83986 271
55.85997 302
55.88009 270
55.9002 280
55.92031 266
55.94043 276
55.96054 275
55.98066 266
56.00077 286
56.02088 264
56.041 250
56.06111 276
56.08122 258
56.10134 252
56.12145 284
56.14157 244
56.16168 301
56.18179 299
56.20191 269
56.22202 255
56.24213 262
56.26225 254
56.28236 284
56.30248 275
56.32259 258
56.3427 266
56.36282 241
56.38293 268
56.40304 269
56.42316 239
56.44327 237
56.46338 262
56.4835 256
56.50361 264
56.52373 298
56.54384 267
56.56395 282
56.58407 248
56.60418 267
56.62429 270
56.64441 263
56.66452 260
56.68464 262
56.70475 278
56.72486 251
56.74498 243
56.76509 231
56.7852 228
56.80532 249
56.82543 261
56.84554 239
56.86566 244
56.88577 242
56.90589 242
56.926 260
56.94611 284
56.96623 264
56.98634 260
57.00645 241
57.02657 275
57.04668 276
57.0668 273
57.08691 296
57.10702 280
57.12714 276
57.14725 266
57.16736 265
57.18748 274
57.20759 283
57.22771 278
57.24782 255
57.26793 277
57.28805 263
57.30816 281
57.32827 311
57.34839 284
57.3685 280
57.38861 302
57.40873 287
57.42884 284
57.44896 279
57.46907 270
57.48918 275
57.5093 274
57.52941 262
57.54952 273
57.56964 258
57.58975 289
57.60987 268
57.62998 261
57.65009 280
57.67021 248
57.69032 281
57.71043 254
57.73055 235
57.75066 270
57.77078 278
57.79089 227
57.811 264
57.83112 258
57.85123 236
57.87134 244
57.89146 259
57.91157 249
57.93168 238
57.9518 250
57.97191 264
57.99203 225
58.01214 264
58.03225 240
58.05237 244
58.07248 245
58.09259 284
58.11271 249
58.13282 274
58.15294 267
58.17305 260
58.19316 234
58.21328 260
58.23339 252
58.2535 279
58.27362 260
58.29373 250
58.31385 282
58.33396 262
58.35407 248
58.37419 245
58.3943 240
58.41441 263
58.43453 261
58.45464 242
58.47475 271
58.49487 257
58.51498 264
58.5351 267
58.55521 260
58.57532 268
58.59544 287
58.61555 280
58.63566 257
58.65578 251
58.67589 288
58.69601 263
58.71612 272
58.73623 267
58.75635 253
58.77646 279
58.79657 299
58.81669 259
58.8368 247
58.85691 248
58.87703 267
58.89714 276
58.91726 224
58.93737 270
58.95748 261
58.9776 236
58.99771 293
59.01782 229
59.03794 256
59.05805 228
59.07817 283
59.09828 275
59.11839 292
59.13851 253
59.15862 226
59.17873 285
59.19885 264
59.21896 264
59.23908 263
59.25919 255
59.2793 274
59.29942 268
59.31953 254
59.33964 280
59.35976 259
59.37987 255
59.39998 274
59.4201 271
59.44021 306
59.46033 293
59.48044 273
59.50055 320
59.52067 312
59.54078 325
59.56089 317
59.58101 345
59.60112 387
59.62124 367
59.64135 390
59.66146 417
59.68158 490
59.70169 570
59.7218 598
59.74192 694
59.76203 756
59.78215 857
59.80226 978
59.82237 1137
59.84249 1264
59.8626 1219
59.88271 1219
59.90283 1121
59.92294 1004
59.94305 942
59.96317 889
59.98328 785
60.0034 750
60.02351 796
60.04362 748
60.06374 715
60.08385 581
60.10396 536
60.12408 433
60.14419 416
60.16431 348
60.18442 332
60.20453 339
60.22465 330
60.24476 309
60.26487 317
60.28499 339
60.3051 316
60.32522 320
60.34533 274
60.36544 278
60.38556 261
60.40567 283
60.42578 301
60.4459 288
60.46601 291
60.48612 291
60.50624 269
60.52635 283
60.54647 274
60.56658 320
60.58669 270
60.60681 242
60.62692 285
60.64703 259
60.66715 271
60.68726 282
60.70738 256
60.72749 253
60.7476 255
60.76772 282
60.78783 246
60.80794 289
60.82806 272
60.84817 289
60.86828 238
60.8884 260
60.90851 245
60.92863 280
60.94874 254
60.96885 232
60.98897 289
61.00908 266
61.02919 276
61.04931 278
61.06942 274
61.08954 291
61.10965 292
61.12976 305
61.14988 274
61.16999 285
61.1901 290
61.21022 318
61.23033 270
61.25045 293
61.27056 301
61.29067 315
61.31079 289
61.3309 306
61.35101 300
61.37113 304
61.39124 283
61.41135 274
61.43147 309
61.45158 313
61.4717 302
61.49181 321
61.51192 331
61.53204 337
61.55215 324
61.57226 355
61.59238 360
61.61249 349
61.63261 315
61.65272 372
61.67283 318
61.69295 295
61.71306 336
61.73317 322
61.75329 319
61.7734 310
61.79352 322
61.81363 296
61.83374 291
61.85386 315
61.87397 304
61.89408 303
61.9142 270
61.93431 300
61.95442 282
61.97454 309
61.99465 282
62.01477 318
62.03488 306
62.05499 262
62.07511 294
62.09522 293
62.11533 291
62.13545 273
62.15556 290
62.17568 318
62.19579 264
62.2159 286
62.23602 284
62.25613 279
62.27624 303
62.29636 250
62.31647 309
62.33659 265
62.3567 264
62.37681 267
62.39693 273
62.41704 257
62.43715 307
62.45727 272
62.47738 281
62.49749 254
62.51761 278
62.53772 266
62.55784 277
62.57795 300
62.59806 278
62.61818 240
62.63829 249
62.6584 275
62.67852 264
62.69863 276
62.71875 256
62.73886 259
62.75897 274
62.77909 259
62.7992 287
62.81931 218
62.83943 277
62.85954 281
62.87965 293
62.89977 276
62.91988 278
62.94 258
62.96011 277
62.98022 239
63.00034 279
63.02045 254
63.04056 286
63.06068 274
63.08079 259
63.10091 279
63.12102 241
63.14113 283
63.16125 278
63.18136 263
63.20147 241
63.22159 261
63.2417 263
63.26182 257
63.28193 275
63.30204 266
63.32216 265
63.34227 252
63.36238 242
63.3825 258
63.40261 277
63.42272 272
63.44284 266
63.46295 268
63.48307 276
63.50318 278
63.52329 275
63.54341 271
63.56352 281
63.58363 306
63.60375 302
63.62386 334
63.64398 314
63.66409 321
63.6842 295
63.70432 289
63.72443 319
63.74454 321
63.76466 342
63.78477 356
63.80489 398
63.825 345
63.84511 415
63.86523 378
63.88534 400
63.90545 416
63.92557 449
63.94568 484
63.96579 469
63.98591 434
64.00602 414
64.02614 367
64.04625 358
64.06636 371
64.08648 314
64.10659 386
64.1267 331
64.14682 326
64.16693 337
64.18705 289
64.20716 296
64.22727 239
64.24739 311
64.2675 244
64.28761 237
64.30773 250
64.32784 257
64.34796 262
64.36807 255
64.38818 249
64.4083 262
64.42841 257
64.44852 247
64.46864 264
64.48875 265
64.50886 233
64.52898 259
64.54909 236
64.56921 237
64.58932 259
64.60943 239
64.62955 229
64.64966 271
64.66977 215
64.68989 244
64.71 258
64.73012 261
64.75023 277
64.77034 273
64.79046 246
64.81057 244
64.83068 267
64.8508 256
64.87091 255
64.89102 256
64.91114 267
64.93125 248
64.95137 255
64.97148 247
64.99159 273
65.01171 254
65.03182 271
65.05193 258
65.07205 263
65.09216 255
65.11228 251
65.13239 259
65.1525 283
65.17262 249
65.19273 276
65.21284 256
65.23296 261
65.25307 247
65.27319 240
65.2933 247
65.31341 288
65.33353 262
65.35364 253
65.37375 251
65.39387 234
65.41398 254
65.43409 266
65.45421 257
65.47432 236
65.49444 249
65.51455 247
65.53466 267
65.55478 267
65.57489 276
65.595 296
65.61512 262
65.63523 272
65.65535 283
65.67546 296
65.69557 282
65.71569 279
65.7358 267
65.75591 295
65.77603 276
65.79614 256
65.81626 257
65.83637 233
65.85648 266
65.8766 256
65.89671 265
65.91682 231
65.93694 249
65.95705 228
65.97716 249
65.99728 234
66.01739 275
66.03751 245
66.05762 256
66.07773 269
66.09785 222
66.11796 254
66.13807 246
66.15819 251
66.1783 237
66.19842 266
66.21853 225
66.23864 218
66.25876 260
66.27887 259
66.29898 248
66.3191 248
66.33921 228
66.35933 253
66.37944 237
66.39955 234
66.41967 234
66.43978 247
66.45989 223
66.48001 225
66.50012 248
66.52023 259
66.54035 265
66.56046 206
66.58058 242
66.60069 233
66.6208 246
66.64092 261
66.66103 262
66.68114 266
66.70126 254
66.72137 256
66.74149 237
66.7616 229
66.78171 228
66.80183 248
66.82194 239
66.84205 259
66.86217 268
66.88228 226
66.90239 260
66.92251 239
66.94262 244
66.96274 266
66.98285 243
67.00296 272
67.02308 281
67.04319 236
67.0633 232
67.08342 264
67.10353 281
67.12365 274
67.14376 260
67.16387 295
67.18399 280
67.2041 277
67.22421 297
67.24433 251
67.26444 282
67.28456 267
67.30467 297
67.32478 302
67.3449 321
67.36501 306
67.38512 351
67.40524 313
67.42535 389
67.44546 334
67.46558 388
67.48569 386
67.50581 440
67.52592 528
67.54603 592
67.56615 611
67.58626 665
67.60637 772
67.62649 766
67.6466 881
67.66672 854
67.68683 816
67.70694 748
67.72706 682
67.74717 656
67.76728 611
67.7874 632
67.80751 682
67.82763 655
67.84774 676
67.86785 700
67.88797 688
67.90808 721
67.92819 702
67.94831 732
67.96842 772
67.98853 819
68.00865 966
68.02876 991
68.04888 1032
68.06899 1090
68.0891 982
68.10922 1022
68.12933 945
68.14944 953
68.16956 929
68.18967 986
68.20979 986
68.2299 1002
68.25001 977
68.27013 862
68.29024 766
68.31035 726
68.33047 608
68.35058 566
68.3707 577
68.39081 514
68.41092 489
68.43104 484
68.45115 424
68.47126 394
68.49138 360
68.51149 331
68.5316 326
68.55172 301
68.57183 282
68.59195 251
68.61206 267
68.63217 251
68.65229 265
68.6724 245
68.69251 268
68.71263 240
68.73274 251
68.75286 266
68.77297 277
68.79308 253
68.8132 256
68.83331 264
68.85342 274
68.87354 265
68.89365 266
68.91376 232
68.93388 245
68.95399 247
68.97411 271
68.99422 263
69.01433 237
69.03445 214
69.05456 276
69.07467 244
69.09479 248
69.1149 252
69.13502 262
69.15513 241
69.17524 269
69.19536 248
69.21547 266
69.23558 260
69.2557 237
69.27581 243
69.29593 254
69.31604 270
69.33615 239
69.35627 253
69.37638 256
69.39649 282
69.41661 260
69.43672 276
69.45683 270
69.47695 251
69.49706 252
69.51718 245
69.53729 272
69.5574 274
69.57752 272
69.59763 257
69.61774 259
69.63786 259
69.65797 237
69.67809 241
69.6982 245
69.71831 254
69.73843 234
69.75854 226
69.77865 241
69.79877 259
69.81888 224
69.839 257
69.85911 228
69.87922 287
69.89934 253
69.91945 244
69.93956 243
69.95968 224
69.97979 204
69.9999 225
70.02002 255
70.04013 254
70.06025 233
70.08036 252
70.10047 225
70.12059 245
70.1407 241
70.16081 252
70.18093 237
70.20104 223
70.22116 229
70.24127 224
70.26138 245
70.2815 225
70.30161 224
70.32172 233
70.34184 231
70.36195 234
70.38207 221
70.40218 251
70.42229 226
70.44241 233
70.46252 245
70.48263 246
70.50275 243
70.52286 244
70.54297 225
70.56309 214
70.5832 238
70.60332 227
70.62343 247
70.64354 253
70.66366 250
70.68377 241
70.70388 237
70.724 235
70.74411 241
70.76423 240
70.78434 252
70.80445 260
70.82457 239
70.84468 234
70.86479 235
70.88491 242
70.90502 208
70.92513 191
70.94525 226
70.96536 241
70.98548 245
71.00559 234
71.0257 238
71.04582 234
71.06593 230
71.08604 231
71.10616 226
71.12627 243
71.14639 251
71.1665 228
71.18661 244
71.20673 222
71.22684 218
71.24695 236
71.26707 252
71.28718 219
71.3073 238
71.32741 255
71.34752 262
71.36764 261
71.38775 250
71.40786 229
71.42798 245
71.44809 217
71.4682 229
71.48832 234
71.50843 199
71.52855 206
71.54866 239
71.56877 213
71.58889 232
71.609 251
71.62911 217
71.64923 243
71.66934 232
71.68946 222
71.70957 259
71.72968 243
71.7498 220
71.76991 206
71.79002 221
71.81014 230
71.83025 241
71.85037 248
71.87048 241
71.89059 243
71.91071 237
71.93082 222
71.95093 244
71.97105 248
71.99116 247
72.01127 221
72.03139 233
72.0515 225
72.07162 232
72.09173 205
72.11184 235
72.13196 261
72.15207 262
72.17218 232
72.1923 238
72.21241 223
72.23253 223
72.25264 250
72.27275 247
72.29287 230
72.31298 245
72.33309 248
72.35321 235
72.37332 265
72.39344 238
72.41355 235
72.43366 241
72.45378 232
72.47389 228
72.494 252
72.51412 248
72.53423 242
72.55434 258
72.57446 257
72.59457 221
72.61469 239
72.6348 229
72.65491 251
72.67503 264
72.69514 239
72.71525 234
72.73537 252
72.75548 242
72.7756 241
72.79571 255
72.81582 216
72.83594 244
72.85605 257
72.87616 236
72.89628 276
72.91639 239
72.9365 255
72.95662 219
72.97673 257
72.99685 266
73.01696 280
73.03707 274
73.05719 256
73.0773 260
73.09741 293
73.11753 256
73.13764 297
73.15776 282
73.17787 251
73.19798 301
73.2181 292
73.23821 344
73.25832 344
73.27844 355
73.29855 393
73.31867 390
73.33878 457
73.35889 440
73.37901 405
73.39912 450
73.41923 386
73.43935 399
73.45946 410
73.47957 347
73.49969 362
73.5198 346
73.53992 322
73.56003 323
73.58014 348
73.60026 310
73.62037 331
73.64048 303
73.6606 314
73.68071 294
73.70083 251
73.72094 247
73.74105 231
73.76117 297
73.78128 248
73.80139 280
73.82151 249
73.84162 232
73.86174 233
73.88185 247
73.90196 254
73.92208 249
73.94219 256
73.9623 245
73.98242 244
74.00253 248
74.02264 260
74.04276 228
74.06287 235
74.08299 253
74.1031 223
74.12321 228
74.14333 240
74.16344 251
74.18355 240
74.20367 248
74.22378 284
74.2439 250
74.26401 236
74.28412 226
74.30424 245
74.32435 228
74.34446 255
74.36458 244
74.38469 228
74.40481 240
74.42492 245
74.44503 248
74.46515 242
74.48526 240
74.50537 243
74.52549 230
74.5456 254
74.56571 258
74.58583 218
74.60594 235
74.62606 216
74.64617 246
74.66628 245
74.6864 258
74.70651 235
74.72662 227
74.74674 240
74.76685 225
74.78697 247
74.80708 238
74.82719 253
74.84731 251
74.86742 248
74.88753 233
74.90765 245
74.92776 228
74.94787 251
74.96799 225
74.9881 226
75.00822 215
