3.00117 20457.9435801462
3.02128 20416.2003626569
3.0414 19939
3.06151 19124.7425241177
3.08162 18803.4568006033
3.10174 18097.2428564946
3.12185 17917.4657564765
3.14197 16934.1186965822
3.16208 16580.4206298132
3.18219 15928.285515322
3.20231 15635.9433229879
3.22242 15394.4328340302
3.24253 14591.9005936152
3.26265 14227.0373415347
3.28276 14163.2159192612
3.30288 13262.459926048
3.32299 13275.1011273611
3.3431 12613
3.36322 12183.6167338895
3.38333 11695.1942972345
3.40344 11250.4942835415
3.42356 11110.3946031425
3.44367 10757.6438431002
3.46379 10403.0979390355
3.4839 10200
3.50401 9595.79435673236
3.52413 9397.55294209392
3.54424 8902.06611630341
3.56435 8692.84040403892
3.58447 8695.60900178815
3.60458 8049.35921951388
3.62469 7968.16447839609
3.64481 7310.73654568175
3.66492 7137.96042462795
3.68504 6989.45329058757
3.70515 6673.36773329514
3.72526 6493.39037912463
3.74538 6221.31516407997
3.76549 5967.05707233547
3.7856 5862
3.80572 5445.76052462147
3.82583 5317.45294509389
3.84595 4762.14488734941
3.86606 4794.65293443155
3.88617 4763.52520791074
3.90629 4306.11509593878
3.9264 4294
3.94651 3967.86965995591
3.96663 3923.0981811324
3.98674 3886.51327365155
4.00686 3535.49309402902
4.02697 3413.27202264176
4.04708 3159.14987585967
4.0672 3179
4.08731 3162.91750644525
4.10742 2919.80497761384
4.12754 2800.72967669923
4.14765 2642.23092138478
4.16776 2633.98478370117
4.18788 2555.19757162843
4.20799 2392.96810986115
4.22811 2524.92595755333
4.24822 2123.72461862717
4.26833 2163.25590810542
4.28845 2222.72024653121
4.30856 2050.11908235312
4.32867 2083.09940564198
4.34879 1891.07446783352
4.3689 1868
4.38902 1853.95739908178
4.40913 1814.9879221409
4.42924 1816.92902509348
4.44936 1734.18157623944
4.46947 1679.01860437423
4.48958 1663.07178275357
4.5097 1572
4.52981 1616.00478492647
4.54992 1550.91832306944
4.57004 1502.95992325244
4.59015 1490.04977613813
4.61027 1443.11854142971
4.63038 1381.98621856089
4.65049 1451.97482476676
4.67061 1434.97153851512
4.69072 1375.95051735751
4.71083 1329.91217667741
4.73095 1255.81336916087
4.75106 1223.91793671736
4.77118 1286.99659692244
4.79129 1237.00777193571
4.8114 1239
4.83152 1101.95117716558
4.85163 1138.97301001987
4.87174 1068.03765066
4.89186 1179.87161850991
4.91197 1122.1725722177
4.93209 1042.00782795915
4.9522 1055
4.97231 989.975255932193
4.99243 999.080250649331
5.01254 1028.90372006446
5.03265 934.135564676809
5.05277 936.017888205317
5.07288 896.01140107164
5.09299 926.984763164402
5.11311 899.950702542013
5.13322 812.020676537189
5.15334 904.056420937098
5.17345 842.894924976968
5.19356 890.798807503457
5.21368 921.127720830839
5.23379 746.010890868382
5.2539 861
5.27402 748.889557465151
5.29413 757.145068669818
5.31425 816.816271618131
5.33436 688.016875180214
5.35447 790.954283850408
5.37459 700.038393027052
5.3947 719
5.41481 738.972885160432
5.43493 664.990874562446
5.45504 714.009038708515
5.47516 658.064936591385
5.49527 677.972696801032
5.51538 656.046180455018
5.5355 612
5.55561 601.001763222723
5.57572 610.010318228997
5.59584 609.964018901875
5.61595 582.054143760055
5.63606 568.040913750707
5.65618 557.968118650213
5.67629 603.00139363782
5.69641 547.974794596117
5.71652 542.022527421379
5.73663 567.025605901082
5.75675 575.019059953578
5.77686 567.094616116156
5.79697 518.978123507071
5.81709 581.983411151331
5.8372 549
5.85732 519.009734567139
5.87743 543.001474042535
5.89754 522.996163572419
5.91766 532.052077490501
5.93777 483.019874552686
5.95788 517.963109105892
5.978 520
5.99811 474.965053074877
6.01823 429.047853135035
6.03834 512.106564646376
6.05845 500.082750699518
6.07857 483.011407037839
6.09868 476.00819145571
6.11879 486.973856133052
6.13891 537.991963021695
6.15902 473.973028192877
6.17913 503.029682804534
6.19925 482.936083045739
6.21936 469.037467981309
6.23948 445.012616462539
6.25959 453.987824149775
6.2797 475
6.29982 459.974689290358
6.31993 451.037435766374
6.34004 477.958652128294
6.36016 433.985631643608
6.38027 479.007178763177
6.40039 422.011675829849
6.4205 454
6.44061 438.989958811135
6.46073 448.058480889158
6.48084 482.991054890802
6.50095 450.037430464074
6.52107 451.046526264804
6.54118 403.001046622726
6.56129 449.984030902153
6.58141 440.993393560936
6.60152 436.982173464865
6.62164 404.953977069694
6.64175 395.96911807205
6.66186 392.927064332431
6.68198 436.014209995994
6.70209 384.003108308783
6.7222 429
6.74232 401.987778148046
6.76243 434.069058633328
6.78255 463.025211695711
6.80266 455.04734063708
6.82277 427.034169236991
6.84289 403.02023929727
6.863 371
6.88311 424.016427667439
6.90323 411.959902514876
6.92334 400.005021910066
6.94346 413.954992231085
6.96357 428.013627512195
6.98368 403.018815082481
7.0038 406
7.02391 417.994534586143
7.04402 387.971316737515
7.06414 383.042616873663
7.08425 408.985080604895
7.10436 401.977340593002
7.12448 423.009710110639
7.14459 388.007065137494
7.16471 407.009195616899
7.18482 400.979265481744
7.20493 382.989343491185
7.22505 388.026124306461
7.24516 394.997877225631
7.26527 383.044503309857
7.28539 361.990389037906
7.3055 403
7.32562 377.979052304549
7.34573 381.008845805518
7.36584 385.036503097671
7.38596 397.062196486428
7.40607 353.979692602801
7.42618 405.996639626175
7.4463 353
7.46641 393.038211755635
7.48653 433.948320843977
7.50664 363.948767413428
7.52675 406.860039839052
7.54687 428.011142046494
7.56698 416.996221058997
7.58709 428.003882187852
7.60721 398.986808027027
7.62732 392.005917646542
7.64743 397.999621660079
7.66755 400.047455621555
7.68766 416.043800436809
7.70778 360.050770387774
7.72789 355.977089415349
7.748 415
7.76812 402.968390647341
7.78823 386.012636017916
7.80834 402.99607933268
7.82846 380.036592530126
7.84857 376.007900314642
7.86869 367.998214274307
7.8888 382
7.90891 385.005855929266
7.92903 405.019436025592
7.94914 393.926298839861
7.96925 367.939884213716
7.98937 413.003834514787
8.00948 364.025384574651
8.0296 382
8.04971 366.99441229006
8.06982 379.024455583394
8.08994 386.945946012245
8.11005 352.007099069026
8.13016 383.986595704573
8.15028 360.005866244697
8.17039 384.990169798024
8.1905 382
8.21062 377.987797488364
8.23073 364.003209358453
8.25085 378.009366814565
8.27096 368.010385912705
8.29107 375.983402959377
8.31119 383.995655805294
8.3313 394
8.35141 404.009680917865
8.37153 418.983843057292
8.39164 384.933568387149
8.41176 372.987059014705
8.43187 379.015523070512
8.45198 358.009722836312
8.4721 373
8.49221 391.993084640051
8.51232 356.976252207767
8.53244 360.026865810247
8.55255 370.970850156904
8.57266 387.953400120466
8.59278 397.027260148075
8.61289 356.004801515415
8.63301 377.002923743873
8.65312 364.00999975905
8.67323 407.065830232548
8.69335 417.938586891266
8.71346 383.034147351117
8.73357 380.030317940997
8.75369 358.986783941672
8.7738 414
8.79392 390.002714919691
8.81403 430.031952027218
8.83414 408.936977579013
8.85426 384.06441055791
8.87437 367.942576735343
8.89448 431.978039456299
8.9146 401
8.93471 404.001918523269
8.95483 386.955176465797
8.97494 362.986631342318
8.99505 368.000100791314
9.01517 371.949422794194
9.03528 413.000691928897
9.05539 364.027286685451
9.07551 338.999057648377
9.09562 353.029305494298
9.11573 383.024047129747
9.13585 386.012413682845
9.15596 390.029883392704
9.17608 365.007836473851
9.19619 369.008237349354
9.2163 339
9.23642 378.058625768863
9.25653 406.958241943907
9.27664 356.979484624969
9.29676 382.011521483251
9.31687 342.01724137295
9.33699 367.995184338429
9.3571 356
9.37721 396.007447086838
9.39733 364.928592411601
9.41744 342.028933661717
9.43755 373.958960813131
9.45767 363.02640072469
9.47778 352.011641797962
9.4979 338
9.51801 338.005828602879
9.53812 355.014581170512
9.55824 360.997259544477
9.57835 356.99205618197
9.59846 354.013493182628
9.61858 358.963838542981
9.63869 402.995888915404
9.6588 376
9.67892 373.977984506605
9.69903 324.930767627168
9.71915 323.136754802469
9.73926 383.993614818062
9.75937 341.021401349991
9.77949 375.985174656463
9.7996 367
9.81971 353.004386906576
9.83983 381.050261659174
9.85994 390.940975935681
9.88006 354.985794481702
9.90017 389.00684739122
9.92028 351.000454733441
9.9404 383
9.96051 327.989476062555
9.98062 351.00060209537
10.00074 324.013178989986
10.02085 367.941200291206
10.04097 351.030303905626
10.06108 349.99644027659
10.08119 350.997026400044
10.10131 357.998253184794
10.12142 344.9900824554
10.14153 338.979704445507
10.16165 332.063195570435
10.18176 370.984459535853
10.20187 346.022284546208
10.22199 353.99961874962
10.2421 334
10.26222 328.017749798173
10.28233 369.086444952633
10.30244 401.945056127878
10.32256 345.038032778589
10.34267 372.973877656625
10.36278 364.990803495351
10.3829 390
10.40301 354.987641676931
10.42313 364.037418196635
10.44324 387.040933906013
10.46335 387.09507369326
10.48347 339.017227426113
10.50358 366.976038689817
10.52369 356.016772193834
10.54381 331.001422118286
10.56392 358.028214494058
10.58403 363.974061445213
10.60415 340.975303773909
10.62426 346.987755152313
10.64438 354.972820963207
10.66449 387.996268698843
10.6846 374
10.70472 386.990471597169
10.72483 358.990152115189
10.74494 376.006314880355
10.76506 354.041558523154
10.78517 352.982841675812
10.80529 359.005061046618
10.8254 337
10.84551 347.024501976215
10.86563 392.984626727963
10.88574 354.025049021889
10.90585 407.98824772241
10.92597 355.042526984527
10.94608 380.97213140335
10.9662 377
10.98631 380.019431357549
11.00642 424.00227266427
11.02654 392.981359834613
11.04665 416.964932296662
11.06676 401.045763673985
11.08688 385.018006880734
11.10699 364.00776629815
11.1271 365
11.14722 394.023379832793
11.16733 395.967724764704
11.18745 376.02230804323
11.20756 398.016295704122
11.22767 358.045163856978
11.24779 356.996977754231
11.2679 357
11.28801 378.022532534308
11.30813 419.002797942851
11.32824 377.894175571113
11.34836 364.902873758265
11.36847 427.987879875635
11.38858 392.996847174865
11.4087 440
11.42881 394.971676912379
11.44892 374.014835751119
11.46904 400.024624918313
11.48915 396.988843352319
11.50927 419.955951961367
11.52938 424.041304987222
11.54949 385.982720144004
11.56961 465.012581522206
11.58972 424.980941612757
11.60983 458.045657714961
11.62995 454.966640532175
11.65006 448.013639170533
11.67017 432.041788402735
11.69029 409.997550165132
11.7104 442
11.73052 461.998121866459
11.75063 446.976473768254
11.77074 452.069770109194
11.79086 483.033078223446
11.81097 444.984866346685
11.83108 499.973490391863
11.8512 489
11.87131 530.000659657664
11.89143 486.959823290533
11.91154 498.021242366337
11.93165 500.935218580099
11.95177 527.04189510342
11.97188 482.967581512628
11.99199 571.983920393349
12.01211 539.00317430754
12.03222 612.062131359607
12.05234 603.877616495782
12.07245 547.978592258794
12.09256 581.940525668198
12.11268 576.0269305302
12.13279 558.995283979601
12.1529 610
12.17302 691.022005316476
12.19313 670.000252219661
12.21324 707.050730246861
12.23336 710.958917018559
12.25347 749.969146354263
12.27359 749.993102836157
12.2937 771
12.31381 746.013296977016
12.33393 808.025783874719
12.35404 770.957526771887
12.37415 762.172563763661
12.39427 664.032060720505
12.41438 709.004274619889
12.4345 623
12.45461 588.990173492392
12.47472 569.000949375895
12.49484 568.912276109931
12.51495 496.106916100172
12.53506 502.963123622583
12.55518 509.989220094581
12.57529 501.033751235619
12.5954 418
12.61552 475.050743702229
12.63563 459.905864115113
12.65575 395.910860922052
12.67586 395.970829181694
12.69597 397.029249211573
12.71609 373.002543966349
12.7362 385
12.75631 381.006508580986
12.77643 406.009962354309
12.79654 380.920306188007
12.81666 356.986647429483
12.83677 378.988806949716
12.85688 376.976708547837
12.877 408
12.89711 354.983976120468
12.91722 364.011204089496
12.93734 353.968319186208
12.95745 353.944431246321
12.97757 381.9843258057
12.99768 362.039964413513
13.01779 327.007344361077
13.03791 339.015003588341
13.05802 364.005074985086
13.07813 350.978105301566
13.09825 348.014042036086
13.11836 352.009727468727
13.13847 346.983788058388
13.15859 359.008800096788
13.1787 318
13.19882 321.011792606493
13.21893 332.032259642075
13.23904 344.947607809458
13.25916 309.964550577412
13.27927 357.012946291456
13.29938 295.02748807085
13.3195 323
13.33961 306.997975756047
13.35973 333.043959672672
13.37984 341.982321850655
13.39995 323.059001503651
13.42007 311.979176176561
13.44018 334.996284063239
13.46029 314.01132675852
13.48041 306.000168565255
13.50052 316.027293351785
13.52064 346.019817576297
13.54075 328.928938767336
13.56086 303.048500559383
13.58098 291.984668321887
13.60109 321.990249782422
13.6212 321
13.64132 323.010451549827
13.66143 326.974228132922
13.68154 294.949081276433
13.70166 289.98268035213
13.72177 299.991198117116
13.74189 283.026479624562
13.762 247
13.78211 348.027726426134
13.80223 326.953382642821
13.82234 315.946997082726
13.84245 276.036970953275
13.86257 291.978637419529
13.88268 290.000360126042
13.9028 294
13.92291 282.001954890607
13.94302 291.985266660798
13.96314 266.014427614778
13.98325 298.983367440203
14.00336 283.960450373587
14.02348 325.008553044715
14.04359 273.009079028834
14.06371 309.016647184035
14.08382 304.980336764846
14.10393 295.00538144046
14.12405 306.020939789399
14.14416 299.050084581056
14.16427 272.014428325312
14.18439 284.989223069666
14.2045 291
14.22461 266.000728348756
14.24473 283.989827315447
14.26484 256.997165037786
14.28496 294.910224417834
14.30507 317.994550669652
14.32518 302.038350537292
14.3453 277
14.36541 325.999965253309
14.38552 282.990553737445
14.40564 310.986485441294
14.42575 269.012925602802
14.44587 300.008041746304
14.46598 261.994020907679
14.48609 311.991497975129
14.50621 276.985455086437
14.52632 290.033863459676
14.54643 307.979199655623
14.56655 275.949077959184
14.58666 286.934798123117
14.60677 312.999427421866
14.62689 298.999044575164
14.647 303
14.66712 249.000540648775
14.68723 304.058635195048
14.70734 292.948193097638
14.72746 278.025838979713
14.74757 267.995195763893
14.76768 279.994026328738
14.7878 281
14.80791 298.000368178792
14.82803 280.977885387085
14.84814 274.979313541927
14.86825 260.016053310077
14.88837 271.959296050387
14.90848 296.99176941789
14.92859 285.010573828916
14.94871 272.000885598282
14.96882 282.005131238381
14.98894 283.021050826711
15.00905 305.053900208244
15.02916 307.050197667508
15.04928 283.98388334921
15.06939 317.004849783309
15.0895 265
15.10962 272.011020142431
15.12973 272.015961000124
15.14984 293.018393525529
15.16996 281.040889176683
15.19007 275.96718465774
15.21019 309.990356128328
15.2303 301
15.25041 287.004800293885
15.27053 304.996873222315
15.29064 279.955255966559
15.31075 276.979901775459
15.33087 277.027915191361
15.35098 255.996168683356
15.3711 291
15.39121 319.00225406621
15.41132 299.963849727379
15.43144 267.975730207511
15.45155 281.922936740829
15.47166 302.019507765994
15.49178 274.015366592255
15.51189 278.000241143883
15.53201 256.983280259485
15.55212 241.023858768235
15.57223 281.014665609478
15.59235 265.021170818144
15.61246 291.027475201526
15.63257 249.99756164088
15.65269 286.004053111891
15.6728 235
15.69291 281.024409765391
15.71303 294.996436652012
15.73314 289.975021631236
15.75326 267.061862912242
15.77337 244.996757849916
15.79348 270.965988393835
15.8136 296
15.83371 289.983343754004
15.85382 253.993867444312
15.87394 275.026422081054
15.89405 270.990131859428
15.91417 283.007867635486
15.93428 268.988824818976
15.95439 293.004868186162
15.97451 249.985592316778
15.99462 257.017681809877
16.01473 276.053582193747
16.03485 302.941744904177
16.05496 250.039866130324
16.07508 278.968288523347
16.09519 283.004211770954
16.1153 279
16.13542 275.979417905211
16.15553 250.995015969904
16.17564 269.026336919955
16.19576 260.044727712252
16.21587 243.997444941538
16.23598 261.97863308696
16.2561 273
16.27621 269.000992906485
16.29633 271.984506652277
16.31644 254.99490408703
16.33655 266.986127003233
16.35667 259.01155314499
16.37678 256.007578817936
16.39689 250.992923253307
16.41701 270.997828440054
16.43712 248.997178623279
16.45724 256.94775092225
16.47735 227.103599682565
16.49746 316.921999530055
16.51758 274.057721210269
16.53769 262.984619480014
16.5578 291
16.57792 247.983328964059
16.59803 266.010489972213
16.61814 257.030871051277
16.63826 290.988710551514
16.65837 265.021552233446
16.67849 275.996554554423
16.6986 264
16.71871 259.003583757802
16.73883 272.017128175985
16.75894 270.965786224904
16.77905 252.999014292442
16.79917 265.003418107768
16.81928 250.000130319666
16.8394 277
16.85951 295.991663101481
16.87962 268.001283557608
16.89974 287.975489895793
16.91985 251.999763609567
16.93996 288.970163073635
16.96008 262.029549127339
16.98019 255.997606341094
17.00031 262.005185778985
17.02042 272.001487400792
17.04053 260.970938200328
17.06065 254.055877813504
17.08076 288.973268780344
17.10087 279.997758428071
17.12099 285.015697089229
17.1411 237
17.16121 275.009147896632
17.18133 254.976969268688
17.20144 265.0269474697
17.22156 272.969902616774
17.24167 293.980922505957
17.26178 284.03296967805
17.2819 257
17.30201 290.007758964624
17.32212 274.982729592358
17.34224 283.065579397632
17.36235 308.03868165529
17.38247 272.005733359101
17.40258 304.978458173578
17.42269 293.009778923316
17.44281 293.010451204916
17.46292 309.986673567598
17.48303 277.981248603146
17.50315 291.017011953463
17.52326 283.993746050426
17.54338 288.028293580255
17.56349 251.99266799867
17.5836 298
17.60372 250.98505594453
17.62383 280.010519305751
17.64394 262.039028415833
17.66406 308.003523526412
17.68417 259.0325440854
17.70428 288.968485981001
17.7244 301
17.74451 326.998860612017
17.76463 294.95511874864
17.78474 301.089201111956
17.80485 342.020958089934
17.82497 292.05713068654
17.84508 288.000587088434
17.86519 278.000678351278
17.88531 287.001496038229
17.90542 279.995315598834
17.92554 291.05553615154
17.94565 308.950434423334
17.96576 271.016088987987
17.98588 306.953773033668
18.00599 314.02426568349
18.0261 254
18.04622 292.023398184709
18.06633 276.977440965335
18.08645 285.03999318818
18.10656 289.026243883026
18.12667 274.990149932687
18.14679 298.991742080663
18.1669 294
18.18701 280.996711651292
18.20713 281.005149559772
18.22724 287.021551058009
18.24735 296.997147527057
18.26747 291.005202507982
18.28758 285.023087741513
18.3077 258
18.32781 280.009248795988
18.34792 291.02707427477
18.36804 317.973243335334
18.38815 280.015625223138
18.40826 306.988673085989
18.42838 284.004144562594
18.44849 297.009503991078
18.46861 255.998368989959
18.48872 299.038204059994
18.50883 302.985876166842
18.52895 300.006112881824
18.54906 298.030368108052
18.56917 273.033333637432
18.58929 265.995751097728
18.6094 283
18.62951 285.989533117298
18.64963 267.026980599873
18.66974 309.035821658863
18.68986 298.988367651779
18.70997 320.012600337839
18.73008 289.001823962185
18.7502 306
18.77031 255.002770329565
18.79042 303.998301724893
18.81054 245.94823948445
18.83065 291.827519144184
18.85077 329.003867736074
18.87088 301.031489858016
18.89099 285.001406166808
18.91111 289.003439338775
18.93122 286.981236008083
18.95133 274.035103267486
18.97145 319.052199087698
18.99156 312.981540830379
19.01168 334.013195238546
19.03179 294.006500476474
19.0519 313
19.07202 286.982380527108
19.09213 293.012741420179
19.11224 290.991055081958
19.13236 287.016896285762
19.15247 281.982819360413
19.17258 305.980785708131
19.1927 312
19.21281 311.996788195584
19.23293 317.059097424014
19.25304 349.924665427571
19.27315 275.034248544021
19.29327 329.950516940441
19.31338 306.02549680078
19.33349 318.981943796764
19.35361 343.997193070021
19.37372 319.98926954457
19.39384 336.049579350201
19.41395 352.017613714635
19.43406 354.992743575692
19.45418 359.000735382643
19.47429 355.000331692806
19.4944 361
19.51452 383.046881072418
19.53463 440.058543141685
19.55475 452.006909295121
19.57486 450.040329032694
19.59497 429.981591456604
19.61509 462.995202915007
19.6352 465
19.65531 564.038211522787
19.67543 575.957376640088
19.69554 566.086486656282
19.71565 639.885396808151
19.73577 650.960209926863
19.75588 720.910336757705
19.776 797
19.79611 828.013765334864
19.81622 865.042335479398
19.83634 896.012100794438
19.85645 876.083783193124
19.87656 864.928894805481
19.89668 923.965900218925
19.91679 916.009787504119
19.93691 896.981810082166
19.95702 822.887361896687
19.97713 745.049949182234
19.99725 855.189193211392
20.01736 826.188341703788
20.03747 755.991829738272
20.05759 821.970110337878
20.0777 825
20.09782 782.978437519053
20.11793 768.936703548855
20.13804 733.082105747248
20.15816 817.952666964286
20.17827 754.110412588213
20.19838 747.938330834142
20.2185 814
20.23861 768.989167595517
20.25872 791.012466975262
20.27884 765.925333075909
20.29895 749.963518245207
20.31907 769.017876898236
20.33918 722.050234528714
20.35929 736.941374046217
20.37941 854.988898721099
20.39952 708.887539063204
20.41963 723.11794747638
20.43975 777.002309812812
20.45986 745.033403427225
20.47998 763.97281725269
20.50009 779.9938014879
20.5202 775
20.54032 734.026115283566
20.56043 808.057470674187
20.58054 783.938812753448
20.60066 779.004844540397
20.62077 777.966195731497
20.64088 853.864140888771
20.661 985
20.68111 1005.05426061589
20.70123 1250.45863635391
20.72134 1550.59070449303
20.74145 1910.79218246953
20.76157 2486.15543814443
20.78168 3039.36812791329
20.80179 3719.7051826148
20.82191 4165.18402817071
20.84202 4411.00056715538
20.86214 4094.84365451198
20.88225 3385.13363353251
20.90236 2674.34621397936
20.92248 2027.61018114713
20.94259 1478.22679398563
20.9627 1145
20.98282 1001.86690282192
21.00293 873.897986640313
21.02305 878.088965119215
21.04316 867.189409388167
21.06327 744.084756886738
21.08339 765.990719555913
21.1035 742
21.12361 743.003966324935
21.14373 731.943185072563
21.16384 700.030353255105
21.18395 739.005103173365
21.20407 698.019506030179
21.22418 729.973056182398
21.2443 725
21.26441 718.998332171354
21.28452 709.982647514693
21.30464 688.966341431037
21.32475 675.048854829521
21.34486 655.012498915753
21.36498 667.976542584317
21.38509 684.000531345238
21.40521 659.978477879005
21.42532 628.006122048058
21.44543 662.037060539834
21.46555 660.98345921526
21.48566 657.026126683359
21.50577 632.041324918308
21.52589 618.995090987118
21.546 630
21.56612 594.989644094167
21.58623 606.986043885878
21.60634 563.909543097311
21.62646 550.953688091953
21.64657 580.994644605361
21.66668 559.013323490127
21.6868 573
21.70691 581.989433690818
21.72702 543.972151232138
21.74714 531.966695240129
21.76725 514.980050495664
21.78737 552.928916322869
21.80748 565.048258713452
21.82759 498.009118110167
21.84771 530.008270613064
21.86782 507.981749889281
21.88793 507.986312249927
21.90805 494.032331841623
21.92816 538.900910386435
21.94828 547.053277930229
21.96839 481.004631906672
21.9885 522
22.00862 499.000866938975
22.02873 530.007642273669
22.04884 489.903086030544
22.06896 473.956635446795
22.08907 500.012222574443
22.10919 472.995885305611
22.1293 508
22.14941 479.0067614152
22.16953 539.059247793741
22.18964 520.906794084978
22.20975 484.042301261529
22.22987 489.966798680487
22.24998 505.009019476361
22.27009 487.995953704065
22.29021 522.013650695236
22.31032 519.978107933253
22.33044 483.893463362178
22.35055 445.027799719233
22.37066 491.93503673084
22.39078 486.018964755555
22.41089 482.991711202203
22.431 506
22.45112 500.987955470951
22.47123 490.986675521143
22.49135 473.917306792708
22.51146 437.039298984398
22.53157 443.96626312974
22.55169 467.988938749827
22.5718 472
22.59191 446.010919839096
22.61203 496.017566783683
22.63214 467.993181146382
22.65225 488.05469171166
22.67237 429.03787075921
22.69248 454.975941617338
22.7126 448
22.73271 451.010446892288
22.75282 468.993309775674
22.77294 452.01760011763
22.79305 471.056134169983
22.81316 416.052648538726
22.83328 440.962255229849
22.85339 453.007135186883
22.87351 429.993296422049
22.89362 447.050092326597
22.91373 482.956848789338
22.93385 428.019970166236
22.95396 495.929122712626
22.97407 459.086271772831
22.99419 439.986254734897
23.0143 487
23.03442 474.953010097936
23.05453 428.975734371296
23.07464 439.008959874764
23.09476 419.062648893081
23.11487 413.930557160831
23.13498 482.963184644677
23.1551 473
23.17521 458.980218234569
23.19532 412.996339814668
23.21544 458.102963303749
23.23555 477.028619704404
23.25567 453.031282694629
23.27578 438.021571394437
23.29589 422.991195822182
23.31601 460.008341442671
23.33612 440.969256079107
23.35623 432.034185909893
23.37635 463.013417122006
23.39646 443.022879464587
23.41658 439.031163489666
23.43669 402.99160066358
23.4568 452
23.47692 410.996674494083
23.49703 465.074795644511
23.51714 462.917546148717
23.53726 419.043770359725
23.55737 429.953932491543
23.57749 456.993823895177
23.5976 449
23.61771 426.99578869097
23.63783 437.031936089925
23.65794 455.013685703816
23.67805 464.913480391163
23.69817 503.998950918957
23.71828 450.081814470336
23.73839 402.987430292264
23.75851 465.01288217403
23.77862 447.002961797022
23.79874 480.014579044578
23.81885 440.873672232019
23.83896 418.974115583058
23.85908 447.980048203959
23.87919 450.000082786683
23.8993 462
23.91942 485.01458775893
23.93953 479.959151836195
23.95965 458.034354257462
23.97976 501.924683404453
23.99987 505.036613829145
24.01999 482.998278913608
24.0401 496
24.06021 443.972646751155
24.08033 422.021508188165
24.10044 451.036854047811
24.12056 452.991255087215
24.14067 466.98244656079
24.16078 475.982503366161
24.1809 490
24.20101 450.98011464703
24.22112 451.055873787316
24.24124 505.960920321942
24.26135 437.048042604879
24.28146 481.950060687297
24.30158 457.020560098697
24.32169 471.986300511227
24.34181 496.013675048466
24.36192 498.943730197414
24.38203 434.018792347997
24.40215 509.091351470196
24.42226 476.066813410625
24.44237 480.979781303461
24.46249 496.978928158134
24.4826 527
24.50272 455.011883653089
24.52283 553.113193074669
24.54294 546.920685526963
24.56306 519.036154679642
24.58317 513.97923621927
24.60328 532.995629241485
24.6234 527
24.64351 568.034917433057
24.66362 629.017531331835
24.68374 606.952468772045
24.70385 614.911018111779
24.72397 660.936326701438
24.74408 684.996369538325
24.76419 671.013501527064
24.78431 666.023872908792
24.80442 741.0450596322
24.82453 727.935179574853
24.84465 714.118320741774
24.86476 785.946695332458
24.88488 756.029118370762
24.90499 759.993893651404
24.9251 748
24.94522 686.944462432113
24.96533 667.036275373304
24.98544 704.019513090211
25.00556 682.03661058201
25.02567 673.043381427175
25.04579 622.022457143757
25.0659 605
25.08601 622.011248620299
25.10613 633.98639655445
25.12624 614.985523466653
25.14635 629.935220234036
25.16647 642.023858824864
25.18658 620.98897285682
25.20669 671.969426383443
25.22681 709.003510978969
25.24692 706.012236933364
25.26704 739.067376111482
25.28715 725.780870075554
25.30726 613.116670966553
25.32738 629.964510769126
25.34749 636.007534514208
25.3676 608
25.38772 570.984371478812
25.40783 580.029853410698
25.42795 597.034110698118
25.44806 583.130380423516
25.46817 520.969351533196
25.48829 572.025035584924
25.5084 461
25.52851 571.021602680872
25.54863 501.922503435846
25.56874 525.053508915762
25.58886 518.015070467654
25.60897 526.986118587596
25.62908 522.017500818117
25.6492 517
25.66931 572.02144055298
25.68942 570.958573444782
25.70954 541.060665960314
25.72965 598.991396832732
25.74976 539.100404092096
25.76988 545.961165408678
25.78999 568.009363632253
25.81011 524.986768677396
25.83022 527.00230680301
25.85033 521.007887734531
25.87045 537.016481705397
25.89056 528.021447388614
25.91067 542.918762323965
25.93079 595.003096827563
25.9509 551
25.97102 590.012655053014
25.99113 557.963004800392
26.01124 574.077002900455
26.03136 607.960887408671
26.05147 599.063699064527
26.07158 577.939108537509
26.0917 676
26.11181 629.990641706951
26.13193 680.088114945996
26.15204 695.960931577989
26.17215 682.929511814433
26.19227 756.867059104485
26.21238 824.958888242864
26.23249 827.021970896622
26.25261 806.039081572978
26.27272 945.083734077011
26.29283 958.060349632987
26.31295 1036.06802994455
26.33306 1022.91132484488
26.35318 1161.82902470302
26.37329 1316.92541241487
26.3934 1482
26.41352 1733.34248327718
26.43363 2192.84381204097
26.45374 2851.48509299829
26.47386 3739.83831159019
26.49397 5071.66183805427
26.51409 6844.02758845285
26.5342 9114
26.55431 12180.5467263904
26.57443 14976.5903993362
26.59454 16945.0928586253
26.61465 17827.1794883192
26.63477 16756.7411272313
26.65488 14410.8178409496
26.67499 11269.6373564682
26.69511 8249.76921935081
26.71522 6165.89823700827
26.73534 3985.29245687034
26.75545 2619.34272466694
26.77556 1744.16990652562
26.79568 1410.20307962288
26.81579 1235.05997579989
26.8359 1135
26.85602 985.929478562621
26.87613 987.972911175269
26.89625 903.74386229321
26.91636 845.9906601592
26.93647 859.074494164691
26.95659 758.03406120106
26.9767 740
26.99681 679.983838513414
27.01693 680.979514308825
27.03704 635.910676454114
27.05716 621.96733341571
27.07727 634.039528738425
27.09738 579.038968159296
27.1175 567
27.13761 537.994081847823
27.15772 537.978718663607
27.17784 506.002796441325
27.19795 532.998172669682
27.21806 501.038448771878
27.23818 507.998690286438
27.25829 507.982560136146
27.27841 557.002642867637
27.29852 514.964696851367
27.31863 527.069893878391
27.33875 567.010436041919
27.35886 551.977743573268
27.37897 591.961187848908
27.39909 607.97365432301
27.4192 662
27.43932 572.954001361094
27.45943 592.004863049113
27.47954 544.898205867921
27.49966 517.046223643362
27.51977 503.967889357429
27.53988 542.98516174398
27.56 511
27.58011 460.989621344947
27.60023 453.958879301755
27.62034 416.997856198829
27.64045 441.017713445545
27.66057 406.004983403449
27.68068 444.967956224258
27.70079 436.017604508472
27.72091 403.993249567872
27.74102 411.014652495702
27.76113 415.986019907957
27.78125 413.071552670326
27.80136 451.995720753835
27.82148 416.028465373542
27.84159 417.994903965145
27.8617 412
27.88182 391.006339172023
27.90193 421.038899153378
27.92204 417.940684677336
27.94216 378.070450867231
27.96227 370.953983603638
27.98239 405.003582267405
28.0025 370
28.02261 397.001454427983
28.04273 361.953949408452
28.06284 366.055228830246
28.08295 387.013057359891
28.10307 369.992389694684
28.12318 401.970483855563
28.1433 404
28.16341 379.995637466816
28.18352 388.008792737143
28.20364 378.940958560889
28.22375 352.004406739512
28.24386 371.99677878584
28.26398 357.990355418017
28.28409 394.985825699883
28.3042 389
28.32432 359.989135116197
28.34443 363.99911455599
28.36455 358.018064518206
28.38466 374.991077518451
28.40477 358.037722450836
28.42489 345.995205298964
28.445 368
28.46511 363.988910106693
28.48523 344.000792739525
28.50534 359.010590583954
28.52546 351.001586276784
28.54557 358.007635835152
28.56568 345.993677515513
28.5858 369
28.60591 368.004638790819
28.62602 383.995174338352
28.64614 353.936202711153
28.66625 346.94497795128
28.68636 376.974827829628
28.70648 361.030305915059
28.72659 340.000869367782
28.74671 360.017111031143
28.76682 381.990172441698
28.78693 352.976090023585
28.80705 353.975315175485
28.82716 337.978690930055
28.84727 373.959520535392
28.86739 358.029369376629
28.8875 301
28.90762 343.053125721167
28.92773 359.959827350013
28.94784 326.006165049138
28.96796 362.953710975994
28.98807 351.031896497344
29.00818 342.000754864295
29.0283 341
29.04841 336.002640605747
29.06853 342.985661384831
29.08864 325.000020446594
29.10875 353.894973790361
29.12887 375.028561308424
29.14898 326.049100835551
29.16909 317.977382454603
29.18921 369.999644783604
29.20932 320.966385789912
29.22943 319.97912359278
29.24955 306.111318643056
29.26966 378.976729897859
29.28978 322.043745866811
29.30989 333.985523616768
29.33 348
29.35012 346.987864139291
29.37023 331.992887035518
29.39034 349.074467174981
29.41046 373.04382779549
29.43057 325.032133564496
29.45069 338.997088778776
29.4708 327
29.49091 351.006826030752
29.51103 351.019386417183
29.53114 365.958995042642
29.55125 322.042943252091
29.57137 347.946533620632
29.59148 355.026902681057
29.6116 324
29.63171 345.998990034935
29.65182 314.980612544835
29.67194 335.093868526146
29.69205 372.004548320215
29.71216 340.07823474516
29.73228 321.994360251926
29.75239 338.993279137834
29.7725 338
29.79262 329.003278482379
29.81273 343.020273855452
29.83285 349.00578289797
29.85296 344.039363067359
29.87307 324.992737144388
29.89319 347.993980607318
29.9133 337
29.93341 342.019380501896
29.95353 381.994616468872
29.97364 335.914561236393
29.99376 321.014725178756
30.01387 321.95401234618
30.03398 359.999051850642
30.0541 324
30.07421 333.015739693884
30.09432 366.027694658424
30.11444 369.93610418043
30.13455 326.047403017977
30.15467 339.9722073113
30.17478 347.989507108839
30.19489 360.000406046409
30.21501 341.987442233957
30.23512 320.984882335095
30.25523 324.047916781539
30.27535 363.032027511838
30.29546 341.064751778167
30.31557 320.017305696465
30.33569 317.995104822254
30.3558 326
30.37592 312.011357174481
30.39603 342.018333766136
30.41614 336.022466398379
30.43626 354.042711178959
30.45637 309.009699130045
30.47648 338.997893448096
30.4966 309
30.51671 343.008433702383
30.53683 325.977407790439
30.55694 329.003470505784
30.57705 307.120508807426
30.59717 268.981594918214
30.61728 323.950541694957
30.63739 333.009487198871
30.65751 320.007303355454
30.67762 347.002382942427
30.69773 324.985962348699
30.71785 341.043293938578
30.73796 340.030278632852
30.75808 330.986660650796
30.77819 356.993792722022
30.7983 353
30.81842 357.979680543533
30.83853 314.947466226167
30.85864 306.0107290828
30.87876 315.967102495593
30.89887 323.030770297674
30.91899 291.004397503121
30.9391 313
30.95921 325.003537301215
30.97933 319.950113820402
30.99944 289.036840727348
31.01955 328.041440646252
31.03967 269.017635553654
31.05978 316.969624678693
31.0799 307
31.10001 334.002494647673
31.12012 309.985051228851
31.14024 321.032242865558
31.16035 321.041645949122
31.18046 299.030284722793
31.20058 296.994522239328
31.22069 311.984009781018
31.2408 342
31.26092 304.943598712325
31.28103 269.010361229173
31.30115 304.065145096883
31.32126 303.019559774028
31.34137 306.967213532623
31.36149 328.001575568344
31.3816 303
31.40171 301.00355363842
31.42183 306.002475101845
31.44194 310.026325096352
31.46206 321.019138330089
31.48217 296.025109704944
31.50228 301.980304415212
31.5224 320
31.54251 318.996456499776
31.56262 309.988958659752
31.58274 299.9890832494
31.60285 299.992390734876
31.62297 303.992148964456
31.64308 301.020978011631
31.66319 285.987490867975
31.68331 328.000667065365
31.70342 290.984419825796
31.72353 310.011162214394
31.74365 292.979063005566
31.76376 304.977764003543
31.78387 302.013865345063
31.80399 292.006456429922
31.8241 275
31.84422 265.011126282364
31.86433 303.08838390197
31.88444 349.007828005715
31.90456 310.10663885514
31.92467 278.003353499186
31.94478 287.006604789283
31.9649 277
31.98501 323.005469216949
32.00513 298.994103822927
32.02524 319.992163800098
32.04535 289.025171376186
32.06547 305.99631435373
32.08558 287.005613610662
32.10569 303.993033024513
32.12581 298.992853892787
32.14592 295.016414169249
32.16604 324.046673845479
32.18615 323.941478177697
32.20626 297.020269570861
32.22638 299.010409928164
32.24649 280.997969029974
32.2666 301
32.28672 287.01362487487
32.30683 330.048300583102
32.32694 325.947487471841
32.34706 290.092246024558
32.36717 262.965323184683
32.38729 304.002481528236
32.4074 257
32.42751 288.020779703839
32.44763 304.997068214487
32.46774 297.992076687373
32.48785 299.992825282741
32.50797 303.984417917
32.52808 315.996701768695
32.5482 309
32.56831 308.003618349571
32.58842 310.985608775756
32.60854 286.975178489163
32.62865 297.937202253783
32.64876 316.003117896728
32.66888 301.009711150778
32.68899 306.993246538721
32.7091 316
32.72922 298.96083748193
32.74933 272.037346533408
32.76945 321.013714624598
32.78956 275.075497916033
32.80967 279.964992070817
32.82979 293.999489392743
32.8499 294
32.87001 305.988569259994
32.89013 260.967746853878
32.91024 279.057222196854
32.93036 300.947694426641
32.95047 320.016743654784
32.97058 299.984282401171
32.9907 337
33.01081 291.982578983574
33.03092 299.027261223992
33.05104 321.024727437199
33.07115 314.079507252384
33.09127 285.984266400351
33.11138 319.992526513375
33.13149 289.01562623141
33.15161 297.024451000645
33.17172 343.999798634559
33.19183 312.999185724813
33.21195 336.954149716356
33.23206 285.019090449305
33.25217 338.905936449794
33.27229 355.016137168154
33.2924 311
33.31252 330.02575997811
33.33263 326.942396908852
33.35274 291.022680062628
33.37286 339.937049587141
33.39297 327.045184640942
33.41308 311.994507684156
33.4332 323
33.45331 307.99908715402
33.47343 326.030319415039
33.49354 338.020930169151
33.51365 342.03575846053
33.53377 319.01487836386
33.55388 328.984948779986
33.57399 326.014693176309
33.59411 289.993090086927
33.61422 310.037022485206
33.63434 337.011985633017
33.65445 322.943924698891
33.67456 313.969824142282
33.69468 329.019904137626
33.71479 285.010931981497
33.7349 296
33.75502 292.00761343398
33.77513 306.990495481569
33.79524 292.035234171063
33.81536 324.027013388444
33.83547 274.026232016193
33.85559 302.989795144418
33.8757 299
33.89581 322.998742631067
33.91593 289.959007912026
33.93604 290.027064175215
33.95615 303.962899021873
33.97627 300.064754127292
33.99638 259.973282751296
34.0165 333
34.03661 301.980514590184
34.05672 291.999201429348
34.07684 288.000758761002
34.09695 303.912914084679
34.11706 339.969467447626
34.13718 325.032927321206
34.15729 304.993976228494
34.17741 332.002754342698
34.19752 311.986712000971
34.21763 328.053765528001
34.23775 344.920821365959
34.25786 288.056500858995
34.27797 303.965893389416
34.29809 313.992539903915
34.3182 336
34.33831 335.999164301604
34.35843 335.990368953966
34.37854 324.988934676118
34.39866 329.978820969283
34.41877 337.997076757795
34.43888 337.994462524712
34.459 352
34.47911 367.005197761177
34.49922 368.991484582634
34.51934 368.053385720306
34.53945 412.918361725192
34.55957 416.021578956901
34.57968 396.02571680329
34.59979 386.98465645203
34.61991 445.024548346218
34.64002 455.97875123796
34.66013 436.01348593968
34.68025 467.045789056835
34.70036 458.033240706674
34.72047 465.932368181192
34.74059 521.986486834101
34.7607 510
34.78082 509.021381201233
34.80093 535.016402467315
34.82104 519.935031682851
34.84116 530.786945504546
34.86127 649.013166563091
34.88138 534.0613921234
34.9015 573
34.92161 547.99744555002
34.94173 579.01707698454
34.96184 563.008159390442
34.98195 579.069015708754
35.00207 523.019260586918
35.02218 554.993014460364
35.04229 523.007466174208
35.06241 532.993493226221
35.08252 491.974330102357
35.10264 513.112469236663
35.12275 551.949587631329
35.14286 486.111547291982
35.16298 477.977114932497
35.18309 498.000055689319
35.2032 482
35.22332 487.009044753721
35.24343 491.001644322125
35.26354 485.9670809384
35.28366 468.007516968297
35.30377 481.970439484136
35.32389 479.021114149836
35.344 415
35.36411 425.041899848819
35.38423 521.047788362603
35.40434 476.886607066626
35.42445 459.967546600283
35.44457 488.938752004139
35.46468 524.982345967452
35.4848 505
35.50491 443.997468579565
35.52502 496.057129667385
35.54514 514.976619856547
35.56525 492.055285983594
35.58536 481.996299700109
35.60548 483.012248891511
35.62559 466.998785809518
35.64571 497.022136150251
35.66582 521.984583553812
35.68593 482.963156255632
35.70605 496.09081345194
35.72616 510.080114396443
35.74627 459.975551874989
35.76639 527.986009604587
35.7865 488
35.80661 494.024488171487
35.82673 549.046149801745
35.84684 537.917925237077
35.86696 509.965813745612
35.88707 548.991327051471
35.90718 515.02498013564
35.9273 528
35.94741 532.976597723177
35.96752 490.042442044148
35.98764 584.059085466526
36.00775 521.169283650604
36.02787 507.978074777833
36.04798 523.982007261551
36.06809 528.013437355282
36.08821 496.003028142891
36.10832 522.98781017584
36.12843 467.938308034298
36.14855 470.046965532274
36.16866 488.943185541517
36.18878 508.019277319647
36.20889 461.017338724421
36.229 459
36.24912 479.041688964677
36.26923 529.045882543371
36.28934 531.987888986515
36.30946 539.947468582374
36.32957 580.929354008951
36.34968 633.934112495797
36.3698 706
36.38991 757.025816545855
36.41003 848.232652455086
36.43014 1041.35225639507
36.45025 1189.60279658389
36.47037 1378.70790236116
36.49048 1525.93474400984
36.51059 1511.03062164262
36.53071 1439.96156875013
36.55082 1331.83427987736
36.57094 1139.68813490535
36.59105 1034.7586677495
36.61116 926.190382836089
36.63128 831.130172380657
36.65139 667.078531347249
36.6715 561
36.69162 541.974124914672
36.71173 504.975715117907
36.73184 516.026492804809
36.75196 496.126497211766
36.77207 427.038473870406
36.79219 448.98743599765
36.8123 459
36.83241 484.999954299043
36.85253 470.018880730354
36.87264 504.013393264745
36.89275 475.060626183876
36.91287 477.98085533487
36.93298 482.005960610158
36.9531 471
36.97321 472.007586037493
36.99332 484.990856704673
37.01344 466.00688161825
37.03355 476.078231822068
37.05366 432.95332471544
37.07378 500.988200566591
37.09389 447.014233842631
37.11401 481.021135839075
37.13412 488.984593920268
37.15423 450.894497869895
37.17435 388.995617986968
37.19446 448.857897521975
37.21457 484.99450973572
37.23469 468.014361837358
37.2548 443
37.27491 421.973869577179
37.29503 366.994466309544
37.31514 420.123128518177
37.33526 440.049638125498
37.35537 413.970850244752
37.37548 444.041274974639
37.3956 367
37.41571 455.025414377003
37.43582 428.975691226787
37.45594 436.985581898539
37.47605 400.08268249122
37.49617 387.014238012201
37.51628 389.958885623564
37.53639 438.001453739814
37.55651 398.9987932842
37.57662 444.030666389886
37.59673 440.002939399646
37.61685 461.03088620479
37.63696 451.037026169957
37.65708 447.977100763436
37.67719 474.002275022839
37.6973 451
37.71742 476.996068314153
37.73753 449.007832362062
37.75764 488.032361209022
37.77776 472.002545099272
37.79787 491.003216372125
37.81798 461.022777774451
37.8381 463
37.85821 451.978725030812
37.87833 402.972264945446
37.89844 423.0605675121
37.91855 443.951343936714
37.93867 450.041752336974
37.95878 413.997452699209
37.97889 456.980845384913
37.99901 461.993755997417
38.01912 444.975833139869
38.03924 432.039338665504
38.05935 468.036044235711
38.07946 452.035280388886
38.09958 448.00353482199
38.11969 437.006500397529
38.1398 434
38.15992 457.017668907262
38.18003 463.003099862527
38.20015 463.987342169824
38.22026 462.963831074793
38.24037 486.997983941609
38.26049 463.011618784862
38.2806 474
38.30071 532.00892901647
38.32083 509.974669275638
38.34094 521.034155850674
38.36105 522.038871769703
38.38117 502.017388348057
38.40128 505.985931195895
38.4214 516
38.44151 512.007812003672
38.46162 527.976267576432
38.48174 480.973300863064
38.50185 513.912144753343
38.52196 520.02179375825
38.54208 505.01827772799
38.56219 485.01022499956
38.58231 463.988845062911
38.60242 456.02316488257
38.62253 489.006550551593
38.64265 458.920119326491
38.66276 446.009337879961
38.68287 435.031078922335
38.70299 419.995001449745
38.7231 447
38.74321 437.988887986169
38.76333 417.978784778927
38.78344 425.080271389179
38.80356 463.024583236667
38.82367 408.062998619058
38.84378 404.9930388632
38.8639 406
38.88401 414.995126975591
38.90412 397.00393519505
38.92424 426.053942220787
38.94435 429.04084805876
38.96447 415.987328775626
38.98458 431.011620329024
39.00469 402.001806264469
39.02481 436.020454407838
39.04492 450.986134655623
39.06503 423.967945693618
39.08515 426.06220895344
39.10526 453.977617580194
39.12538 448.004248775101
39.14549 451.001576016272
39.1656 443
39.18572 472.058080037702
39.20583 518.988864586382
39.22594 468.924489306402
39.24606 479.916217715788
39.26617 535.89485328232
39.28628 613.922390787434
39.3064 674
39.32651 729.070051292232
39.34663 943.317012128082
39.36674 1079.11755196504
39.38685 1152.55375290624
39.40697 1389.76945256779
39.42708 1402.04919215397
39.44719 1355.03056861547
39.46731 1247.91702299937
39.48742 1067.86821296138
39.50754 981.798624464473
39.52765 858.775936031316
39.54776 809.112205579858
39.56788 704.147498382497
39.58799 557.052962563271
39.6081 489
39.62822 414.964935074241
39.64833 413.98098608249
39.66845 373.908000507089
39.68856 362.984290565279
39.70867 381.955814872328
39.72879 402.004661351551
39.7489 364
39.76901 354.024682335621
39.78913 411.987392954542
39.80924 338.877711862192
39.82935 332.956697704862
39.84947 340.007244394196
39.86958 326.018796215063
39.8897 323
39.90981 370.016477589065
39.92992 366.970124603133
39.95004 333.958087219634
39.97015 344.880439256408
39.99026 392.988743462734
40.01038 365.01013730726
40.03049 399.972144076369
40.05061 448.017490020699
40.07072 456.974441113616
40.09083 433.033652984401
40.11095 497.138941843105
40.13106 520.965195374363
40.15117 547.960229095176
40.17129 588.960241002723
40.1914 693
40.21152 751.051493374718
40.23163 799.033459489268
40.25174 794.980783142001
40.27186 783.062817833416
40.29197 733.074312648626
40.31208 698.024200532812
40.3322 662
40.35231 582.97177047711
40.37242 566.00503761801
40.39254 540.821570975999
40.41265 427.155050943258
40.43277 427.003056685683
40.45288 382.064079332969
40.47299 340.999154835724
40.49311 370.010674651443
40.51322 357.963528608856
40.53333 331.012187097899
40.55345 367.077723793558
40.57356 364.067940318917
40.59368 325.02058783903
40.61379 329.992638465709
40.6339 339
40.65402 334.986363412222
40.67413 322.000500801728
40.69424 334.018849930783
40.71436 332.016325257606
40.73447 331.974176798105
40.75458 349.010054899664
40.7747 316
40.79481 324.016910900011
40.81493 355.008521627262
40.83504 330.92817647579
40.85515 313.960846574075
40.87527 337.013025825748
40.89538 308.995628221066
40.91549 349.985098046941
40.93561 332.974037852985
40.95572 296.016773317783
40.97584 344.035681509709
40.99595 318.950054829582
41.01606 329.959554703883
41.03618 337.007162019022
41.05629 338.982326605352
41.0764 380
41.09652 339.99157174086
41.11663 371.019628954499
41.13675 342.911887721317
41.15686 338.935265595509
41.17697 373.006830459543
41.19709 340.005409000418
41.2172 357
41.23731 332.99488083751
41.25743 340.989777913113
41.27754 319.99707516383
41.29765 337.990880479588
41.31777 319.024120365838
41.33788 316.005030803078
41.358 313
41.37811 343.006172215728
41.39822 338.006878030248
41.41834 350.968074703833
41.43845 313.043489779559
41.45856 329.953940276616
41.47868 332.017968025884
41.49879 313.999409383461
41.51891 333.008079806742
41.53902 331.987841458297
41.55913 326.017385098779
41.57925 347.026669005434
41.59936 331.078326430524
41.61947 301.982339936878
41.63959 349.975790556433
41.6597 365
41.67982 328.958624946994
41.69993 311.03276747875
41.72004 353.051749333431
41.74016 344.053544173069
41.76027 328.98567590485
41.78038 350.99071294605
41.8005 336
41.82061 315.99455573941
41.84072 316.009593278683
41.86084 320.974838792574
41.88095 307.957974257819
41.90107 339.0014667747
41.92118 310.006685075247
41.94129 332.995167916448
41.96141 311.987024131232
41.98152 308.019609366285
42.00163 334.019873814653
42.02175 339.049656740901
42.04186 357.048012481862
42.06198 303.031303470575
42.08209 321.97769620909
42.1022 349
42.12232 325.003976663991
42.14243 353.009150239424
42.16254 338.020476104453
42.18266 368.998954458125
42.20277 347.974050819334
42.22289 407.976845890315
42.243 428
42.26311 489.025217284381
42.28323 530.099713413445
42.30334 604.054176956718
42.32345 626.715715955053
42.34357 806.815756151201
42.36368 863.897126863989
42.38379 1001.97624531357
42.40391 955.991029282873
42.42402 992.997660827489
42.44414 921.850942056066
42.46425 864.796367934124
42.48436 758.175927257124
42.50448 701.054982801015
42.52459 638.025170185899
42.5447 595
42.56482 509.908687761807
42.58493 430.903812649902
42.60505 376.877254400259
42.62516 344.99162936889
42.64527 356.04483356541
42.66539 312.989900044998
42.6855 374
42.70561 309.980063084229
42.72573 319.993602257383
42.74584 289.993962089773
42.76595 312.01884599448
42.78607 278.99933066431
42.80618 312.99151846547
42.8263 286
42.84641 295.996972929577
42.86652 270.992663551057
42.88664 286.011309882391
42.90675 275.008317204147
42.92686 288.966888286786
42.94698 296.000189000082
42.96709 286.012351277582
42.98721 253.98683959121
43.00732 256.040527919399
43.02743 296.98893924261
43.04755 254.964193003001
43.06766 285.936490153171
43.08777 287.025912008975
43.10789 273.999184349952
43.128 282
43.14812 270.003319841643
43.16823 291.02687930232
43.18834 289.969163346473
43.20846 277.989998439101
43.22857 295.979860917033
43.24868 296.004906804456
43.2688 283
43.28891 251.000476405271
43.30902 275.004963126994
43.32914 263.02989294363
43.34925 293.027680777194
43.36937 246.032036072001
43.38948 265.984322276677
43.40959 265.990804799997
43.42971 298.003097960933
43.44982 267.962662309592
43.46993 261.049247853471
43.49005 295.974193428109
43.51016 260.983252582313
43.53028 308.984303110338
43.55039 275.014603700911
43.5705 280
43.59062 281.991859494029
43.61073 279.022561070827
43.63084 306.039487673967
43.65096 302.050588578988
43.67107 277.007692673942
43.69119 285.002557328549
43.7113 260
43.73141 261.017035258562
43.75153 304.030300214778
43.77164 295.978702008229
43.79175 291.040695392345
43.81187 267.015894802623
43.83198 276.983253345143
43.85209 289.993879048783
43.87221 289.986536543852
43.89232 251.981999167427
43.91244 265.048935217187
43.93255 279.001688174172
43.95266 272.012563946862
43.97278 277.978513731036
43.99289 298.001061365262
44.013 279
44.03312 289.015046494662
44.05323 292.987235496676
44.07335 276.957731207042
44.09346 269.9848896063
44.11357 284.984022721879
44.13369 292.990729575409
44.1538 308
44.17391 280.003704898648
44.19403 318.024672088524
44.21414 291.924523043524
44.23426 274.987409296094
44.25437 284.016570422813
44.27448 260.006725925177
44.2946 277
44.31471 278.997835821275
44.33482 283.018317440032
44.35494 308.03533221952
44.37505 300.095183625107
44.39516 260.017069976482
44.41528 278.990852628552
44.43539 268.00206607163
44.45551 278.002181594444
44.47562 275.007536170133
44.49573 287.993074217022
44.51585 268.982257912834
44.53596 283.958021555819
44.55607 291.016880624384
44.57619 272.005826243504
44.5963 269
44.61642 267.028043629021
44.63653 302.995837978177
44.65664 271.995395060836
44.67676 299.000128106045
44.69687 264.032096914418
44.71698 282.962305931654
44.7371 303
44.75721 270.989337492839
44.77732 279.026787603085
44.79744 295.977524874371
44.81755 272.999201922425
44.83767 299.967125367117
44.85778 294.025214216876
44.87789 275.996313039474
44.89801 300.006767496876
44.91812 293.992137648776
44.93823 302.035928891865
44.95835 324.00405157407
44.97846 310.013147081049
44.99858 306.028983289662
45.01869 262.010328841116
45.0388 272
45.05892 274.016275061805
45.07903 301.017247692119
45.09914 299.024462904889
45.11926 317.025467294922
45.13937 281.022663198102
45.15949 297.99189173454
45.1796 304
45.19971 319.986976797195
45.21983 274.998118042623
45.23994 313.021145873291
45.26005 284.035085484296
45.28017 308.949663883411
45.30028 323.003804864336
45.32039 313.00315454082
45.34051 319.008547486416
45.36062 343.027495000797
45.38074 351.942653850185
45.40085 327.098239453198
45.42096 399.971013909738
45.44108 348.03500870776
45.46119 362.992490889773
45.4813 354
45.50142 361.007639264603
45.52153 371.041011083806
45.54165 407.050985808611
45.56176 397.062560270955
45.58187 385.937001417698
45.60199 459.974552649594
45.6221 473
45.64221 512.02388415837
45.66233 567.113118859451
45.68244 650.125259185411
45.70256 680.972351705957
45.72267 712.895747556771
45.74278 786.975649995232
45.7629 759
45.78301 741.979226553241
45.80312 672.938655107058
45.82324 626.887411006115
45.84335 562.110120160524
45.86346 549.99342969359
45.88358 541.031854753717
45.90369 497.016976997159
45.92381 464.97037370285
45.94392 379.921619279023
45.96403 331.963860521489
45.98415 333.086738544557
46.00426 370.002828465455
46.02437 325.079752777059
46.04449 294.00639348724
46.0646 297
46.08472 314.992750291833
46.10483 285.96302744665
46.12494 288.050835607553
46.14506 311.005072296873
46.16517 293.000869546156
46.18528 310.995303775908
46.2054 297
46.22551 313.012980552922
46.24563 319.95633524209
46.26574 274.953690353241
46.28585 283.96429359144
46.30597 287.992646575006
46.32608 294.004039107436
46.34619 283.001808027103
46.36631 290.003267719934
46.38642 294.010291734922
46.40653 299.973207717628
46.42665 270.980968234815
46.44676 292.945343380374
46.46688 301.012265358196
46.48699 286.998037572604
46.5071 302
46.52722 288.001094061503
46.54733 307.016761743756
46.56744 296.961848764495
46.58756 285.000876589266
46.60767 289.004332390467
46.62779 281.998449334555
46.6479 299
46.66801 311.001098873469
46.68813 296.947297665861
46.70824 270.031890726178
46.72835 319.901013580465
46.74847 315.06041470755
46.76858 273.018545325228
46.78869 293.974195886648
46.80881 332.99554207033
46.82892 281.948098389035
46.84904 267.03937442191
46.86915 297.045349961463
46.88926 293.029360145243
46.90938 284.995285307499
46.92949 302.987202378779
46.9496 319
46.96972 307.008895842384
46.98983 319.959640531112
47.00995 269.970187443054
47.03006 307.922637871554
47.05017 305.057680949148
47.07029 274.991572186018
47.0904 329
47.11051 328.987048994281
47.13063 296.948279816852
47.15074 277.017364830533
47.17086 303.959129526561
47.19097 299.037429902137
47.21108 277.998126909353
47.2312 299
47.25131 296.992764554849
47.27142 292.019698833767
47.29154 317.99679280585
47.31165 290.047726443786
47.33176 300.945417677605
47.35188 320.000621578849
47.37199 297.018312932611
47.39211 266.994486223369
47.41222 283.039028112092
47.43233 321.024207266668
47.45245 307.927015170374
47.47256 285.013231785376
47.49267 286.014574448719
47.51279 278.986170257543
47.5329 319
47.55302 276.976425158999
47.57313 291.020195710312
47.59324 282.975001444437
47.61336 286.951070356236
47.63347 306.025069042871
47.65358 265.02300106421
47.6737 282
47.69381 303.995796657579
47.71393 279.986044816448
47.73404 294.031949304848
47.75415 294.031927642957
47.77427 277.023455881969
47.79438 270.99336834647
47.81449 283.995029848152
47.83461 283.996209730857
47.85472 293.04730294584
47.87483 337.969413273646
47.89495 283.010215862423
47.91506 345.944380104944
47.93518 319.008130301113
47.95529 346.996189060973
47.9754 315
47.99552 300.992042282726
48.01563 300.031971806366
48.03574 325.994840520187
48.05586 298.033543860565
48.07597 304.989248703597
48.09609 293.013386486752
48.1162 271
48.13631 291.013426851637
48.15643 303.98882524233
48.17654 297.04160364015
48.19665 329.003222852091
48.21677 285.077232760401
48.23688 265.980829581788
48.257 286
48.27711 251.0128824892
48.29722 320.020982995944
48.31734 277.941181949151
48.33745 296.06372137528
48.35756 294.049410310591
48.37768 273.992386584691
48.39779 290.008907776634
48.4179 252
48.43802 293.034441638412
48.45813 286.952595458999
48.47825 265.020987420931
48.49836 288.992034172309
48.51847 269.018763965467
48.53859 278.991956334574
48.5587 281
48.57881 269.009160711073
48.59893 306.026136980197
48.61904 283.912870851225
48.63916 257.972567490075
48.65927 287.998582692874
48.67938 256.023195395167
48.6995 268
48.71961 294.004189009668
48.73972 285.988123934027
48.75984 282.006676371994
48.77995 283.025919254106
48.80006 263.03701711242
48.82018 263.972395337785
48.84029 297.993783541852
48.86041 282.98972600574
48.88052 268.983236053846
48.90063 262.037435220448
48.92075 302.038992160166
48.94086 292.990020676398
48.96097 310.01762629146
48.98109 266.019147503101
49.0012 259
49.02132 269.999352319105
49.04143 267.020594123852
49.06154 293.029018306297
49.08166 291.0003699878
49.10177 291.029668975518
49.12188 266.992209094213
49.142 295
49.16211 272.00286005819
49.18223 304.00551346486
49.20234 274.976428338829
49.22245 290.988436948185
49.24257 279.987588569872
49.26268 308.984142437841
49.28279 294.014904629234
49.30291 271.996493485953
49.32302 277.007150433282
49.34313 277.994446132778
49.36325 277.019173019188
49.38336 284.018075955845
49.40348 269.992434899631
49.42359 287.006180993429
49.4437 258
49.46382 303.035502464588
49.48393 299.965476844963
49.50404 280.981704868435
49.52416 283.976334818401
49.54427 290.016957061208
49.56439 271.002638275873
49.5845 287
49.60461 298.997556627523
49.62473 293.021067880194
49.64484 318.011115202714
49.66495 302.023362141839
49.68507 317.952330764187
49.70518 343.992494125875
49.7253 330
49.74541 313.001739818711
49.76552 327.003026551703
49.78564 326.046423561975
49.80575 383.179162096874
49.82586 426.023512215983
49.84598 391.001257451658
49.86609 437.973787892004
49.8862 486
49.90632 582.076884095832
49.92643 639.11085968912
49.94655 752.338094154356
49.96666 888.740944392644
49.98677 1023.76515628812
50.00689 1220.88248212875
50.027 1464
50.04711 1650.08959366584
50.06723 1810.14907958597
50.08734 1864.12322373032
50.10746 1912.08341032067
50.12757 1765.28565328221
50.14768 1573.20822739891
50.1678 1347
50.18791 1187.97815469828
50.20802 1189.93054758408
50.22814 1043.78255361312
50.24825 999.161561497778
50.26837 863.257392703614
50.28848 688.177077118797
50.30859 526.063038478096
50.32871 437.967507355693
50.34882 380.953179940822
50.36893 363.042793671115
50.38905 394.936487323656
50.40916 331.044422987363
50.42927 363.966814224862
50.44939 342.016621057655
50.4695 330
50.48962 345.004465155613
50.50973 340.003746521221
50.52984 353.019018828258
50.54996 363.938295281173
50.57007 390.033967602479
50.59018 334.029435789323
50.6103 347
50.63041 328.98355891707
50.65053 313.027428068177
50.67064 339.985459906136
50.69075 305.032241229224
50.71087 314.027942515709
50.73098 276.995988336537
50.75109 321.986890776602
50.77121 306.990369206978
50.79132 298.982243697568
50.81143 284.032442059498
50.83155 316.962747217011
50.85166 263.04905328882
50.87178 285.979231607293
50.89189 277.008374936482
50.912 274
50.93212 290.013805494415
50.95223 294.995472904922
50.97234 283.960570332607
50.99246 274.955664024361
51.01257 303.018227201501
51.03269 262.006000375825
51.0528 293
51.07291 284.97978001686
51.09303 244.982367983352
51.11314 267.068050467657
51.13325 282.034925881622
51.15337 257.012165412738
51.17348 267.995517471954
51.1936 257
51.21371 253.996393282174
51.23382 250.017726816132
51.25394 279.021984299197
51.27405 271.990294653782
51.29416 287.005467392475
51.31428 259.03150015991
51.33439 245.996821054829
51.3545 266
51.37462 280.99044697287
51.39473 270.034804180698
51.41485 307.993702460277
51.43496 259.09141723714
51.45507 250.976712879849
51.47519 264.000805321978
51.4953 254
51.51541 268.006954938773
51.53553 275.010677089167
51.55564 272.944992707355
51.57576 239.008612131915
51.59587 265.963829987625
51.61598 268.005497648677
51.6361 265
51.65621 254.993504841461
51.67632 244.997350260936
51.69644 245.993489677479
51.71655 240.990669858552
51.73667 250.995144862044
51.75678 248.992752255112
51.77689 258.005688087453
51.79701 235.999769119487
51.81712 256.007335010514
51.83723 246.00131435413
51.85735 265.040385030043
51.87746 258.059165386446
51.89757 227.016808262784
51.91769 247.977825845026
51.9378 277
51.95792 236.990988993765
51.97803 265.026244693045
51.99814 259.009051280366
52.01826 276.99980196423
52.03837 250.04776801906
52.05848 234.998111548616
52.0786 253
52.09871 274.992423780152
52.11883 242.996387640938
52.13894 265.996379840107
52.15905 240.990650590996
52.17917 280.952705348783
52.19928 270.043155168402
52.21939 239.990586385696
52.23951 284.004722705693
52.25962 249.973070742629
52.27974 261.059589454079
52.29985 276.970749446411
52.31996 249.037347168454
52.34008 245.00889359583
52.36019 229.002718973684
52.3803 243
52.40042 258.996370515894
52.42053 250.016073162726
52.44064 275.017344452718
52.46076 264.007181060467
52.48087 270.013811085189
52.50099 248.003595816841
52.5211 261
52.54121 253.99037061895
52.56133 244.022879087408
52.58144 271.018283943074
52.60155 259.017555752343
52.62167 266.989554805179
52.64178 263.00886787659
52.6619 257
52.68201 257.999613178241
52.70212 259.01039196795
52.72224 279.043892487562
52.74235 289.021773201028
52.76246 268.040012413773
52.78258 259.000871604882
52.80269 256.006184115623
52.8228 250
52.84292 282.998869325906
52.86303 249.971195343957
52.88315 260.023715820067
52.90326 256.001745768859
52.92337 262.000105506808
52.94349 262.988948420007
52.9636 282
52.98371 235.004568335136
53.00383 301.073482788547
53.02394 290.923214100489
53.04406 258.046879691669
53.06417 254.962364619268
53.08428 280.011416613705
53.1044 240
53.12451 251.01038720657
53.14462 273.039378213551
53.16474 304.965708909769
53.18485 256.053165875932
53.20497 279.958362973668
53.22508 284.006178434013
53.24519 281.000009267559
53.26531 286.006109297184
53.28542 299.004876285546
53.30553 292.983666760483
53.32565 288.014679099194
53.34576 301.971689452308
53.36587 308.004383990666
53.38599 302.999706888615
53.4061 312
53.42622 312.979201143406
53.44633 291.011948643186
53.46644 322.032054468736
53.48656 303.072079241966
53.50667 287.959918401522
53.52678 328.993523423932
53.5469 299
53.56701 314.013522836546
53.58713 326.992352525162
53.60724 313.986504080672
53.62735 315.009189182138
53.64747 306.003521138852
53.66758 320.969106728053
53.68769 345.00243440524
53.70781 320.994344883652
53.72792 329.00243126326
53.74804 323.015053803332
53.76815 340.001106249971
53.78826 324.012570066568
53.80838 340.972289592575
53.82849 357.003048731153
53.8486 346
53.86872 363.980245837114
53.88883 322.997770829229
53.90894 358.016244869274
53.92906 325.049553243076
53.94917 331.979688617657
53.96929 336.996787053657
53.9894 349
54.00951 357.003622270902
54.02963 355.970557691509
54.04974 326.963208586046
54.06985 330.953613370813
54.08997 345.998654719312
54.11008 348.968336579499
54.1302 394
54.15031 372.98887123427
54.17042 375.016836697739
54.19054 369.891684570152
54.21065 316.932920662626
54.23076 400.920982813997
54.25088 368.031937832213
54.27099 385.978269979542
54.29111 414.999148421639
54.31122 390.978211028983
54.33133 376.96319688431
54.35145 352.008768032658
54.37156 379.961263192378
54.39167 376.014261768903
54.41179 382.986192809682
54.4319 407
54.45201 366.979273168307
54.47213 357.037731320413
54.49224 387.001314425773
54.51236 359.043219343502
54.53247 373.929347654853
54.55258 419.984895210467
54.5727 403
54.59281 399.002647284049
54.61292 414.032442603324
54.63304 445.004480054287
54.65315 437.925008750201
54.67327 491.973305955143
54.69338 489.945724242927
54.71349 594.963881740691
54.73361 607.003076246541
54.75372 664.109331643307
54.77383 774.082661298346
54.79395 772.987845392508
54.81406 817.810011099142
54.83417 893.02604052851
54.85429 805.031770696909
54.8744 790
54.89452 706.914694737594
54.91463 659.983953130133
54.93474 659.975939907148
54.95486 630.060753355109
54.97497 607.036496420497
54.99508 581.018554923426
55.0152 564
55.03531 524.985407305408
55.05543 507.969191271369
55.07554 474.923980149094
55.09565 457.941484759857
55.11577 491.011635875879
55.13588 449.018928192052
55.15599 475.980738476096
55.17611 497.004040429339
55.19622 500.000791248338
55.21634 515.085131632348
55.23645 565.057880557039
55.25656 549.067339922143
55.27668 545.945196570988
55.29679 608.004847600362
55.3169 537
55.33702 543.989340757958
55.35713 484.894682700588
55.37724 447.004224642815
55.39736 465.989938016309
55.41747 446.037946226744
55.43759 434.998190814839
55.4577 438
55.47781 407.984105934743
55.49793 395.017959461487
55.51804 414.003832023647
55.53815 390.085737099586
55.55827 360.03852894146
55.57838 339.015241547497
55.5985 332
55.61861 342.006018022939
55.63872 350.002536773827
55.65884 346.985415677677
55.67895 329.089354529235
55.69906 303.95575811705
55.71918 357.966703116385
55.73929 354.002974469287
55.75941 358.996736452361
55.77952 330.963320340248
55.79963 314.028489054814
55.81975 347.0215729351
55.83986 333.987928172869
55.85997 362.977611993507
55.88009 345.016359315677
55.9002 319
55.92031 318.006713092194
55.94043 326.978199316937
55.96054 293.945761188568
55.98066 293.951028090098
56.00077 314.016564862619
56.02088 286.003958594522
56.041 306
56.06111 293.006761026742
56.08122 319.98491730923
56.10134 278.003813442501
56.12145 333.877930827732
56.14157 339.023102627503
56.16168 326.010953812071
56.18179 316.004725020664
56.20191 305.994525123321
56.22202 296.996538594059
56.24213 304.028320169514
56.26225 320.998976038564
56.28236 304.03432718788
56.30248 298.996489100777
56.32259 298.007414781243
56.3427 285
56.36282 321.027228649583
56.38293 324.99443179966
56.40304 324.999118801961
56.42316 321.012811741402
56.44327 314.010078862299
56.46338 315.981669988141
56.4835 332
56.50361 297.989902538754
56.52373 297.988444719556
56.54384 286.030231748885
56.56395 325.923855813113
56.58407 322.044581626505
56.60418 291.015872611808
56.62429 300.984790315999
56.64441 322.994814297668
56.66452 288.97516771533
56.68464 289.016657325511
56.70475 300.060974119668
56.72486 326.98533624139
56.74498 306.036021081201
56.76509 281.00024472065
56.7852 296
56.80532 284.980191182014
56.82543 281.039714000817
56.84554 317.019147819616
56.86566 291.069376192467
56.88577 281.962728232262
56.90589 309.005609350234
56.926 274
56.94611 310.0146297876
56.96623 310.995643903872
56.98634 311.976729432175
57.00645 296.98075071337
57.02657 311.033161749347
57.04668 264.017510968337
57.0668 290
57.08691 299.002453764309
57.10702 311.01382636538
57.12714 318.998919056088
57.14725 311.028956787434
57.16736 305.983755752033
57.18748 324.97926429101
57.20759 336.999266243346
57.22771 327.991188646085
57.24782 300.961539109096
57.26793 276.024428791662
57.28805 306.97847904769
57.30816 269.999555821184
57.32827 307.983718795491
57.34839 283.002263488106
57.3685 308
57.38861 283.989269202664
57.40873 284.0105399273
57.42884 280.968686459541
57.44896 265.001990569384
57.46907 279.974817771416
57.48918 280.021342228676
57.5093 252
57.52941 258.0076073469
57.54952 273.016706780186
57.56964 284.997051241447
57.58975 276.997183379187
57.60987 287.991142071667
57.62998 285.99784062858
57.65009 290.004296978002
57.67021 281.008677483668
57.69032 308.995935360639
57.71043 270.953280967854
57.73055 268.016110500476
57.75066 276.953761814167
57.77078 293.024453854563
57.79089 254.995393680366
57.811 303
57.83112 272.975268070071
57.85123 273.99282911647
57.87134 263.027898864688
57.89146 296.965296522794
57.91157 288.013506397338
57.93168 294.987352240819
57.9518 297
57.97191 276.99630412632
57.99203 283.003821707338
58.01214 274.982284852793
58.03225 275.970154472085
58.05237 279.040404232056
58.07248 242.005483901774
58.09259 269.989092039714
58.11271 271.002409815086
58.13282 280.991779324306
58.15294 260.996312973953
58.17305 278.017202345808
58.19316 268.009576367152
58.21328 273.999675501452
58.23339 263.005703232719
58.2535 260
58.27362 270.018260249687
58.29373 286.001588416147
58.31385 281.025693563227
58.33396 303.977134774363
58.35407 290.043918190833
58.37419 261.011289609876
58.3943 255
58.41441 276.0034622069
58.43453 263.9760224993
58.45464 263.036607660079
58.47475 288.957101221012
58.49487 290.009842391274
58.51498 289.98789029009
58.5351 295
58.55521 255.997257036807
58.57532 281.007267139041
58.59544 261.988420295554
58.61555 271.034628362699
58.63566 240.008691423941
58.65578 268.975102804285
58.67589 271.001344289225
58.69601 272.998902432465
58.71612 271.011462977643
58.73623 284.98829295983
58.75635 263.996857582415
58.77646 278.01592510871
58.79657 256.981713130804
58.81669 295.993693726406
58.8368 269
58.85691 265.001005214033
58.87703 263.001233391623
58.89714 272.031316841152
58.91726 295.93060095686
58.93737 315.039557555732
58.95748 266.018427680502
58.9776 291
58.99771 284.981079542557
59.01782 253.009726753039
59.03794 293.045959477814
59.05805 277.074767365645
59.07817 266.971445906094
59.09828 300.974818069966
59.11839 299.012081044474
59.13851 273.995475842018
59.15862 287.024608673947
59.17873 299.982286082218
59.19885 275.974165042026
59.21896 282.995029969512
59.23908 279.987630327567
59.25919 302.996166864713
59.2793 291
59.29942 294.006095345597
59.31953 290.978586837838
59.33964 291.084205320429
59.35976 341.010402203871
59.37987 291.032551656876
59.39998 312.991874260907
59.4201 292
59.44021 312.009841249305
59.46033 312.987377275838
59.48044 313.03399853973
59.50055 340.940728142989
59.52067 350.997999096424
59.54078 350.999128990172
59.56089 357.991967718391
59.58101 380.010703675466
59.60112 384.978847979584
59.62124 360.006946874051
59.64135 396.101200488916
59.66146 418.979191121652
59.68158 437.957140357238
59.70169 488.986501696487
59.7218 498
59.74192 559.068652369114
59.76203 620.09178238987
59.78215 692.209200828117
59.80226 812.643315616343
59.82237 996.832563896874
59.84249 1043.96730758497
59.8626 1185
59.88271 1355.05534011178
59.90283 1386.95793997847
59.92294 1306.71551665037
59.94305 1139.35318229909
59.96317 1043.11811058546
59.98328 947.116986846495
60.0034 834
60.02351 816.01713648846
60.04362 868.041523396686
60.06374 863.885335517255
60.08385 795.07381069549
60.10396 770.208765676219
60.12408 594.151976058592
60.14419 510.031978371304
60.16431 442.978511573166
60.18442 421.973258015184
60.20453 381.951681964601
60.22465 359.926468343991
60.24476 337.962767805031
60.26487 374.004611386827
60.28499 328.017889468936
60.3051 322
60.32522 301.994240867757
60.34533 304.972077473367
60.36544 272.987017127056
60.38556 299.941151166476
60.40567 310.001416354165
60.42578 307.004680849708
60.4459 296
60.46601 274.998817690901
60.48612 284.998773904488
60.50624 270.990540992511
60.52635 284.949972697818
60.54647 298.987756710367
60.56658 291.034663581503
60.58669 257.99588950408
60.60681 299.012753100129
60.62692 288.982145655633
60.64703 287.015224281634
60.66715 283.905652333867
60.68726 238.010447153643
60.70738 271.976850428418
60.72749 268.997397205236
60.7476 291
60.76772 284.991668489655
60.78783 280.986183133444
60.80794 276.03664088875
60.82806 301.009011840032
60.84817 273.014151067563
60.86828 290.987800350996
60.8884 282
60.90851 285.009837903358
60.92863 302.99458839846
60.94874 280.96526497724
60.96885 278.996233979199
60.98897 282.973898139242
61.00908 300.00849937528
61.02919 271.009540185983
61.04931 274.003586448584
61.06942 279.014242955351
61.08954 300.027000459517
61.10965 295.955821235354
61.12976 275.034484519655
61.14988 268.99371416958
61.16999 281.993537722029
61.1901 288
61.21022 280.989162059674
61.23033 279.026686869011
61.25045 299.991103323255
61.27056 283.977476262873
61.29067 315.990566224665
61.31079 293.004642599304
61.3309 303
61.35101 274.993694238788
61.37113 280.989150651026
61.39124 260.999223897691
61.41135 282.963481044911
61.43147 282.988684087355
61.45158 298.000056220881
61.4717 288
61.49181 314.008496943109
61.51192 312.998886868876
61.53204 324.034727238619
61.55215 343.940234984217
61.57226 349.077095013907
61.59238 292.024492518527
61.61249 315.981086251434
61.63261 331.996265784356
61.65272 325.01892350267
61.67283 358.014231055138
61.69295 335.939297308154
61.71306 329.991636930367
61.73317 333.997389633357
61.75329 331.004066384505
61.7734 319
61.79352 308.998347545599
61.81363 330.0802903085
61.83374 382.011084292668
61.85386 343.073228997546
61.87397 342.96290215423
61.89408 379.952049035207
61.9142 404
61.93431 355.007754092496
61.95442 417.011417604549
61.97454 366.948694686532
61.99465 407.840126073393
62.01477 445.991837982383
62.03488 422.043633438557
62.05499 394.991541458527
62.07511 448.026714593596
62.09522 468.990129295764
62.11533 445.969968881905
62.13545 441.016184851274
62.15556 459.928680750873
62.17568 494.988198334187
62.19579 477.015991558283
62.2159 458
62.23602 482.02398976616
62.25613 484.968201483228
62.27624 450.936242680255
62.29636 429.036222758634
62.31647 420.977373508099
62.33659 447.992850347617
62.3567 430
62.37681 387.994113774772
62.39693 413.062771743787
62.41704 431.951220010777
62.43715 379.11323909482
62.45727 375.941810889307
62.47738 406.02952223596
62.49749 347.003480703681
62.51761 396.013656762805
62.53772 368.963151102871
62.55784 351.977617989478
62.57795 338.98014063117
62.59806 331.039030394278
62.61818 317.976531642461
62.63829 361.991001411784
62.6584 338
62.67852 313.981467969148
62.69863 310.039432852258
62.71875 336.955209581932
62.73886 294.004671020888
62.75897 335.963265116068
62.77909 320.008885014052
62.7992 316
62.81931 294.997706028332
62.83943 310.020332976397
62.85954 300.936237054389
62.87965 270.013000522872
62.89977 287.978869856744
62.91988 285.006321668096
62.94 290
62.96011 311.00760865098
62.98022 306.972645126568
63.00034 275.979392121594
63.02045 281.022258658941
63.04056 267.955765384805
63.06068 317.969536305449
63.08079 308.012229612459
63.10091 290.993409714984
63.12102 281.999576538447
63.14113 287.00445657947
63.16125 289.023576886344
63.18136 303.980149444613
63.20147 300.024624760932
63.22159 284.001938105013
63.2417 296
63.26182 304.986715560975
63.28193 286.00491689676
63.30204 314.05450280547
63.32216 318.033573363523
63.34227 295.025356404996
63.36238 290.996267510065
63.3825 295
63.40261 297.003215407175
63.42272 302.996218730186
63.44284 292.993442816686
63.46295 296.00988810643
63.48307 285.007073775133
63.50318 292.986201648356
63.52329 294.011809457003
63.54341 267.001585163748
63.56352 300.028954818656
63.58363 307.000463572909
63.60375 305.96920318855
63.62386 289.009328066576
63.64398 300.983829927155
63.66409 314.99121711798
63.6842 327
63.70432 312.008855766799
63.72443 331.982655939727
63.74454 300.002718202391
63.76466 340.934713751511
63.78477 341.014748899893
63.80489 338.001116190042
63.825 349
63.84511 404.01434082794
63.86523 398.987708968676
63.88534 413.062228981924
63.90545 438.992671372677
63.92557 427.997424214313
63.94568 451.971116024899
63.96579 474.988484002508
63.98591 495.003667433778
64.00602 495.007304949729
64.02614 484.866961782949
64.04625 391.877126457143
64.06636 398.986445067608
64.08648 376.025402090277
64.10659 368.997354809635
64.1267 378
64.14682 388.010728173609
64.16693 385.956107890319
64.18705 343.937101418832
64.20716 340.014272113863
64.22727 316.044447395284
64.24739 299.99686593967
64.2675 315
64.28761 295.987880167126
64.30773 281.99547373191
64.32784 287.019038974875
64.34796 291.016392773045
64.36807 278.005453446763
64.38818 282.004205035107
64.4083 267
64.42841 263.999886717798
64.44852 258.989330940677
64.46864 259.056078169456
64.48875 289.030097078966
64.50886 246.037553892832
64.52898 267.975919133816
64.54909 271.001468517668
64.56921 276.005784067121
64.58932 281.989479039969
64.60943 263.991955589867
64.62955 270.998085638507
64.64966 258.018838764019
64.66977 258.00042177384
64.68989 255.997705919988
64.71 269
64.73012 272.987129349248
64.75023 258.005797599577
64.77034 269.977119115231
64.79046 248.969846892602
64.81057 285.005969313402
64.83068 241.022682409978
64.8508 268
64.87091 283.987893363629
64.89102 252.005282468567
64.91114 291.048306863201
64.93125 280.045768242414
64.95137 263.051771309562
64.97148 227.99876367778
64.99159 261.986813200793
65.01171 259.994409474605
65.03182 260.012437452772
65.05193 277.01832416576
65.07205 267.90605135643
65.09216 234.974306390309
65.11228 280.974786021066
65.13239 261.017987038345
65.1525 246
65.17262 280.035657641508
65.19273 287.952525094815
65.21284 248.996487537422
65.23296 274.00631486018
65.25307 239.023299372131
65.27319 257.991354438542
65.2933 257
65.31341 266.003161082118
65.33353 262.988786640631
65.35364 262.023344264698
65.37375 274.016016777197
65.39387 255.010428621888
65.41398 265.989770772941
65.43409 262.006522258863
65.45421 249.997110136501
65.47432 250.000361770652
65.49444 259.062510202418
65.51455 297.037668749222
65.53466 279.063508079434
65.55478 254.016297755427
65.57489 241.008266856678
65.595 240
65.61512 293.009054888574
65.63523 266.000720263004
65.65535 308.085252080273
65.67546 309.017426733466
65.69557 317.954445785448
65.71569 335.017642776558
65.7358 278
65.75591 315.004763625482
65.77603 281.973341306481
65.79614 301.040170395661
65.81626 298.029512360749
65.83637 287.999867462597
65.85648 292.003579237842
65.8766 277
65.89671 260.992639160587
65.91682 255.011795584801
65.93694 274.012775662673
65.95705 275.937211490078
65.97716 308.01107901893
65.99728 266.032339420122
66.01739 266.993771233668
66.03751 273.001685635525
66.05762 270.985986831991
66.07773 245.958026713522
66.09785 237.061443454101
66.11796 266.021291851116
66.13807 227.018044349075
66.15819 257.982710941383
66.1783 266
66.19842 246.972261795538
66.21853 235.042591382782
66.23864 274.995863747694
66.25876 243.986379635388
66.27887 286.983862095517
66.29898 255.016690244105
66.3191 270
66.33921 250.992115290207
66.35933 253.010898106759
66.37944 261.033126771304
66.39955 284.945712143246
66.41967 278.079273605699
66.43978 221.001072394682
66.45989 266.988008200926
66.48001 253.00037948251
66.50012 275.999957316807
66.52023 251.99442839658
66.54035 267.977907692028
66.56046 239.993503874895
66.58058 274.983190683244
66.60069 260.005347923997
66.6208 268
66.64092 262.999386300658
66.66103 267.996149006202
66.68114 262.015710107698
66.70126 274.021919376011
66.72137 251.990902060622
66.74149 279.997828647428
66.7616 255
66.78171 261.999858860447
66.80183 246.987493609957
66.82194 255.025743993713
66.84205 268.944257471561
66.86217 289.001211786693
66.88228 269.018892786524
66.90239 267.993169406636
66.92251 281.000006352997
66.94262 267.986243620822
66.96274 269.038534948675
66.98285 281.946266148158
67.00296 246.997763446456
67.02308 278.991746985542
67.04319 251.011036236948
67.0633 257
67.08342 267.012427731536
67.10353 277.997945658911
67.12365 265.974931645073
67.14376 262.01233096318
67.16387 265.94789233634
67.18399 305.002335616982
67.2041 260
67.22421 275.025307071326
67.24433 323.029141455359
67.26444 311.963691667155
67.28456 294.066166818226
67.30467 266.975356671273
67.32478 313.973279814739
67.3449 301
67.36501 299.007604603796
67.38512 324.029505783521
67.40524 342.996110080803
67.42535 336.957618988611
67.44546 362.018433552519
67.46558 336.979707988804
67.48569 404.971914152502
67.50581 418.999919351653
67.52592 436.037096755546
67.54603 480.050885914408
67.56615 515.157579514787
67.58626 612.780464201548
67.60637 707.890840534419
67.62649 762.976456761455
67.6466 824
67.66672 906.038950018888
67.68683 894.955973137433
67.70694 873.965856154581
67.72706 838.143709006459
67.74717 746.115472791099
67.76728 696.044266867903
67.7874 646
67.80751 626.006607201676
67.82763 663.063629238717
67.84774 700.075931248737
67.86785 723.038402118109
67.88797 697.973980425255
67.90808 745.98568060166
67.92819 716.010338401794
67.94831 735.01776068291
67.96842 763.018835907661
67.98853 783.048614810018
68.00865 829.121632602005
68.02876 896.775741725074
68.04888 1030.89534116504
68.06899 1096.96679904153
68.0891 1144
68.10922 1083.02380346729
68.12933 1173.0371983505
68.14944 1072.69242908805
68.16956 965.058828121174
68.18967 984.984754747421
68.20979 990.966747554279
68.2299 1098
68.25001 1089.99252398379
68.27013 1082.93104455614
68.29024 1003.88355611814
68.31035 962.203465101976
68.33047 827.215099113168
68.35058 713.088287367387
68.3707 647
68.39081 624.994585960286
68.41092 597.937893296229
68.43104 530.95726370406
68.45115 547.997102708463
68.47126 511.066828805801
68.49138 494.026105459763
68.51149 442.034037630796
68.5316 374
68.55172 333.98473441162
68.57183 332.997781345386
68.59195 325.993185225254
68.61206 329.993139564478
68.63217 329.003066946545
68.65229 320.012544090758
68.6724 281
68.69251 265.012153013641
68.71263 305.022906791748
68.73274 285.953981722359
68.75286 286.954077768002
68.77297 303.027030848512
68.79308 262.025235038619
68.8132 274
68.83331 294.997294029077
68.85342 272.986343366922
68.87354 279.024748232285
68.89365 286.985388461165
68.91376 285.035854861565
68.93388 262.00860388722
68.95399 270.994763136312
68.97411 275.002757593861
68.99422 283.003300934921
69.01433 274.971835538385
69.03445 260.007885630888
69.05456 276.975862750792
69.07467 279.987787562905
69.09479 297.991006655912
69.1149 297
69.13502 262.995009984366
69.15513 279.998088625033
69.17524 251.954076233621
69.19536 255.957146809501
69.21547 268.022391702263
69.23558 237.018223851098
69.2557 251
69.27581 284.005271981502
69.29593 275.993143380357
69.31604 283.009708726345
69.33615 271.073893859805
69.35627 243.008777925834
69.37638 254.994971145808
69.39649 252.992185624844
69.41661 278.000515963126
69.43672 255.989109241452
69.45683 260.987808558441
69.47695 231.929018347027
69.49706 224.97131580385
69.51718 252.9661931117
69.53729 278.994200440347
69.5574 274
69.57752 256.992654665081
69.59763 261.012178142985
69.61774 263.991495002888
69.63786 257.005997632872
69.65797 257.006864063556
69.67809 253.993807571974
69.6982 283
69.71831 297.994245851027
69.73843 263.934964617006
69.75854 238.011849970107
69.77865 260.973485270663
69.79877 250.01889816856
69.81888 249.993053889087
69.839 265
69.85911 283.988137913839
69.87922 237.984675708496
69.89934 262.039094173629
69.91945 253.961578146191
69.93956 252.969979241421
69.95968 268.00285241652
69.97979 257.994296919179
69.9999 279
70.02002 251.007762854378
70.04013 287.004565713606
70.06025 254.979341240751
70.08036 275.011365445376
70.10047 234.047443303494
70.12059 243.980254631691
70.1407 279
70.16081 264.995842607304
70.18093 271.00229524276
70.20104 254.944419095109
70.22116 238.971605462744
70.24127 267.985050300623
70.26138 258.994192347203
70.2815 285
70.30161 271.981601338575
70.32172 236.986476862554
70.34184 246.026807378033
70.36195 248.018169842349
70.38207 235.025777400045
70.40218 228.980713295792
70.42229 268.979306558812
70.44241 284.991152238775
70.46252 255.990564469055
70.48263 260.975834204308
70.50275 227.97540921065
70.52286 241.008198526936
70.54297 220.991943990149
70.56309 255.986434243802
70.5832 252
70.60332 235.998690342434
70.62343 248.02212602698
70.64354 247.956096293544
70.66366 225.985006950115
70.68377 255.975978079572
70.70388 245.014675441986
70.724 233
70.74411 212.01003801812
70.76423 264.057406541021
70.78434 267.987441614822
70.80445 267.010503119173
70.82457 260.996607239882
70.84468 268.00191844192
70.86479 259.998762156389
70.88491 269.99896950509
70.90502 255.993779106582
70.92513 255.977789406337
70.94525 229.969364648638
70.96536 236.985645777448
70.98548 234.004474032317
71.00559 234.997621675988
71.0257 242
71.04582 246.993778060362
71.06593 239.009884932965
71.08604 258.025629842724
71.10616 255.020148538826
71.12627 252.98122529415
71.14639 263.008107368137
71.1665 230
71.18661 241.00777249369
71.20673 253.034087425212
71.22684 277.002131843486
71.24695 253.066955642651
71.26707 245.979506739283
71.28718 262.001140022129
71.3073 239
71.32741 229.011115208919
71.34752 257.997699485879
71.36764 228.973669617833
71.38775 242.974581213296
71.40786 234.02504842496
71.42798 233.98695902459
71.44809 245.003432528545
71.4682 228
71.48832 253.04452519266
71.50843 272.939349438064
71.52855 204.934094164885
71.54866 235.929055463755
71.56877 239.021114265031
71.58889 234.991032087519
71.609 265
71.62911 270.003506698488
71.64923 271.959380652155
71.66934 235.999327743584
71.68946 262.002986412517
71.70957 233.999656261302
71.72968 271.969852706986
71.7498 269
71.76991 255.993578467683
71.79002 247.001965814519
71.81014 258.022004173975
71.83025 262.00314326564
71.85037 261.991162253434
71.87048 264.016361725709
71.89059 239.004503354301
71.91071 251.006763174174
71.93082 258.01157809358
71.95093 269.995329334525
71.97105 250.949622213226
71.99116 247.963875271137
72.01127 265.015336822616
72.03139 240.000403872452
72.0515 269
72.07162 270.99191559901
72.09173 269.010526596861
72.11184 280.013858908821
72.13196 271.057207215597
72.15207 239.022169354705
72.17218 250.972161235903
72.1923 269
72.21241 249.998795792804
72.23253 272.038629199017
72.25264 279.977664962358
72.27275 267.982566025102
72.29287 275.047386498898
72.31298 225.008702362589
72.33309 259.989312300854
72.35321 248.997452337057
72.37332 266.017017116482
72.39344 266.981368612318
72.41355 254.968387459154
72.43366 251.969782873932
72.45378 279.973179067473
72.47389 289.005963175056
72.494 277
72.51412 292.975828702376
72.53423 242.9745041209
72.55434 271.053708823509
72.57446 278.966305777248
72.59457 300.011856616591
72.61469 268.00889796567
72.6348 273
72.65491 261.00148765752
72.67503 277.00236594464
72.69514 260.981096424674
72.71525 275.917445165618
72.73537 293.040839891656
72.75548 245.016333911145
72.7756 268
72.79571 262.999576036045
72.81582 271.997649923192
72.83594 255.978573821213
72.85605 258.983979543228
72.87616 270.940333601774
72.89628 300.00351390516
72.91639 269.010788487555
72.9365 270
72.95662 263.002702716514
72.97673 268.979004967943
72.99685 244.998654821325
73.01696 257.038969420823
73.03707 224.971811839044
73.05719 289.97883033016
73.0773 275
73.09741 266.020820579255
73.11753 318.000980539718
73.13764 278.988252864584
73.15776 317.954875153661
73.17787 305.010461372489
73.19798 322.979850031339
73.2181 330
73.23821 327.995371807015
73.25832 329.033059458207
73.27844 378.052721200603
73.29855 384.929303999611
73.31867 433.95912089664
73.33878 428.008734358381
73.35889 448.973785541937
73.37901 505.014373427966
73.39912 495.972752908299
73.41923 485.030878529934
73.43935 510.974419591957
73.45946 462.095963238537
73.47957 434.040873377722
73.49969 396.020003315632
73.5198 367
73.53992 361.989326675974
73.56003 344.98452501354
73.58014 360.09228038756
73.60026 403.00287702893
73.62037 370.016437025968
73.64048 390.990776073859
73.6606 362
73.68071 328.000821126821
73.70083 342.979645581667
73.72094 298.931552400768
73.74105 296.966930518373
73.76117 304.00540466168
73.78128 281.046455025305
73.80139 245.991811437779
73.82151 296.01276453444
73.84162 277.976854031992
73.86174 268.97300418234
73.88185 256.02858369712
73.90196 287.951461357742
73.92208 290.007271060606
73.94219 286.999058829086
73.9623 285
73.98242 265.996254961968
74.00253 273.996143290371
74.02264 265.021949837305
74.04276 291.975637059845
74.06287 276.040571014221
74.08299 251.013161362936
74.1031 239
74.12321 281.014143140335
74.14333 277.971930997399
74.16344 257.955753949917
74.18355 240.015049657531
74.20367 250.961821203875
74.22378 270.006314742273
74.2439 248
74.26401 260.006232919591
74.28412 268.018816643885
74.30424 285.979728859156
74.32435 257.027384527605
74.34446 269.987372203531
74.36458 251.032050490062
74.38469 233.992759970699
74.40481 261.00192911747
74.42492 238.984911714873
74.44503 248.026710229934
74.46515 264.046266183692
74.48526 280.987026744771
74.50537 271.035576911588
74.52549 250.00203150643
74.5456 265
74.56571 275.996794268804
74.58583 251.947155508197
74.60594 235.050058519548
74.62606 277.975139075222
74.64617 245.06780701871
74.66628 232.965965530964
74.6864 284
74.70651 264.980275095876
74.72662 238.998291225913
74.74674 251.009154149957
74.76685 250.952336197026
74.78697 289.946974931886
74.80708 300.014121809566
74.82719 274.013249328115
74.84731 258.998868541311
74.86742 267.014680116762
74.88753 275.991409650163
74.90765 251.90823886632
74.92776 231.957408531512
74.94787 277.956047037588
74.96799 271.010937990372
74.9881 255
75.00822 247.994743115449
