3.00117 19890
3.02128 19362
3.0414 19053
3.06151 18711
3.08162 17913
3.10174 17617
3.12185 16915
3.14197 16835
3.16208 16111
3.18219 15473
3.20231 15260
3.22242 14479
3.24253 14427
3.26265 13886
3.28276 13227
3.30288 13177
3.32299 12350
3.3431 12294
3.36322 11837
3.38333 11196
3.40344 11091
3.42356 10466
3.44367 10526
3.46379 9825
3.4839 9420
3.50401 9585
3.52413 8800
3.54424 8582
3.56435 8220
3.58447 7868
3.60458 7670
3.62469 7327
3.64481 7100
3.66492 6599
3.68504 6449
3.70515 6386
3.72526 5995
3.74538 5956
3.76549 5673
3.7856 5312
3.80572 5221
3.82583 4890
3.84595 4836
3.86606 4497
3.88617 4235
3.90629 4142
3.9264 3905
3.94651 3832
3.96663 3508
3.98674 3337
4.00686 3293
4.02697 3081
4.04708 2961
4.0672 2883
4.08731 2600
4.10742 2696
4.12754 2535
4.14765 2428
4.16776 2219
4.18788 2140
4.20799 2248
4.22811 2125
4.24822 1973
4.26833 1814
4.28845 1904
4.30856 1838
4.32867 1805
4.34879 1677
4.3689 1555
4.38902 1517
4.40913 1595
4.42924 1537
4.44936 1402
4.46947 1349
4.48958 1267
4.5097 1340
4.52981 1278
4.54992 1221
4.57004 1199
4.59015 1146
4.61027 1134
4.63038 1109
4.65049 1065
4.67061 1113
4.69072 1053
4.71083 1015
4.73095 1012
4.75106 988
4.77118 1012
4.79129 938
4.8114 960
4.83152 935
4.85163 914
4.87174 866
4.89186 774
4.91197 846
4.93209 878
4.9522 754
4.97231 766
4.99243 746
5.01254 735
5.03265 716
5.05277 690
5.07288 651
5.09299 656
5.11311 693
5.13322 643
5.15334 565
5.17345 640
5.19356 596
5.21368 623
5.23379 611
5.2539 531
5.27402 529
5.29413 531
5.31425 531
5.33436 520
5.35447 476
5.37459 460
5.3947 494
5.41481 466
5.43493 522
5.45504 425
5.47516 457
5.49527 437
5.51538 420
5.5355 430
5.55561 455
5.57572 415
5.59584 423
5.61595 390
5.63606 374
5.65618 377
5.67629 369
5.69641 340
5.71652 327
5.73663 351
5.75675 374
5.77686 346
5.79697 328
5.81709 312
5.8372 302
5.85732 305
5.87743 276
5.89754 292
5.91766 352
5.93777 304
5.95788 319
5.978 284
5.99811 289
6.01823 297
6.03834 286
6.05845 266
6.07857 280
6.09868 272
6.11879 301
6.13891 289
6.15902 280
6.17913 256
6.19925 254
6.21936 277
6.23948 273
6.25959 247
6.2797 257
6.29982 270
6.31993 256
6.34004 231
6.36016 243
6.38027 271
6.40039 224
6.4205 265
6.44061 267
6.46073 239
6.48084 224
6.50095 262
6.52107 246
6.54118 233
6.56129 278
6.58141 211
6.60152 238
6.62164 249
6.64175 221
6.66186 252
6.68198 282
6.70209 290
6.7222 210
6.74232 283
6.76243 257
6.78255 242
6.80266 232
6.82277 232
6.84289 247
6.863 255
6.88311 245
6.90323 251
6.92334 246
6.94346 233
6.96357 234
6.98368 262
7.0038 242
7.02391 208
7.04402 260
7.06414 231
7.08425 225
7.10436 236
7.12448 235
7.14459 228
7.16471 264
7.18482 205
7.20493 238
7.22505 239
7.24516 243
7.26527 277
7.28539 232
7.3055 248
7.32562 288
7.34573 231
7.36584 243
7.38596 260
7.40607 253
7.42618 230
7.4463 279
7.46641 232
7.48653 252
7.50664 274
7.52675 236
7.54687 258
7.56698 238
7.58709 272
7.60721 242
7.62732 257
7.64743 261
7.66755 269
7.68766 213
7.70778 264
7.72789 285
7.748 229
7.76812 254
7.78823 246
7.80834 266
7.82846 243
7.84857 256
7.86869 231
7.8888 264
7.90891 252
7.92903 241
7.94914 244
7.96925 258
7.98937 263
8.00948 240
8.0296 238
8.04971 259
8.06982 258
8.08994 272
8.11005 251
8.13016 237
8.15028 240
8.17039 250
8.1905 249
8.21062 246
8.23073 264
8.25085 251
8.27096 277
8.29107 245
8.31119 246
8.3313 270
8.35141 261
8.37153 245
8.39164 233
8.41176 262
8.43187 284
8.45198 263
8.4721 251
8.49221 255
8.51232 240
8.53244 252
8.55255 273
8.57266 249
8.59278 263
8.61289 277
8.63301 232
8.65312 270
8.67323 291
8.69335 296
8.71346 270
8.73357 264
8.75369 286
8.7738 277
8.79392 256
8.81403 264
8.83414 292
8.85426 294
8.87437 265
8.89448 274
8.9146 267
8.93471 256
8.95483 288
8.97494 241
8.99505 248
9.01517 252
9.03528 245
9.05539 243
9.07551 261
9.09562 272
9.11573 280
9.13585 249
9.15596 252
9.17608 250
9.19619 235
9.2163 245
9.23642 269
9.25653 260
9.27664 260
9.29676 244
9.31687 261
9.33699 249
9.3571 255
9.37721 244
9.39733 273
9.41744 256
9.43755 277
9.45767 271
9.47778 248
9.4979 242
9.51801 234
9.53812 285
9.55824 266
9.57835 237
9.59846 251
9.61858 244
9.63869 244
9.6588 276
9.67892 270
9.69903 206
9.71915 296
9.73926 249
9.75937 263
9.77949 275
9.7996 260
9.81971 259
9.83983 280
9.85994 247
9.88006 262
9.90017 275
9.92028 251
9.9404 238
9.96051 273
9.98062 233
10.00074 246
10.02085 256
10.04097 265
10.06108 258
10.08119 275
10.10131 238
10.12142 299
10.14153 234
10.16165 249
10.18176 241
10.20187 249
10.22199 277
10.2421 261
10.26222 251
10.28233 282
10.30244 269
10.32256 258
10.34267 236
10.36278 249
10.3829 253
10.40301 234
10.42313 265
10.44324 245
10.46335 276
10.48347 236
10.50358 265
10.52369 241
10.54381 245
10.56392 312
10.58403 240
10.60415 272
10.62426 272
10.64438 258
10.66449 258
10.6846 260
10.70472 244
10.72483 267
10.74494 245
10.76506 259
10.78517 266
10.80529 259
10.8254 258
10.84551 268
10.86563 279
10.88574 236
10.90585 274
10.92597 288
10.94608 281
10.9662 271
10.98631 220
11.00642 301
11.02654 286
11.04665 258
11.06676 272
11.08688 275
11.10699 290
11.1271 257
11.14722 254
11.16733 276
11.18745 299
11.20756 267
11.22767 323
11.24779 262
11.2679 244
11.28801 267
11.30813 256
11.32824 284
11.34836 291
11.36847 255
11.38858 251
11.4087 261
11.42881 261
11.44892 241
11.46904 248
11.48915 279
11.50927 276
11.52938 264
11.54949 266
11.56961 284
11.58972 286
11.60983 294
11.62995 295
11.65006 273
11.67017 330
11.69029 282
11.7104 288
11.73052 308
11.75063 259
11.77074 292
11.79086 298
11.81097 346
11.83108 348
11.8512 306
11.87131 341
11.89143 327
11.91154 338
11.93165 315
11.95177 334
11.97188 312
11.99199 315
12.01211 356
12.03222 382
12.05234 419
12.07245 410
12.09256 406
12.11268 410
12.13279 497
12.1529 473
12.17302 531
12.19313 467
12.21324 500
12.23336 502
12.25347 541
12.27359 496
12.2937 558
12.31381 560
12.33393 512
12.35404 523
12.37415 540
12.39427 509
12.41438 504
12.4345 472
12.45461 455
12.47472 433
12.49484 423
12.51495 396
12.53506 363
12.55518 343
12.57529 326
12.5954 313
12.61552 302
12.63563 323
12.65575 294
12.67586 289
12.69597 324
12.71609 327
12.7362 280
12.75631 303
12.77643 306
12.79654 296
12.81666 268
12.83677 257
12.85688 289
12.877 285
12.89711 279
12.91722 266
12.93734 289
12.95745 288
12.97757 283
12.99768 272
13.01779 268
13.03791 300
13.05802 301
13.07813 307
13.09825 307
13.11836 278
13.13847 312
13.15859 276
13.1787 284
13.19882 275
13.21893 267
13.23904 250
13.25916 270
13.27927 218
13.29938 257
13.3195 264
13.33961 277
13.35973 254
13.37984 244
13.39995 245
13.42007 259
13.44018 225
13.46029 238
13.48041 281
13.50052 296
13.52064 273
13.54075 280
13.56086 298
13.58098 338
13.60109 323
13.6212 365
13.64132 366
13.66143 340
13.68154 325
13.70166 297
13.72177 271
13.74189 225
13.762 276
13.78211 240
13.80223 239
13.82234 244
13.84245 258
13.86257 256
13.88268 254
13.9028 228
13.92291 239
13.94302 254
13.96314 254
13.98325 245
14.00336 245
14.02348 253
14.04359 255
14.06371 229
14.08382 238
14.10393 212
14.12405 215
14.14416 227
14.16427 249
14.18439 235
14.2045 255
14.22461 221
14.24473 226
14.26484 235
14.28496 245
14.30507 237
14.32518 226
14.3453 200
14.36541 240
14.38552 241
14.40564 212
14.42575 242
14.44587 219
14.46598 222
14.48609 217
14.50621 253
14.52632 225
14.54643 243
14.56655 229
14.58666 241
14.60677 217
14.62689 247
14.647 223
14.66712 236
14.68723 220
14.70734 227
14.72746 238
14.74757 247
14.76768 229
14.7878 212
14.80791 248
14.82803 285
14.84814 291
14.86825 257
14.88837 267
14.90848 272
14.92859 259
14.94871 260
14.96882 294
14.98894 268
15.00905 233
15.02916 252
15.04928 225
15.06939 278
15.0895 234
15.10962 245
15.12973 251
15.14984 236
15.16996 259
15.19007 231
15.21019 254
15.2303 285
15.25041 275
15.27053 233
15.29064 219
15.31075 240
15.33087 233
15.35098 228
15.3711 215
15.39121 231
15.41132 217
15.43144 234
15.45155 234
15.47166 230
15.49178 241
15.51189 215
15.53201 218
15.55212 203
15.57223 233
15.59235 251
15.61246 202
15.63257 217
15.65269 210
15.6728 211
15.69291 217
15.71303 212
15.73314 232
15.75326 231
15.77337 203
15.79348 255
15.8136 212
15.83371 211
15.85382 200
15.87394 227
15.89405 238
15.91417 193
15.93428 194
15.95439 211
15.97451 219
15.99462 198
16.01473 224
16.03485 183
16.05496 223
16.07508 227
16.09519 214
16.1153 212
16.13542 237
16.15553 217
16.17564 207
16.19576 229
16.21587 202
16.23598 207
16.2561 218
16.27621 207
16.29633 194
16.31644 223
16.33655 192
16.35667 187
16.37678 209
16.39689 240
16.41701 218
16.43712 203
16.45724 227
16.47735 218
16.49746 195
16.51758 204
16.53769 208
16.5578 212
16.57792 212
16.59803 205
16.61814 190
16.63826 218
16.65837 205
16.67849 209
16.6986 218
16.71871 219
16.73883 205
16.75894 212
16.77905 238
16.79917 175
16.81928 170
16.8394 207
16.85951 222
16.87962 189
16.89974 205
16.91985 199
16.93996 219
16.96008 227
16.98019 227
17.00031 230
17.02042 239
17.04053 219
17.06065 192
17.08076 209
17.10087 234
17.12099 194
17.1411 204
17.16121 197
17.18133 208
17.20144 207
17.22156 212
17.24167 206
17.26178 200
17.2819 202
17.30201 219
17.32212 224
17.34224 214
17.36235 224
17.38247 241
17.40258 202
17.42269 184
17.44281 210
17.46292 195
17.48303 202
17.50315 225
17.52326 186
17.54338 219
17.56349 231
17.5836 219
17.60372 199
17.62383 218
17.64394 211
17.66406 223
17.68417 215
17.70428 224
17.7244 175
17.74451 207
17.76463 213
17.78474 241
17.80485 251
17.82497 224
17.84508 232
17.86519 217
17.88531 193
17.90542 211
17.92554 253
17.94565 194
17.96576 208
17.98588 195
18.00599 238
18.0261 217
18.04622 219
18.06633 191
18.08645 229
18.10656 212
18.12667 197
18.14679 176
18.1669 192
18.18701 233
18.20713 217
18.22724 208
18.24735 236
18.26747 253
18.28758 264
18.3077 195
18.32781 205
18.34792 218
18.36804 224
18.38815 199
18.40826 231
18.42838 224
18.44849 218
18.46861 204
18.48872 179
18.50883 217
18.52895 215
18.54906 213
18.56917 231
18.58929 193
18.6094 235
18.62951 198
18.64963 215
18.66974 228
18.68986 215
18.70997 209
18.73008 250
18.7502 220
18.77031 234
18.79042 239
18.81054 227
18.83065 204
18.85077 211
18.87088 222
18.89099 227
18.91111 217
18.93122 191
18.95133 225
18.97145 212
18.99156 196
19.01168 231
19.03179 227
19.0519 234
19.07202 206
19.09213 191
19.11224 208
19.13236 259
19.15247 253
19.17258 247
19.1927 260
19.21281 234
19.23293 239
19.25304 272
19.27315 275
19.29327 260
19.31338 267
19.33349 258
19.35361 275
19.37372 243
19.39384 215
19.41395 222
19.43406 266
19.45418 243
19.47429 249
19.4944 225
19.51452 234
19.53463 231
19.55475 242
19.57486 273
19.59497 238
19.61509 266
19.6352 276
19.65531 278
19.67543 298
19.69554 292
19.71565 320
19.73577 341
19.75588 383
19.776 389
19.79611 416
19.81622 418
19.83634 444
19.85645 416
19.87656 439
19.89668 434
19.91679 454
19.93691 390
19.95702 431
19.97713 427
19.99725 417
20.01736 405
20.03747 406
20.05759 397
20.0777 392
20.09782 428
20.11793 362
20.13804 388
20.15816 430
20.17827 467
20.19838 389
20.2185 447
20.23861 414
20.25872 416
20.27884 368
20.29895 432
20.31907 463
20.33918 432
20.35929 473
20.37941 403
20.39952 435
20.41963 439
20.43975 463
20.45986 444
20.47998 472
20.50009 481
20.5202 472
20.54032 461
20.56043 531
20.58054 502
20.60066 576
20.62077 657
20.64088 773
20.661 811
20.68111 1053
20.70123 1291
20.72134 1573
20.74145 2058
20.76157 2616
20.78168 3127
20.80179 3816
20.82191 4039
20.84202 4020
20.86214 3654
20.88225 3141
20.90236 2570
20.92248 2033
20.94259 1631
20.9627 1374
20.98282 1253
21.00293 1287
21.02305 1180
21.04316 1137
21.06327 936
21.08339 808
21.1035 726
21.12361 712
21.14373 571
21.16384 494
21.18395 499
21.20407 433
21.22418 451
21.2443 426
21.26441 422
21.28452 452
21.30464 449
21.32475 374
21.34486 404
21.36498 426
21.38509 376
21.40521 360
21.42532 373
21.44543 411
21.46555 369
21.48566 386
21.50577 384
21.52589 341
21.546 382
21.56612 347
21.58623 369
21.60634 373
21.62646 355
21.64657 334
21.66668 340
21.6868 329
21.70691 305
21.72702 342
21.74714 350
21.76725 354
21.78737 351
21.80748 341
21.82759 353
21.84771 337
21.86782 365
21.88793 363
21.90805 376
21.92816 352
21.94828 357
21.96839 408
21.9885 393
22.00862 347
22.02873 374
22.04884 356
22.06896 383
22.08907 375
22.10919 365
22.1293 393
22.14941 377
22.16953 391
22.18964 384
22.20975 446
22.22987 457
22.24998 454
22.27009 439
22.29021 450
22.31032 454
22.33044 469
22.35055 407
22.37066 399
22.39078 369
22.41089 354
22.431 374
22.45112 297
22.47123 357
22.49135 365
22.51146 363
22.53157 364
22.55169 347
22.5718 385
22.59191 371
22.61203 358
22.63214 408
22.65225 375
22.67237 351
22.69248 342
22.7126 293
22.73271 315
22.75282 316
22.77294 273
22.79305 330
22.81316 329
22.83328 350
22.85339 329
22.87351 356
22.89362 348
22.91373 358
22.93385 383
22.95396 304
22.97407 342
22.99419 418
23.0143 419
23.03442 433
23.05453 493
23.07464 545
23.09476 582
23.11487 633
23.13498 644
23.1551 706
23.17521 690
23.19532 693
23.21544 583
23.23555 517
23.25567 484
23.27578 413
23.29589 374
23.31601 305
23.33612 357
23.35623 348
23.37635 319
23.39646 304
23.41658 322
23.43669 342
23.4568 332
23.47692 316
23.49703 357
23.51714 357
23.53726 346
23.55737 314
23.57749 330
23.5976 349
23.61771 336
23.63783 360
23.65794 369
23.67805 322
23.69817 359
23.71828 340
23.73839 347
23.75851 374
23.77862 399
23.79874 422
23.81885 406
23.83896 477
23.85908 520
23.87919 526
23.8993 605
23.91942 611
23.93953 683
23.95965 760
23.97976 726
23.99987 738
24.01999 665
24.0401 560
24.06021 503
24.08033 458
24.10044 460
24.12056 373
24.14067 419
24.16078 410
24.1809 437
24.20101 428
24.22112 449
24.24124 434
24.26135 468
24.28146 441
24.30158 466
24.32169 482
24.34181 474
24.36192 411
24.38203 446
24.40215 396
24.42226 380
24.44237 370
24.46249 358
24.4826 391
24.50272 379
24.52283 335
24.54294 400
24.56306 432
24.58317 466
24.60328 459
24.6234 468
24.64351 481
24.66362 557
24.68374 579
24.70385 556
24.72397 545
24.74408 525
24.76419 532
24.78431 529
24.80442 555
24.82453 529
24.84465 529
24.86476 483
24.88488 511
24.90499 538
24.9251 550
24.94522 510
24.96533 502
24.98544 436
25.00556 459
25.02567 409
25.04579 379
25.0659 397
25.08601 369
25.10613 358
25.12624 336
25.14635 372
25.16647 335
25.18658 385
25.20669 332
25.22681 345
25.24692 327
25.26704 370
25.28715 345
25.30726 352
25.32738 364
25.34749 427
25.3676 427
25.38772 483
25.40783 534
25.42795 641
25.44806 657
25.46817 707
25.48829 786
25.5084 775
25.52851 777
25.54863 757
25.56874 724
25.58886 713
25.60897 743
25.62908 699
25.6492 723
25.66931 641
25.68942 587
25.70954 583
25.72965 507
25.74976 471
25.76988 478
25.78999 421
25.81011 431
25.83022 419
25.85033 411
25.87045 428
25.89056 393
25.91067 463
25.93079 423
25.9509 427
25.97102 424
25.99113 416
26.01124 440
26.03136 458
26.05147 484
26.07158 488
26.0917 481
26.11181 517
26.13193 566
26.15204 606
26.17215 681
26.19227 713
26.21238 758
26.23249 783
26.25261 895
26.27272 980
26.29283 1139
26.31295 1258
26.33306 1407
26.35318 1678
26.37329 1941
26.3934 2326
26.41352 2779
26.43363 3466
26.45374 4230
26.47386 5345
26.49397 7077
26.51409 9054
26.5342 11576
26.55431 13876
26.57443 15976
26.59454 17260
26.61465 17390
26.63477 16018
26.65488 13503
26.67499 10413
26.69511 7669
26.71522 5427
26.73534 3734
26.75545 2267
26.77556 1588
26.79568 1222
26.81579 1106
26.8359 1072
26.85602 976
26.87613 902
26.89625 889
26.91636 889
26.93647 983
26.95659 979
26.9767 1016
26.99681 1083
27.01693 1158
27.03704 1133
27.05716 1150
27.07727 1030
27.09738 938
27.1175 907
27.13761 853
27.15772 713
27.17784 711
27.19795 659
27.21806 743
27.23818 796
27.25829 858
27.27841 1064
27.29852 1084
27.31863 1372
27.33875 1502
27.35886 1714
27.37897 1763
27.39909 1879
27.4192 1929
27.43932 1701
27.45943 1653
27.47954 1525
27.49966 1170
27.51977 1068
27.53988 938
27.56 724
27.58011 605
27.60023 542
27.62034 512
27.64045 438
27.66057 470
27.68068 441
27.70079 428
27.72091 436
27.74102 496
27.76113 470
27.78125 456
27.80136 405
27.82148 451
27.84159 458
27.8617 414
27.88182 422
27.90193 422
27.92204 400
27.94216 397
27.96227 359
27.98239 379
28.0025 380
28.02261 337
28.04273 332
28.06284 312
28.08295 319
28.10307 310
28.12318 318
28.1433 314
28.16341 339
28.18352 310
28.20364 341
28.22375 329
28.24386 337
28.26398 306
28.28409 309
28.3042 299
28.32432 301
28.34443 298
28.36455 272
28.38466 309
28.40477 283
28.42489 293
28.445 269
28.46511 285
28.48523 264
28.50534 271
28.52546 282
28.54557 263
28.56568 242
28.5858 301
28.60591 282
28.62602 270
28.64614 273
28.66625 279
28.68636 287
28.70648 261
28.72659 262
28.74671 287
28.76682 259
28.78693 280
28.80705 296
28.82716 251
28.84727 267
28.86739 260
28.8875 254
28.90762 279
28.92773 270
28.94784 295
28.96796 267
28.98807 294
29.00818 255
29.0283 253
29.04841 290
29.06853 277
29.08864 293
29.10875 264
29.12887 303
29.14898 287
29.16909 290
29.18921 273
29.20932 285
29.22943 323
29.24955 316
29.26966 326
29.28978 357
29.30989 399
29.33 431
29.35012 465
29.37023 528
29.39034 541
29.41046 523
29.43057 510
29.45069 497
29.4708 415
29.49091 439
29.51103 389
29.53114 340
29.55125 308
29.57137 308
29.59148 329
29.6116 311
29.63171 272
29.65182 311
29.67194 308
29.69205 352
29.71216 319
29.73228 283
29.75239 329
29.7725 326
29.79262 326
29.81273 333
29.83285 313
29.85296 293
29.87307 307
29.89319 308
29.9133 278
29.93341 304
29.95353 349
29.97364 348
29.99376 373
30.01387 342
30.03398 361
30.0541 436
30.07421 461
30.09432 499
30.11444 560
30.13455 560
30.15467 590
30.17478 580
30.19489 603
30.21501 554
30.23512 509
30.25523 439
30.27535 435
30.29546 429
30.31557 385
30.33569 328
30.3558 318
30.37592 316
30.39603 303
30.41614 318
30.43626 307
30.45637 306
30.47648 291
30.4966 330
30.51671 300
30.53683 349
30.55694 350
30.57705 357
30.59717 385
30.61728 434
30.63739 429
30.65751 486
30.67762 487
30.69773 513
30.71785 550
30.73796 522
30.75808 519
30.77819 483
30.7983 490
30.81842 488
30.83853 438
30.85864 433
30.87876 426
30.89887 402
30.91899 376
30.9391 340
30.95921 299
30.97933 304
30.99944 285
31.01955 280
31.03967 281
31.05978 272
31.0799 262
31.10001 262
31.12012 254
31.14024 243
31.16035 242
31.18046 248
31.20058 269
31.22069 246
31.2408 250
31.26092 250
31.28103 266
31.30115 253
31.32126 259
31.34137 261
31.36149 222
31.3816 229
31.40171 244
31.42183 242
31.44194 264
31.46206 234
31.48217 247
31.50228 243
31.5224 236
31.54251 227
31.56262 250
31.58274 255
31.60285 257
31.62297 237
31.64308 220
31.66319 210
31.68331 239
31.70342 250
31.72353 254
31.74365 265
31.76376 231
31.78387 236
31.80399 234
31.8241 229
31.84422 228
31.86433 262
31.88444 258
31.90456 248
31.92467 244
31.94478 234
31.9649 260
31.98501 248
32.00513 279
32.02524 288
32.04535 328
32.06547 337
32.08558 281
32.10569 329
32.12581 333
32.14592 313
32.16604 303
32.18615 301
32.20626 271
32.22638 277
32.24649 299
32.2666 285
32.28672 300
32.30683 338
32.32694 298
32.34706 341
32.36717 346
32.38729 361
32.4074 393
32.42751 400
32.44763 395
32.46774 405
32.48785 390
32.50797 330
32.52808 360
32.5482 323
32.56831 329
32.58842 289
32.60854 260
32.62865 267
32.64876 269
32.66888 245
32.68899 249
32.7091 253
32.72922 257
32.74933 277
32.76945 296
32.78956 249
32.80967 262
32.82979 262
32.8499 266
32.87001 268
32.89013 256
32.91024 276
32.93036 273
32.95047 269
32.97058 295
32.9907 302
33.01081 318
33.03092 318
33.05104 326
33.07115 333
33.09127 334
33.11138 361
33.13149 317
33.15161 324
33.17172 302
33.19183 310
33.21195 271
33.23206 272
33.25217 279
33.27229 254
33.2924 269
33.31252 228
33.33263 250
33.35274 280
33.37286 226
33.39297 226
33.41308 276
33.4332 264
33.45331 216
33.47343 252
33.49354 211
33.51365 222
33.53377 221
33.55388 230
33.57399 254
33.59411 242
33.61422 249
33.63434 225
33.65445 252
33.67456 242
33.69468 227
33.71479 215
33.7349 252
33.75502 256
33.77513 251
33.79524 223
33.81536 258
33.83547 246
33.85559 256
33.8757 239
33.89581 225
33.91593 266
33.93604 255
33.95615 301
33.97627 271
33.99638 296
34.0165 330
34.03661 301
34.05672 354
34.07684 345
34.09695 374
34.11706 413
34.13718 417
34.15729 459
34.17741 468
34.19752 464
34.21763 455
34.23775 428
34.25786 365
34.27797 371
34.29809 371
34.3182 321
34.33831 338
34.35843 257
34.37854 313
34.39866 242
34.41877 277
34.43888 293
34.459 303
34.47911 272
34.49922 293
34.51934 316
34.53945 349
34.55957 345
34.57968 361
34.59979 372
34.61991 398
34.64002 377
34.66013 347
34.68025 363
34.70036 378
34.72047 418
34.74059 369
34.7607 368
34.78082 396
34.80093 451
34.82104 393
34.84116 402
34.86127 446
34.88138 386
34.9015 429
34.92161 429
34.94173 410
34.96184 436
34.98195 433
35.00207 393
35.02218 439
35.04229 352
35.06241 445
35.08252 394
35.10264 431
35.12275 420
35.14286 409
35.16298 401
35.18309 429
35.2032 419
35.22332 387
35.24343 425
35.26354 387
35.28366 396
35.30377 446
35.32389 426
35.344 404
35.36411 489
35.38423 449
35.40434 502
35.42445 506
35.44457 479
35.46468 518
35.4848 544
35.50491 567
35.52502 602
35.54514 561
35.56525 524
35.58536 568
35.60548 522
35.62559 473
35.64571 485
35.66582 476
35.68593 427
35.70605 363
35.72616 372
35.74627 386
35.76639 367
35.7865 408
35.80661 426
35.82673 394
35.84684 405
35.86696 392
35.88707 385
35.90718 402
35.9273 384
35.94741 341
35.96752 325
35.98764 332
36.00775 336
36.02787 340
36.04798 292
36.06809 314
36.08821 356
36.10832 335
36.12843 324
36.14855 323
36.16866 311
36.18878 335
36.20889 333
36.229 349
36.24912 365
36.26923 358
36.28934 384
36.30946 424
36.32957 499
36.34968 532
36.3698 664
36.38991 758
36.41003 894
36.43014 1070
36.45025 1169
36.47037 1304
36.49048 1331
36.51059 1390
36.53071 1304
36.55082 1143
36.57094 981
36.59105 882
36.61116 742
36.63128 671
36.65139 580
36.6715 386
36.69162 372
36.71173 334
36.73184 347
36.75196 335
36.77207 319
36.79219 320
36.8123 338
36.83241 321
36.85253 350
36.87264 379
36.89275 406
36.91287 367
36.93298 380
36.9531 409
36.97321 381
36.99332 359
37.01344 389
37.03355 320
37.05366 330
37.07378 347
37.09389 314
37.11401 300
37.13412 305
37.15423 301
37.17435 275
37.19446 300
37.21457 277
37.23469 256
37.2548 269
37.27491 277
37.29503 257
37.31514 257
37.33526 266
37.35537 260
37.37548 304
37.3956 267
37.41571 307
37.43582 273
37.45594 289
37.47605 309
37.49617 310
37.51628 327
37.53639 307
37.55651 308
37.57662 319
37.59673 283
37.61685 331
37.63696 274
37.65708 281
37.67719 289
37.6973 296
37.71742 297
37.73753 265
37.75764 288
37.77776 287
37.79787 291
37.81798 285
37.8381 288
37.85821 247
37.87833 276
37.89844 283
37.91855 267
37.93867 300
37.95878 302
37.97889 279
37.99901 324
38.01912 270
38.03924 297
38.05935 281
38.07946 310
38.09958 308
38.11969 323
38.1398 321
38.15992 293
38.18003 344
38.20015 326
38.22026 351
38.24037 351
38.26049 334
38.2806 325
38.30071 341
38.32083 371
38.34094 310
38.36105 377
38.38117 404
38.40128 368
38.4214 424
38.44151 393
38.46162 416
38.48174 415
38.50185 403
38.52196 376
38.54208 413
38.56219 382
38.58231 369
38.60242 340
38.62253 342
38.64265 314
38.66276 344
38.68287 285
38.70299 356
38.7231 308
38.74321 285
38.76333 290
38.78344 306
38.80356 263
38.82367 279
38.84378 285
38.8639 290
38.88401 264
38.90412 316
38.92424 311
38.94435 315
38.96447 314
38.98458 354
39.00469 288
39.02481 318
39.04492 299
39.06503 290
39.08515 353
39.10526 366
39.12538 374
39.14549 402
39.1656 394
39.18572 401
39.20583 444
39.22594 458
39.24606 471
39.26617 550
39.28628 599
39.3064 724
39.32651 815
39.34663 958
39.36674 1123
39.38685 1147
39.40697 1293
39.42708 1303
39.44719 1238
39.46731 1117
39.48742 980
39.50754 872
39.52765 732
39.54776 680
39.56788 548
39.58799 436
39.6081 374
39.62822 329
39.64833 302
39.66845 282
39.68856 293
39.70867 282
39.72879 265
39.7489 255
39.76901 256
39.78913 283
39.80924 249
39.82935 266
39.84947 278
39.86958 253
39.8897 278
39.90981 280
39.92992 254
39.95004 300
39.97015 283
39.99026 310
40.01038 297
40.03049 287
40.05061 323
40.07072 375
40.09083 384
40.11095 451
40.13106 450
40.15117 541
40.17129 616
40.1914 636
40.21152 685
40.23163 735
40.25174 720
40.27186 660
40.29197 676
40.31208 590
40.3322 582
40.35231 527
40.37242 432
40.39254 427
40.41265 366
40.43277 319
40.45288 331
40.47299 323
40.49311 275
40.51322 288
40.53333 285
40.55345 268
40.57356 244
40.59368 256
40.61379 277
40.6339 275
40.65402 267
40.67413 319
40.69424 266
40.71436 262
40.73447 268
40.75458 262
40.7747 245
40.79481 242
40.81493 271
40.83504 272
40.85515 270
40.87527 269
40.89538 273
40.91549 279
40.93561 247
40.95572 287
40.97584 262
40.99595 262
41.01606 247
41.03618 247
41.05629 241
41.0764 269
41.09652 283
41.11663 247
41.13675 254
41.15686 260
41.17697 261
41.19709 249
41.2172 234
41.23731 249
41.25743 253
41.27754 252
41.29765 237
41.31777 299
41.33788 251
41.358 289
41.37811 239
41.39822 255
41.41834 278
41.43845 272
41.45856 256
41.47868 294
41.49879 296
41.51891 317
41.53902 301
41.55913 295
41.57925 353
41.59936 334
41.61947 337
41.63959 387
41.6597 439
41.67982 465
41.69993 472
41.72004 526
41.74016 553
41.76027 625
41.78038 553
41.8005 490
41.82061 511
41.84072 438
41.86084 435
41.88095 386
41.90107 360
41.92118 323
41.94129 285
41.96141 293
41.98152 267
42.00163 276
42.02175 245
42.04186 260
42.06198 259
42.08209 268
42.1022 251
42.12232 304
42.14243 298
42.16254 313
42.18266 328
42.20277 343
42.22289 377
42.243 438
42.26311 457
42.28323 529
42.30334 655
42.32345 703
42.34357 819
42.36368 871
42.38379 894
42.40391 944
42.42402 934
42.44414 877
42.46425 769
42.48436 716
42.50448 584
42.52459 534
42.5447 515
42.56482 454
42.58493 408
42.60505 320
42.62516 276
42.64527 319
42.66539 329
42.6855 314
42.70561 276
42.72573 288
42.74584 317
42.76595 283
42.78607 295
42.80618 271
42.8263 295
42.84641 247
42.86652 267
42.88664 258
42.90675 220
42.92686 238
42.94698 287
42.96709 255
42.98721 241
43.00732 230
43.02743 229
43.04755 239
43.06766 250
43.08777 280
43.10789 232
43.128 236
43.14812 262
43.16823 236
43.18834 243
43.20846 244
43.22857 259
43.24868 243
43.2688 241
43.28891 263
43.30902 234
43.32914 237
43.34925 228
43.36937 235
43.38948 245
43.40959 242
43.42971 252
43.44982 252
43.46993 271
43.49005 249
43.51016 259
43.53028 246
43.55039 267
43.5705 218
43.59062 242
43.61073 216
43.63084 232
43.65096 248
43.67107 216
43.69119 215
43.7113 228
43.73141 187
43.75153 220
43.77164 201
43.79175 210
43.81187 240
43.83198 228
43.85209 243
43.87221 238
43.89232 200
43.91244 225
43.93255 250
43.95266 247
43.97278 221
43.99289 246
44.013 219
44.03312 231
44.05323 214
44.07335 234
44.09346 235
44.11357 225
44.13369 229
44.1538 262
44.17391 243
44.19403 235
44.21414 248
44.23426 222
44.25437 256
44.27448 233
44.2946 229
44.31471 246
44.33482 211
44.35494 227
44.37505 225
44.39516 222
44.41528 217
44.43539 233
44.45551 211
44.47562 254
44.49573 254
44.51585 228
44.53596 236
44.55607 241
44.57619 251
44.5963 233
44.61642 238
44.63653 241
44.65664 240
44.67676 217
44.69687 210
44.71698 244
44.7371 226
44.75721 211
44.77732 226
44.79744 203
44.81755 226
44.83767 225
44.85778 207
44.87789 218
44.89801 225
44.91812 239
44.93823 250
44.95835 209
44.97846 210
44.99858 234
45.01869 224
45.0388 204
45.05892 229
45.07903 217
45.09914 237
45.11926 214
45.13937 233
45.15949 230
45.1796 218
45.19971 277
45.21983 221
45.23994 251
45.26005 253
45.28017 254
45.30028 223
45.32039 268
45.34051 286
45.36062 319
45.38074 288
45.40085 311
45.42096 312
45.44108 324
45.46119 349
45.4813 343
45.50142 390
45.52153 415
45.54165 406
45.56176 404
45.58187 476
45.60199 519
45.6221 569
45.64221 617
45.66233 624
45.68244 705
45.70256 711
45.72267 777
45.74278 813
45.7629 784
45.78301 691
45.80312 645
45.82324 574
45.84335 501
45.86346 477
45.88358 453
45.90369 407
45.92381 363
45.94392 329
45.96403 284
45.98415 232
46.00426 260
46.02437 278
46.04449 266
46.0646 242
46.08472 255
46.10483 256
46.12494 260
46.14506 274
46.16517 272
46.18528 296
46.2054 262
46.22551 263
46.24563 265
46.26574 265
46.28585 277
46.30597 277
46.32608 266
46.34619 251
46.36631 272
46.38642 246
46.40653 253
46.42665 227
46.44676 215
46.46688 230
46.48699 239
46.5071 204
46.52722 204
46.54733 228
46.56744 217
46.58756 239
46.60767 207
46.62779 182
46.6479 212
46.66801 223
46.68813 201
46.70824 201
46.72835 226
46.74847 208
46.76858 246
46.78869 234
46.80881 230
46.82892 209
46.84904 211
46.86915 198
46.88926 225
46.90938 231
46.92949 238
46.9496 252
46.96972 274
46.98983 264
47.00995 284
47.03006 287
47.05017 253
47.07029 267
47.0904 303
47.11051 291
47.13063 292
47.15074 309
47.17086 289
47.19097 278
47.21108 266
47.2312 263
47.25131 243
47.27142 252
47.29154 236
47.31165 258
47.33176 278
47.35188 279
47.37199 247
47.39211 253
47.41222 276
47.43233 237
47.45245 263
47.47256 272
47.49267 270
47.51279 272
47.5329 244
47.55302 265
47.57313 248
47.59324 270
47.61336 258
47.63347 234
47.65358 221
47.6737 239
47.69381 228
47.71393 208
47.73404 231
47.75415 190
47.77427 188
47.79438 226
47.81449 222
47.83461 217
47.85472 226
47.87483 234
47.89495 226
47.91506 202
47.93518 223
47.95529 230
47.9754 221
47.99552 202
48.01563 231
48.03574 211
48.05586 213
48.07597 217
48.09609 231
48.1162 231
48.13631 231
48.15643 199
48.17654 207
48.19665 221
48.21677 205
48.23688 241
48.257 241
48.27711 232
48.29722 234
48.31734 226
48.33745 239
48.35756 232
48.37768 215
48.39779 258
48.4179 220
48.43802 191
48.45813 224
48.47825 242
48.49836 241
48.51847 239
48.53859 222
48.5587 236
48.57881 237
48.59893 229
48.61904 247
48.63916 248
48.65927 232
48.67938 288
48.6995 294
48.71961 302
48.73972 289
48.75984 260
48.77995 291
48.80006 266
48.82018 314
48.84029 297
48.86041 286
48.88052 304
48.90063 288
48.92075 275
48.94086 268
48.96097 304
48.98109 289
49.0012 317
49.02132 310
49.04143 280
49.06154 289
49.08166 264
49.10177 276
49.12188 278
49.142 295
49.16211 278
49.18223 232
49.20234 247
49.22245 247
49.24257 272
49.26268 261
49.28279 246
49.30291 280
49.32302 262
49.34313 246
49.36325 245
49.38336 248
49.40348 235
49.42359 262
49.4437 287
49.46382 234
49.48393 264
49.50404 270
49.52416 235
49.54427 261
49.56439 255
49.5845 243
49.60461 251
49.62473 277
49.64484 287
49.66495 313
49.68507 319
49.70518 343
49.7253 346
49.74541 321
49.76552 360
49.78564 404
49.80575 409
49.82586 417
49.84598 470
49.86609 530
49.8862 578
49.90632 714
49.92643 743
49.94655 830
49.96666 1057
49.98677 1240
50.00689 1451
50.027 1572
50.04711 1785
50.06723 1983
50.08734 2038
50.10746 1861
50.12757 1672
50.14768 1572
50.1678 1350
50.18791 1166
50.20802 1161
50.22814 1070
50.24825 914
50.26837 767
50.28848 699
50.30859 530
50.32871 464
50.34882 409
50.36893 482
50.38905 474
50.40916 504
50.42927 499
50.44939 531
50.4695 545
50.48962 521
50.50973 572
50.52984 528
50.54996 509
50.57007 474
50.59018 477
50.6103 446
50.63041 408
50.65053 407
50.67064 357
50.69075 367
50.71087 340
50.73098 323
50.75109 314
50.77121 353
50.79132 323
50.81143 306
50.83155 346
50.85166 316
50.87178 293
50.89189 300
50.912 298
50.93212 298
50.95223 288
50.97234 274
50.99246 260
51.01257 270
51.03269 267
51.0528 237
51.07291 230
51.09303 242
51.11314 264
51.13325 225
51.15337 242
51.17348 240
51.1936 231
51.21371 255
51.23382 243
51.25394 221
51.27405 244
51.29416 192
51.31428 217
51.33439 195
51.3545 216
51.37462 238
51.39473 213
51.41485 206
51.43496 203
51.45507 211
51.47519 187
51.4953 195
51.51541 203
51.53553 214
51.55564 205
51.57576 222
51.59587 209
51.61598 212
51.6361 209
51.65621 246
51.67632 222
51.69644 208
51.71655 209
51.73667 206
51.75678 205
51.77689 185
51.79701 181
51.81712 204
51.83723 176
51.85735 210
51.87746 195
51.89757 194
51.91769 194
51.9378 211
51.95792 183
51.97803 195
51.99814 216
52.01826 207
52.03837 173
52.05848 195
52.0786 190
52.09871 202
52.11883 220
52.13894 219
52.15905 189
52.17917 182
52.19928 219
52.21939 191
52.23951 182
52.25962 184
52.27974 198
52.29985 194
52.31996 203
52.34008 196
52.36019 238
52.3803 205
52.40042 203
52.42053 221
52.44064 198
52.46076 226
52.48087 230
52.50099 251
52.5211 247
52.54121 245
52.56133 229
52.58144 232
52.60155 234
52.62167 241
52.64178 237
52.6619 204
52.68201 216
52.70212 234
52.72224 231
52.74235 262
52.76246 233
52.78258 212
52.80269 220
52.8228 241
52.84292 212
52.86303 188
52.88315 228
52.90326 228
52.92337 232
52.94349 212
52.9636 216
52.98371 242
53.00383 203
53.02394 238
53.04406 235
53.06417 226
53.08428 221
53.1044 233
53.12451 204
53.14462 197
53.16474 224
53.18485 245
53.20497 218
53.22508 242
53.24519 206
53.26531 220
53.28542 218
53.30553 245
53.32565 230
53.34576 245
53.36587 237
53.38599 239
53.4061 228
53.42622 236
53.44633 253
53.46644 214
53.48656 236
53.50667 211
53.52678 237
53.5469 249
53.56701 235
53.58713 241
53.60724 234
53.62735 239
53.64747 258
53.66758 247
53.68769 247
53.70781 228
53.72792 271
53.74804 256
53.76815 237
53.78826 268
53.80838 260
53.82849 260
53.8486 260
53.86872 262
53.88883 289
53.90894 258
53.92906 283
53.94917 289
53.96929 285
53.9894 293
54.00951 273
54.02963 281
54.04974 264
54.06985 283
54.08997 266
54.11008 290
54.1302 249
54.15031 260
54.17042 292
54.19054 276
54.21065 290
54.23076 262
54.25088 263
54.27099 250
54.29111 267
54.31122 259
54.33133 248
54.35145 235
54.37156 251
54.39167 291
54.41179 277
54.4319 269
54.45201 286
54.47213 284
54.49224 245
54.51236 283
54.53247 292
54.55258 298
54.5727 288
54.59281 306
54.61292 339
54.63304 361
54.65315 381
54.67327 430
54.69338 492
54.71349 519
54.73361 586
54.75372 638
54.77383 656
54.79395 746
54.81406 702
54.83417 703
54.85429 681
54.8744 609
54.89452 571
54.91463 561
54.93474 450
54.95486 508
54.97497 506
54.99508 479
55.0152 438
55.03531 424
55.05543 367
55.07554 332
55.09565 343
55.11577 376
55.13588 386
55.15599 368
55.17611 438
55.19622 425
55.21634 460
55.23645 440
55.25656 497
55.27668 471
55.29679 504
55.3169 435
55.33702 453
55.35713 391
55.37724 401
55.39736 391
55.41747 371
55.43759 378
55.4577 377
55.47781 360
55.49793 338
55.51804 324
55.53815 278
55.55827 301
55.57838 287
55.5985 272
55.61861 284
55.63872 262
55.65884 263
55.67895 270
55.69906 240
55.71918 234
55.73929 242
55.75941 253
55.77952 213
55.79963 234
55.81975 227
55.83986 216
55.85997 213
55.88009 249
55.9002 233
55.92031 241
55.94043 226
55.96054 238
55.98066 238
56.00077 213
56.02088 222
56.041 229
56.06111 217
56.08122 209
56.10134 241
56.12145 222
56.14157 223
56.16168 249
56.18179 229
56.20191 251
56.22202 247
56.24213 212
56.26225 232
56.28236 233
56.30248 215
56.32259 213
56.3427 244
56.36282 229
56.38293 216
56.40304 216
56.42316 225
56.44327 202
56.46338 243
56.4835 204
56.50361 246
56.52373 210
56.54384 250
56.56395 225
56.58407 247
56.60418 241
56.62429 244
56.64441 245
56.66452 254
56.68464 248
56.70475 252
56.72486 240
56.74498 228
56.76509 293
56.7852 234
56.80532 268
56.82543 250
56.84554 221
56.86566 239
56.88577 222
56.90589 237
56.926 242
56.94611 273
56.96623 240
56.98634 208
57.00645 192
57.02657 235
57.04668 237
57.0668 240
57.08691 211
57.10702 263
57.12714 248
57.14725 270
57.16736 274
57.18748 242
57.20759 251
57.22771 255
57.24782 241
57.26793 248
57.28805 247
57.30816 259
57.32827 269
57.34839 263
57.3685 269
57.38861 276
57.40873 250
57.42884 272
57.44896 246
57.46907 267
57.48918 245
57.5093 234
57.52941 233
57.54952 250
57.56964 218
57.58975 223
57.60987 212
57.62998 233
57.65009 208
57.67021 222
57.69032 227
57.71043 211
57.73055 212
57.75066 187
57.77078 193
57.79089 216
57.811 231
57.83112 205
57.85123 229
57.87134 197
57.89146 226
57.91157 193
57.93168 233
57.9518 209
57.97191 232
57.99203 204
58.01214 207
58.03225 230
58.05237 215
58.07248 219
58.09259 218
58.11271 204
58.13282 235
58.15294 249
58.17305 240
58.19316 235
58.21328 241
58.23339 225
58.2535 224
58.27362 236
58.29373 243
58.31385 217
58.33396 218
58.35407 201
58.37419 227
58.3943 240
58.41441 261
58.43453 233
58.45464 257
58.47475 226
58.49487 240
58.51498 264
58.5351 220
58.55521 235
58.57532 248
58.59544 248
58.61555 250
58.63566 247
58.65578 250
58.67589 240
58.69601 224
58.71612 256
58.73623 226
58.75635 227
58.77646 209
58.79657 223
58.81669 203
58.8368 226
58.85691 211
58.87703 214
58.89714 199
58.91726 243
58.93737 209
58.95748 211
58.9776 205
58.99771 218
59.01782 203
59.03794 214
59.05805 231
59.07817 211
59.09828 197
59.11839 217
59.13851 217
59.15862 212
59.17873 195
59.19885 210
59.21896 193
59.23908 266
59.25919 252
59.2793 225
59.29942 254
59.31953 221
59.33964 233
59.35976 254
59.37987 232
59.39998 237
59.4201 264
59.44021 270
59.46033 287
59.48044 293
59.50055 302
59.52067 336
59.54078 309
59.56089 327
59.58101 322
59.60112 328
59.62124 346
59.64135 410
59.66146 424
59.68158 432
59.70169 477
59.7218 506
59.74192 641
59.76203 688
59.78215 766
59.80226 887
59.82237 954
59.84249 1104
59.8626 1264
59.88271 1367
59.90283 1355
59.92294 1298
59.94305 1172
59.96317 996
59.98328 884
60.0034 816
60.02351 803
60.04362 805
60.06374 747
60.08385 694
60.10396 632
60.12408 567
60.14419 409
60.16431 385
60.18442 324
60.20453 332
60.22465 282
60.24476 277
60.26487 274
60.28499 272
60.3051 242
60.32522 250
60.34533 250
60.36544 268
60.38556 254
60.40567 232
60.42578 275
60.4459 231
60.46601 218
60.48612 250
60.50624 232
60.52635 232
60.54647 224
60.56658 199
60.58669 208
60.60681 252
60.62692 218
60.64703 214
60.66715 240
60.68726 204
60.70738 220
60.72749 203
60.7476 235
60.76772 250
60.78783 212
60.80794 227
60.82806 224
60.84817 229
60.86828 222
60.8884 223
60.90851 259
60.92863 276
60.94874 246
60.96885 236
60.98897 252
61.00908 274
61.02919 282
61.04931 288
61.06942 288
61.08954 331
61.10965 318
61.12976 347
61.14988 292
61.16999 302
61.1901 282
61.21022 266
61.23033 260
61.25045 275
61.27056 277
61.29067 271
61.31079 235
61.3309 250
61.35101 219
61.37113 221
61.39124 253
61.41135 232
61.43147 232
61.45158 250
61.4717 220
61.49181 212
61.51192 219
61.53204 260
61.55215 225
61.57226 207
61.59238 209
61.61249 226
61.63261 227
61.65272 226
61.67283 223
61.69295 229
61.71306 228
61.73317 251
61.75329 241
61.7734 220
61.79352 219
61.81363 206
61.83374 196
61.85386 244
61.87397 238
61.89408 241
61.9142 228
61.93431 229
61.95442 255
61.97454 271
61.99465 242
62.01477 260
62.03488 258
62.05499 273
62.07511 294
62.09522 265
62.11533 270
62.13545 296
62.15556 295
62.17568 292
62.19579 311
62.2159 315
62.23602 311
62.25613 322
62.27624 324
62.29636 301
62.31647 319
62.33659 331
62.3567 306
62.37681 311
62.39693 309
62.41704 300
62.43715 305
62.45727 281
62.47738 283
62.49749 269
62.51761 298
62.53772 275
62.55784 273
62.57795 252
62.59806 259
62.61818 272
62.63829 254
62.6584 245
62.67852 301
62.69863 267
62.71875 258
62.73886 245
62.75897 233
62.77909 231
62.7992 238
62.81931 284
62.83943 259
62.85954 245
62.87965 285
62.89977 281
62.91988 253
62.94 288
62.96011 311
62.98022 293
63.00034 309
63.02045 308
63.04056 302
63.06068 306
63.08079 316
63.10091 261
63.12102 288
63.14113 283
63.16125 288
63.18136 282
63.20147 287
63.22159 276
63.2417 307
63.26182 246
63.28193 271
63.30204 281
63.32216 254
63.34227 220
63.36238 257
63.3825 250
63.40261 225
63.42272 236
63.44284 248
63.46295 226
63.48307 234
63.50318 254
63.52329 252
63.54341 266
63.56352 239
63.58363 254
63.60375 274
63.62386 260
63.64398 263
63.66409 285
63.6842 301
63.70432 281
63.72443 319
63.74454 334
63.76466 338
63.78477 391
63.80489 371
63.825 344
63.84511 400
63.86523 404
63.88534 457
63.90545 482
63.92557 502
63.94568 485
63.96579 479
63.98591 513
64.00602 448
64.02614 499
64.04625 411
64.06636 395
64.08648 373
64.10659 369
64.1267 323
64.14682 340
64.16693 286
64.18705 318
64.20716 295
64.22727 302
64.24739 231
64.2675 238
64.28761 220
64.30773 269
64.32784 198
64.34796 197
64.36807 212
64.38818 196
64.4083 223
64.42841 226
64.44852 227
64.46864 212
64.48875 217
64.50886 208
64.52898 208
64.54909 188
64.56921 221
64.58932 190
64.60943 192
64.62955 217
64.64966 192
64.66977 195
64.68989 237
64.71 225
64.73012 213
64.75023 191
64.77034 216
64.79046 206
64.81057 232
64.83068 212
64.8508 223
64.87091 252
64.89102 215
64.91114 216
64.93125 240
64.95137 230
64.97148 229
64.99159 230
65.01171 250
65.03182 236
65.05193 236
65.07205 226
65.09216 235
65.11228 245
65.13239 230
65.1525 237
65.17262 255
65.19273 253
65.21284 242
65.23296 241
65.25307 246
65.27319 241
65.2933 270
65.31341 265
65.33353 231
65.35364 245
65.37375 253
65.39387 248
65.41398 254
65.43409 243
65.45421 236
65.47432 245
65.49444 239
65.51455 244
65.53466 250
65.55478 233
65.57489 259
65.595 224
65.61512 246
65.63523 248
65.65535 254
65.67546 218
65.69557 253
65.71569 235
65.7358 250
65.75591 250
65.77603 217
65.79614 224
65.81626 245
65.83637 237
65.85648 204
65.8766 243
65.89671 220
65.91682 237
65.93694 231
65.95705 208
65.97716 222
65.99728 203
66.01739 210
66.03751 218
66.05762 250
66.07773 214
66.09785 225
66.11796 216
66.13807 246
66.15819 246
66.1783 253
66.19842 252
66.21853 231
66.23864 255
66.25876 281
66.27887 256
66.29898 255
66.3191 279
66.33921 241
66.35933 256
66.37944 244
66.39955 265
66.41967 262
66.43978 256
66.45989 245
66.48001 243
66.50012 210
66.52023 240
66.54035 214
66.56046 249
66.58058 219
66.60069 210
66.6208 221
66.64092 217
66.66103 222
66.68114 203
66.70126 204
66.72137 231
66.74149 206
66.7616 210
66.78171 217
66.80183 192
66.82194 217
66.84205 235
66.86217 222
66.88228 227
66.90239 234
66.92251 214
66.94262 214
66.96274 253
66.98285 229
67.00296 227
67.02308 245
67.04319 246
67.0633 249
67.08342 261
67.10353 239
67.12365 252
67.14376 236
67.16387 236
67.18399 234
67.2041 253
67.22421 248
67.24433 228
67.26444 251
67.28456 238
67.30467 275
67.32478 284
67.3449 286
67.36501 269
67.38512 304
67.40524 292
67.42535 314
67.44546 332
67.46558 352
67.48569 420
67.50581 423
67.52592 469
67.54603 541
67.56615 566
67.58626 655
67.60637 715
67.62649 765
67.6466 873
67.66672 870
67.68683 907
67.70694 870
67.72706 818
67.74717 713
67.76728 649
67.7874 674
67.80751 655
67.82763 662
67.84774 675
67.86785 708
67.88797 784
67.90808 719
67.92819 727
67.94831 762
67.96842 773
67.98853 837
68.00865 911
68.02876 1052
68.04888 1107
68.06899 1112
68.0891 1137
68.10922 1183
68.12933 1189
68.14944 1075
68.16956 946
68.18967 965
68.20979 1051
68.2299 1058
68.25001 1120
68.27013 1053
68.29024 1021
68.31035 845
68.33047 702
68.35058 548
68.3707 558
68.39081 520
68.41092 517
68.43104 518
68.45115 462
68.47126 460
68.49138 413
68.51149 375
68.5316 319
68.55172 299
68.57183 271
68.59195 261
68.61206 247
68.63217 247
68.65229 229
68.6724 234
68.69251 251
68.71263 218
68.73274 236
68.75286 247
68.77297 246
68.79308 245
68.8132 252
68.83331 207
68.85342 238
68.87354 227
68.89365 220
68.91376 250
68.93388 237
68.95399 202
68.97411 228
68.99422 205
69.01433 231
69.03445 220
69.05456 214
69.07467 209
69.09479 208
69.1149 224
69.13502 196
69.15513 207
69.17524 213
69.19536 179
69.21547 220
69.23558 198
69.2557 225
69.27581 221
69.29593 220
69.31604 228
69.33615 203
69.35627 178
69.37638 189
69.39649 204
69.41661 209
69.43672 205
69.45683 197
69.47695 211
69.49706 196
69.51718 217
69.53729 204
69.5574 210
69.57752 178
69.59763 218
69.61774 187
69.63786 196
69.65797 206
69.67809 198
69.6982 229
69.71831 216
69.73843 199
69.75854 190
69.77865 187
69.79877 193
69.81888 180
69.839 177
69.85911 218
69.87922 193
69.89934 196
69.91945 204
69.93956 221
69.95968 210
69.97979 222
69.9999 234
70.02002 215
70.04013 212
70.06025 200
70.08036 213
70.10047 215
70.12059 203
70.1407 216
70.16081 202
70.18093 196
70.20104 230
70.22116 211
70.24127 206
70.26138 200
70.2815 186
70.30161 214
70.32172 198
70.34184 206
70.36195 193
70.38207 184
70.40218 221
70.42229 201
70.44241 193
70.46252 216
70.48263 185
70.50275 207
70.52286 202
70.54297 209
70.56309 204
70.5832 230
70.60332 231
70.62343 229
70.64354 195
70.66366 223
70.68377 231
70.70388 194
70.724 186
70.74411 210
70.76423 187
70.78434 214
70.80445 205
70.82457 225
70.84468 235
70.86479 207
70.88491 195
70.90502 228
70.92513 192
70.94525 206
70.96536 207
70.98548 197
71.00559 223
71.0257 221
71.04582 216
71.06593 190
71.08604 189
71.10616 212
71.12627 210
71.14639 182
71.1665 192
71.18661 179
71.20673 214
71.22684 200
71.24695 222
71.26707 201
71.28718 221
71.3073 221
71.32741 208
71.34752 203
71.36764 233
71.38775 212
71.40786 234
71.42798 209
71.44809 234
71.4682 225
71.48832 248
71.50843 230
71.52855 243
71.54866 244
71.56877 242
71.58889 198
71.609 222
71.62911 219
71.64923 233
71.66934 242
71.68946 229
71.70957 259
71.72968 211
71.7498 246
71.76991 219
71.79002 217
71.81014 216
71.83025 214
71.85037 203
71.87048 229
71.89059 255
71.91071 214
71.93082 229
71.95093 246
71.97105 216
71.99116 224
72.01127 232
72.03139 243
72.0515 228
72.07162 231
72.09173 269
72.11184 218
72.13196 228
72.15207 226
72.17218 274
72.1923 251
72.21241 241
72.23253 266
72.25264 253
72.27275 234
72.29287 237
72.31298 221
72.33309 201
72.35321 223
72.37332 223
72.39344 222
72.41355 259
72.43366 225
72.45378 218
72.47389 236
72.494 217
72.51412 208
72.53423 236
72.55434 195
72.57446 241
72.59457 224
72.61469 191
72.6348 199
72.65491 200
72.67503 212
72.69514 200
72.71525 213
72.73537 239
72.75548 238
72.7756 237
72.79571 197
72.81582 218
72.83594 208
72.85605 230
72.87616 222
72.89628 224
72.91639 210
72.9365 245
72.95662 233
72.97673 208
72.99685 250
73.01696 242
73.03707 256
73.05719 256
73.0773 269
73.09741 288
73.11753 273
73.13764 282
73.15776 291
73.17787 248
73.19798 279
73.2181 286
73.23821 296
73.25832 317
73.27844 354
73.29855 369
73.31867 342
73.33878 441
73.35889 474
73.37901 481
73.39912 444
73.41923 461
73.43935 401
73.45946 396
73.47957 385
73.49969 368
73.5198 342
73.53992 345
73.56003 353
73.58014 346
73.60026 343
73.62037 338
73.64048 324
73.6606 328
73.68071 294
73.70083 268
73.72094 263
73.74105 242
73.76117 260
73.78128 217
73.80139 236
73.82151 228
73.84162 207
73.86174 227
73.88185 215
73.90196 228
73.92208 194
73.94219 219
73.9623 212
73.98242 211
74.00253 227
74.02264 205
74.04276 202
74.06287 213
74.08299 232
74.1031 185
74.12321 213
74.14333 208
74.16344 205
74.18355 197
74.20367 210
74.22378 227
74.2439 203
74.26401 192
74.28412 220
74.30424 209
74.32435 218
74.34446 209
74.36458 222
74.38469 202
74.40481 229
74.42492 204
74.44503 230
74.46515 236
74.48526 199
74.50537 236
74.52549 199
74.5456 225
74.56571 238
74.58583 206
74.60594 217
74.62606 206
74.64617 212
74.66628 211
74.6864 232
74.70651 203
74.72662 221
74.74674 235
74.76685 202
74.78697 223
74.80708 227
74.82719 213
74.84731 228
74.86742 218
74.88753 227
74.90765 221
74.92776 253
74.94787 245
74.96799 226
74.9881 216
75.00822 226
