3.00117 19953
3.02128 19727
3.0414 19043
3.06151 18588
3.08162 17817
3.10174 17744
3.12185 17244
3.14197 16307
3.16208 16313
3.18219 15526
3.20231 15197
3.22242 14803
3.24253 14088
3.26265 13940
3.28276 13380
3.30288 12855
3.32299 12797
3.3431 12070
3.36322 11845
3.38333 11341
3.40344 11001
3.42356 10712
3.44367 10035
3.46379 10140
3.4839 9375
3.50401 9347
3.52413 8976
3.54424 8454
3.56435 8331
3.58447 7911
3.60458 7677
3.62469 7505
3.64481 7039
3.66492 7062
3.68504 6504
3.70515 6271
3.72526 6145
3.74538 5904
3.76549 5615
3.7856 5383
3.80572 4941
3.82583 4945
3.84595 4687
3.86606 4649
3.88617 4240
3.90629 4216
3.9264 4005
3.94651 3796
3.96663 3639
3.98674 3331
4.00686 3360
4.02697 3223
4.04708 3128
4.0672 2946
4.08731 2738
4.10742 2629
4.12754 2533
4.14765 2418
4.16776 2365
4.18788 2111
4.20799 2191
4.22811 2129
4.24822 2034
4.26833 1980
4.28845 1715
4.30856 1696
4.32867 1925
4.34879 1674
4.3689 1652
4.38902 1524
4.40913 1517
4.42924 1636
4.44936 1472
4.46947 1438
4.48958 1370
4.5097 1334
4.52981 1411
4.54992 1380
4.57004 1245
4.59015 1176
4.61027 1186
4.63038 1274
4.65049 1143
4.67061 1098
4.69072 1087
4.71083 1026
4.73095 1061
4.75106 1073
4.77118 927
4.79129 981
4.8114 934
4.83152 902
4.85163 918
4.87174 834
4.89186 819
4.91197 808
4.93209 861
4.9522 845
4.97231 738
4.99243 760
5.01254 769
5.03265 761
5.05277 734
5.07288 662
5.09299 681
5.11311 684
5.13322 676
5.15334 624
5.17345 582
5.19356 554
5.21368 642
5.23379 618
5.2539 571
5.27402 498
5.29413 496
5.31425 506
5.33436 561
5.35447 552
5.37459 482
5.3947 458
5.41481 503
5.43493 480
5.45504 480
5.47516 438
5.49527 431
5.51538 449
5.5355 408
5.55561 451
5.57572 423
5.59584 382
5.61595 408
5.63606 392
5.65618 327
5.67629 363
5.69641 355
5.71652 357
5.73663 370
5.75675 345
5.77686 339
5.79697 361
5.81709 327
5.8372 340
5.85732 318
5.87743 299
5.89754 332
5.91766 348
5.93777 283
5.95788 292
5.978 316
5.99811 303
6.01823 283
6.03834 278
6.05845 289
6.07857 273
6.09868 281
6.11879 274
6.13891 298
6.15902 272
6.17913 261
6.19925 274
6.21936 296
6.23948 269
6.25959 260
6.2797 266
6.29982 259
6.31993 279
6.34004 280
6.36016 270
6.38027 251
6.40039 233
6.4205 232
6.44061 268
6.46073 239
6.48084 271
6.50095 294
6.52107 248
6.54118 227
6.56129 246
6.58141 227
6.60152 250
6.62164 250
6.64175 237
6.66186 277
6.68198 235
6.70209 271
6.7222 243
6.74232 242
6.76243 253
6.78255 239
6.80266 205
6.82277 266
6.84289 229
6.863 269
6.88311 246
6.90323 243
6.92334 211
6.94346 246
6.96357 230
6.98368 239
7.0038 225
7.02391 212
7.04402 268
7.06414 229
7.08425 229
7.10436 245
7.12448 238
7.14459 232
7.16471 238
7.18482 239
7.20493 232
7.22505 266
7.24516 233
7.26527 239
7.28539 238
7.3055 231
7.32562 255
7.34573 216
7.36584 269
7.38596 242
7.40607 241
7.42618 235
7.4463 214
7.46641 242
7.48653 251
7.50664 271
7.52675 256
7.54687 259
7.56698 268
7.58709 244
7.60721 257
7.62732 263
7.64743 248
7.66755 214
7.68766 232
7.70778 242
7.72789 219
7.748 264
7.76812 236
7.78823 259
7.80834 251
7.82846 265
7.84857 240
7.86869 229
7.8888 276
7.90891 242
7.92903 250
7.94914 232
7.96925 251
7.98937 212
8.00948 224
8.0296 233
8.04971 224
8.06982 246
8.08994 252
8.11005 250
8.13016 248
8.15028 238
8.17039 263
8.1905 219
8.21062 249
8.23073 276
8.25085 261
8.27096 231
8.29107 259
8.31119 238
8.3313 240
8.35141 286
8.37153 257
8.39164 252
8.41176 275
8.43187 250
8.45198 279
8.4721 245
8.49221 236
8.51232 265
8.53244 259
8.55255 268
8.57266 258
8.59278 235
8.61289 239
8.63301 262
8.65312 250
8.67323 289
8.69335 261
8.71346 236
8.73357 253
8.75369 251
8.7738 274
8.79392 279
8.81403 291
8.83414 273
8.85426 264
8.87437 270
8.89448 254
8.9146 276
8.93471 251
8.95483 294
8.97494 275
8.99505 256
9.01517 289
9.03528 269
9.05539 256
9.07551 259
9.09562 262
9.11573 216
9.13585 221
9.15596 260
9.17608 284
9.19619 265
9.2163 243
9.23642 262
9.25653 256
9.27664 253
9.29676 272
9.31687 260
9.33699 266
9.3571 275
9.37721 261
9.39733 292
9.41744 228
9.43755 274
9.45767 277
9.47778 266
9.4979 285
9.51801 276
9.53812 253
9.55824 265
9.57835 248
9.59846 274
9.61858 258
9.63869 260
9.6588 260
9.67892 267
9.69903 268
9.71915 275
9.73926 263
9.75937 238
9.77949 212
9.7996 289
9.81971 302
9.83983 259
9.85994 291
9.88006 265
9.90017 290
9.92028 271
9.9404 253
9.96051 257
9.98062 257
10.00074 251
10.02085 275
10.04097 280
10.06108 249
10.08119 231
10.10131 261
10.12142 250
10.14153 272
10.16165 287
10.18176 253
10.20187 259
10.22199 288
10.2421 262
10.26222 278
10.28233 266
10.30244 266
10.32256 258
10.34267 246
10.36278 252
10.3829 280
10.40301 267
10.42313 259
10.44324 276
10.46335 252
10.48347 278
10.50358 237
10.52369 273
10.54381 257
10.56392 282
10.58403 263
10.60415 257
10.62426 259
10.64438 287
10.66449 248
10.6846 240
10.70472 217
10.72483 247
10.74494 276
10.76506 317
10.78517 275
10.80529 263
10.8254 281
10.84551 247
10.86563 270
10.88574 261
10.90585 263
10.92597 284
10.94608 258
10.9662 267
10.98631 238
11.00642 251
11.02654 243
11.04665 256
11.06676 240
11.08688 246
11.10699 256
11.1271 271
11.14722 240
11.16733 235
11.18745 252
11.20756 233
11.22767 249
11.24779 277
11.2679 272
11.28801 277
11.30813 264
11.32824 252
11.34836 261
11.36847 271
11.38858 271
11.4087 271
11.42881 272
11.44892 270
11.46904 270
11.48915 278
11.50927 261
11.52938 275
11.54949 269
11.56961 282
11.58972 255
11.60983 272
11.62995 286
11.65006 256
11.67017 270
11.69029 291
11.7104 236
11.73052 289
11.75063 301
11.77074 290
11.79086 288
11.81097 292
11.83108 311
11.8512 297
11.87131 315
11.89143 334
11.91154 332
11.93165 323
11.95177 300
11.97188 348
11.99199 292
12.01211 331
12.03222 315
12.05234 304
12.07245 333
12.09256 333
12.11268 385
12.13279 360
12.1529 387
12.17302 390
12.19313 387
12.21324 397
12.23336 426
12.25347 456
12.27359 409
12.2937 430
12.31381 374
12.33393 393
12.35404 389
12.37415 413
12.39427 369
12.41438 389
12.4345 341
12.45461 346
12.47472 339
12.49484 316
12.51495 327
12.53506 309
12.55518 327
12.57529 311
12.5954 285
12.61552 284
12.63563 291
12.65575 253
12.67586 293
12.69597 309
12.71609 266
12.7362 255
12.75631 294
12.77643 282
12.79654 243
12.81666 260
12.83677 261
12.85688 270
12.877 242
12.89711 262
12.91722 262
12.93734 246
12.95745 220
12.97757 259
12.99768 253
13.01779 241
13.03791 265
13.05802 266
13.07813 235
13.09825 237
13.11836 249
13.13847 263
13.15859 228
13.1787 224
13.19882 276
13.21893 264
13.23904 245
13.25916 235
13.27927 254
13.29938 227
13.3195 252
13.33961 239
13.35973 233
13.37984 266
13.39995 263
13.42007 225
13.44018 238
13.46029 219
13.48041 234
13.50052 255
13.52064 226
13.54075 225
13.56086 240
13.58098 250
13.60109 259
13.6212 264
13.64132 236
13.66143 234
13.68154 229
13.70166 241
13.72177 246
13.74189 243
13.762 233
13.78211 228
13.80223 234
13.82234 236
13.84245 221
13.86257 237
13.88268 220
13.9028 234
13.92291 230
13.94302 227
13.96314 249
13.98325 216
14.00336 213
14.02348 228
14.04359 260
14.06371 249
14.08382 240
14.10393 225
14.12405 221
14.14416 218
14.16427 242
14.18439 206
14.2045 211
14.22461 234
14.24473 222
14.26484 226
14.28496 214
14.30507 198
14.32518 253
14.3453 238
14.36541 244
14.38552 209
14.40564 242
14.42575 237
14.44587 242
14.46598 224
14.48609 215
14.50621 211
14.52632 242
14.54643 189
14.56655 214
14.58666 222
14.60677 230
14.62689 212
14.647 212
14.66712 219
14.68723 205
14.70734 189
14.72746 231
14.74757 218
14.76768 226
14.7878 213
14.80791 235
14.82803 209
14.84814 236
14.86825 243
14.88837 201
14.90848 218
14.92859 222
14.94871 223
14.96882 225
14.98894 216
15.00905 209
15.02916 259
15.04928 208
15.06939 237
15.0895 206
15.10962 224
15.12973 207
15.14984 214
15.16996 197
15.19007 218
15.21019 221
15.2303 225
15.25041 196
15.27053 214
15.29064 213
15.31075 224
15.33087 222
15.35098 191
15.3711 222
15.39121 222
15.41132 197
15.43144 205
15.45155 201
15.47166 229
15.49178 244
15.51189 215
15.53201 234
15.55212 257
15.57223 187
15.59235 222
15.61246 197
15.63257 185
15.65269 199
15.6728 215
15.69291 233
15.71303 216
15.73314 220
15.75326 197
15.77337 221
15.79348 228
15.8136 232
15.83371 210
15.85382 205
15.87394 221
15.89405 192
15.91417 226
15.93428 210
15.95439 224
15.97451 184
15.99462 214
16.01473 212
16.03485 209
16.05496 202
16.07508 232
16.09519 204
16.1153 197
16.13542 206
16.15553 209
16.17564 199
16.19576 208
16.21587 217
16.23598 209
16.2561 213
16.27621 204
16.29633 199
16.31644 221
16.33655 208
16.35667 224
16.37678 206
16.39689 212
16.41701 225
16.43712 182
16.45724 223
16.47735 211
16.49746 193
16.51758 195
16.53769 244
16.5578 204
16.57792 218
16.59803 200
16.61814 211
16.63826 181
16.65837 237
16.67849 227
16.6986 216
16.71871 192
16.73883 216
16.75894 198
16.77905 196
16.79917 230
16.81928 211
16.8394 210
16.85951 217
16.87962 195
16.89974 242
16.91985 204
16.93996 200
16.96008 196
16.98019 219
17.00031 204
17.02042 204
17.04053 223
17.06065 225
17.08076 211
17.10087 208
17.12099 182
17.1411 216
17.16121 161
17.18133 220
17.20144 225
17.22156 191
17.24167 179
17.26178 222
17.2819 203
17.30201 188
17.32212 219
17.34224 215
17.36235 185
17.38247 223
17.40258 231
17.42269 195
17.44281 185
17.46292 186
17.48303 196
17.50315 199
17.52326 211
17.54338 217
17.56349 223
17.5836 204
17.60372 200
17.62383 202
17.64394 223
17.66406 198
17.68417 212
17.70428 225
17.7244 187
17.74451 201
17.76463 191
17.78474 202
17.80485 201
17.82497 221
17.84508 191
17.86519 217
17.88531 183
17.90542 220
17.92554 213
17.94565 187
17.96576 227
17.98588 237
18.00599 197
18.0261 228
18.04622 211
18.06633 201
18.08645 228
18.10656 229
18.12667 192
18.14679 196
18.1669 189
18.18701 195
18.20713 195
18.22724 214
18.24735 206
18.26747 228
18.28758 202
18.3077 210
18.32781 222
18.34792 177
18.36804 221
18.38815 210
18.40826 204
18.42838 217
18.44849 228
18.46861 198
18.48872 204
18.50883 220
18.52895 209
18.54906 192
18.56917 200
18.58929 203
18.6094 219
18.62951 221
18.64963 201
18.66974 213
18.68986 214
18.70997 207
18.73008 214
18.7502 241
18.77031 229
18.79042 222
18.81054 252
18.83065 239
18.85077 234
18.87088 221
18.89099 212
18.91111 220
18.93122 250
18.95133 203
18.97145 197
18.99156 220
19.01168 238
19.03179 212
19.0519 196
19.07202 216
19.09213 235
19.11224 203
19.13236 215
19.15247 208
19.17258 202
19.1927 195
19.21281 207
19.23293 228
19.25304 231
19.27315 183
19.29327 194
19.31338 207
19.33349 232
19.35361 214
19.37372 189
19.39384 193
19.41395 219
19.43406 191
19.45418 225
19.47429 221
19.4944 299
19.51452 238
19.53463 231
19.55475 237
19.57486 220
19.59497 244
19.61509 237
19.6352 250
19.65531 247
19.67543 258
19.69554 282
19.71565 280
19.73577 293
19.75588 322
19.776 312
19.79611 332
19.81622 369
19.83634 390
19.85645 344
19.87656 389
19.89668 381
19.91679 377
19.93691 362
19.95702 345
19.97713 392
19.99725 369
20.01736 377
20.03747 363
20.05759 367
20.0777 390
20.09782 366
20.11793 399
20.13804 376
20.15816 352
20.17827 362
20.19838 400
20.2185 377
20.23861 413
20.25872 395
20.27884 407
20.29895 369
20.31907 425
20.33918 431
20.35929 418
20.37941 424
20.39952 406
20.41963 460
20.43975 500
20.45986 485
20.47998 465
20.50009 528
20.5202 519
20.54032 541
20.56043 581
20.58054 668
20.60066 663
20.62077 754
20.64088 931
20.661 1107
20.68111 1381
20.70123 1894
20.72134 2581
20.74145 3617
20.76157 4756
20.78168 5934
20.80179 7134
20.82191 7806
20.84202 7295
20.86214 6300
20.88225 4761
20.90236 3269
20.92248 2254
20.94259 1328
20.9627 896
20.98282 690
21.00293 596
21.02305 537
21.04316 494
21.06327 492
21.08339 514
21.1035 451
21.12361 488
21.14373 446
21.16384 468
21.18395 384
21.20407 400
21.22418 447
21.2443 349
21.26441 399
21.28452 344
21.30464 352
21.32475 383
21.34486 356
21.36498 350
21.38509 382
21.40521 313
21.42532 357
21.44543 344
21.46555 352
21.48566 353
21.50577 383
21.52589 358
21.546 302
21.56612 319
21.58623 340
21.60634 307
21.62646 327
21.64657 361
21.66668 302
21.6868 308
21.70691 303
21.72702 304
21.74714 356
21.76725 301
21.78737 314
21.80748 285
21.82759 322
21.84771 318
21.86782 331
21.88793 316
21.90805 311
21.92816 298
21.94828 288
21.96839 262
21.9885 292
22.00862 317
22.02873 307
22.04884 275
22.06896 323
22.08907 271
22.10919 275
22.1293 308
22.14941 281
22.16953 273
22.18964 319
22.20975 284
22.22987 283
22.24998 260
22.27009 292
22.29021 277
22.31032 309
22.33044 281
22.35055 285
22.37066 270
22.39078 300
22.41089 273
22.431 276
22.45112 264
22.47123 266
22.49135 283
22.51146 258
22.53157 272
22.55169 266
22.5718 253
22.59191 258
22.61203 256
22.63214 255
22.65225 242
22.67237 285
22.69248 282
22.7126 257
22.73271 252
22.75282 265
22.77294 230
22.79305 251
22.81316 252
22.83328 246
22.85339 253
22.87351 250
22.89362 266
22.91373 256
22.93385 278
22.95396 242
22.97407 245
22.99419 286
23.0143 248
23.03442 264
23.05453 248
23.07464 242
23.09476 231
23.11487 256
23.13498 258
23.1551 246
23.17521 256
23.19532 241
23.21544 269
23.23555 259
23.25567 258
23.27578 257
23.29589 239
23.31601 262
23.33612 254
23.35623 248
23.37635 218
23.39646 242
23.41658 235
23.43669 252
23.4568 228
23.47692 267
23.49703 273
23.51714 261
23.53726 271
23.55737 273
23.57749 260
23.5976 255
23.61771 248
23.63783 255
23.65794 284
23.67805 260
23.69817 266
23.71828 295
23.73839 310
23.75851 259
23.77862 278
23.79874 290
23.81885 252
23.83896 282
23.85908 297
23.87919 280
23.8993 307
23.91942 329
23.93953 339
23.95965 342
23.97976 348
23.99987 358
24.01999 351
24.0401 304
24.06021 334
24.08033 303
24.10044 287
24.12056 304
24.14067 317
24.16078 280
24.1809 292
24.20101 300
24.22112 282
24.24124 289
24.26135 306
24.28146 295
24.30158 257
24.32169 288
24.34181 307
24.36192 277
24.38203 282
24.40215 281
24.42226 287
24.44237 291
24.46249 281
24.4826 306
24.50272 283
24.52283 326
24.54294 283
24.56306 294
24.58317 313
24.60328 316
24.6234 305
24.64351 316
24.66362 316
24.68374 352
24.70385 329
24.72397 345
24.74408 324
24.76419 352
24.78431 347
24.80442 365
24.82453 378
24.84465 384
24.86476 433
24.88488 377
24.90499 361
24.9251 368
24.94522 380
24.96533 389
24.98544 325
25.00556 342
25.02567 359
25.04579 369
25.0659 325
25.08601 350
25.10613 317
25.12624 321
25.14635 329
25.16647 316
25.18658 314
25.20669 323
25.22681 287
25.24692 295
25.26704 302
25.28715 290
25.30726 311
25.32738 313
25.34749 309
25.3676 299
25.38772 304
25.40783 301
25.42795 306
25.44806 317
25.46817 287
25.48829 341
25.5084 305
25.52851 306
25.54863 302
25.56874 332
25.58886 347
25.60897 325
25.62908 315
25.6492 340
25.66931 410
25.68942 429
25.70954 442
25.72965 444
25.74976 483
25.76988 430
25.78999 503
25.81011 487
25.83022 506
25.85033 491
25.87045 534
25.89056 522
25.91067 533
25.93079 524
25.9509 523
25.97102 551
25.99113 539
26.01124 573
26.03136 623
26.05147 631
26.07158 612
26.0917 673
26.11181 695
26.13193 783
26.15204 849
26.17215 869
26.19227 980
26.21238 968
26.23249 1029
26.25261 1185
26.27272 1183
26.29283 1281
26.31295 1498
26.33306 1574
26.35318 1902
26.37329 2251
26.3934 2789
26.41352 3594
26.43363 4716
26.45374 6410
26.47386 8528
26.49397 12088
26.51409 16201
26.5342 21585
26.55431 26647
26.57443 31457
26.59454 33647
26.61465 32904
26.63477 28981
26.65488 23288
26.67499 17433
26.69511 12710
26.71522 8187
26.73534 4939
26.75545 3065
26.77556 2240
26.79568 1770
26.81579 1549
26.8359 1430
26.85602 1277
26.87613 1208
26.89625 1059
26.91636 992
26.93647 854
26.95659 790
26.9767 747
26.99681 691
27.01693 655
27.03704 559
27.05716 574
27.07727 531
27.09738 523
27.1175 515
27.13761 524
27.15772 507
27.17784 508
27.19795 451
27.21806 477
27.23818 478
27.25829 414
27.27841 401
27.29852 442
27.31863 424
27.33875 446
27.35886 417
27.37897 401
27.39909 411
27.4192 382
27.43932 377
27.45943 351
27.47954 361
27.49966 358
27.51977 394
27.53988 383
27.56 348
27.58011 348
27.60023 358
27.62034 373
27.64045 326
27.66057 331
27.68068 335
27.70079 335
27.72091 335
27.74102 326
27.76113 330
27.78125 312
27.80136 338
27.82148 318
27.84159 354
27.8617 333
27.88182 314
27.90193 296
27.92204 298
27.94216 323
27.96227 303
27.98239 307
28.0025 320
28.02261 318
28.04273 299
28.06284 276
28.08295 315
28.10307 306
28.12318 250
28.1433 321
28.16341 285
28.18352 307
28.20364 327
28.22375 289
28.24386 269
28.26398 268
28.28409 267
28.3042 290
28.32432 272
28.34443 315
28.36455 288
28.38466 287
28.40477 304
28.42489 302
28.445 308
28.46511 266
28.48523 280
28.50534 275
28.52546 263
28.54557 285
28.56568 294
28.5858 261
28.60591 277
28.62602 252
28.64614 286
28.66625 277
28.68636 287
28.70648 250
28.72659 256
28.74671 245
28.76682 253
28.78693 259
28.80705 291
28.82716 243
28.84727 249
28.86739 271
28.8875 286
28.90762 236
28.92773 252
28.94784 259
28.96796 268
28.98807 278
29.00818 269
29.0283 251
29.04841 262
29.06853 270
29.08864 238
29.10875 295
29.12887 281
29.14898 255
29.16909 247
29.18921 232
29.20932 249
29.22943 256
29.24955 248
29.26966 240
29.28978 264
29.30989 244
29.33 253
29.35012 237
29.37023 258
29.39034 236
29.41046 240
29.43057 231
29.45069 242
29.4708 244
29.49091 233
29.51103 237
29.53114 224
29.55125 242
29.57137 243
29.59148 228
29.6116 242
29.63171 228
29.65182 237
29.67194 240
29.69205 230
29.71216 234
29.73228 244
29.75239 265
29.7725 230
29.79262 232
29.81273 248
29.83285 254
29.85296 225
29.87307 237
29.89319 223
29.9133 229
29.93341 263
29.95353 243
29.97364 241
29.99376 254
30.01387 247
30.03398 240
30.0541 233
30.07421 213
30.09432 258
30.11444 255
30.13455 245
30.15467 258
30.17478 240
30.19489 220
30.21501 251
30.23512 242
30.25523 233
30.27535 231
30.29546 210
30.31557 250
30.33569 252
30.3558 214
30.37592 253
30.39603 254
30.41614 228
30.43626 253
30.45637 241
30.47648 244
30.4966 218
30.51671 228
30.53683 266
30.55694 239
30.57705 210
30.59717 219
30.61728 232
30.63739 258
30.65751 224
30.67762 227
30.69773 217
30.71785 224
30.73796 203
30.75808 220
30.77819 243
30.7983 222
30.81842 222
30.83853 249
30.85864 205
30.87876 256
30.89887 213
30.91899 219
30.9391 237
30.95921 253
30.97933 241
30.99944 213
31.01955 226
31.03967 224
31.05978 218
31.0799 222
31.10001 201
31.12012 186
31.14024 208
31.16035 240
31.18046 226
31.20058 213
31.22069 215
31.2408 225
31.26092 234
31.28103 232
31.30115 205
31.32126 259
31.34137 232
31.36149 214
31.3816 222
31.40171 225
31.42183 239
31.44194 214
31.46206 229
31.48217 221
31.50228 229
31.5224 196
31.54251 194
31.56262 213
31.58274 212
31.60285 216
31.62297 225
31.64308 231
31.66319 207
31.68331 237
31.70342 204
31.72353 195
31.74365 204
31.76376 189
31.78387 213
31.80399 196
31.8241 214
31.84422 191
31.86433 180
31.88444 232
31.90456 208
31.92467 204
31.94478 209
31.9649 195
31.98501 194
32.00513 210
32.02524 216
32.04535 224
32.06547 210
32.08558 201
32.10569 216
32.12581 193
32.14592 180
32.16604 192
32.18615 175
32.20626 208
32.22638 227
32.24649 196
32.2666 193
32.28672 196
32.30683 203
32.32694 221
32.34706 187
32.36717 231
32.38729 200
32.4074 192
32.42751 220
32.44763 199
32.46774 231
32.48785 239
32.50797 242
32.52808 238
32.5482 205
32.56831 233
32.58842 225
32.60854 248
32.62865 219
32.64876 235
32.66888 246
32.68899 214
32.7091 247
32.72922 198
32.74933 269
32.76945 231
32.78956 225
32.80967 215
32.82979 220
32.8499 260
32.87001 235
32.89013 257
32.91024 245
32.93036 253
32.95047 261
32.97058 240
32.9907 244
33.01081 257
33.03092 264
33.05104 288
33.07115 289
33.09127 289
33.11138 310
33.13149 262
33.15161 260
33.17172 273
33.19183 264
33.21195 266
33.23206 274
33.25217 242
33.27229 220
33.2924 220
33.31252 250
33.33263 249
33.35274 253
33.37286 215
33.39297 239
33.41308 251
33.4332 219
33.45331 200
33.47343 192
33.49354 201
33.51365 217
33.53377 207
33.55388 217
33.57399 211
33.59411 182
33.61422 195
33.63434 206
33.65445 198
33.67456 189
33.69468 218
33.71479 179
33.7349 208
33.75502 202
33.77513 192
33.79524 184
33.81536 204
33.83547 177
33.85559 171
33.8757 167
33.89581 202
33.91593 180
33.93604 196
33.95615 209
33.97627 186
33.99638 183
34.0165 178
34.03661 191
34.05672 176
34.07684 187
34.09695 168
34.11706 179
34.13718 182
34.15729 180
34.17741 203
34.19752 188
34.21763 191
34.23775 176
34.25786 182
34.27797 177
34.29809 203
34.3182 178
34.33831 205
34.35843 187
34.37854 209
34.39866 182
34.41877 192
34.43888 190
34.459 183
34.47911 197
34.49922 188
34.51934 195
34.53945 214
34.55957 200
34.57968 204
34.59979 206
34.61991 217
34.64002 186
34.66013 206
34.68025 208
34.70036 215
34.72047 210
34.74059 244
34.7607 222
34.78082 224
34.80093 260
34.82104 215
34.84116 206
34.86127 238
34.88138 252
34.9015 277
34.92161 284
34.94173 259
34.96184 243
34.98195 271
35.00207 267
35.02218 276
35.04229 232
35.06241 267
35.08252 241
35.10264 257
35.12275 256
35.14286 257
35.16298 256
35.18309 262
35.2032 250
35.22332 270
35.24343 247
35.26354 249
35.28366 232
35.30377 245
35.32389 237
35.344 249
35.36411 255
35.38423 245
35.40434 261
35.42445 276
35.44457 284
35.46468 281
35.4848 303
35.50491 305
35.52502 321
35.54514 313
35.56525 325
35.58536 321
35.60548 351
35.62559 317
35.64571 354
35.66582 313
35.68593 326
35.70605 328
35.72616 299
35.74627 325
35.76639 291
35.7865 308
35.80661 293
35.82673 285
35.84684 305
35.86696 323
35.88707 270
35.90718 314
35.9273 271
35.94741 276
35.96752 258
35.98764 285
36.00775 273
36.02787 273
36.04798 321
36.06809 286
36.08821 276
36.10832 310
36.12843 298
36.14855 318
36.16866 296
36.18878 325
36.20889 337
36.229 362
36.24912 370
36.26923 421
36.28934 448
36.30946 540
36.32957 666
36.34968 759
36.3698 917
36.38991 1127
36.41003 1350
36.43014 1573
36.45025 2036
36.47037 2261
36.49048 2341
36.51059 2315
36.53071 2064
36.55082 1835
36.57094 1557
36.59105 1268
36.61116 1134
36.63128 880
36.65139 701
36.6715 458
36.69162 398
36.71173 363
36.73184 332
36.75196 305
36.77207 270
36.79219 257
36.8123 297
36.83241 280
36.85253 234
36.87264 248
36.89275 256
36.91287 225
36.93298 251
36.9531 256
36.97321 257
36.99332 249
37.01344 239
37.03355 223
37.05366 208
37.07378 249
37.09389 218
37.11401 247
37.13412 208
37.15423 218
37.17435 219
37.19446 220
37.21457 218
37.23469 232
37.2548 206
37.27491 239
37.29503 209
37.31514 207
37.33526 220
37.35537 248
37.37548 213
37.3956 213
37.41571 250
37.43582 206
37.45594 238
37.47605 211
37.49617 220
37.51628 233
37.53639 207
37.55651 239
37.57662 221
37.59673 221
37.61685 248
37.63696 230
37.65708 231
37.67719 211
37.6973 215
37.71742 242
37.73753 209
37.75764 232
37.77776 258
37.79787 238
37.81798 235
37.8381 250
37.85821 228
37.87833 230
37.89844 231
37.91855 210
37.93867 206
37.95878 241
37.97889 244
37.99901 209
38.01912 257
38.03924 233
38.05935 233
38.07946 258
38.09958 229
38.11969 254
38.1398 217
38.15992 273
38.18003 240
38.20015 264
38.22026 263
38.24037 224
38.26049 243
38.2806 260
38.30071 286
38.32083 284
38.34094 273
38.36105 281
38.38117 298
38.40128 242
38.4214 298
38.44151 287
38.46162 272
38.48174 258
38.50185 271
38.52196 262
38.54208 251
38.56219 272
38.58231 252
38.60242 252
38.62253 263
38.64265 262
38.66276 264
38.68287 294
38.70299 252
38.7231 278
38.74321 259
38.76333 230
38.78344 249
38.80356 233
38.82367 253
38.84378 283
38.8639 268
38.88401 265
38.90412 270
38.92424 264
38.94435 280
38.96447 276
38.98458 289
39.00469 268
39.02481 270
39.04492 284
39.06503 291
39.08515 292
39.10526 283
39.12538 332
39.14549 373
39.1656 376
39.18572 407
39.20583 458
39.22594 530
39.24606 576
39.26617 628
39.28628 814
39.3064 936
39.32651 1149
39.34663 1456
39.36674 1751
39.38685 1980
39.40697 2167
39.42708 2133
39.44719 2002
39.46731 1766
39.48742 1487
39.50754 1249
39.52765 1130
39.54776 984
39.56788 787
39.58799 596
39.6081 418
39.62822 334
39.64833 330
39.66845 306
39.68856 289
39.70867 276
39.72879 277
39.7489 257
39.76901 274
39.78913 262
39.80924 249
39.82935 266
39.84947 271
39.86958 224
39.8897 255
39.90981 241
39.92992 233
39.95004 272
39.97015 303
39.99026 292
40.01038 301
40.03049 361
40.05061 362
40.07072 394
40.09083 452
40.11095 504
40.13106 599
40.15117 731
40.17129 821
40.1914 1027
40.21152 1086
40.23163 1085
40.25174 1183
40.27186 1046
40.29197 882
40.31208 827
40.3322 751
40.35231 636
40.37242 593
40.39254 487
40.41265 453
40.43277 342
40.45288 293
40.47299 295
40.49311 233
40.51322 260
40.53333 253
40.55345 270
40.57356 248
40.59368 245
40.61379 240
40.6339 225
40.65402 229
40.67413 233
40.69424 217
40.71436 246
40.73447 247
40.75458 246
40.7747 245
40.79481 212
40.81493 234
40.83504 235
40.85515 227
40.87527 223
40.89538 220
40.91549 231
40.93561 260
40.95572 259
40.97584 209
40.99595 237
41.01606 228
41.03618 196
41.05629 199
41.0764 214
41.09652 225
41.11663 216
41.13675 216
41.15686 225
41.17697 228
41.19709 232
41.2172 192
41.23731 202
41.25743 203
41.27754 212
41.29765 202
41.31777 220
41.33788 212
41.358 204
41.37811 211
41.39822 212
41.41834 204
41.43845 187
41.45856 197
41.47868 191
41.49879 186
41.51891 184
41.53902 206
41.55913 231
41.57925 219
41.59936 197
41.61947 172
41.63959 198
41.6597 204
41.67982 193
41.69993 205
41.72004 214
41.74016 193
41.76027 211
41.78038 208
41.8005 200
41.82061 197
41.84072 198
41.86084 213
41.88095 196
41.90107 213
41.92118 231
41.94129 210
41.96141 234
41.98152 201
42.00163 257
42.02175 226
42.04186 221
42.06198 242
42.08209 270
42.1022 294
42.12232 305
42.14243 285
42.16254 324
42.18266 372
42.20277 372
42.22289 465
42.243 539
42.26311 622
42.28323 699
42.30334 864
42.32345 1053
42.34357 1235
42.36368 1496
42.38379 1601
42.40391 1631
42.42402 1544
42.44414 1253
42.46425 1064
42.48436 1007
42.50448 910
42.52459 808
42.5447 641
42.56482 479
42.58493 386
42.60505 309
42.62516 272
42.64527 277
42.66539 267
42.6855 252
42.70561 242
42.72573 235
42.74584 214
42.76595 226
42.78607 210
42.80618 188
42.8263 222
42.84641 199
42.86652 217
42.88664 183
42.90675 192
42.92686 195
42.94698 156
42.96709 197
42.98721 199
43.00732 183
43.02743 191
43.04755 208
43.06766 177
43.08777 177
43.10789 203
43.128 157
43.14812 179
43.16823 196
43.18834 182
43.20846 175
43.22857 189
43.24868 194
43.2688 178
43.28891 187
43.30902 176
43.32914 186
43.34925 178
43.36937 195
43.38948 208
43.40959 171
43.42971 174
43.44982 204
43.46993 182
43.49005 196
43.51016 177
43.53028 198
43.55039 193
43.5705 192
43.59062 179
43.61073 174
43.63084 191
43.65096 175
43.67107 198
43.69119 188
43.7113 190
43.73141 191
43.75153 185
43.77164 169
43.79175 184
43.81187 161
43.83198 181
43.85209 192
43.87221 192
43.89232 196
43.91244 187
43.93255 168
43.95266 176
43.97278 180
43.99289 187
44.013 185
44.03312 199
44.05323 173
44.07335 180
44.09346 177
44.11357 198
44.13369 196
44.1538 178
44.17391 189
44.19403 192
44.21414 158
44.23426 179
44.25437 193
44.27448 181
44.2946 199
44.31471 212
44.33482 181
44.35494 176
44.37505 178
44.39516 183
44.41528 172
44.43539 190
44.45551 191
44.47562 184
44.49573 202
44.51585 185
44.53596 177
44.55607 179
44.57619 189
44.5963 183
44.61642 181
44.63653 165
44.65664 190
44.67676 179
44.69687 205
44.71698 179
44.7371 199
44.75721 180
44.77732 204
44.79744 205
44.81755 223
44.83767 187
44.85778 192
44.87789 156
44.89801 203
44.91812 207
44.93823 202
44.95835 197
44.97846 178
44.99858 214
45.01869 191
45.0388 179
45.05892 181
45.07903 203
45.09914 216
45.11926 186
45.13937 169
45.15949 204
45.1796 205
45.19971 207
45.21983 178
45.23994 206
45.26005 217
45.28017 213
45.30028 224
45.32039 205
45.34051 218
45.36062 240
45.38074 228
45.40085 212
45.42096 296
45.44108 246
45.46119 267
45.4813 288
45.50142 283
45.52153 297
45.54165 355
45.56176 371
45.58187 452
45.60199 508
45.6221 549
45.64221 647
45.66233 806
45.68244 915
45.70256 998
45.72267 1015
45.74278 1050
45.7629 1054
45.78301 960
45.80312 849
45.82324 738
45.84335 673
45.86346 605
45.88358 577
45.90369 477
45.92381 395
45.94392 316
45.96403 268
45.98415 258
46.00426 239
46.02437 221
46.04449 207
46.0646 195
46.08472 183
46.10483 192
46.12494 210
46.14506 183
46.16517 204
46.18528 187
46.2054 195
46.22551 184
46.24563 192
46.26574 196
46.28585 193
46.30597 182
46.32608 184
46.34619 176
46.36631 179
46.38642 177
46.40653 201
46.42665 176
46.44676 191
46.46688 185
46.48699 175
46.5071 188
46.52722 192
46.54733 176
46.56744 196
46.58756 201
46.60767 159
46.62779 167
46.6479 167
46.66801 191
46.68813 191
46.70824 181
46.72835 195
46.74847 178
46.76858 176
46.78869 153
46.80881 146
46.82892 172
46.84904 203
46.86915 207
46.88926 176
46.90938 168
46.92949 167
46.9496 177
46.96972 176
46.98983 158
47.00995 183
47.03006 182
47.05017 179
47.07029 171
47.0904 178
47.11051 200
47.13063 182
47.15074 177
47.17086 164
47.19097 179
47.21108 184
47.2312 183
47.25131 188
47.27142 168
47.29154 196
47.31165 157
47.33176 190
47.35188 174
47.37199 154
47.39211 170
47.41222 177
47.43233 188
47.45245 189
47.47256 170
47.49267 192
47.51279 163
47.5329 158
47.55302 178
47.57313 166
47.59324 165
47.61336 162
47.63347 187
47.65358 174
47.6737 161
47.69381 176
47.71393 176
47.73404 166
47.75415 181
47.77427 193
47.79438 197
47.81449 161
47.83461 182
47.85472 172
47.87483 173
47.89495 146
47.91506 174
47.93518 206
47.95529 198
47.9754 189
47.99552 182
48.01563 191
48.03574 196
48.05586 153
48.07597 209
48.09609 170
48.1162 166
48.13631 182
48.15643 196
48.17654 171
48.19665 149
48.21677 210
48.23688 186
48.257 176
48.27711 176
48.29722 156
48.31734 194
48.33745 196
48.35756 201
48.37768 190
48.39779 171
48.4179 183
48.43802 178
48.45813 165
48.47825 186
48.49836 185
48.51847 183
48.53859 204
48.5587 166
48.57881 181
48.59893 193
48.61904 162
48.63916 176
48.65927 191
48.67938 194
48.6995 197
48.71961 178
48.73972 187
48.75984 189
48.77995 171
48.80006 170
48.82018 211
48.84029 198
48.86041 204
48.88052 212
48.90063 181
48.92075 210
48.94086 220
48.96097 192
48.98109 177
49.0012 183
49.02132 171
49.04143 199
49.06154 222
49.08166 212
49.10177 221
49.12188 212
49.142 198
49.16211 203
49.18223 210
49.20234 175
49.22245 225
49.24257 198
49.26268 212
49.28279 209
49.30291 214
49.32302 237
49.34313 219
49.36325 230
49.38336 241
49.40348 224
49.42359 231
49.4437 208
49.46382 271
49.48393 254
49.50404 234
49.52416 264
49.54427 245
49.56439 254
49.5845 243
49.60461 285
49.62473 270
49.64484 264
49.66495 283
49.68507 298
49.70518 315
49.7253 343
49.74541 360
49.76552 409
49.78564 404
49.80575 486
49.82586 511
49.84598 559
49.86609 649
49.8862 768
49.90632 918
49.92643 1074
49.94655 1281
49.96666 1513
49.98677 1845
50.00689 2242
50.027 2669
50.04711 3110
50.06723 3354
50.08734 3392
50.10746 3284
50.12757 2904
50.14768 2514
50.1678 2124
50.18791 1978
50.20802 1810
50.22814 1706
50.24825 1449
50.26837 1186
50.28848 858
50.30859 555
50.32871 463
50.34882 408
50.36893 367
50.38905 346
50.40916 298
50.42927 306
50.44939 291
50.4695 314
50.48962 271
50.50973 308
50.52984 285
50.54996 319
50.57007 265
50.59018 313
50.6103 282
50.63041 254
50.65053 241
50.67064 231
50.69075 235
50.71087 223
50.73098 217
50.75109 218
50.77121 216
50.79132 177
50.81143 213
50.83155 197
50.85166 188
50.87178 191
50.89189 220
50.912 210
50.93212 187
50.95223 175
50.97234 181
50.99246 172
51.01257 197
51.03269 201
51.0528 175
51.07291 216
51.09303 181
51.11314 200
51.13325 180
51.15337 195
51.17348 194
51.1936 171
51.21371 176
51.23382 178
51.25394 192
51.27405 155
51.29416 184
51.31428 166
51.33439 176
51.3545 172
51.37462 140
51.39473 162
51.41485 150
51.43496 182
51.45507 183
51.47519 162
51.4953 145
51.51541 184
51.53553 170
51.55564 172
51.57576 173
51.59587 166
51.61598 168
51.6361 183
51.65621 170
51.67632 158
51.69644 166
51.71655 164
51.73667 157
51.75678 158
51.77689 189
51.79701 153
51.81712 191
51.83723 177
51.85735 180
51.87746 161
51.89757 171
51.91769 147
51.9378 176
51.95792 167
51.97803 162
51.99814 174
52.01826 177
52.03837 178
52.05848 166
52.0786 166
52.09871 171
52.11883 194
52.13894 179
52.15905 166
52.17917 169
52.19928 188
52.21939 194
52.23951 167
52.25962 163
52.27974 159
52.29985 176
52.31996 160
52.34008 164
52.36019 177
52.3803 184
52.40042 158
52.42053 142
52.44064 163
52.46076 165
52.48087 157
52.50099 180
52.5211 168
52.54121 175
52.56133 171
52.58144 179
52.60155 158
52.62167 145
52.64178 170
52.6619 160
52.68201 153
52.70212 158
52.72224 148
52.74235 193
52.76246 186
52.78258 171
52.80269 172
52.8228 182
52.84292 149
52.86303 156
52.88315 177
52.90326 194
52.92337 166
52.94349 151
52.9636 171
52.98371 179
53.00383 156
53.02394 185
53.04406 176
53.06417 165
53.08428 186
53.1044 186
53.12451 188
53.14462 203
53.16474 190
53.18485 187
53.20497 196
53.22508 161
53.24519 163
53.26531 183
53.28542 197
53.30553 200
53.32565 171
53.34576 197
53.36587 182
53.38599 194
53.4061 188
53.42622 179
53.44633 183
53.46644 210
53.48656 193
53.50667 175
53.52678 187
53.5469 177
53.56701 177
53.58713 172
53.60724 178
53.62735 213
53.64747 209
53.66758 196
53.68769 204
53.70781 182
53.72792 204
53.74804 225
53.76815 208
53.78826 238
53.80838 209
53.82849 218
53.8486 206
53.86872 224
53.88883 196
53.90894 205
53.92906 227
53.94917 242
53.96929 230
53.9894 227
54.00951 215
54.02963 250
54.04974 199
54.06985 220
54.08997 221
54.11008 221
54.1302 236
54.15031 224
54.17042 236
54.19054 231
54.21065 222
54.23076 246
54.25088 234
54.27099 233
54.29111 236
54.31122 214
54.33133 221
54.35145 222
54.37156 248
54.39167 233
54.41179 259
54.4319 236
54.45201 251
54.47213 277
54.49224 273
54.51236 281
54.53247 285
54.55258 301
54.5727 299
54.59281 307
54.61292 372
54.63304 421
54.65315 495
54.67327 528
54.69338 613
54.71349 689
54.73361 788
54.75372 862
54.77383 1050
54.79395 1160
54.81406 1130
54.83417 1148
54.85429 1034
54.8744 837
54.89452 779
54.91463 722
54.93474 682
54.95486 686
54.97497 653
54.99508 596
55.0152 513
55.03531 420
55.05543 361
55.07554 353
55.09565 373
55.11577 385
55.13588 385
55.15599 429
55.17611 453
55.19622 482
55.21634 564
55.23645 591
55.25656 598
55.27668 608
55.29679 593
55.3169 516
55.33702 471
55.35713 426
55.37724 410
55.39736 400
55.41747 375
55.43759 358
55.4577 325
55.47781 304
55.49793 265
55.51804 262
55.53815 257
55.55827 232
55.57838 209
55.5985 235
55.61861 214
55.63872 211
55.65884 188
55.67895 214
55.69906 205
55.71918 211
55.73929 211
55.75941 214
55.77952 177
55.79963 201
55.81975 198
55.83986 168
55.85997 179
55.88009 198
55.9002 184
55.92031 178
55.94043 170
55.96054 206
55.98066 164
56.00077 168
56.02088 201
56.041 207
56.06111 167
56.08122 178
56.10134 169
56.12145 177
56.14157 174
56.16168 184
56.18179 195
56.20191 214
56.22202 191
56.24213 182
56.26225 183
56.28236 175
56.30248 168
56.32259 205
56.3427 170
56.36282 180
56.38293 166
56.40304 181
56.42316 184
56.44327 182
56.46338 160
56.4835 190
56.50361 202
56.52373 178
56.54384 200
56.56395 186
56.58407 180
56.60418 180
56.62429 193
56.64441 174
56.66452 154
56.68464 203
56.70475 180
56.72486 189
56.74498 150
56.76509 186
56.7852 171
56.80532 189
56.82543 166
56.84554 181
56.86566 177
56.88577 175
56.90589 179
56.926 180
56.94611 183
56.96623 177
56.98634 149
57.00645 184
57.02657 187
57.04668 200
57.0668 210
57.08691 215
57.10702 208
57.12714 213
57.14725 222
57.16736 220
57.18748 222
57.20759 240
57.22771 204
57.24782 219
57.26793 212
57.28805 212
57.30816 200
57.32827 201
57.34839 202
57.3685 198
57.38861 174
57.40873 200
57.42884 174
57.44896 216
57.46907 196
57.48918 154
57.5093 170
57.52941 178
57.54952 179
57.56964 174
57.58975 185
57.60987 157
57.62998 175
57.65009 178
57.67021 180
57.69032 175
57.71043 181
57.73055 188
57.75066 169
57.77078 190
57.79089 175
57.811 167
57.83112 177
57.85123 178
57.87134 170
57.89146 151
57.91157 176
57.93168 156
57.9518 151
57.97191 176
57.99203 202
58.01214 154
58.03225 203
58.05237 164
58.07248 177
58.09259 177
58.11271 181
58.13282 178
58.15294 196
58.17305 173
58.19316 169
58.21328 193
58.23339 160
58.2535 173
58.27362 173
58.29373 166
58.31385 159
58.33396 173
58.35407 167
58.37419 184
58.3943 158
58.41441 195
58.43453 179
58.45464 171
58.47475 174
58.49487 159
58.51498 184
58.5351 168
58.55521 185
58.57532 208
58.59544 185
58.61555 185
58.63566 168
58.65578 177
58.67589 165
58.69601 181
58.71612 181
58.73623 157
58.75635 191
58.77646 174
58.79657 181
58.81669 178
58.8368 157
58.85691 201
58.87703 171
58.89714 166
58.91726 172
58.93737 185
58.95748 174
58.9776 193
58.99771 168
59.01782 173
59.03794 177
59.05805 190
59.07817 186
59.09828 186
59.11839 177
59.13851 192
59.15862 179
59.17873 187
59.19885 172
59.21896 207
59.23908 191
59.25919 194
59.2793 189
59.29942 192
59.31953 189
59.33964 206
59.35976 207
59.37987 227
59.39998 223
59.4201 214
59.44021 230
59.46033 240
59.48044 234
59.50055 248
59.52067 301
59.54078 315
59.56089 308
59.58101 341
59.60112 360
59.62124 407
59.64135 384
59.66146 473
59.68158 502
59.70169 616
59.7218 690
59.74192 889
59.76203 975
59.78215 1133
59.80226 1369
59.82237 1650
59.84249 1920
59.8626 2107
59.88271 2278
59.90283 2225
59.92294 2099
59.94305 1834
59.96317 1548
59.98328 1326
60.0034 1260
60.02351 1275
60.04362 1261
60.06374 1234
60.08385 1085
60.10396 870
60.12408 735
60.14419 518
60.16431 422
60.18442 329
60.20453 275
60.22465 275
60.24476 248
60.26487 239
60.28499 228
60.3051 209
60.32522 217
60.34533 223
60.36544 211
60.38556 200
60.40567 199
60.42578 214
60.4459 208
60.46601 186
60.48612 175
60.50624 192
60.52635 198
60.54647 179
60.56658 167
60.58669 181
60.60681 186
60.62692 184
60.64703 164
60.66715 158
60.68726 194
60.70738 169
60.72749 179
60.7476 182
60.76772 157
60.78783 188
60.80794 212
60.82806 187
60.84817 171
60.86828 178
60.8884 185
60.90851 177
60.92863 190
60.94874 178
60.96885 141
60.98897 167
61.00908 165
61.02919 178
61.04931 168
61.06942 146
61.08954 173
61.10965 187
61.12976 175
61.14988 152
61.16999 173
61.1901 151
61.21022 167
61.23033 164
61.25045 175
61.27056 163
61.29067 153
61.31079 162
61.3309 176
61.35101 168
61.37113 192
61.39124 176
61.41135 172
61.43147 154
61.45158 179
61.4717 170
61.49181 157
61.51192 173
61.53204 178
61.55215 161
61.57226 156
61.59238 154
61.61249 173
61.63261 153
61.65272 188
61.67283 159
61.69295 183
61.71306 185
61.73317 192
61.75329 200
61.7734 172
61.79352 183
61.81363 167
61.83374 176
61.85386 178
61.87397 172
61.89408 177
61.9142 199
61.93431 187
61.95442 188
61.97454 202
61.99465 193
62.01477 208
62.03488 216
62.05499 200
62.07511 215
62.09522 196
62.11533 217
62.13545 221
62.15556 228
62.17568 204
62.19579 241
62.2159 236
62.23602 227
62.25613 233
62.27624 232
62.29636 278
62.31647 232
62.33659 229
62.3567 236
62.37681 231
62.39693 241
62.41704 223
62.43715 208
62.45727 242
62.47738 211
62.49749 214
62.51761 215
62.53772 208
62.55784 194
62.57795 198
62.59806 198
62.61818 216
62.63829 162
62.6584 187
62.67852 190
62.69863 192
62.71875 177
62.73886 177
62.75897 167
62.77909 176
62.7992 193
62.81931 179
62.83943 180
62.85954 179
62.87965 188
62.89977 170
62.91988 192
62.94 182
62.96011 171
62.98022 163
63.00034 154
63.02045 161
63.04056 174
63.06068 153
63.08079 180
63.10091 178
63.12102 173
63.14113 169
63.16125 177
63.18136 176
63.20147 157
63.22159 148
63.2417 188
63.26182 186
63.28193 180
63.30204 174
63.32216 172
63.34227 201
63.36238 191
63.3825 161
63.40261 162
63.42272 181
63.44284 186
63.46295 177
63.48307 186
63.50318 196
63.52329 179
63.54341 157
63.56352 176
63.58363 186
63.60375 172
63.62386 182
63.64398 201
63.66409 200
63.6842 207
63.70432 213
63.72443 197
63.74454 244
63.76466 258
63.78477 271
63.80489 276
63.825 327
63.84511 343
63.86523 401
63.88534 390
63.90545 450
63.92557 526
63.94568 531
63.96579 575
63.98591 557
64.00602 519
64.02614 448
64.04625 415
64.06636 382
64.08648 355
64.10659 367
64.1267 352
64.14682 366
64.16693 346
64.18705 309
64.20716 299
64.22727 240
64.24739 236
64.2675 216
64.28761 198
64.30773 187
64.32784 187
64.34796 173
64.36807 174
64.38818 190
64.4083 200
64.42841 164
64.44852 146
64.46864 173
64.48875 160
64.50886 183
64.52898 145
64.54909 164
64.56921 177
64.58932 155
64.60943 160
64.62955 155
64.64966 139
64.66977 166
64.68989 176
64.71 158
64.73012 167
64.75023 184
64.77034 145
64.79046 169
64.81057 147
64.83068 164
64.8508 156
64.87091 187
64.89102 162
64.91114 171
64.93125 142
64.95137 171
64.97148 181
64.99159 159
65.01171 165
65.03182 152
65.05193 166
65.07205 154
65.09216 160
65.11228 165
65.13239 177
65.1525 158
65.17262 138
65.19273 161
65.21284 158
65.23296 141
65.25307 171
65.27319 162
65.2933 180
65.31341 158
65.33353 168
65.35364 170
65.37375 149
65.39387 168
65.41398 160
65.43409 174
65.45421 177
65.47432 192
65.49444 188
65.51455 165
65.53466 198
65.55478 194
65.57489 186
65.595 216
65.61512 192
65.63523 206
65.65535 198
65.67546 256
65.69557 250
65.71569 257
65.7358 233
65.75591 215
65.77603 222
65.79614 209
65.81626 216
65.83637 204
65.85648 185
65.8766 198
65.89671 211
65.91682 225
65.93694 226
65.95705 192
65.97716 175
65.99728 205
66.01739 177
66.03751 171
66.05762 189
66.07773 168
66.09785 183
66.11796 172
66.13807 177
66.15819 147
66.1783 184
66.19842 165
66.21853 164
66.23864 173
66.25876 211
66.27887 153
66.29898 164
66.3191 156
66.33921 166
66.35933 177
66.37944 172
66.39955 164
66.41967 180
66.43978 174
66.45989 169
66.48001 161
66.50012 173
66.52023 188
66.54035 189
66.56046 173
66.58058 175
66.60069 173
66.6208 189
66.64092 186
66.66103 177
66.68114 172
66.70126 188
66.72137 188
66.74149 196
66.7616 179
66.78171 191
66.80183 180
66.82194 190
66.84205 197
66.86217 177
66.88228 181
66.90239 179
66.92251 179
66.94262 187
66.96274 186
66.98285 155
67.00296 184
67.02308 192
67.04319 189
67.0633 199
67.08342 193
67.10353 203
67.12365 203
67.14376 197
67.16387 211
67.18399 189
67.2041 209
67.22421 249
67.24433 226
67.26444 235
67.28456 249
67.30467 249
67.32478 264
67.3449 278
67.36501 318
67.38512 322
67.40524 342
67.42535 373
67.44546 381
67.46558 430
67.48569 472
67.50581 491
67.52592 569
67.54603 684
67.56615 755
67.58626 947
67.60637 1037
67.62649 1177
67.6466 1285
67.66672 1362
67.68683 1361
67.70694 1280
67.72706 1157
67.74717 1050
67.76728 927
67.7874 847
67.80751 912
67.82763 1003
67.84774 1032
67.86785 1063
67.88797 1099
67.90808 1090
67.92819 1034
67.94831 1039
67.96842 1136
67.98853 1258
68.00865 1331
68.02876 1639
68.04888 1737
68.06899 1886
68.0891 1882
68.10922 1798
68.12933 1710
68.14944 1536
68.16956 1512
68.18967 1550
68.20979 1562
68.2299 1688
68.25001 1758
68.27013 1703
68.29024 1515
68.31035 1360
68.33047 1126
68.35058 955
68.3707 758
68.39081 745
68.41092 702
68.43104 688
68.45115 674
68.47126 607
68.49138 520
68.51149 465
68.5316 374
68.55172 341
68.57183 275
68.59195 257
68.61206 229
68.63217 234
68.65229 232
68.6724 213
68.69251 236
68.71263 239
68.73274 206
68.75286 215
68.77297 213
68.79308 213
68.8132 201
68.83331 199
68.85342 197
68.87354 189
68.89365 209
68.91376 180
68.93388 178
68.95399 192
68.97411 196
68.99422 172
69.01433 183
69.03445 191
69.05456 170
69.07467 178
69.09479 179
69.1149 163
69.13502 179
69.15513 185
69.17524 181
69.19536 194
69.21547 154
69.23558 169
69.2557 172
69.27581 171
69.29593 167
69.31604 164
69.33615 185
69.35627 162
69.37638 206
69.39649 157
69.41661 152
69.43672 179
69.45683 163
69.47695 178
69.49706 148
69.51718 147
69.53729 185
69.5574 165
69.57752 174
69.59763 159
69.61774 166
69.63786 150
69.65797 152
69.67809 175
69.6982 163
69.71831 169
69.73843 175
69.75854 160
69.77865 153
69.79877 158
69.81888 176
69.839 165
69.85911 160
69.87922 185
69.89934 152
69.91945 173
69.93956 181
69.95968 160
69.97979 140
69.9999 177
70.02002 167
70.04013 176
70.06025 172
70.08036 136
70.10047 144
70.12059 169
70.1407 168
70.16081 185
70.18093 137
70.20104 173
70.22116 151
70.24127 161
70.26138 164
70.2815 143
70.30161 158
70.32172 140
70.34184 159
70.36195 157
70.38207 144
70.40218 154
70.42229 158
70.44241 155
70.46252 160
70.48263 160
70.50275 167
70.52286 163
70.54297 159
70.56309 161
70.5832 153
70.60332 163
70.62343 152
70.64354 157
70.66366 163
70.68377 160
70.70388 168
70.724 164
70.74411 149
70.76423 161
70.78434 147
70.80445 149
70.82457 154
70.84468 153
70.86479 149
70.88491 155
70.90502 170
70.92513 158
70.94525 161
70.96536 129
70.98548 161
71.00559 150
71.0257 132
71.04582 163
71.06593 139
71.08604 155
71.10616 163
71.12627 156
71.14639 156
71.1665 174
71.18661 142
71.20673 161
71.22684 154
71.24695 148
71.26707 157
71.28718 143
71.3073 127
71.32741 142
71.34752 155
71.36764 155
71.38775 162
71.40786 171
71.42798 147
71.44809 168
71.4682 149
71.48832 177
71.50843 149
71.52855 150
71.54866 149
71.56877 153
71.58889 149
71.609 156
71.62911 155
71.64923 150
71.66934 175
71.68946 169
71.70957 171
71.72968 147
71.7498 158
71.76991 177
71.79002 163
71.81014 175
71.83025 155
71.85037 174
71.87048 167
71.89059 148
71.91071 146
71.93082 161
71.95093 178
71.97105 161
71.99116 158
72.01127 148
72.03139 156
72.0515 169
72.07162 168
72.09173 171
72.11184 154
72.13196 151
72.15207 158
72.17218 180
72.1923 170
72.21241 176
72.23253 163
72.25264 164
72.27275 127
72.29287 167
72.31298 143
72.33309 150
72.35321 139
72.37332 155
72.39344 157
72.41355 163
72.43366 161
72.45378 152
72.47389 156
72.494 160
72.51412 153
72.53423 138
72.55434 160
72.57446 175
72.59457 151
72.61469 138
72.6348 153
72.65491 158
72.67503 157
72.69514 171
72.71525 170
72.73537 163
72.75548 166
72.7756 152
72.79571 158
72.81582 156
72.83594 155
72.85605 150
72.87616 173
72.89628 154
72.91639 160
72.9365 150
72.95662 172
72.97673 175
72.99685 171
73.01696 165
73.03707 195
73.05719 194
73.0773 194
73.09741 189
73.11753 186
73.13764 218
73.15776 241
73.17787 206
73.19798 241
73.2181 250
73.23821 284
73.25832 295
73.27844 347
73.29855 400
73.31867 395
73.33878 465
73.35889 526
73.37901 537
73.39912 599
73.41923 584
73.43935 561
73.45946 457
73.47957 398
73.49969 365
73.5198 352
73.53992 363
73.56003 330
73.58014 394
73.60026 368
73.62037 357
73.64048 335
73.6606 323
73.68071 289
73.70083 257
73.72094 228
73.74105 198
73.76117 188
73.78128 188
73.80139 192
73.82151 169
73.84162 177
73.86174 183
73.88185 159
73.90196 175
73.92208 169
73.94219 174
73.9623 138
73.98242 143
74.00253 168
74.02264 153
74.04276 175
74.06287 179
74.08299 165
74.1031 172
74.12321 167
74.14333 188
74.16344 184
74.18355 162
74.20367 170
74.22378 172
74.2439 150
74.26401 173
74.28412 139
74.30424 137
74.32435 165
74.34446 155
74.36458 168
74.38469 166
74.40481 150
74.42492 153
74.44503 131
74.46515 140
74.48526 152
74.50537 121
74.52549 164
74.5456 140
74.56571 150
74.58583 167
74.60594 149
74.62606 143
74.64617 159
74.66628 150
74.6864 149
74.70651 159
74.72662 182
74.74674 152
74.76685 143
74.78697 156
74.80708 146
74.82719 167
74.84731 151
74.86742 177
74.88753 160
74.90765 177
74.92776 164
74.94787 156
74.96799 163
74.9881 163
75.00822 159
