3.00117 19968
3.02128 19227
3.0414 18852
3.06151 18144
3.08162 17710
3.10174 17025
3.12185 16837
3.14197 16216
3.16208 15627
3.18219 15632
3.20231 14738
3.22242 14618
3.24253 13949
3.26265 13758
3.28276 13032
3.30288 12468
3.32299 12502
3.3431 11696
3.36322 11713
3.38333 11444
3.40344 10646
3.42356 10549
3.44367 9802
3.46379 9792
3.4839 9304
3.50401 9081
3.52413 8840
3.54424 8014
3.56435 8070
3.58447 7830
3.60458 7399
3.62469 7323
3.64481 6795
3.66492 6541
3.68504 6474
3.70515 5778
3.72526 5943
3.74538 5568
3.76549 5364
3.7856 5018
3.80572 4918
3.82583 4849
3.84595 4388
3.86606 4363
3.88617 4327
3.90629 3861
3.9264 3903
3.94651 3466
3.96663 3411
3.98674 3378
4.00686 3121
4.02697 3084
4.04708 2849
4.0672 2700
4.08731 2670
4.10742 2511
4.12754 2436
4.14765 2192
4.16776 2117
4.18788 2038
4.20799 2038
4.22811 1901
4.24822 1775
4.26833 1767
4.28845 1760
4.30856 1740
4.32867 1641
4.34879 1574
4.3689 1439
4.38902 1501
4.40913 1398
4.42924 1354
4.44936 1299
4.46947 1346
4.48958 1295
4.5097 1213
4.52981 1217
4.54992 1231
4.57004 1100
4.59015 1143
4.61027 1159
4.63038 1147
4.65049 1106
4.67061 1024
4.69072 965
4.71083 1051
4.73095 948
4.75106 917
4.77118 873
4.79129 903
4.8114 937
4.83152 837
4.85163 798
4.87174 775
4.89186 746
4.91197 831
4.93209 731
4.9522 699
4.97231 733
4.99243 735
5.01254 701
5.03265 678
5.05277 669
5.07288 615
5.09299 658
5.11311 601
5.13322 627
5.15334 576
5.17345 526
5.19356 563
5.21368 567
5.23379 550
5.2539 485
5.27402 465
5.29413 532
5.31425 494
5.33436 449
5.35447 434
5.37459 417
5.3947 478
5.41481 454
5.43493 409
5.45504 408
5.47516 402
5.49527 419
5.51538 405
5.5355 387
5.55561 387
5.57572 400
5.59584 378
5.61595 383
5.63606 338
5.65618 371
5.67629 346
5.69641 325
5.71652 360
5.73663 306
5.75675 292
5.77686 273
5.79697 304
5.81709 284
5.8372 296
5.85732 279
5.87743 324
5.89754 264
5.91766 282
5.93777 249
5.95788 268
5.978 302
5.99811 267
6.01823 266
6.03834 284
6.05845 257
6.07857 278
6.09868 274
6.11879 271
6.13891 232
6.15902 241
6.17913 269
6.19925 259
6.21936 265
6.23948 253
6.25959 246
6.2797 263
6.29982 252
6.31993 211
6.34004 227
6.36016 274
6.38027 237
6.40039 263
6.4205 201
6.44061 256
6.46073 219
6.48084 256
6.50095 239
6.52107 228
6.54118 234
6.56129 221
6.58141 209
6.60152 237
6.62164 220
6.64175 237
6.66186 195
6.68198 234
6.70209 206
6.7222 219
6.74232 213
6.76243 234
6.78255 220
6.80266 262
6.82277 193
6.84289 250
6.863 234
6.88311 204
6.90323 194
6.92334 180
6.94346 244
6.96357 220
6.98368 191
7.0038 198
7.02391 191
7.04402 223
7.06414 189
7.08425 221
7.10436 209
7.12448 196
7.14459 235
7.16471 216
7.18482 240
7.20493 190
7.22505 202
7.24516 204
7.26527 232
7.28539 190
7.3055 252
7.32562 239
7.34573 235
7.36584 228
7.38596 228
7.40607 226
7.42618 209
7.4463 236
7.46641 213
7.48653 235
7.50664 222
7.52675 241
7.54687 230
7.56698 235
7.58709 249
7.60721 257
7.62732 228
7.64743 240
7.66755 248
7.68766 219
7.70778 251
7.72789 231
7.748 217
7.76812 227
7.78823 235
7.80834 246
7.82846 228
7.84857 227
7.86869 243
7.8888 257
7.90891 226
7.92903 215
7.94914 215
7.96925 227
7.98937 252
8.00948 259
8.0296 210
8.04971 253
8.06982 251
8.08994 237
8.11005 242
8.13016 230
8.15028 246
8.17039 264
8.1905 218
8.21062 228
8.23073 214
8.25085 217
8.27096 209
8.29107 239
8.31119 208
8.3313 215
8.35141 226
8.37153 244
8.39164 265
8.41176 240
8.43187 237
8.45198 230
8.4721 229
8.49221 238
8.51232 247
8.53244 232
8.55255 229
8.57266 273
8.59278 252
8.61289 240
8.63301 226
8.65312 233
8.67323 229
8.69335 239
8.71346 242
8.73357 250
8.75369 247
8.7738 324
8.79392 245
8.81403 248
8.83414 267
8.85426 271
8.87437 250
8.89448 260
8.9146 244
8.93471 245
8.95483 304
8.97494 272
8.99505 254
9.01517 237
9.03528 251
9.05539 259
9.07551 284
9.09562 264
9.11573 251
9.13585 259
9.15596 235
9.17608 257
9.19619 229
9.2163 232
9.23642 275
9.25653 213
9.27664 279
9.29676 253
9.31687 234
9.33699 221
9.3571 230
9.37721 240
9.39733 264
9.41744 244
9.43755 262
9.45767 270
9.47778 290
9.4979 236
9.51801 236
9.53812 281
9.55824 255
9.57835 247
9.59846 260
9.61858 246
9.63869 237
9.6588 257
9.67892 247
9.69903 216
9.71915 233
9.73926 243
9.75937 235
9.77949 257
9.7996 229
9.81971 220
9.83983 244
9.85994 233
9.88006 251
9.90017 246
9.92028 271
9.9404 244
9.96051 257
9.98062 221
10.00074 225
10.02085 234
10.04097 270
10.06108 234
10.08119 243
10.10131 237
10.12142 259
10.14153 272
10.16165 236
10.18176 238
10.20187 249
10.22199 233
10.2421 217
10.26222 223
10.28233 246
10.30244 222
10.32256 253
10.34267 247
10.36278 211
10.3829 266
10.40301 280
10.42313 255
10.44324 247
10.46335 258
10.48347 242
10.50358 249
10.52369 263
10.54381 261
10.56392 251
10.58403 242
10.60415 249
10.62426 240
10.64438 263
10.66449 243
10.6846 238
10.70472 244
10.72483 228
10.74494 257
10.76506 248
10.78517 252
10.80529 252
10.8254 274
10.84551 255
10.86563 282
10.88574 245
10.90585 256
10.92597 229
10.94608 215
10.9662 239
10.98631 244
11.00642 235
11.02654 237
11.04665 226
11.06676 247
11.08688 252
11.10699 252
11.1271 277
11.14722 240
11.16733 262
11.18745 245
11.20756 256
11.22767 261
11.24779 266
11.2679 261
11.28801 248
11.30813 239
11.32824 227
11.34836 241
11.36847 278
11.38858 238
11.4087 237
11.42881 243
11.44892 234
11.46904 282
11.48915 264
11.50927 230
11.52938 260
11.54949 232
11.56961 257
11.58972 254
11.60983 262
11.62995 283
11.65006 282
11.67017 278
11.69029 269
11.7104 264
11.73052 278
11.75063 265
11.77074 253
11.79086 285
11.81097 269
11.83108 266
11.8512 281
11.87131 265
11.89143 295
11.91154 257
11.93165 269
11.95177 289
11.97188 307
11.99199 297
12.01211 320
12.03222 312
12.05234 300
12.07245 294
12.09256 298
12.11268 324
12.13279 283
12.1529 339
12.17302 359
12.19313 306
12.21324 322
12.23336 341
12.25347 334
12.27359 307
12.2937 297
12.31381 337
12.33393 346
12.35404 305
12.37415 302
12.39427 319
12.41438 308
12.4345 331
12.45461 282
12.47472 305
12.49484 340
12.51495 303
12.53506 302
12.55518 303
12.57529 269
12.5954 273
12.61552 244
12.63563 264
12.65575 287
12.67586 285
12.69597 269
12.71609 233
12.7362 229
12.75631 265
12.77643 284
12.79654 275
12.81666 262
12.83677 255
12.85688 236
12.877 243
12.89711 236
12.91722 221
12.93734 249
12.95745 242
12.97757 246
12.99768 238
13.01779 265
13.03791 228
13.05802 249
13.07813 280
13.09825 289
13.11836 344
13.13847 298
13.15859 308
13.1787 293
13.19882 244
13.21893 294
13.23904 231
13.25916 267
13.27927 269
13.29938 218
13.3195 207
13.33961 240
13.35973 239
13.37984 233
13.39995 197
13.42007 215
13.44018 215
13.46029 210
13.48041 252
13.50052 197
13.52064 222
13.54075 260
13.56086 291
13.58098 308
13.60109 297
13.6212 353
13.64132 336
13.66143 356
13.68154 318
13.70166 283
13.72177 275
13.74189 256
13.762 264
13.78211 234
13.80223 211
13.82234 229
13.84245 258
13.86257 276
13.88268 265
13.9028 281
13.92291 241
13.94302 250
13.96314 223
13.98325 245
14.00336 242
14.02348 252
14.04359 226
14.06371 229
14.08382 234
14.10393 225
14.12405 209
14.14416 196
14.16427 216
14.18439 217
14.2045 211
14.22461 187
14.24473 207
14.26484 233
14.28496 213
14.30507 227
14.32518 219
14.3453 187
14.36541 203
14.38552 197
14.40564 199
14.42575 182
14.44587 214
14.46598 198
14.48609 211
14.50621 203
14.52632 219
14.54643 208
14.56655 215
14.58666 203
14.60677 247
14.62689 195
14.647 202
14.66712 209
14.68723 196
14.70734 213
14.72746 220
14.74757 203
14.76768 221
14.7878 201
14.80791 223
14.82803 218
14.84814 227
14.86825 258
14.88837 264
14.90848 297
14.92859 303
14.94871 289
14.96882 238
14.98894 225
15.00905 248
15.02916 235
15.04928 207
15.06939 232
15.0895 208
15.10962 226
15.12973 224
15.14984 220
15.16996 249
15.19007 245
15.21019 207
15.2303 229
15.25041 261
15.27053 201
15.29064 242
15.31075 255
15.33087 213
15.35098 203
15.3711 201
15.39121 206
15.41132 191
15.43144 188
15.45155 172
15.47166 225
15.49178 190
15.51189 208
15.53201 205
15.55212 192
15.57223 191
15.59235 187
15.61246 207
15.63257 218
15.65269 181
15.6728 169
15.69291 192
15.71303 159
15.73314 192
15.75326 202
15.77337 212
15.79348 226
15.8136 197
15.83371 226
15.85382 183
15.87394 167
15.89405 204
15.91417 201
15.93428 185
15.95439 197
15.97451 173
15.99462 186
16.01473 174
16.03485 186
16.05496 194
16.07508 170
16.09519 186
16.1153 181
16.13542 194
16.15553 202
16.17564 177
16.19576 211
16.21587 193
16.23598 197
16.2561 196
16.27621 194
16.29633 214
16.31644 177
16.33655 186
16.35667 179
16.37678 177
16.39689 194
16.41701 184
16.43712 171
16.45724 193
16.47735 193
16.49746 162
16.51758 191
16.53769 171
16.5578 191
16.57792 191
16.59803 189
16.61814 192
16.63826 169
16.65837 176
16.67849 218
16.6986 220
16.71871 153
16.73883 199
16.75894 198
16.77905 187
16.79917 184
16.81928 206
16.8394 191
16.85951 192
16.87962 189
16.89974 208
16.91985 179
16.93996 195
16.96008 195
16.98019 171
17.00031 187
17.02042 208
17.04053 183
17.06065 189
17.08076 196
17.10087 199
17.12099 204
17.1411 208
17.16121 190
17.18133 198
17.20144 181
17.22156 178
17.24167 186
17.26178 192
17.2819 194
17.30201 186
17.32212 165
17.34224 211
17.36235 164
17.38247 190
17.40258 194
17.42269 193
17.44281 192
17.46292 216
17.48303 213
17.50315 187
17.52326 189
17.54338 203
17.56349 195
17.5836 189
17.60372 199
17.62383 199
17.64394 189
17.66406 209
17.68417 207
17.70428 224
17.7244 205
17.74451 182
17.76463 199
17.78474 198
17.80485 187
17.82497 178
17.84508 210
17.86519 201
17.88531 199
17.90542 185
17.92554 212
17.94565 203
17.96576 195
17.98588 217
18.00599 182
18.0261 173
18.04622 183
18.06633 193
18.08645 206
18.10656 199
18.12667 176
18.14679 189
18.1669 181
18.18701 229
18.20713 218
18.22724 200
18.24735 181
18.26747 196
18.28758 184
18.3077 192
18.32781 172
18.34792 188
18.36804 209
18.38815 197
18.40826 167
18.42838 212
18.44849 182
18.46861 200
18.48872 180
18.50883 184
18.52895 191
18.54906 179
18.56917 214
18.58929 183
18.6094 208
18.62951 188
18.64963 194
18.66974 173
18.68986 198
18.70997 203
18.73008 191
18.7502 196
18.77031 232
18.79042 219
18.81054 208
18.83065 221
18.85077 205
18.87088 210
18.89099 205
18.91111 178
18.93122 193
18.95133 180
18.97145 208
18.99156 192
19.01168 202
19.03179 193
19.0519 198
19.07202 162
19.09213 202
19.11224 195
19.13236 188
19.15247 192
19.17258 210
19.1927 190
19.21281 230
19.23293 217
19.25304 266
19.27315 216
19.29327 268
19.31338 275
19.33349 235
19.35361 249
19.37372 255
19.39384 234
19.41395 225
19.43406 203
19.45418 213
19.47429 219
19.4944 218
19.51452 209
19.53463 211
19.55475 231
19.57486 242
19.59497 208
19.61509 228
19.6352 234
19.65531 248
19.67543 249
19.69554 264
19.71565 240
19.73577 263
19.75588 271
19.776 287
19.79611 306
19.81622 298
19.83634 297
19.85645 293
19.87656 306
19.89668 302
19.91679 368
19.93691 307
19.95702 341
19.97713 329
19.99725 335
20.01736 340
20.03747 322
20.05759 326
20.0777 321
20.09782 326
20.11793 368
20.13804 352
20.15816 330
20.17827 324
20.19838 341
20.2185 331
20.23861 311
20.25872 355
20.27884 343
20.29895 323
20.31907 321
20.33918 354
20.35929 309
20.37941 335
20.39952 381
20.41963 356
20.43975 350
20.45986 332
20.47998 334
20.50009 341
20.5202 385
20.54032 395
20.56043 396
20.58054 418
20.60066 413
20.62077 450
20.64088 429
20.661 521
20.68111 585
20.70123 675
20.72134 814
20.74145 1120
20.76157 1595
20.78168 2311
20.80179 3263
20.82191 4513
20.84202 5638
20.86214 6126
20.88225 5694
20.90236 4489
20.92248 3461
20.94259 2370
20.9627 1704
20.98282 1357
21.00293 1211
21.02305 1180
21.04316 1120
21.06327 936
21.08339 814
21.1035 675
21.12361 555
21.14373 502
21.16384 440
21.18395 434
21.20407 397
21.22418 388
21.2443 387
21.26441 313
21.28452 369
21.30464 330
21.32475 364
21.34486 354
21.36498 351
21.38509 337
21.40521 323
21.42532 343
21.44543 349
21.46555 291
21.48566 337
21.50577 325
21.52589 290
21.546 309
21.56612 297
21.58623 295
21.60634 322
21.62646 291
21.64657 295
21.66668 293
21.6868 273
21.70691 250
21.72702 268
21.74714 278
21.76725 287
21.78737 297
21.80748 269
21.82759 296
21.84771 306
21.86782 312
21.88793 315
21.90805 283
21.92816 350
21.94828 376
21.96839 436
21.9885 477
22.00862 493
22.02873 518
22.04884 559
22.06896 517
22.08907 474
22.10919 480
22.1293 349
22.14941 315
22.16953 320
22.18964 345
22.20975 344
22.22987 370
22.24998 442
22.27009 443
22.29021 474
22.31032 495
22.33044 461
22.35055 426
22.37066 372
22.39078 318
22.41089 307
22.431 355
22.45112 291
22.47123 293
22.49135 280
22.51146 276
22.53157 301
22.55169 255
22.5718 354
22.59191 329
22.61203 339
22.63214 370
22.65225 342
22.67237 310
22.69248 282
22.7126 268
22.73271 291
22.75282 285
22.77294 237
22.79305 256
22.81316 250
22.83328 303
22.85339 286
22.87351 280
22.89362 276
22.91373 306
22.93385 350
22.95396 305
22.97407 334
22.99419 360
23.0143 387
23.03442 409
23.05453 456
23.07464 440
23.09476 491
23.11487 521
23.13498 543
23.1551 625
23.17521 685
23.19532 654
23.21544 593
23.23555 567
23.25567 458
23.27578 423
23.29589 397
23.31601 351
23.33612 341
23.35623 339
23.37635 303
23.39646 287
23.41658 290
23.43669 320
23.4568 290
23.47692 291
23.49703 329
23.51714 376
23.53726 341
23.55737 396
23.57749 398
23.5976 400
23.61771 371
23.63783 367
23.65794 357
23.67805 345
23.69817 289
23.71828 298
23.73839 280
23.75851 310
23.77862 300
23.79874 302
23.81885 293
23.83896 327
23.85908 376
23.87919 430
23.8993 474
23.91942 468
23.93953 577
23.95965 656
23.97976 779
23.99987 791
24.01999 757
24.0401 647
24.06021 593
24.08033 546
24.10044 447
24.12056 368
24.14067 323
24.16078 356
24.1809 395
24.20101 372
24.22112 437
24.24124 415
24.26135 468
24.28146 529
24.30158 550
24.32169 553
24.34181 511
24.36192 470
24.38203 425
24.40215 420
24.42226 410
24.44237 338
24.46249 311
24.4826 339
24.50272 287
24.52283 292
24.54294 325
24.56306 296
24.58317 339
24.60328 333
24.6234 355
24.64351 380
24.66362 406
24.68374 434
24.70385 466
24.72397 413
24.74408 402
24.76419 366
24.78431 372
24.80442 344
24.82453 342
24.84465 373
24.86476 373
24.88488 365
24.90499 376
24.9251 381
24.94522 371
24.96533 370
24.98544 331
25.00556 352
25.02567 347
25.04579 361
25.0659 299
25.08601 290
25.10613 305
25.12624 282
25.14635 295
25.16647 305
25.18658 288
25.20669 277
25.22681 338
25.24692 339
25.26704 299
25.28715 316
25.30726 341
25.32738 298
25.34749 356
25.3676 347
25.38772 378
25.40783 372
25.42795 452
25.44806 558
25.46817 663
25.48829 711
25.5084 762
25.52851 792
25.54863 824
25.56874 773
25.58886 729
25.60897 685
25.62908 744
25.6492 749
25.66931 754
25.68942 733
25.70954 644
25.72965 609
25.74976 531
25.76988 452
25.78999 450
25.81011 421
25.83022 385
25.85033 401
25.87045 392
25.89056 378
25.91067 390
25.93079 408
25.9509 399
25.97102 369
25.99113 407
26.01124 390
26.03136 444
26.05147 398
26.07158 439
26.0917 420
26.11181 474
26.13193 520
26.15204 521
26.17215 568
26.19227 579
26.21238 622
26.23249 680
26.25261 738
26.27272 749
26.29283 901
26.31295 993
26.33306 1135
26.35318 1291
26.37329 1437
26.3934 1645
26.41352 1967
26.43363 2006
26.45374 2323
26.47386 2746
26.49397 3548
26.51409 4893
26.5342 6869
26.55431 9653
26.57443 13891
26.59454 18932
26.61465 23091
26.63477 25840
26.65488 24411
26.67499 19373
26.69511 14903
26.71522 11724
26.73534 7735
26.75545 4179
26.77556 2270
26.79568 1610
26.81579 1300
26.8359 1152
26.85602 995
26.87613 933
26.89625 921
26.91636 935
26.93647 879
26.95659 941
26.9767 930
26.99681 1036
27.01693 1082
27.03704 1203
27.05716 1312
27.07727 1168
27.09738 1070
27.1175 955
27.13761 879
27.15772 719
27.17784 645
27.19795 611
27.21806 582
27.23818 570
27.25829 640
27.27841 767
27.29852 818
27.31863 960
27.33875 1193
27.35886 1397
27.37897 1566
27.39909 1742
27.4192 1946
27.43932 2024
27.45943 1910
27.47954 1718
27.49966 1569
27.51977 1481
27.53988 1270
27.56 969
27.58011 726
27.60023 671
27.62034 571
27.64045 589
27.66057 494
27.68068 504
27.70079 578
27.72091 618
27.74102 593
27.76113 626
27.78125 629
27.80136 669
27.82148 656
27.84159 729
27.8617 763
27.88182 703
27.90193 841
27.92204 841
27.94216 831
27.96227 825
27.98239 802
28.0025 703
28.02261 618
28.04273 511
28.06284 497
28.08295 402
28.10307 399
28.12318 432
28.1433 379
28.16341 355
28.18352 373
28.20364 390
28.22375 366
28.24386 391
28.26398 364
28.28409 366
28.3042 403
28.32432 337
28.34443 301
28.36455 313
28.38466 293
28.40477 284
28.42489 265
28.445 253
28.46511 296
28.48523 291
28.50534 265
28.52546 283
28.54557 246
28.56568 265
28.5858 282
28.60591 246
28.62602 259
28.64614 259
28.66625 256
28.68636 254
28.70648 257
28.72659 248
28.74671 270
28.76682 245
28.78693 258
28.80705 269
28.82716 245
28.84727 246
28.86739 249
28.8875 258
28.90762 224
28.92773 243
28.94784 227
28.96796 269
28.98807 251
29.00818 218
29.0283 266
29.04841 296
29.06853 262
29.08864 244
29.10875 278
29.12887 224
29.14898 246
29.16909 266
29.18921 228
29.20932 265
29.22943 267
29.24955 302
29.26966 286
29.28978 282
29.30989 311
29.33 356
29.35012 404
29.37023 450
29.39034 469
29.41046 532
29.43057 556
29.45069 507
29.4708 489
29.49091 501
29.51103 416
29.53114 370
29.55125 290
29.57137 288
29.59148 275
29.6116 291
29.63171 264
29.65182 289
29.67194 252
29.69205 286
29.71216 254
29.73228 260
29.75239 282
29.7725 292
29.79262 305
29.81273 332
29.83285 311
29.85296 293
29.87307 299
29.89319 360
29.9133 261
29.93341 303
29.95353 303
29.97364 314
29.99376 345
30.01387 338
30.03398 375
30.0541 353
30.07421 383
30.09432 385
30.11444 421
30.13455 436
30.15467 564
30.17478 592
30.19489 639
30.21501 706
30.23512 675
30.25523 594
30.27535 521
30.29546 448
30.31557 476
30.33569 464
30.3558 350
30.37592 386
30.39603 367
30.41614 392
30.43626 382
30.45637 366
30.47648 326
30.4966 364
30.51671 338
30.53683 312
30.55694 331
30.57705 330
30.59717 359
30.61728 342
30.63739 426
30.65751 409
30.67762 465
30.69773 480
30.71785 551
30.73796 503
30.75808 515
30.77819 527
30.7983 486
30.81842 436
30.83853 467
30.85864 497
30.87876 417
30.89887 407
30.91899 402
30.9391 380
30.95921 326
30.97933 314
30.99944 277
31.01955 288
31.03967 278
31.05978 266
31.0799 239
31.10001 256
31.12012 242
31.14024 246
31.16035 250
31.18046 243
31.20058 231
31.22069 228
31.2408 270
31.26092 212
31.28103 245
31.30115 281
31.32126 283
31.34137 264
31.36149 252
31.3816 249
31.40171 245
31.42183 226
31.44194 222
31.46206 225
31.48217 236
31.50228 203
31.5224 217
31.54251 225
31.56262 220
31.58274 223
31.60285 224
31.62297 200
31.64308 237
31.66319 205
31.68331 190
31.70342 204
31.72353 237
31.74365 193
31.76376 233
31.78387 207
31.80399 213
31.8241 236
31.84422 230
31.86433 214
31.88444 218
31.90456 213
31.92467 219
31.94478 202
31.9649 224
31.98501 221
32.00513 241
32.02524 245
32.04535 257
32.06547 267
32.08558 292
32.10569 317
32.12581 295
32.14592 271
32.16604 268
32.18615 264
32.20626 283
32.22638 299
32.24649 265
32.2666 228
32.28672 236
32.30683 268
32.32694 241
32.34706 267
32.36717 281
32.38729 283
32.4074 321
32.42751 301
32.44763 358
32.46774 356
32.48785 347
32.50797 312
32.52808 274
32.5482 302
32.56831 275
32.58842 255
32.60854 242
32.62865 212
32.64876 214
32.66888 224
32.68899 218
32.7091 235
32.72922 233
32.74933 189
32.76945 188
32.78956 192
32.80967 234
32.82979 197
32.8499 221
32.87001 195
32.89013 224
32.91024 242
32.93036 206
32.95047 194
32.97058 203
32.9907 260
33.01081 215
33.03092 228
33.05104 213
33.07115 220
33.09127 201
33.11138 217
33.13149 206
33.15161 201
33.17172 183
33.19183 190
33.21195 226
33.23206 210
33.25217 218
33.27229 217
33.2924 190
33.31252 215
33.33263 233
33.35274 235
33.37286 243
33.39297 223
33.41308 226
33.4332 231
33.45331 244
33.47343 199
33.49354 213
33.51365 210
33.53377 222
33.55388 207
33.57399 182
33.59411 200
33.61422 208
33.63434 219
33.65445 188
33.67456 250
33.69468 192
33.71479 206
33.7349 244
33.75502 209
33.77513 222
33.79524 225
33.81536 215
33.83547 235
33.85559 257
33.8757 263
33.89581 197
33.91593 222
33.93604 259
33.95615 238
33.97627 220
33.99638 271
34.0165 224
34.03661 274
34.05672 268
34.07684 311
34.09695 293
34.11706 372
34.13718 396
34.15729 449
34.17741 451
34.19752 431
34.21763 448
34.23775 403
34.25786 350
34.27797 320
34.29809 309
34.3182 259
34.33831 294
34.35843 282
34.37854 233
34.39866 241
34.41877 251
34.43888 235
34.459 229
34.47911 279
34.49922 228
34.51934 267
34.53945 271
34.55957 285
34.57968 287
34.59979 315
34.61991 297
34.64002 309
34.66013 321
34.68025 314
34.70036 275
34.72047 322
34.74059 291
34.7607 293
34.78082 329
34.80093 314
34.82104 333
34.84116 349
34.86127 333
34.88138 376
34.9015 385
34.92161 340
34.94173 358
34.96184 374
34.98195 313
35.00207 284
35.02218 324
35.04229 321
35.06241 303
35.08252 340
35.10264 303
35.12275 318
35.14286 345
35.16298 325
35.18309 356
35.2032 337
35.22332 346
35.24343 382
35.26354 339
35.28366 351
35.30377 349
35.32389 356
35.344 338
35.36411 347
35.38423 312
35.40434 367
35.42445 359
35.44457 396
35.46468 352
35.4848 426
35.50491 428
35.52502 472
35.54514 471
35.56525 457
35.58536 455
35.60548 437
35.62559 370
35.64571 368
35.66582 363
35.68593 331
35.70605 317
35.72616 282
35.74627 300
35.76639 298
35.7865 298
35.80661 303
35.82673 298
35.84684 332
35.86696 300
35.88707 289
35.90718 279
35.9273 289
35.94741 263
35.96752 311
35.98764 278
36.00775 258
36.02787 240
36.04798 245
36.06809 268
36.08821 258
36.10832 286
36.12843 294
36.14855 253
36.16866 303
36.18878 276
36.20889 289
36.229 292
36.24912 314
36.26923 308
36.28934 308
36.30946 324
36.32957 358
36.34968 427
36.3698 425
36.38991 520
36.41003 572
36.43014 801
36.45025 965
36.47037 1239
36.49048 1549
36.51059 1856
36.53071 1970
36.55082 1832
36.57094 1543
36.59105 1265
36.61116 1179
36.63128 1072
36.65139 865
36.6715 614
36.69162 440
36.71173 403
36.73184 347
36.75196 350
36.77207 341
36.79219 335
36.8123 289
36.83241 374
36.85253 319
36.87264 354
36.89275 392
36.91287 393
36.93298 391
36.9531 409
36.97321 420
36.99332 414
37.01344 378
37.03355 351
37.05366 300
37.07378 275
37.09389 294
37.11401 266
37.13412 259
37.15423 258
37.17435 237
37.19446 262
37.21457 234
37.23469 252
37.2548 251
37.27491 292
37.29503 234
37.31514 241
37.33526 236
37.35537 260
37.37548 257
37.3956 254
37.41571 256
37.43582 262
37.45594 251
37.47605 283
37.49617 236
37.51628 271
37.53639 268
37.55651 258
37.57662 282
37.59673 244
37.61685 264
37.63696 242
37.65708 264
37.67719 272
37.6973 233
37.71742 252
37.73753 259
37.75764 229
37.77776 217
37.79787 218
37.81798 224
37.8381 218
37.85821 254
37.87833 211
37.89844 231
37.91855 229
37.93867 230
37.95878 239
37.97889 212
37.99901 215
38.01912 210
38.03924 205
38.05935 236
38.07946 221
38.09958 232
38.11969 223
38.1398 198
38.15992 234
38.18003 237
38.20015 250
38.22026 219
38.24037 235
38.26049 242
38.2806 220
38.30071 246
38.32083 263
38.34094 274
38.36105 255
38.38117 258
38.40128 268
38.4214 276
38.44151 331
38.46162 293
38.48174 308
38.50185 322
38.52196 320
38.54208 347
38.56219 335
38.58231 316
38.60242 315
38.62253 289
38.64265 285
38.66276 286
38.68287 276
38.70299 253
38.7231 227
38.74321 252
38.76333 227
38.78344 273
38.80356 219
38.82367 228
38.84378 271
38.8639 229
38.88401 229
38.90412 219
38.92424 219
38.94435 244
38.96447 242
38.98458 266
39.00469 236
39.02481 232
39.04492 254
39.06503 283
39.08515 257
39.10526 258
39.12538 288
39.14549 270
39.1656 299
39.18572 278
39.20583 291
39.22594 320
39.24606 335
39.26617 355
39.28628 378
39.3064 477
39.32651 535
39.34663 658
39.36674 816
39.38685 1050
39.40697 1226
39.42708 1559
39.44719 1652
39.46731 1631
39.48742 1378
39.50754 1086
39.52765 990
39.54776 912
39.56788 861
39.58799 694
39.6081 498
39.62822 333
39.64833 311
39.66845 249
39.68856 258
39.70867 251
39.72879 238
39.7489 236
39.76901 240
39.78913 220
39.80924 225
39.82935 218
39.84947 189
39.86958 226
39.8897 225
39.90981 222
39.92992 247
39.95004 236
39.97015 232
39.99026 211
40.01038 260
40.03049 254
40.05061 291
40.07072 235
40.09083 295
40.11095 327
40.13106 299
40.15117 394
40.17129 425
40.1914 569
40.21152 678
40.23163 775
40.25174 880
40.27186 970
40.29197 898
40.31208 744
40.3322 693
40.35231 616
40.37242 585
40.39254 597
40.41265 475
40.43277 392
40.45288 285
40.47299 233
40.49311 241
40.51322 246
40.53333 273
40.55345 232
40.57356 230
40.59368 225
40.61379 223
40.6339 238
40.65402 237
40.67413 214
40.69424 229
40.71436 216
40.73447 201
40.75458 227
40.7747 204
40.79481 226
40.81493 209
40.83504 195
40.85515 210
40.87527 211
40.89538 204
40.91549 191
40.93561 219
40.95572 209
40.97584 211
40.99595 214
41.01606 199
41.03618 185
41.05629 215
41.0764 199
41.09652 214
41.11663 199
41.13675 211
41.15686 213
41.17697 200
41.19709 222
41.2172 212
41.23731 229
41.25743 190
41.27754 230
41.29765 213
41.31777 219
41.33788 218
41.358 219
41.37811 215
41.39822 241
41.41834 235
41.43845 235
41.45856 235
41.47868 247
41.49879 270
41.51891 269
41.53902 256
41.55913 274
41.57925 272
41.59936 285
41.61947 278
41.63959 298
41.6597 343
41.67982 343
41.69993 356
41.72004 444
41.74016 490
41.76027 520
41.78038 552
41.8005 594
41.82061 528
41.84072 450
41.86084 443
41.88095 403
41.90107 397
41.92118 396
41.94129 317
41.96141 278
41.98152 270
42.00163 247
42.02175 218
42.04186 236
42.06198 213
42.08209 235
42.1022 242
42.12232 229
42.14243 241
42.16254 233
42.18266 247
42.20277 277
42.22289 256
42.243 292
42.26311 317
42.28323 375
42.30334 477
42.32345 572
42.34357 685
42.36368 813
42.38379 1048
42.40391 1199
42.42402 1376
42.44414 1301
42.46425 1135
42.48436 913
42.50448 814
42.52459 798
42.5447 718
42.56482 648
42.58493 499
42.60505 398
42.62516 357
42.64527 312
42.66539 324
42.6855 266
42.70561 293
42.72573 259
42.74584 284
42.76595 283
42.78607 270
42.80618 236
42.8263 254
42.84641 237
42.86652 233
42.88664 212
42.90675 216
42.92686 206
42.94698 219
42.96709 202
42.98721 199
43.00732 242
43.02743 206
43.04755 235
43.06766 214
43.08777 207
43.10789 199
43.128 232
43.14812 215
43.16823 241
43.18834 206
43.20846 236
43.22857 193
43.24868 211
43.2688 227
43.28891 210
43.30902 216
43.32914 202
43.34925 218
43.36937 208
43.38948 213
43.40959 223
43.42971 203
43.44982 215
43.46993 212
43.49005 226
43.51016 208
43.53028 242
43.55039 224
43.5705 194
43.59062 214
43.61073 204
43.63084 178
43.65096 193
43.67107 206
43.69119 172
43.7113 181
43.73141 184
43.75153 174
43.77164 179
43.79175 186
43.81187 195
43.83198 197
43.85209 193
43.87221 181
43.89232 194
43.91244 208
43.93255 177
43.95266 202
43.97278 205
43.99289 199
44.013 196
44.03312 231
44.05323 204
44.07335 176
44.09346 224
44.11357 196
44.13369 206
44.1538 209
44.17391 222
44.19403 218
44.21414 237
44.23426 227
44.25437 219
44.27448 215
44.2946 213
44.31471 211
44.33482 207
44.35494 221
44.37505 201
44.39516 188
44.41528 183
44.43539 190
44.45551 196
44.47562 205
44.49573 207
44.51585 229
44.53596 220
44.55607 222
44.57619 206
44.5963 216
44.61642 199
44.63653 219
44.65664 207
44.67676 186
44.69687 185
44.71698 195
44.7371 169
44.75721 178
44.77732 217
44.79744 188
44.81755 180
44.83767 195
44.85778 177
44.87789 213
44.89801 204
44.91812 178
44.93823 199
44.95835 191
44.97846 222
44.99858 204
45.01869 188
45.0388 220
45.05892 188
45.07903 202
45.09914 189
45.11926 201
45.13937 217
45.15949 209
45.1796 200
45.19971 197
45.21983 207
45.23994 188
45.26005 202
45.28017 225
45.30028 213
45.32039 229
45.34051 226
45.36062 224
45.38074 234
45.40085 238
45.42096 274
45.44108 274
45.46119 285
45.4813 297
45.50142 307
45.52153 315
45.54165 318
45.56176 318
45.58187 401
45.60199 371
45.6221 425
45.64221 429
45.66233 499
45.68244 556
45.70256 642
45.72267 705
45.74278 873
45.7629 943
45.78301 942
45.80312 894
45.82324 736
45.84335 586
45.86346 588
45.88358 563
45.90369 566
45.92381 520
45.94392 393
45.96403 260
45.98415 246
46.00426 247
46.02437 227
46.04449 243
46.0646 197
46.08472 235
46.10483 258
46.12494 228
46.14506 234
46.16517 235
46.18528 258
46.2054 247
46.22551 234
46.24563 256
46.26574 226
46.28585 232
46.30597 232
46.32608 265
46.34619 233
46.36631 216
46.38642 191
46.40653 215
46.42665 173
46.44676 199
46.46688 172
46.48699 183
46.5071 186
46.52722 193
46.54733 169
46.56744 189
46.58756 166
46.60767 188
46.62779 158
46.6479 188
46.66801 186
46.68813 188
46.70824 173
46.72835 199
46.74847 182
46.76858 194
46.78869 183
46.80881 187
46.82892 184
46.84904 203
46.86915 202
46.88926 223
46.90938 208
46.92949 210
46.9496 195
46.96972 222
46.98983 226
47.00995 249
47.03006 241
47.05017 266
47.07029 286
47.0904 266
47.11051 264
47.13063 249
47.15074 253
47.17086 279
47.19097 239
47.21108 246
47.2312 249
47.25131 226
47.27142 255
47.29154 214
47.31165 220
47.33176 232
47.35188 184
47.37199 220
47.39211 245
47.41222 247
47.43233 250
47.45245 259
47.47256 214
47.49267 233
47.51279 207
47.5329 244
47.55302 208
47.57313 235
47.59324 219
47.61336 225
47.63347 173
47.65358 228
47.6737 183
47.69381 188
47.71393 170
47.73404 195
47.75415 172
47.77427 195
47.79438 182
47.81449 217
47.83461 181
47.85472 174
47.87483 180
47.89495 190
47.91506 192
47.93518 167
47.95529 202
47.9754 191
47.99552 179
48.01563 199
48.03574 204
48.05586 204
48.07597 170
48.09609 175
48.1162 187
48.13631 182
48.15643 211
48.17654 208
48.19665 198
48.21677 201
48.23688 229
48.257 185
48.27711 193
48.29722 233
48.31734 232
48.33745 227
48.35756 220
48.37768 224
48.39779 197
48.4179 198
48.43802 187
48.45813 205
48.47825 200
48.49836 191
48.51847 194
48.53859 181
48.5587 186
48.57881 197
48.59893 185
48.61904 210
48.63916 223
48.65927 233
48.67938 231
48.6995 198
48.71961 271
48.73972 251
48.75984 250
48.77995 253
48.80006 252
48.82018 285
48.84029 239
48.86041 217
48.88052 229
48.90063 243
48.92075 240
48.94086 232
48.96097 277
48.98109 250
49.0012 261
49.02132 274
49.04143 261
49.06154 244
49.08166 235
49.10177 275
49.12188 278
49.142 276
49.16211 260
49.18223 256
49.20234 237
49.22245 241
49.24257 220
49.26268 240
49.28279 184
49.30291 205
49.32302 227
49.34313 205
49.36325 203
49.38336 225
49.40348 175
49.42359 235
49.4437 200
49.46382 192
49.48393 192
49.50404 195
49.52416 206
49.54427 228
49.56439 214
49.5845 216
49.60461 228
49.62473 220
49.64484 249
49.66495 234
49.68507 233
49.70518 234
49.7253 272
49.74541 272
49.76552 280
49.78564 317
49.80575 323
49.82586 374
49.84598 364
49.86609 396
49.8862 421
49.90632 468
49.92643 530
49.94655 545
49.96666 775
49.98677 938
50.00689 1097
50.027 1255
50.04711 1652
50.06723 2050
50.08734 2322
50.10746 2638
50.12757 2649
50.14768 2454
50.1678 1851
50.18791 1448
50.20802 1381
50.22814 1433
50.24825 1496
50.26837 1307
50.28848 1135
50.30859 729
50.32871 511
50.34882 440
50.36893 418
50.38905 435
50.40916 489
50.42927 478
50.44939 514
50.4695 540
50.48962 593
50.50973 593
50.52984 598
50.54996 513
50.57007 504
50.59018 436
50.6103 477
50.63041 463
50.65053 407
50.67064 421
50.69075 348
50.71087 318
50.73098 336
50.75109 320
50.77121 313
50.79132 298
50.81143 293
50.83155 322
50.85166 297
50.87178 343
50.89189 288
50.912 270
50.93212 276
50.95223 247
50.97234 262
50.99246 253
51.01257 263
51.03269 262
51.0528 237
51.07291 236
51.09303 210
51.11314 239
51.13325 260
51.15337 257
51.17348 249
51.1936 220
51.21371 230
51.23382 236
51.25394 238
51.27405 226
51.29416 254
51.31428 264
51.33439 219
51.3545 213
51.37462 182
51.39473 183
51.41485 178
51.43496 204
51.45507 171
51.47519 175
51.4953 203
51.51541 180
51.53553 187
51.55564 173
51.57576 199
51.59587 213
51.61598 186
51.6361 181
51.65621 162
51.67632 208
51.69644 180
51.71655 185
51.73667 190
51.75678 162
51.77689 204
51.79701 155
51.81712 157
51.83723 149
51.85735 180
51.87746 173
51.89757 147
51.91769 160
51.9378 164
51.95792 160
51.97803 173
51.99814 170
52.01826 154
52.03837 165
52.05848 171
52.0786 162
52.09871 169
52.11883 180
52.13894 196
52.15905 175
52.17917 169
52.19928 170
52.21939 198
52.23951 199
52.25962 162
52.27974 183
52.29985 173
52.31996 192
52.34008 216
52.36019 202
52.3803 187
52.40042 192
52.42053 175
52.44064 186
52.46076 195
52.48087 215
52.50099 223
52.5211 185
52.54121 186
52.56133 214
52.58144 216
52.60155 192
52.62167 220
52.64178 220
52.6619 225
52.68201 236
52.70212 245
52.72224 225
52.74235 183
52.76246 204
52.78258 213
52.80269 222
52.8228 211
52.84292 193
52.86303 192
52.88315 192
52.90326 199
52.92337 220
52.94349 221
52.9636 183
52.98371 178
53.00383 206
53.02394 188
53.04406 179
53.06417 176
53.08428 194
53.1044 215
53.12451 193
53.14462 212
53.16474 219
53.18485 174
53.20497 186
53.22508 191
53.24519 149
53.26531 181
53.28542 197
53.30553 208
53.32565 204
53.34576 201
53.36587 207
53.38599 177
53.4061 196
53.42622 192
53.44633 171
53.46644 191
53.48656 199
53.50667 184
53.52678 198
53.5469 178
53.56701 213
53.58713 200
53.60724 180
53.62735 183
53.64747 206
53.66758 198
53.68769 192
53.70781 182
53.72792 207
53.74804 183
53.76815 195
53.78826 197
53.80838 174
53.82849 167
53.8486 192
53.86872 204
53.88883 182
53.90894 207
53.92906 221
53.94917 225
53.96929 232
53.9894 226
54.00951 198
54.02963 212
54.04974 203
54.06985 189
54.08997 221
54.11008 235
54.1302 222
54.15031 220
54.17042 214
54.19054 216
54.21065 236
54.23076 221
54.25088 251
54.27099 219
54.29111 210
54.31122 231
54.33133 222
54.35145 227
54.37156 200
54.39167 232
54.41179 215
54.4319 230
54.45201 203
54.47213 219
54.49224 224
54.51236 233
54.53247 215
54.55258 219
54.5727 239
54.59281 251
54.61292 268
54.63304 261
54.65315 256
54.67327 317
54.69338 359
54.71349 371
54.73361 443
54.75372 487
54.77383 592
54.79395 702
54.81406 761
54.83417 895
54.85429 861
54.8744 820
54.89452 628
54.91463 613
54.93474 570
54.95486 509
54.97497 529
54.99508 535
55.0152 491
55.03531 426
55.05543 355
55.07554 277
55.09565 266
55.11577 296
55.13588 273
55.15599 285
55.17611 334
55.19622 302
55.21634 376
55.23645 401
55.25656 473
55.27668 446
55.29679 540
55.3169 523
55.33702 478
55.35713 393
55.37724 379
55.39736 367
55.41747 382
55.43759 416
55.4577 371
55.47781 345
55.49793 324
55.51804 289
55.53815 238
55.55827 229
55.57838 236
55.5985 255
55.61861 237
55.63872 197
55.65884 228
55.67895 203
55.69906 224
55.71918 215
55.73929 196
55.75941 201
55.77952 191
55.79963 206
55.81975 210
55.83986 161
55.85997 190
55.88009 203
55.9002 215
55.92031 233
55.94043 192
55.96054 188
55.98066 210
56.00077 186
56.02088 203
56.041 202
56.06111 176
56.08122 185
56.10134 181
56.12145 199
56.14157 176
56.16168 186
56.18179 187
56.20191 197
56.22202 179
56.24213 177
56.26225 176
56.28236 185
56.30248 165
56.32259 198
56.3427 175
56.36282 180
56.38293 199
56.40304 177
56.42316 189
56.44327 198
56.46338 216
56.4835 184
56.50361 190
56.52373 191
56.54384 176
56.56395 177
56.58407 192
56.60418 210
56.62429 182
56.64441 204
56.66452 191
56.68464 209
56.70475 212
56.72486 198
56.74498 204
56.76509 209
56.7852 206
56.80532 211
56.82543 213
56.84554 190
56.86566 197
56.88577 208
56.90589 191
56.926 182
56.94611 193
56.96623 178
56.98634 191
57.00645 189
57.02657 212
57.04668 169
57.0668 200
57.08691 177
57.10702 184
57.12714 216
57.14725 204
57.16736 210
57.18748 251
57.20759 199
57.22771 224
57.24782 225
57.26793 219
57.28805 229
57.30816 214
57.32827 204
57.34839 241
57.3685 217
57.38861 208
57.40873 235
57.42884 212
57.44896 199
57.46907 246
57.48918 206
57.5093 194
57.52941 200
57.54952 213
57.56964 180
57.58975 201
57.60987 204
57.62998 172
57.65009 189
57.67021 179
57.69032 170
57.71043 195
57.73055 185
57.75066 213
57.77078 164
57.79089 192
57.811 190
57.83112 173
57.85123 193
57.87134 168
57.89146 185
57.91157 190
57.93168 180
57.9518 200
57.97191 172
57.99203 213
58.01214 194
58.03225 172
58.05237 222
58.07248 199
58.09259 180
58.11271 193
58.13282 191
58.15294 225
58.17305 209
58.19316 189
58.21328 191
58.23339 189
58.2535 185
58.27362 191
58.29373 203
58.31385 218
58.33396 190
58.35407 186
58.37419 198
58.3943 192
58.41441 204
58.43453 214
58.45464 205
58.47475 200
58.49487 197
58.51498 216
58.5351 189
58.55521 218
58.57532 233
58.59544 213
58.61555 220
58.63566 199
58.65578 228
58.67589 197
58.69601 206
58.71612 217
58.73623 210
58.75635 212
58.77646 201
58.79657 214
58.81669 201
58.8368 194
58.85691 204
58.87703 193
58.89714 208
58.91726 189
58.93737 187
58.95748 192
58.9776 193
58.99771 176
59.01782 182
59.03794 183
59.05805 173
59.07817 180
59.09828 178
59.11839 190
59.13851 159
59.15862 181
59.17873 196
59.19885 183
59.21896 192
59.23908 196
59.25919 210
59.2793 218
59.29942 211
59.31953 188
59.33964 219
59.35976 221
59.37987 216
59.39998 209
59.4201 225
59.44021 240
59.46033 215
59.48044 262
59.50055 228
59.52067 257
59.54078 231
59.56089 270
59.58101 240
59.60112 278
59.62124 310
59.64135 270
59.66146 309
59.68158 333
59.70169 353
59.7218 387
59.74192 410
59.76203 503
59.78215 588
59.80226 673
59.82237 865
59.84249 981
59.8626 1166
59.88271 1460
59.90283 1634
59.92294 1786
59.94305 1715
59.96317 1563
59.98328 1146
60.0034 912
60.02351 884
60.04362 902
60.06374 934
60.08385 965
60.10396 983
60.12408 812
60.14419 597
60.16431 461
60.18442 349
60.20453 307
60.22465 264
60.24476 256
60.26487 233
60.28499 248
60.3051 223
60.32522 193
60.34533 192
60.36544 237
60.38556 205
60.40567 196
60.42578 198
60.4459 191
60.46601 193
60.48612 176
60.50624 185
60.52635 196
60.54647 198
60.56658 187
60.58669 209
60.60681 204
60.62692 211
60.64703 173
60.66715 199
60.68726 207
60.70738 204
60.72749 186
60.7476 183
60.76772 205
60.78783 192
60.80794 190
60.82806 193
60.84817 183
60.86828 192
60.8884 200
60.90851 202
60.92863 206
60.94874 214
60.96885 203
60.98897 233
61.00908 214
61.02919 242
61.04931 248
61.06942 261
61.08954 278
61.10965 272
61.12976 269
61.14988 259
61.16999 258
61.1901 219
61.21022 234
61.23033 240
61.25045 243
61.27056 246
61.29067 230
61.31079 225
61.3309 203
61.35101 216
61.37113 188
61.39124 175
61.41135 185
61.43147 207
61.45158 210
61.4717 172
61.49181 192
61.51192 183
61.53204 174
61.55215 183
61.57226 204
61.59238 198
61.61249 191
61.63261 205
61.65272 198
61.67283 168
61.69295 202
61.71306 213
61.73317 206
61.75329 178
61.7734 189
61.79352 182
61.81363 203
61.83374 215
61.85386 186
61.87397 202
61.89408 199
61.9142 196
61.93431 219
61.95442 186
61.97454 230
61.99465 213
62.01477 218
62.03488 198
62.05499 204
62.07511 204
62.09522 220
62.11533 224
62.13545 201
62.15556 240
62.17568 222
62.19579 205
62.2159 204
62.23602 219
62.25613 214
62.27624 233
62.29636 187
62.31647 197
62.33659 208
62.3567 218
62.37681 218
62.39693 197
62.41704 199
62.43715 221
62.45727 185
62.47738 191
62.49749 209
62.51761 230
62.53772 211
62.55784 201
62.57795 197
62.59806 199
62.61818 185
62.63829 196
62.6584 180
62.67852 243
62.69863 197
62.71875 214
62.73886 212
62.75897 194
62.77909 204
62.7992 199
62.81931 189
62.83943 195
62.85954 216
62.87965 223
62.89977 208
62.91988 230
62.94 228
62.96011 229
62.98022 213
63.00034 230
63.02045 224
63.04056 268
63.06068 238
63.08079 235
63.10091 254
63.12102 270
63.14113 252
63.16125 262
63.18136 222
63.20147 257
63.22159 226
63.2417 233
63.26182 222
63.28193 204
63.30204 215
63.32216 236
63.34227 211
63.36238 188
63.3825 189
63.40261 208
63.42272 194
63.44284 209
63.46295 195
63.48307 191
63.50318 181
63.52329 205
63.54341 224
63.56352 208
63.58363 224
63.60375 206
63.62386 222
63.64398 254
63.66409 244
63.6842 235
63.70432 257
63.72443 249
63.74454 246
63.76466 279
63.78477 314
63.80489 282
63.825 331
63.84511 347
63.86523 323
63.88534 347
63.90545 409
63.92557 418
63.94568 468
63.96579 487
63.98591 509
64.00602 521
64.02614 538
64.04625 471
64.06636 370
64.08648 341
64.10659 337
64.1267 325
64.14682 335
64.16693 335
64.18705 345
64.20716 291
64.22727 269
64.24739 236
64.2675 210
64.28761 186
64.30773 211
64.32784 197
64.34796 172
64.36807 180
64.38818 196
64.4083 180
64.42841 209
64.44852 168
64.46864 180
64.48875 183
64.50886 175
64.52898 173
64.54909 168
64.56921 191
64.58932 147
64.60943 178
64.62955 187
64.64966 172
64.66977 182
64.68989 159
64.71 182
64.73012 170
64.75023 179
64.77034 160
64.79046 170
64.81057 181
64.83068 175
64.8508 172
64.87091 177
64.89102 198
64.91114 176
64.93125 176
64.95137 209
64.97148 213
64.99159 200
65.01171 232
65.03182 203
65.05193 202
65.07205 227
65.09216 229
65.11228 231
65.13239 254
65.1525 230
65.17262 216
65.19273 237
65.21284 231
65.23296 250
65.25307 257
65.27319 240
65.2933 245
65.31341 227
65.33353 207
65.35364 227
65.37375 205
65.39387 208
65.41398 210
65.43409 176
65.45421 224
65.47432 179
65.49444 188
65.51455 216
65.53466 192
65.55478 187
65.57489 206
65.595 203
65.61512 191
65.63523 195
65.65535 216
65.67546 232
65.69557 255
65.71569 246
65.7358 225
65.75591 251
65.77603 234
65.79614 249
65.81626 232
65.83637 193
65.85648 192
65.8766 199
65.89671 196
65.91682 201
65.93694 206
65.95705 203
65.97716 206
65.99728 172
66.01739 205
66.03751 188
66.05762 187
66.07773 179
66.09785 195
66.11796 182
66.13807 204
66.15819 207
66.1783 209
66.19842 214
66.21853 234
66.23864 229
66.25876 220
66.27887 233
66.29898 207
66.3191 202
66.33921 209
66.35933 186
66.37944 203
66.39955 195
66.41967 187
66.43978 210
66.45989 211
66.48001 203
66.50012 213
66.52023 182
66.54035 171
66.56046 149
66.58058 174
66.60069 211
66.6208 169
66.64092 162
66.66103 183
66.68114 190
66.70126 175
66.72137 173
66.74149 184
66.7616 187
66.78171 186
66.80183 171
66.82194 190
66.84205 195
66.86217 193
66.88228 183
66.90239 183
66.92251 201
66.94262 171
66.96274 190
66.98285 203
67.00296 191
67.02308 219
67.04319 165
67.0633 224
67.08342 203
67.10353 206
67.12365 184
67.14376 197
67.16387 215
67.18399 204
67.2041 202
67.22421 215
67.24433 201
67.26444 200
67.28456 195
67.30467 206
67.32478 222
67.3449 216
67.36501 234
67.38512 241
67.40524 205
67.42535 261
67.44546 247
67.46558 258
67.48569 296
67.50581 313
67.52592 331
67.54603 380
67.56615 415
67.58626 520
67.60637 573
67.62649 654
67.6466 804
67.66672 942
67.68683 984
67.70694 1132
67.72706 1076
67.74717 950
67.76728 769
67.7874 633
67.80751 582
67.82763 591
67.84774 655
67.86785 678
67.88797 780
67.90808 822
67.92819 793
67.94831 704
67.96842 691
67.98853 692
68.00865 762
68.02876 877
68.04888 1003
68.06899 1142
68.0891 1339
68.10922 1386
68.12933 1412
68.14944 1199
68.16956 1094
68.18967 1030
68.20979 1055
68.2299 1112
68.25001 1212
68.27013 1293
68.29024 1341
68.31035 1286
68.33047 1123
68.35058 905
68.3707 660
68.39081 575
68.41092 536
68.43104 508
68.45115 552
68.47126 519
68.49138 488
68.51149 466
68.5316 348
68.55172 314
68.57183 263
68.59195 226
68.61206 190
68.63217 200
68.65229 198
68.6724 235
68.69251 215
68.71263 202
68.73274 201
68.75286 206
68.77297 233
68.79308 186
68.8132 207
68.83331 188
68.85342 176
68.87354 205
68.89365 181
68.91376 194
68.93388 181
68.95399 174
68.97411 177
68.99422 188
69.01433 168
69.03445 169
69.05456 173
69.07467 188
69.09479 173
69.1149 175
69.13502 195
69.15513 172
69.17524 181
69.19536 184
69.21547 189
69.23558 196
69.2557 180
69.27581 166
69.29593 165
69.31604 186
69.33615 165
69.35627 182
69.37638 160
69.39649 215
69.41661 190
69.43672 175
69.45683 178
69.47695 170
69.49706 184
69.51718 181
69.53729 163
69.5574 170
69.57752 179
69.59763 185
69.61774 176
69.63786 183
69.65797 176
69.67809 135
69.6982 169
69.71831 153
69.73843 165
69.75854 184
69.77865 190
69.79877 154
69.81888 188
69.839 190
69.85911 176
69.87922 179
69.89934 188
69.91945 168
69.93956 178
69.95968 161
69.97979 154
69.9999 172
70.02002 166
70.04013 168
70.06025 184
70.08036 163
70.10047 171
70.12059 176
70.1407 190
70.16081 177
70.18093 168
70.20104 169
70.22116 171
70.24127 153
70.26138 161
70.2815 146
70.30161 176
70.32172 173
70.34184 167
70.36195 173
70.38207 175
70.40218 144
70.42229 165
70.44241 152
70.46252 165
70.48263 149
70.50275 163
70.52286 167
70.54297 173
70.56309 170
70.5832 193
70.60332 165
70.62343 182
70.64354 197
70.66366 189
70.68377 206
70.70388 178
70.724 193
70.74411 172
70.76423 181
70.78434 207
70.80445 187
70.82457 193
70.84468 174
70.86479 177
70.88491 183
70.90502 169
70.92513 168
70.94525 163
70.96536 175
70.98548 159
71.00559 152
71.0257 168
71.04582 173
71.06593 193
71.08604 181
71.10616 173
71.12627 172
71.14639 145
71.1665 166
71.18661 154
71.20673 150
71.22684 172
71.24695 158
71.26707 156
71.28718 152
71.3073 183
71.32741 165
71.34752 190
71.36764 162
71.38775 181
71.40786 172
71.42798 174
71.44809 184
71.4682 200
71.48832 185
71.50843 198
71.52855 200
71.54866 211
71.56877 181
71.58889 200
71.609 187
71.62911 194
71.64923 188
71.66934 191
71.68946 204
71.70957 184
71.72968 174
71.7498 174
71.76991 187
71.79002 190
71.81014 173
71.83025 178
71.85037 141
71.87048 168
71.89059 182
71.91071 190
71.93082 186
71.95093 194
71.97105 184
71.99116 175
72.01127 219
72.03139 198
72.0515 185
72.07162 195
72.09173 191
72.11184 195
72.13196 180
72.15207 192
72.17218 187
72.1923 193
72.21241 192
72.23253 186
72.25264 219
72.27275 212
72.29287 207
72.31298 175
72.33309 190
72.35321 183
72.37332 171
72.39344 158
72.41355 186
72.43366 212
72.45378 180
72.47389 193
72.494 167
72.51412 179
72.53423 154
72.55434 179
72.57446 162
72.59457 182
72.61469 135
72.6348 158
72.65491 167
72.67503 192
72.69514 179
72.71525 180
72.73537 177
72.75548 175
72.7756 175
72.79571 155
72.81582 169
72.83594 153
72.85605 171
72.87616 191
72.89628 192
72.91639 178
72.9365 211
72.95662 200
72.97673 205
72.99685 209
73.01696 211
73.03707 216
73.05719 204
73.0773 218
73.09741 225
73.11753 209
73.13764 243
73.15776 232
73.17787 216
73.19798 224
73.2181 229
73.23821 248
73.25832 237
73.27844 250
73.29855 308
73.31867 330
73.33878 357
73.35889 362
73.37901 426
73.39912 481
73.41923 493
73.43935 483
73.45946 451
73.47957 433
73.49969 384
73.5198 317
73.53992 296
73.56003 307
73.58014 276
73.60026 311
73.62037 352
73.64048 339
73.6606 333
73.68071 329
73.70083 290
73.72094 229
73.74105 255
73.76117 195
73.78128 214
73.80139 191
73.82151 188
73.84162 182
73.86174 182
73.88185 195
73.90196 195
73.92208 163
73.94219 186
73.9623 174
73.98242 188
74.00253 178
74.02264 182
74.04276 175
74.06287 182
74.08299 200
74.1031 176
74.12321 186
74.14333 153
74.16344 175
74.18355 167
74.20367 165
74.22378 165
74.2439 158
74.26401 190
74.28412 175
74.30424 163
74.32435 147
74.34446 162
74.36458 167
74.38469 192
74.40481 192
74.42492 161
74.44503 218
74.46515 195
74.48526 168
74.50537 203
74.52549 203
74.5456 200
74.56571 187
74.58583 192
74.60594 172
74.62606 188
74.64617 201
74.66628 173
74.6864 199
74.70651 189
74.72662 182
74.74674 182
74.76685 210
74.78697 183
74.80708 182
74.82719 193
74.84731 188
74.86742 206
74.88753 175
74.90765 171
74.92776 187
74.94787 189
74.96799 200
74.9881 181
75.00822 175
