3.00117 19777.1746959615
3.02128 19658.1222901309
3.0414 19271
3.06151 18216.7202807158
3.08162 18180.8903873693
3.10174 17668.7264535452
3.12185 17114.3082342206
3.14197 16531.9918475751
3.16208 15973.2345760187
3.18219 15770.3367956483
3.20231 14830.7609888341
3.22242 14815.7397888966
3.24253 14093.9791556774
3.26265 13768.6483291311
3.28276 13507.0189892727
3.30288 12954.2497863929
3.32299 12899.1523725903
3.3431 12254
3.36322 11893.7852672492
3.38333 11598.2851259695
3.40344 11059.2612155432
3.42356 10807.8093973151
3.44367 10202.8514190746
3.46379 9909.00316511527
3.4839 9930
3.50401 9449.75805856062
3.52413 9122.62054960602
3.54424 8812.18804235908
3.56435 8400.69080938089
3.58447 8167.61797706442
3.60458 7687.20295677636
3.62469 7713.06649223704
3.64481 7284.76773831973
3.66492 7014.90835244089
3.68504 6936.58499870699
3.70515 6595.17315078101
3.72526 6353.41796634802
3.74538 6065.41418407562
3.76549 5682.0683649253
3.7856 5686
3.80572 5331.77604055393
3.82583 5271.7482373722
3.84595 4926.21278926624
3.86606 4776.1009327843
3.88617 4679.33080417724
3.90629 4415.07199790093
3.9264 4332
3.94651 3956.86754434814
3.96663 3871.88979001303
3.98674 3687.5100484303
4.00686 3484.20480828917
4.02697 3444.1065852837
4.04708 3282.21589785859
4.0672 3154
4.08731 3248.92009024373
4.10742 2900.81425586381
4.12754 2933.92707936466
4.14765 2696.69420494342
4.16776 2566.89305289456
4.18788 2659.04834559878
4.20799 2479.06103149343
4.22811 2463.9771267772
4.24822 2302.77921214975
4.26833 2166.05944998608
4.28845 2279.98602419636
4.30856 2130.24808897465
4.32867 2113.98918395108
4.34879 2056.06283667823
4.3689 1939
4.38902 1973.98746509301
4.40913 1912.9982423302
4.42924 1949.89197005513
4.44936 1831.05335603764
4.46947 1894.00826457415
4.48958 1790.07297123692
4.5097 1768
4.52981 1643.97658538386
4.54992 1679.00090938744
4.57004 1614.91267260298
4.59015 1633.90161962437
4.61027 1633.08979672618
4.63038 1532.10388836868
4.65049 1495.96681183082
4.67061 1562.96523984876
4.69072 1433.02339822805
4.71083 1577.02772575055
4.73095 1425.70126114282
4.75106 1421.01055987425
4.77118 1393.95408554271
4.79129 1477.00576869838
4.8114 1354
4.83152 1298.95580962891
4.85163 1264.04048556383
4.87174 1343.13612970369
4.89186 1341.13857607835
4.91197 1248.1117589964
4.93209 1210.01197712704
4.9522 1194
4.97231 1201.98190103143
4.99243 1134.93934634771
5.01254 1143.0444645605
5.03265 1149.01676150337
5.05277 1125.07376813279
5.07288 1061.0590680442
5.09299 1048.97075287227
5.11311 1128.01240861995
5.13322 1062.88371388807
5.15334 978.991365395064
5.17345 1022.02970117737
5.19356 995.985141182213
5.21368 1012.07146172795
5.23379 907.99194066702
5.2539 1025
5.27402 954.942440461841
5.29413 967.018177126736
5.31425 948.977553859171
5.33436 956.017829944978
5.35447 926.035865496484
5.37459 919.002992493452
5.3947 912
5.41481 921.995383225776
5.43493 881.91187055891
5.45504 841.00505201098
5.47516 865.998299365199
5.49527 838.022482978205
5.51538 854.973903690639
5.5355 851
5.55561 800.006136814155
5.57572 840.971758331235
5.59584 765.997970656709
5.61595 850.845929214156
5.63606 828.121332534865
5.65618 773.051543478171
5.67629 743.991979167525
5.69641 782.007036997266
5.71652 748.942414225664
5.73663 708.997602086642
5.75675 750.168344212119
5.77686 807.945694052687
5.79697 791.081293909914
5.81709 721.034897173906
5.8372 697
5.85732 767.998756852189
5.87743 704.963437598774
5.89754 750.09107785594
5.91766 748.05874913251
5.93777 715.048910998751
5.95788 690.013354777405
5.978 685
5.99811 684.004904649387
6.01823 697.000257384349
6.03834 698.062505405968
6.05845 742.970508992124
6.07857 709.068684726095
6.09868 688.989797853977
6.11879 718.98266607447
6.13891 729.986737343861
6.15902 702.020688020549
6.17913 758.041377179126
6.19925 732.902812406701
6.21936 710.030082682668
6.23948 695.013991499166
6.25959 692.98988035428
6.2797 725
6.29982 703.922430287529
6.31993 639.04654541169
6.34004 723.021529291894
6.36016 642.129006276218
6.38027 657.919502995323
6.40039 703.98264485856
6.4205 720
6.44061 694.984008165541
6.46073 686.050906716518
6.48084 731.007772508606
6.50095 692.078299521535
6.52107 691.992326871044
6.54118 683.016024396368
6.56129 687.97647892344
6.58141 726.979499115123
6.60152 633.955585424094
6.62164 664.061938507149
6.64175 652.94218193343
6.66186 650.954695657275
6.68198 687.963000453064
6.70209 708.99875338576
6.7222 686
6.74232 643.012151833738
6.76243 693.038165340273
6.78255 665.885882518623
6.80266 635.031233365619
6.82277 648.913404626183
6.84289 702.007808297818
6.863 639
6.88311 687.035325098664
6.90323 713.949075006448
6.92334 678.076209322517
6.94346 752.010836782447
6.96357 666.079040011676
6.98368 688.972290008656
7.0038 677
7.02391 657.990440634908
7.04402 648.015201719525
7.06414 667.976375186739
7.08425 641.964680859096
7.10436 693.934304732429
7.12448 694.986997911147
7.14459 714.012589876324
7.16471 658.990217782483
7.18482 675.990160506257
7.20493 635.985137176422
7.22505 667.057281566316
7.24516 656.044095542884
7.26527 651.969333809478
7.28539 681.991153729835
7.3055 667
7.32562 643.051702771582
7.34573 727.028472146738
7.36584 659.844826814214
7.38596 632.977863165498
7.40607 652.980644404544
7.42618 655.993955320268
7.4463 665
7.46641 655.999558133114
7.48653 671.034175712705
7.50664 691.02844090877
7.52675 686.086851842164
7.54687 647.009668687029
7.56698 666.996444350459
7.58709 649.00085066794
7.60721 673.010548100631
7.62732 658.947035928418
7.64743 618.039865638372
7.66755 675.994286196581
7.68766 625.987391804644
7.70778 707.927424014155
7.72789 707.027372796897
7.748 654
7.76812 657.966910680737
7.78823 613.036677506246
7.80834 685.032736510279
7.82846 642.006481343151
7.84857 696.951278363975
7.86869 680.006470985395
7.8888 696
7.90891 690.990191412373
7.92903 684.03955746107
7.94914 717.989751298362
7.96925 674.088460640368
7.98937 681.940933036827
8.00948 707.023791747797
8.0296 656
8.04971 668.998248487128
8.06982 661.050446278646
8.08994 728.961785001371
8.11005 639.905825809031
8.13016 696.851981974146
8.15028 722.01380414503
8.17039 691.018237456235
8.1905 682
8.21062 716.952655853643
8.23073 624.967830405353
8.25085 697.185374400257
8.27096 706.067235836005
8.29107 666.048808561123
8.31119 655.992788637498
8.3313 672
8.35141 653.002968700489
8.37153 688.04710696479
8.39164 688.951368951374
8.41176 668.981565120661
8.43187 687.027460279907
8.45198 643.013309588213
8.4721 678
8.49221 688.986344250576
8.51232 654.996112961005
8.53244 681.038271259195
8.55255 664.113870096266
8.57266 629.978131073923
8.59278 672.971831144375
8.61289 666.008034007884
8.63301 663.003141149388
8.65312 659.972992349229
8.67323 635.027209754209
8.69335 686.080872570705
8.71346 677.044555267195
8.73357 677.950892445689
8.75369 715.996247636196
8.7738 686
8.79392 659.98058863224
8.81403 658.049421378886
8.83414 712.086146481266
8.85426 711.093938439362
8.87437 655.03806344333
8.89448 668.977199897891
8.9146 675
8.93471 673.00687064766
8.95483 678.944582350246
8.97494 636.046829291192
8.99505 688.074620362994
9.01517 596.034901760758
9.03528 670.928432064488
9.05539 692.986681804385
9.07551 723.990014288545
9.09562 655.942629663327
9.11573 651.04768860643
9.13585 687.057142390228
9.15596 686.037642916867
9.17608 669.998373751869
9.19619 679.00433137331
9.2163 660
9.23642 677.99272775586
9.25653 656.020687670181
9.27664 702.048088863766
9.29676 683.058463757949
9.31687 677.968103216852
9.33699 703.996665715337
9.3571 681
9.37721 649.993967350283
9.39733 659.032392133946
9.41744 683.048460877274
9.43755 698.005642697877
9.45767 674.063220290254
9.47778 635.017103679923
9.4979 657
9.51801 712.00407912059
9.53812 690.006106554469
9.55824 726.018681414115
9.57835 716.084593005615
9.59846 770.0269498596
9.61858 685.072645488769
9.63869 667.00173239923
9.6588 673
9.67892 732.997797679923
9.69903 670.927699589458
9.71915 690.167751268837
9.73926 734.064531468149
9.75937 653.073273618677
9.77949 657.001284344942
9.7996 646
9.81971 705.998013244385
9.83983 646.970883882353
9.85994 708.176512520957
9.88006 755.023298596104
9.90017 724.987364949611
9.92028 734.084960904299
9.9404 610
9.96051 700.014281740807
9.98062 637.980312997227
10.00074 681.993444797998
10.02085 622.036833920359
10.04097 673.942517314949
10.06108 657.033903141443
10.08119 652.98268223766
10.10131 708.023733681506
10.12142 713.957437118656
10.14153 657.960098478347
10.16165 661.984969285855
10.18176 644.976367488919
10.20187 674.008071479175
10.22199 651.984541127355
10.2421 711
10.26222 646.986080205444
10.28233 705.069302380557
10.30244 699.973964674298
10.32256 707.97063113444
10.34267 703.055088360096
10.36278 669.9810369523
10.3829 713
10.40301 659.994790060912
10.42313 708.054743073545
10.44324 700.972939276868
10.46335 685.126642246445
10.48347 640.94382190364
10.50358 737.941570497229
10.52369 717.022007634204
10.54381 684.979738438822
10.56392 658.030012659821
10.58403 721.042249769082
10.60415 695.925889609456
10.62426 694.974241437078
10.64438 697.018731874713
10.66449 676.995794043841
10.6846 698
10.70472 673.027797459902
10.72483 739.035251196186
10.74494 692.8747224538
10.76506 662.004925485117
10.78517 672.980114139641
10.80529 677.002890696106
10.8254 665
10.84551 662.008469919699
10.86563 681.995425577162
10.88574 667.020060391457
10.90585 699.958948937016
10.92597 675.077854711639
10.94608 642.978828169693
10.9662 691
10.98631 667.997395326999
11.00642 689.000291536903
11.02654 674.043797195964
11.04665 727.929661725858
11.06676 689.179613151987
11.08688 626.970069361526
11.10699 712.979375019928
11.1271 678
11.14722 685.045503790937
11.16733 723.996782356765
11.18745 685.914368962743
11.20756 674.019570771429
11.22767 665.979049144799
11.24779 685.006714060929
11.2679 660
11.28801 705.994219286887
11.30813 642.960246027461
11.32824 664.991299890763
11.34836 636.947939292262
11.36847 706.961566394817
11.38858 668.035527291672
11.4087 668
11.42881 662.008819673908
11.44892 705.039982133034
11.46904 712.94901218334
11.48915 680.030995515011
11.50927 687.003430808682
11.52938 667.017174802543
11.54949 668.991392894382
11.56961 686.002488608786
11.58972 682.001650497286
11.60983 703.058892456673
11.62995 732.983772737889
11.65006 695.073936788806
11.67017 686.97400948415
11.69029 715.984921449113
11.7104 731
11.73052 716.999373319095
11.75063 723.982458666955
11.77074 686.915291242237
11.79086 663.995476362567
11.81097 686.949625542623
11.83108 707.008258602513
11.8512 698
11.87131 753.007870434983
11.89143 725.982106895233
11.91154 748.03469023451
11.93165 748.972300904449
11.95177 761.034550084546
11.97188 729.975448375013
11.99199 804.972076406434
12.01211 802.985013584104
12.03222 782.998446129777
12.05234 795.02477857467
12.07245 792.954322553614
12.09256 786.926712506084
12.11268 855.940367540994
12.13279 877.003227379349
12.1529 874
12.17302 900.998042279008
12.19313 875.990451913278
12.21324 901.05532226868
12.23336 910.005794520312
12.25347 925.912570095508
12.27359 993.98991789974
12.2937 965
12.31381 963.989985854918
12.33393 949.082275152007
12.35404 1037.03794292219
12.37415 954.287444105817
12.39427 892.982501485573
12.41438 938.977012733056
12.4345 901
12.45461 838.998422222641
12.47472 871.002727245804
12.49484 836.972213815129
12.51495 843.076152718
12.53506 781.062175359074
12.55518 792.994891111011
12.57529 777.000636016245
12.5954 789
12.61552 755.986639278445
12.63563 785.08063395937
12.65575 810.90593699395
12.67586 736.098133542809
12.69597 735.984014478095
12.71609 716.026626592124
12.7362 672
12.75631 720.009734196956
12.77643 690.950941659294
12.79654 700.103871498245
12.81666 740.05784161916
12.83677 686.963185875184
12.85688 759.013135980244
12.877 664
12.89711 722.031549367324
12.91722 729.984514832807
12.93734 725.015633322805
12.95745 730.039267527395
12.97757 695.051635393333
12.99768 682.986947509104
13.01779 698.004472941155
13.03791 673.997981902598
13.05802 699.028186798358
13.07813 719.038377638149
13.09825 723.859859134341
13.11836 652.002152838262
13.13847 713.953430893242
13.15859 690.004643119012
13.1787 705
13.19882 658.999817944891
13.21893 707.041666452011
13.23904 684.932654258325
13.25916 670.006746830352
13.27927 672.982613909772
13.29938 683.004230071699
13.3195 663
13.33961 640.988302385482
13.35973 633.042801292113
13.37984 667.980009611327
13.39995 631.978722168291
13.42007 692.924307749117
13.44018 697.016183993925
13.46029 688.000285726359
13.48041 691.000265068718
13.50052 679.974531298326
13.52064 652.975798408778
13.54075 661.043449880019
13.56086 663.054913709662
13.58098 641.964278571149
13.60109 711.984721470591
13.6212 692
13.64132 694.952958027169
13.66143 614.949958971559
13.68154 661.159205632265
13.70166 715.968232522179
13.72177 709.996411686159
13.74189 719.008297760034
13.762 676
13.78211 670.010073874224
13.80223 677.944124330785
13.82234 615.934737640707
13.84245 636.886956432462
13.86257 665.003045130967
13.88268 664.953340296868
13.9028 739
13.92291 693.947925521527
13.94302 619.022488239693
13.96314 698.052906873591
13.98325 669.940880544184
14.00336 724.087336753267
14.02348 605.041829106163
14.04359 676.964857217035
14.06371 674.984827013343
14.08382 646.961611279872
14.10393 629.069994975602
14.12405 701.033003326449
14.14416 652.061641626779
14.16427 668.977918721275
14.18439 656.00800793344
14.2045 674
14.22461 729.98980872519
14.24473 659.963036889329
14.26484 692.012122208713
14.28496 649.064110314719
14.30507 660.955228277536
14.32518 677.003819317184
14.3453 648
14.36541 612.011457543289
14.38552 677.04829420379
14.40564 675.949416062546
14.42575 666.942583308639
14.44587 698.001345863605
14.46598 669.013158053311
14.48609 680.998662330767
14.50621 656.983333665941
14.52632 652.044194471906
14.54643 696.964050870472
14.56655 632.986470389455
14.58666 680.009904663508
14.60677 621.016004587918
14.62689 684.968995447516
14.647 688
14.66712 648.980350355291
14.68723 663.062396383302
14.70734 686.933337875626
14.72746 622.060306058569
14.74757 659.889280888525
14.76768 705.017465078017
14.7878 654
14.80791 676.008460886935
14.82803 673.01572272454
14.84814 688.960112385744
14.86825 653.968341992325
14.88837 692.032576039228
14.90848 612.050692834747
14.92859 640.963999239132
14.94871 695.005142545014
14.96882 663.955388568821
14.98894 645.038052574898
15.00905 685.078777225394
15.02916 693.003995757558
15.04928 671.065465491127
15.06939 616.981414980925
15.0895 710
15.10962 664.974417301524
15.12973 681.979184486324
15.14984 648.060266428735
15.16996 719.987326323808
15.19007 643.106212714843
15.21019 635.987036737963
15.2303 668
15.25041 697.996389616038
15.27053 667.980889088471
15.29064 673.973470676386
15.31075 655.925223225132
15.33087 719.95389042191
15.35098 692.045084908435
15.3711 664
15.39121 649.994867203176
15.41132 655.031753344016
15.43144 690.005351328435
15.45155 667.016502032605
15.47166 681.006220255121
15.49178 667.977762498632
15.51189 716.989273638508
15.53201 684.971390366718
15.55212 640.980639143393
15.57223 652.054491098521
15.59235 678.968672927474
15.61246 647.996327333601
15.63257 677.000926234766
15.65269 645.004006561188
15.6728 669
15.69291 646.989458289535
15.71303 655.050819603354
15.73314 682.986105249364
15.75326 666.940771705492
15.77337 716.019463051184
15.79348 639.060736037359
15.8136 631
15.83371 639.026297566444
15.85382 706.011520336567
15.87394 675.017147847745
15.89405 719.017713127253
15.91417 653.068676075659
15.93428 659.986106531309
15.95439 658.995944031341
15.97451 683.011139411066
15.99462 688.992259846588
16.01473 671.9636766615
16.03485 661.052756934056
16.05496 689.01891880227
16.07508 646.028150520264
16.09519 655.988264120898
16.1153 662
16.13542 648.024788470731
16.15553 692.012858149318
16.17564 658.946813073571
16.19576 666.953815263674
16.21587 680.004583292269
16.23598 654.04951268499
16.2561 632
16.27621 717.002846462148
16.29633 638.909970992876
16.31644 665.159635106661
16.33655 717.066562648034
16.35667 641.067819457861
16.37678 659.96298173921
16.39689 678.99474061189
16.41701 683.996281922024
16.43712 669.99234012012
16.45724 678.040497901301
16.47735 693.995797553261
16.49746 669.080282289037
16.51758 639.001663565358
16.53769 663.984146018869
16.5578 680
16.57792 679.024325391137
16.59803 698.943366519192
16.61814 641.025946052614
16.63826 719.904106446308
16.65837 684.115315629124
16.67849 648.976098890865
16.6986 725
16.71871 664.984361964674
16.73883 682.98802890501
16.75894 652.04823449502
16.77905 709.027647243549
16.79917 623.099547548216
16.81928 650.896928178196
16.8394 732
16.85951 641.976926161789
16.87962 676.038607662873
16.89974 682.022003962239
16.91985 701.020149340007
16.93996 666.05300173048
16.96008 679.948849455437
16.98019 713.018981862762
17.00031 630.977352447272
17.02042 660.061218020642
17.04053 696.996065420973
17.06065 665.917275731372
17.08076 674.86188174698
17.10087 735.055811849347
17.12099 645.004469291253
17.1411 733
17.16121 721.985666028708
17.18133 717.000197478846
17.20144 719.038382612456
17.22156 728.087856684982
17.24167 656.047225302893
17.26178 686.952951474922
17.2819 706
17.30201 679.981040586486
17.32212 656.00996305822
17.34224 675.972366354101
17.36235 647.946543631939
17.38247 707.964484180334
17.40258 657.088844098759
17.42269 608.981856971114
17.44281 685.013481545841
17.46292 655.995930017304
17.48303 677.952862195706
17.50315 616.025284407371
17.52326 699.887370000803
17.54338 682.038824168928
17.56349 677.983292695616
17.5836 727
17.60372 736.985134990824
17.62383 711.962854805173
17.64394 703.025042098667
17.66406 719.008957361855
17.68417 686.068113667662
17.70428 659.989987485264
17.7244 682
17.74451 652.998126161096
17.76463 690.068662956849
17.78474 694.891533859632
17.80485 656.818895007238
17.82497 779.973030257884
17.84508 696.027117715296
17.86519 760.983307801211
17.88531 720.984172542125
17.90542 723.982967772245
17.92554 673.918668123361
17.94565 668.032171566996
17.96576 688.932526245135
17.98588 716.00483290212
18.00599 690.005627844222
18.0261 700
18.04622 691.006053380057
18.06633 697.951715824258
18.08645 652.015366102602
18.10656 696.990697939881
18.12667 659.006062364234
18.14679 700.988462184718
18.1669 689
18.18701 711.000807819723
18.20713 696.019690220857
18.22724 708.880040108964
18.24735 611.065645335705
18.26747 690.832576931073
18.28758 739.038203168
18.3077 660
18.32781 672.020848789542
18.34792 705.01835863924
18.36804 701.948582023417
18.38815 674.019603367248
18.40826 678.028624890673
18.42838 638.042110594811
18.44849 615.002649596148
18.46861 640.034627061054
18.48872 718.03576246143
18.50883 699.949746354465
18.52895 680.969598942748
18.54906 663.055961399949
18.56917 636.014980721904
18.58929 654.978063920071
18.6094 694
18.62951 677.997314026491
18.64963 700.047901036572
18.66974 708.940087657839
18.68986 673.979131382068
18.70997 708.021691059509
18.73008 654.011887269836
18.7502 691
18.77031 662.997429523076
18.79042 696.024649295845
18.81054 687.962035225612
18.83065 687.931777684803
18.85077 708.045731924754
18.87088 647.027351736485
18.89099 669.986881184919
18.91111 680.010458866334
18.93122 710.009542757725
18.95133 689.955899676121
18.97145 681.054011717051
18.99156 704.03039614606
19.01168 669.993756348313
19.03179 708.99752052856
19.0519 665
19.07202 662.018411722562
19.09213 677.004600342627
19.11224 683.063978247828
19.13236 718.017717676605
19.15247 677.022113838521
19.17258 702.977223905004
19.1927 695
19.21281 691.015877729057
19.23293 745.067271621474
19.25304 753.953292184698
19.27315 721.057006654937
19.29327 714.006803409239
19.31338 706.003849745624
19.33349 695.018394841541
19.35361 665.014376197936
19.37372 728.020411206144
19.39384 692.945818578378
19.41395 704.041717910426
19.43406 695.066999807388
19.45418 677.960258771454
19.47429 742.991230393797
19.4944 709
19.51452 716.973694796418
19.53463 661.972882464736
19.55475 702.13570805912
19.57486 731.98100733639
19.59497 738.973487117602
19.61509 740.028189853281
19.6352 669
19.65531 731.016656133001
19.67543 730.074636003165
19.69554 811.013718922506
19.71565 752.028438243134
19.73577 803.973497148387
19.75588 778.978450498187
19.776 867
19.79611 883.978160855401
19.81622 841.013253796638
19.83634 899.071356539451
19.85645 893.002338322344
19.87656 898.0701879294
19.89668 848.989606057718
19.91679 917.973544755086
19.93691 922.999462266879
19.95702 913.93947226399
19.97713 843.006386950071
19.99725 902.020367041934
20.01736 828.162380498897
20.03747 813.918495197211
20.05759 873.99966373769
20.0777 834
20.09782 892.041767855172
20.11793 880.955132136919
20.13804 874.048457654114
20.15816 897.03855817266
20.17827 846.046225266719
20.19838 851.992010742189
20.2185 849
20.23861 871.008696780881
20.25872 863.967290488285
20.27884 831.994040447692
20.29895 877.785493436194
20.31907 925.094611748691
20.33918 827.982018356451
20.35929 943.97639708363
20.37941 870.960905586632
20.39952 856.003168193879
20.41963 856.031129036338
20.43975 893.06101589656
20.45986 878.105098785153
20.47998 846.951431002922
20.50009 944.971068758955
20.5202 930
20.54032 916.987157178399
20.56043 891.955007323927
20.58054 882.056900102854
20.60066 918.012746089792
20.62077 889.969103281427
20.64088 931.037562028471
20.661 842
20.68111 912.016683595626
20.70123 895.056662033273
20.72134 1014.24146743848
20.74145 1102.75312943382
20.76157 1226.82238208857
20.78168 1347.84105564087
20.80179 1532.92048340455
20.82191 1626.017412077
20.84202 1630.99415573768
20.86214 1604.85144481634
20.88225 1462.50185290709
20.90236 1272.24107801523
20.92248 1212.06544302954
20.94259 1101.06405337149
20.9627 1000
20.98282 968.95367014751
21.00293 922.011009918847
21.02305 962.998408884679
21.04316 923.997789043091
21.06327 961.014437416367
21.08339 918.988538623066
21.1035 995
21.12361 944.988741073484
21.14373 985.061620302016
21.16384 1000.04432457075
21.18395 1021.0558360868
21.20407 981.979816995863
21.22418 1031.99902944137
21.2443 998
21.26441 1079.00813476388
21.28452 1026.99051005249
21.30464 1075.02000791381
21.32475 1039.97942403287
21.34486 1096.95483100119
21.36498 1058.04428243396
21.38509 1031.02120663598
21.40521 992.008510385916
21.42532 1041.00429992063
21.44543 970.85404304907
21.46555 919.052446128601
21.48566 985.884355774798
21.50577 981.10148367259
21.52589 899.023221341497
21.546 901
21.56612 913.030043036799
21.58623 938.968100780675
21.60634 884.942209576982
21.62646 885.048167895352
21.64657 829.062445105424
21.66668 832.964840011433
21.6868 861
21.70691 841.00165532788
21.72702 879.044235692789
21.74714 896.973569267449
21.76725 860.119188474734
21.78737 822.029301972153
21.80748 835.946037476898
21.82759 875.019131612423
21.84771 798.994477762685
21.86782 855.0230083243
21.88793 814.949663128721
21.90805 820.017443603476
21.92816 810.018449377194
21.94828 813.987984238899
21.96839 814.013462585449
21.9885 764
22.00862 755.064882519314
22.02873 848.067396652486
22.04884 816.879746041163
22.06896 782.002268919493
22.08907 794.00524741528
22.10919 770.010263438628
22.1293 782
22.14941 825.994219421555
22.16953 795.052906773229
22.18964 858.93880602867
22.20975 743.168144879826
22.22987 772.934886670951
22.24998 784.981080533448
22.27009 795.026716577568
22.29021 732.018448544879
22.31032 848.064347034091
22.33044 800.822248701911
22.35055 754.026935509562
22.37066 792.956284662203
22.39078 786.002932435568
22.41089 794.003573373139
22.431 776
22.45112 792.997272698687
22.47123 775.009132025894
22.49135 801.006031781689
22.51146 780.995799679275
22.53157 814.953549026321
22.55169 796.040532203175
22.5718 709
22.59191 756.026682031916
22.61203 771.996122873742
22.63214 773.015430917203
22.65225 791.922150023653
22.67237 800.077794029896
22.69248 727.017306481288
22.7126 765
22.73271 738.994051705484
22.75282 766.034455226951
22.77294 779.992751858275
22.79305 772.997684653061
22.81316 776.023953825634
22.83328 761.985704802824
22.85339 784.010722590296
22.87351 736.99852211532
22.89362 767.985655041117
22.91373 713.987152250937
22.93385 746.965587017266
22.95396 697.968416096066
22.97407 776.93960667939
22.99419 750.010574234908
23.0143 752
23.03442 714.03477067616
23.05453 784.984971025418
23.07464 719.039317143663
23.09476 810.983027774106
23.11487 712.112402038778
23.13498 742.912189093241
23.1551 799
23.17521 739.985379376079
23.19532 759.014576667084
23.21544 755.031299225466
23.23555 782.021497834568
23.25567 726.101599173738
23.27578 714.920526858311
23.29589 814.9924615395
23.31601 743.973549375499
23.33612 756.020696343004
23.35623 742.950489890218
23.37635 739.151868015811
23.39646 812.008555466358
23.41658 733.061993914872
23.43669 742.976908443407
23.4568 771
23.47692 751.015432910736
23.49703 780.966517484475
23.51714 715.937934953875
23.53726 746.910565180129
23.55737 779.935471134398
23.57749 811.012912285532
23.5976 749
23.61771 773.020425582959
23.63783 778.937177582783
23.65794 737.038162473814
23.67805 806.878492688789
23.69817 790.083405829077
23.71828 737.034874611283
23.73839 745.968193162091
23.75851 813.003530808226
23.77862 773.991552253502
23.79874 828.143632691246
23.81885 851.884220668716
23.83896 767.136100672093
23.85908 773.913587548135
23.87919 870.983778749505
23.8993 828
23.91942 824.046565761298
23.93953 889.076131945326
23.95965 887.852696013185
23.97976 831.970093688946
23.99987 893.973777488709
24.01999 845.022788044991
24.0401 862
24.06021 933.015377425181
24.08033 917.96199421336
24.10044 916.039992503018
24.12056 931.031707622435
24.14067 905.979859665299
24.16078 927.050045151095
24.1809 840
24.20101 933.053622686882
24.22112 960.941769867782
24.24124 898.042267925241
24.26135 956.102724919508
24.28146 832.10717545601
24.30158 877.978434000437
24.32169 845.99540354906
24.34181 889.98863866651
24.36192 810.976985733407
24.38203 861.04293242623
24.40215 822.859759225222
24.42226 795.001820516174
24.44237 812.954564082362
24.46249 835.998966536374
24.4826 815
24.50272 809.047548914853
24.52283 865.992040069322
24.54294 815.988244941376
24.56306 876.877850237496
24.58317 890.026927657207
24.60328 870.009973133073
24.6234 875
24.64351 891.010316604588
24.66362 900.982045239711
24.68374 875.006760747894
24.70385 915.877980674685
24.72397 936.0252388508
24.74408 900.028978976437
24.76419 917.960545082821
24.78431 999.004303753458
24.80442 941.958069336408
24.82453 953.033091053235
24.84465 955.988500459747
24.86476 972.888697098319
24.88488 1021.02424923365
24.90499 945.020932593307
24.9251 962
24.94522 946.985849319668
24.96533 943.981195360285
24.98544 924.997116234722
25.00556 927.064503302865
25.02567 880.005645615294
25.04579 904.010874292062
25.0659 846
25.08601 884.002320800042
25.10613 843.979039497866
25.12624 855.935920076768
25.14635 803.942784955511
25.16647 894.914766313264
25.18658 887.999121265259
25.20669 923.986928847994
25.22681 893.956230992561
25.24692 813.995702126357
25.26704 872.078798550599
25.28715 859.958695636596
25.30726 877.911381479665
25.32738 883.092120814426
25.34749 757.0182723108
25.3676 833
25.38772 846.949923010042
25.40783 778.925303180584
25.42795 773.071751803879
25.44806 822.868437317482
25.46817 846.111599412155
25.48829 732.019516873119
25.5084 769
25.52851 705.979616513133
25.54863 741.118771198268
25.56874 779.889555051584
25.58886 704.931066613401
25.60897 815.96205301454
25.62908 740.030371121363
25.6492 796
25.66931 772.992179830565
25.68942 788.002680821741
25.70954 763.955858016511
25.72965 750.068749112053
25.74976 737.890668047519
25.76988 823.970975964917
25.78999 788.010608410401
25.81011 798.990563528083
25.83022 760.013020112931
25.85033 817.031195559826
25.87045 779.907675610008
25.89056 766.049815777057
25.91067 759.884314946522
25.93079 862.997357364801
25.9509 779
25.97102 815.016749876122
25.99113 788.001330435
26.01124 817.977826732969
26.03136 745.168153075305
26.05147 719.916824218507
26.07158 803.962169818798
26.0917 786
26.11181 818.020898744321
26.13193 839.000568018332
26.15204 836.020696706034
26.17215 842.081663895767
26.19227 784.052025423313
26.21238 811.918440255311
26.23249 883.996636808039
26.25261 835.981704275941
26.27272 852.044333535144
26.29283 892.039665335583
26.31295 889.90773781727
26.33306 863.924975535152
26.35318 942.954888946126
26.37329 931.008889225526
26.3934 941
26.41352 966.042063115023
26.43363 1029.11175900325
26.45374 1129.29332927855
26.47386 1316.60798344875
26.49397 1556.48387824705
26.51409 2030.72098831721
26.5342 2650
26.55431 3373.35160491186
26.57443 3983.71959345667
26.59454 4355.61643103968
26.61465 4557.00422066835
26.63477 4332.55733351176
26.65488 3862.58540015429
26.67499 3190.34757348765
26.69511 2545.71887999164
26.71522 2043.52338396198
26.73534 1595.26623686443
26.75545 1315.43007189827
26.77556 1120.27813713339
26.79568 1026.07870880846
26.81579 947.031309207735
26.8359 915
26.85602 921.996780771353
26.87613 901.96426314815
26.89625 884.970252013839
26.91636 869.053571204573
26.93647 849.977841112225
26.95659 861.028220122775
26.9767 786
26.99681 868.999905760613
27.01693 771.907963512109
27.03704 788.009015820426
27.05716 746.067674881725
27.07727 743.004802042382
27.09738 730.001087862342
27.1175 749
27.13761 767.004995508456
27.15772 757.961468270115
27.17784 720.007674525767
27.19795 756.949949638299
27.21806 743.030755716921
27.23818 747.985455273232
27.25829 757.000529926062
27.27841 720.954545053363
27.29852 655.060304181537
27.31863 792.093243320316
27.33875 746.912190418726
27.35886 769.974464250763
27.37897 747.023725033093
27.39909 764.98228439763
27.4192 791
27.43932 777.981949429295
27.45943 764.983894709964
27.47954 764.038543229511
27.49966 773.084658099746
27.51977 702.052465038122
27.53988 730.943540887521
27.56 767
27.58011 734.971631135381
27.60023 707.067403066273
27.62034 780.023429418629
27.64045 719.138865239219
27.66057 713.979491063715
27.68068 715.011198784249
27.70079 700.005304201385
27.72091 703.008903291548
27.74102 736.046883480369
27.76113 781.041260227722
27.78125 772.883132438192
27.80136 727.996993810922
27.82148 764.982778522824
27.84159 749.003804895734
27.8617 788
27.88182 829.921779619345
27.90193 686.893580201163
27.92204 729.122800607243
27.94216 739.038951519742
27.96227 706.078581870335
27.98239 675.97946163647
28.0025 758
28.02261 730.975315953378
28.04273 704.994356935072
28.06284 704.973760935776
28.08295 700.889787680291
28.10307 770.949736982917
28.12318 735.076247493113
28.1433 689
28.16341 771.038048893544
28.18352 790.973020788576
28.20364 745.914106315224
28.22375 725.004857580286
28.24386 723.066355024367
28.26398 686.982512708279
28.28409 754.970766991222
28.3042 762
28.32432 728.973747404663
28.34443 708.96143735699
28.36455 674.919580726119
28.38466 680.858883552518
28.40477 759.994643404504
28.42489 694.022663558896
28.445 718
28.46511 753.005924708303
28.48523 730.908355098639
28.50534 672.987296712448
28.52546 720.887511520589
28.54557 746.001631865806
28.56568 738.000970833381
28.5858 753
28.60591 763.987637611336
28.62602 710.947627626651
28.64614 698.074813603607
28.66625 760.871513090422
28.68636 759.122684328689
28.70648 690.017435950361
28.72659 728.979373504873
28.74671 726.981425531932
28.76682 687.984975212272
28.78693 697.011758277033
28.80705 716.168390966435
28.82716 784.035690146841
28.84727 702.057415747382
28.86739 748.967029773733
28.8875 764
28.90762 709.979912169862
28.92773 732.038458350077
28.94784 722.912285691237
28.96796 689.950912441967
28.98807 741.995955544134
29.00818 700.005052503261
29.0283 758
29.04841 769.976944322041
29.06853 712.977709167016
29.08864 739.026831453724
29.10875 700.1925641197
29.12887 642.987214004316
29.14898 707.933734648328
29.16909 716.027797503407
29.18921 663.011024478117
29.20932 740.039238328844
29.22943 699.896553428861
29.24955 667.047176805479
29.26966 714.923987350415
29.28978 718.019049066542
29.30989 702.998757366015
29.33 709
29.35012 707.080827069765
29.37023 806.980907338228
29.39034 691.848736298456
29.41046 721.877327014546
29.43057 755.967952809582
29.45069 777.98978025375
29.4708 774
29.49091 697.969168166741
29.51103 688.059256453719
29.53114 737.040480642097
29.55125 725.025140593218
29.57137 737.965736316095
29.59148 752.997784770325
29.6116 735
29.63171 692.990528928987
29.65182 699.008964508125
29.67194 701.013892573605
29.69205 719.057663110604
29.71216 735.989833262092
29.73228 736.989891146825
29.75239 759.986964163754
29.7725 759
29.79262 696.980902812413
29.81273 725.03590642853
29.83285 715.949650266275
29.85296 692.082994064426
29.87307 677.890571691012
29.89319 784.986707476115
29.9133 722
29.93341 734.006188054364
29.95353 709.943531002845
29.97364 685.989989502396
29.99376 709.885358810515
30.01387 757.018894588245
30.03398 705.02138901074
30.0541 727
30.07421 723.020806989901
30.09432 781.989409740632
30.11444 703.887362421683
30.13455 715.902800229008
30.15467 744.965050444799
30.17478 757.009616629377
30.19489 733.010268100119
30.21501 734.011552991645
30.23512 753.990778898971
30.25523 730.002593356033
30.27535 750.983761781898
30.29546 721.999254146173
30.31557 748.00572824092
30.33569 705.017761819334
30.3558 698
30.37592 700.033909432797
30.39603 758.070427189244
30.41614 750.860338981971
30.43626 679.999952646092
30.45637 736.95709944928
30.47648 723.982789919573
30.4966 762
30.51671 668.955374697311
30.53683 652.077914621789
30.55694 727.109831538773
30.57705 740.022985447509
30.59717 732.005295221552
30.61728 741.97078066874
30.63739 777.988064963021
30.65751 765.973477406457
30.67762 710.988320746776
30.69773 727.979782720474
30.71785 681.946953895287
30.73796 714.881340591541
30.75808 757.989471011736
30.77819 734.022266541594
30.7983 697
30.81842 725.075421474108
30.83853 783.958626932845
30.85864 700.925357528951
30.87876 728.97467219115
30.89887 705.997565442572
30.91899 737.996283187773
30.9391 699
30.95921 689.027634620012
30.97933 767.051214232317
30.99944 721.812044234688
31.01955 647.039482623759
31.03967 687.9155758668
31.05978 739.931853306161
31.0799 780
31.10001 683.991081800339
31.12012 754.048348550088
31.14024 723.886950925673
31.16035 704.92112397512
31.18046 759.924167999014
31.20058 758.02470433209
31.22069 729.015749932744
31.2408 704
31.26092 705.001778095598
31.28103 699.987084304865
31.30115 693.999593333814
31.32126 704.951925118285
31.34137 726.996415324123
31.36149 711.007752761097
31.3816 716
31.40171 759.02576302794
31.42183 777.928014080504
31.44194 694.897969174413
31.46206 695.98504182285
31.48217 695.96355644482
31.50228 731.000360964379
31.5224 709
31.54251 765.018562942793
31.56262 746.948572436868
31.58274 713.026854541549
31.60285 754.946586860372
31.62297 740.027693328954
31.64308 738.995274544689
31.66319 741.997246212032
31.68331 739.988101914367
31.70342 714.006085394368
31.72353 748.035260792246
31.74365 732.890831260236
31.76376 684.078739250383
31.78387 687.899048175834
31.80399 761.998735209273
31.8241 717
31.84422 778.007875766802
31.86433 703.879776765391
31.88444 680.040997862179
31.90456 725.873355079452
31.92467 769.012961298063
31.94478 738.989582565513
31.9649 789
31.98501 761.976290598779
32.00513 731.989802736819
32.02524 739.012199524995
32.04535 737.999258374001
32.06547 739.010986710922
32.08558 740.962026414492
32.10569 796.985811630556
32.12581 778.981018533199
32.14592 753.995191880177
32.16604 754.971183116626
32.18615 744.081336509561
32.20626 798.969320871116
32.22638 774.004728604692
32.24649 798.998254957693
32.2666 760
32.28672 758.078103475791
32.30683 831.93034168929
32.32694 716.968998749266
32.34706 818.862147485267
32.36717 778.117911417752
32.38729 747.983158490345
32.4074 830
32.42751 882.986817714158
32.44763 817.956025866806
32.46774 829.97165542675
32.48785 795.948991320741
32.50797 850.011735321268
32.52808 785.021471081635
32.5482 830
32.56831 814.988108346123
32.58842 820.031698468696
32.60854 837.931158848615
32.62865 776.062341281597
32.64876 819.838670619282
32.66888 874.005385269984
32.68899 832.01149314538
32.7091 851
32.72922 854.977107353575
32.74933 840.045185934275
32.76945 908.152347997182
32.78956 939.952008468201
32.80967 954.030243895725
32.82979 927.989447982001
32.8499 981
32.87001 940.976372232985
32.89013 943.089305224578
32.91024 1013.04849071145
32.93036 983.073904741106
32.95047 981.953334770154
32.97058 1040.91462794032
32.9907 1096
33.01081 1028.0028335387
33.03092 1114.0637468989
33.05104 1119.02145202083
33.07115 1168.857662439
33.09127 1211.94201513356
33.11138 1245.98165970178
33.13149 1255.99029627084
33.15161 1258.97137794954
33.17172 1200.0423866252
33.19183 1302.02470753789
33.21195 1217.86170990307
33.23206 1233.00152717631
33.25217 1177.09541125144
33.27229 1128.02912671082
33.2924 1078
33.31252 1107.99403781666
33.33263 1048.90375644751
33.35274 1021.0062213528
33.37286 1021.06320993583
33.39297 978.007423852876
33.41308 1007.98773394792
33.4332 973
33.45331 958.03709177407
33.47343 1040.94757095498
33.49354 899.782892470128
33.51365 892.930747603554
33.53377 901.993541521841
33.55388 915.976251886213
33.57399 927.012348048193
33.59411 879.983852688863
33.61422 882.019677725926
33.63434 886.948833724898
33.65445 844.929872206404
33.67456 851.933407836511
33.69468 875.015562620087
33.71479 829.019746890325
33.7349 824
33.75502 848.011040302779
33.77513 847.004699898225
33.79524 842.922942414129
33.81536 799.978110642002
33.83547 834.047555443708
33.85559 749.017872440672
33.8757 784
33.89581 766.993993539058
33.91593 782.025185629266
33.93604 770.913211413126
33.95615 745.876930305475
33.97627 822.002033174753
33.99638 754.019332022068
34.0165 795
34.03661 743.999281307447
34.05672 798.017162227052
34.07684 749.900767664313
34.09695 747.919794346908
34.11706 776.995931802261
34.13718 761.998126484452
34.15729 781.997339936665
34.17741 752.975009942702
34.19752 730.039480758292
34.21763 805.071297321225
34.23775 798.939928358233
34.25786 777.069329690838
34.27797 753.956987631173
34.29809 791.019327587421
34.3182 707
34.33831 771.017828628823
34.35843 747.990703529818
34.37854 757.901080729669
34.39866 694.907923304398
34.41877 818.928424856379
34.43888 755.057016396536
34.459 761
34.47911 748.003893338069
34.49922 791.051449858865
34.51934 815.978541656199
34.53945 793.006259228366
34.55957 809.995658089803
34.57968 786.02983269525
34.59979 771.998496890556
34.61991 788.011864374502
34.64002 791.961712412982
34.66013 751.028349123175
34.68025 823.139196313379
34.70036 831.006429035499
34.72047 828.042335070071
34.74059 795.994081338041
34.7607 850
34.78082 853.975475416965
34.80093 834.005854316362
34.82104 857.036105494717
34.84116 863.973467162085
34.86127 880.99947922324
34.88138 867.005558323663
34.9015 878
34.92161 885.00390643065
34.94173 902.041341674391
34.96184 930.032601533774
34.98195 921.089737419924
35.00207 880.032713984804
35.02218 879.002402086893
35.04229 881.981306938821
35.06241 924.995006571651
35.08252 870.969563200178
35.10264 888.043028601375
35.12275 883.957427558302
35.14286 877.966612936117
35.16298 898.007909871847
35.18309 879.989480661976
35.2032 924
35.22332 882.982958778353
35.24343 900.997754727567
35.26354 867.956014884131
35.28366 894.857747421462
35.30377 950.026934862291
35.32389 895.99784929803
35.344 950
35.36411 889.987605096882
35.38423 922.022589866246
35.40434 920.107771474395
35.42445 1022.82526266834
35.44457 1032.99539448249
35.46468 1042.02538067596
35.4848 1005
35.50491 1076.0332607335
35.52502 1119.05904310466
35.54514 1173.97957273142
35.56525 1118.05236695622
35.58536 1196.67493662395
35.60548 1349.93730718812
35.62559 1311.03624304833
35.64571 1286.01817222982
35.66582 1337.00474639739
35.68593 1293.95240339547
35.70605 1318.16460062619
35.72616 1342.17619672538
35.74627 1202.08966082759
35.76639 1247.97712273588
35.7865 1213
35.80661 1131.98506285601
35.82673 1129.94342433249
35.84684 1065.96684105285
35.86696 1087.04834320736
35.88707 1022.0269556523
35.90718 1048.02077451346
35.9273 990
35.94741 1038.98518918754
35.96752 925.921302349305
35.98764 944.122616725389
36.00775 986.962180745448
36.02787 961.107209878812
36.04798 886.030427405877
36.06809 901.991601858582
36.08821 894.995057146487
36.10832 892.995926626946
36.12843 892.025851841491
36.14855 892.837589047528
36.16866 809.009531968437
36.18878 884.939308567553
36.20889 887.002548118842
36.229 897
36.24912 880.002086845366
36.26923 896.99435072863
36.28934 869.965854924461
36.30946 886.916069251073
36.32957 913.033787842756
36.34968 864.02015385352
36.3698 886
36.38991 910.034049189949
36.41003 982.992141132706
36.43014 923.988109406149
36.45025 1001.78753327654
36.47037 1045.95551371937
36.49048 1076.97962187913
36.51059 1078.00778586776
36.53071 1054.98814472668
36.55082 1026.95816961325
36.57094 988.988087620913
36.59105 1009.03067767824
36.61116 982.127282901361
36.63128 920.023051418239
36.65139 925.007249902925
36.6715 893
36.69162 921.000463891287
36.71173 887.973714446089
36.73184 904.038260166611
36.75196 895.075788392079
36.77207 855.020601596588
36.79219 890.959696042932
36.8123 950
36.83241 878.992365998618
36.85253 936.067086344113
36.87264 919.916567172123
36.89275 895.00018267691
36.91287 908.98584907439
36.93298 908.995832789642
36.9531 917
36.97321 900.990486316927
36.99332 895.012735390785
37.01344 904.960026791344
37.03355 873.988411891133
37.05366 916.925390117704
37.07378 906.058098791965
37.09389 848.005322477225
37.11401 871.99950181604
37.13412 842.999575118196
37.15423 875.017757251287
37.17435 851.949226269257
37.19446 852.99233112675
37.21457 831.086274015052
37.23469 778.997208113161
37.2548 824
37.27491 802.003258702012
37.29503 838.002435641925
37.31514 805.99715944429
37.33526 839.980351355458
37.35537 803.070410655718
37.37548 785.983285807064
37.3956 817
37.41571 808.982572892533
37.43582 778.001323963624
37.45594 792.963733666204
37.47605 766.904390775959
37.49617 843.974222962879
37.51628 778.073611668993
37.53639 768.973339841413
37.55651 821.995713573875
37.57662 758.95092882836
37.59673 783.133180041348
37.61685 870.063471688096
37.63696 823.14160078158
37.65708 780.010552842656
37.67719 792.988365771291
37.6973 793
37.71742 740.996596404294
37.73753 790.073114205907
37.75764 797.956676007077
37.77776 776.007529594764
37.79787 782.016191464967
37.81798 763.988757465469
37.8381 798
37.85821 775.985482909857
37.87833 750.943670000153
37.89844 743.16173679959
37.91855 860.896117475139
37.93867 811.067155004541
37.95878 808.020743821146
37.97889 766.003235959195
37.99901 810.026239882056
38.01912 816.948610203138
38.03924 764.031482359734
38.05935 838.129713876262
38.07946 838.005417255566
38.09958 819.098015882849
38.11969 720.977075457856
38.1398 871
38.15992 805.930202216947
38.18003 804.01530446566
38.20015 790.96029150298
38.22026 806.876098887974
38.24037 868.00338302698
38.26049 812.01871175329
38.2806 836
38.30071 857.974449798081
38.32083 779.971192322424
38.34094 838.137816801823
38.36105 854.088988166255
38.38117 813.997595102393
38.40128 862.944315352607
38.4214 888
38.44151 865.983539300335
38.46162 843.00083137665
38.48174 854.993649630027
38.50185 835.029705047955
38.52196 846.946274517497
38.54208 861.018035922002
38.56219 831.999669444278
38.58231 848.989718543807
38.60242 800.988937153583
38.62253 832.02146593962
38.64265 811.966064432181
38.66276 843.849256679896
38.68287 892.074008856582
38.70299 791.017700456632
38.7231 846
38.74321 828.967329398727
38.76333 778.007429917754
38.78344 820.038123642568
38.80356 800.030857336607
38.82367 801.021005633917
38.84378 776.000075967778
38.8639 801
38.88401 796.001595113759
38.90412 817.020917002926
38.92424 816.951441998521
38.94435 779.09202263212
38.96447 749.046535367743
38.98458 732.976455544528
39.00469 786.974971645259
39.02481 805.997070514057
39.04492 787.976346927303
39.06503 782.043350093248
39.08515 824.039160874918
39.10526 803.05769205832
39.12538 799.971869969235
39.14549 848.97327047022
39.1656 873
39.18572 822.965269302443
39.20583 831.05679922489
39.22594 866.023390622227
39.24606 834.150471519796
39.26617 774.973121754812
39.28628 850.946323157435
39.3064 857
39.32651 880.993267708355
39.34663 846.012994233808
39.36674 925.221493749366
39.38685 1002.95945714881
39.40697 986.987079984532
39.42708 1014.01799171355
39.44719 957.012969931062
39.46731 962.984684069236
39.48742 883.93036367339
39.50754 870.06369162049
39.52765 902.997872347324
39.54776 863.098105908354
39.56788 813.0711892065
39.58799 758.988288912582
39.6081 819
39.62822 756.989976630791
39.64833 807.014278976978
39.66845 747.861474634621
39.68856 732.022600514438
39.70867 733.911227253292
39.72879 813.990562071476
39.7489 759
39.76901 746.008963089403
39.78913 765.009184264189
39.80924 763.016469467149
39.82935 771.052702409634
39.84947 729.037888011435
39.86958 737.976564008765
39.8897 763
39.90981 785.994016362392
39.92992 749.976044272217
39.95004 765.090612454086
39.97015 799.027992925767
39.99026 760.031322855694
40.01038 770.01304719369
40.03049 739.99587990826
40.05061 783.00936877658
40.07072 764.99128071092
40.09083 785.033377585824
40.11095 799.052933772782
40.13106 830.940000821962
40.15117 844.010775757269
40.17129 827.006523328672
40.1914 855
40.21152 941.987304947115
40.23163 861.968466590983
40.25174 926.099407521178
40.27186 911.062852378856
40.29197 886.065148505364
40.31208 834.024559424681
40.3322 834
40.35231 831.035281115774
40.37242 928.012163922293
40.39254 838.808256375703
40.41265 798.040130182539
40.43277 785.000508846153
40.45288 812.937971294994
40.47299 849.02842238949
40.49311 748.98733865033
40.51322 816.05998213259
40.53333 800.910408831387
40.55345 774.134200428582
40.57356 846.041434489072
40.59368 752.036814754225
40.61379 809.969890800344
40.6339 809
40.65402 789.012858231403
40.67413 833.081473214816
40.69424 857.951411305404
40.71436 814.027161432815
40.73447 853.899570226023
40.75458 897.006560850208
40.7747 868
40.79481 906.013983061769
40.81493 888.923950270456
40.83504 856.051226254585
40.85515 915.928860748703
40.87527 902.003652457486
40.89538 905.051589007971
40.91549 836.992485124774
40.93561 923.022439414937
40.95572 889.963341412411
40.97584 870.893125475997
40.99595 819.095726473864
41.01606 907.978951462517
41.03618 836.030069057688
41.05629 868.004913993147
41.0764 790
41.09652 798.072228564489
41.11663 854.959359835489
41.13675 785.999785312548
41.15686 852.957110887221
41.17697 818.981232290294
41.19709 876.001662809599
41.2172 804
41.23731 826.014823355471
41.25743 816.945963559169
41.27754 781.966117166208
41.29765 796.890296539267
41.31777 813.099190118976
41.33788 717.017615608822
41.358 788
41.37811 792.999302313983
41.39822 798.977010865521
41.41834 757.977578674031
41.43845 780.964869553041
41.45856 770.018331307557
41.47868 770.01029453892
41.49879 754.99719668999
41.51891 771.996874112934
41.53902 739.974525165166
41.55913 734.996707112603
41.57925 739.078349786366
41.59936 787.930745291786
41.61947 792.018162130353
41.63959 786.994546521789
41.6597 792
41.67982 742.984085102704
41.69993 775.067164008709
41.72004 793.977867429506
41.74016 759.095765944044
41.76027 731.973180879297
41.78038 777.967268752132
41.8005 770
41.82061 749.010913970213
41.84072 782.986789489272
41.86084 725.92426487878
41.88095 732.961179304796
41.90107 737.982398599276
41.92118 743.032621171124
41.94129 710.98083964191
41.96141 796.018633844749
41.98152 762.967553519105
42.00163 758.973298036627
42.02175 737.065058302005
42.04186 787.999639671103
42.06198 739.021011588756
42.08209 759.001412141781
42.1022 717
42.12232 733.058470643794
42.14243 779.981183156609
42.16254 737.00658032312
42.18266 784.971949105983
42.20277 735.098318029488
42.22289 721.969959979129
42.243 791
42.26311 715.976701114058
42.28323 741.067770122313
42.30334 767.036000876344
42.32345 778.017153632403
42.34357 774.950186200056
42.36368 848.914357778585
42.38379 900.001322723933
42.40391 870.995401593875
42.42402 871.955916950963
42.44414 801.95887636714
42.46425 838.063820592607
42.48436 834.966540690838
42.50448 861.024030495397
42.52459 799.013912127286
42.5447 813
42.56482 760.946608317187
42.58493 723.934100375841
42.60505 699.110501625658
42.62516 775.955924369053
42.64527 721.10077378184
42.66539 702.98563446887
42.6855 733
42.70561 691.993397864126
42.72573 719.034811939197
42.74584 707.935754082599
42.76595 676.056848575046
42.78607 688.900059481035
42.80618 761.987399549759
42.8263 725
42.84641 756.003127893508
42.86652 718.966109109542
42.88664 730.103838491536
42.90675 763.106117098928
42.92686 691.99136656204
42.94698 754.999612341674
42.96709 695.996824104662
42.98721 780.024282215674
43.00732 740.933363770615
43.02743 708.004747498936
43.04755 732.068337188849
43.06766 748.980743489746
43.08777 748.027486971505
43.10789 718.01436110078
43.128 698
43.14812 697.030202466906
43.16823 735.008626189786
43.18834 703.934751304941
43.20846 705.923865667039
43.22857 756.942183522745
43.24868 749.063674622985
43.2688 676
43.28891 709.022804945134
43.30902 732.009979166129
43.32914 739.00798277745
43.34925 720.153355463905
43.36937 668.950841341713
43.38948 752.971859700517
43.40959 702.023229971615
43.42971 717.025114220357
43.44982 764.030567021864
43.46993 768.973882820745
43.49005 749.993071654176
43.51016 758.008498513987
43.53028 733.030916700358
43.55039 713.003192148249
43.5705 707
43.59062 690.022587376012
43.61073 727.990517111042
43.63084 679.944940622392
43.65096 692.976111056807
43.67107 698.945303398645
43.69119 753.987994438906
43.7113 739
43.73141 743.999175986434
43.75153 720.94876626814
43.77164 706.049870429665
43.79175 753.918696506507
43.81187 747.04941312429
43.83198 721.99611825627
43.85209 750.985405336889
43.87221 743.972500930438
43.89232 686.999765299246
43.91244 732.040711174266
43.93255 704.930062525387
43.95266 706.966148987681
43.97278 726.973982127526
43.99289 733.021691259521
44.013 674
44.03312 710.016878688102
44.05323 680.945462173255
44.07335 681.10551686875
44.09346 727.984836917572
44.11357 695.046707291917
44.13369 703.977392090541
44.1538 763
44.17391 774.977075639437
44.19403 689.86838232254
44.21414 659.10185568749
44.23426 745.899023389896
44.25437 741.013399777737
44.27448 736.04459457176
44.2946 688
44.31471 747.981467320663
44.33482 642.984368422953
44.35494 733.110667105916
44.37505 709.022190559594
44.39516 752.921072178095
44.41528 751.023389121445
44.43539 729.008712648757
44.45551 713.991312779813
44.47562 696.991398335768
44.49573 702.024050127257
44.51585 716.002983440382
44.53596 717.946549279631
44.55607 741.05030602772
44.57619 685.993810396995
44.5963 750
44.61642 708.010411022687
44.63653 782.065366526856
44.65664 749.880222449381
44.67676 719.977763102253
44.69687 750.971808532242
44.71698 735.041344038385
44.7371 709
44.75721 738.983939879156
44.77732 669.990615071546
44.79744 728.074319334704
44.81755 706.079326782459
44.83767 700.986379425943
44.85778 702.016610252364
44.87789 696.977259091799
44.89801 753.99484198489
44.91812 671.920898090796
44.93823 666.096552570488
44.95835 742.077027274598
44.97846 727.011652013178
44.99858 739.01660546565
45.01869 709.989191909336
45.0388 766
45.05892 714.950969400769
45.07903 708.018980983887
45.09914 716.002860531524
45.11926 723.941665130557
45.13937 755.002735804509
45.15949 721.015258672191
45.1796 719
45.19971 734.001738804781
45.21983 728.99920449921
45.23994 736.009365099574
45.26005 739.963718491671
45.28017 757.995803843457
45.30028 752.986793745949
45.32039 780.993534547928
45.34051 768.991441578183
45.36062 763.001860551852
45.38074 762.983520697512
45.40085 756.025432235817
45.42096 771.017113326343
45.44108 735.038640956883
45.46119 727.982623404969
45.4813 781
45.50142 786.994079225695
45.52153 787.00721503867
45.54165 786.966638539192
45.56176 751.116838279345
45.58187 727.893169441497
45.60199 823.006143224965
45.6221 728
45.64221 813.034906072892
45.66233 812.994204760474
45.68244 832.0051006672
45.70256 824.941297511642
45.72267 872.996482352666
45.74278 825.038310767507
45.7629 817
45.78301 782.989199690121
45.80312 790.0222681621
45.82324 818.074119572483
45.84335 857.920072788582
45.86346 849.145420602467
45.88358 760.033056945729
45.90369 799.970822376346
45.92381 814.981865220177
45.94392 752.946366263497
45.96403 734.013771605995
45.98415 755.057574162359
46.00426 767.999947455701
46.02437 755.034931289475
46.04449 733.005643117418
46.0646 729
46.08472 726.027263773513
46.10483 769.029518047862
46.12494 750.936709660906
46.14506 734.988938127362
46.16517 746.007756812383
46.18528 722.023499989916
46.2054 716
46.22551 730.004481460146
46.24563 724.972051940828
46.26574 710.011704410232
46.28585 731.960113255647
46.30597 719.064307850624
46.32608 686.978635860065
46.34619 737.993075230877
46.36631 707.993036028265
46.38642 734.030092135403
46.40653 733.956564260247
46.42665 692.90800318716
46.44676 690.904495045811
46.46688 746.993025749529
46.48699 719.99442273868
46.5071 768
46.52722 737.998697017342
46.54733 775.023092618416
46.56744 746.93253201907
46.58756 730.029076861333
46.60767 710.027333759959
46.62779 703.995110258238
46.6479 723
46.66801 739.011630033115
46.68813 755.981344766964
46.70824 724.968980767374
46.72835 739.93355561016
46.74847 748.033258368865
46.76858 710.027210953935
46.78869 704.998711416387
46.80881 700.995005690821
46.82892 709.049374672091
46.84904 767.019104630439
46.86915 731.951234367298
46.88926 743.006103220036
46.90938 699.066592724254
46.92949 660.98763272503
46.9496 727
46.96972 729.976984473259
46.98983 714.003351278007
47.00995 737.087884135598
47.03006 759.017377939743
47.05017 739.987569678333
47.07029 770.994449112893
47.0904 744
47.11051 731.016232287039
47.13063 769.982669662868
47.15074 720.966990157245
47.17086 751.952702743774
47.19097 725.099271340556
47.21108 672.994554281375
47.2312 728
47.25131 749.004667757145
47.27142 749.97530738033
47.29154 715.981754234312
47.31165 723.048038538136
47.33176 693.959101413423
47.35188 763.940816841524
47.37199 769.016613662302
47.39211 729.986180748462
47.41222 727.018492908281
47.43233 746.002193028755
47.45245 743.058424112027
47.47256 764.082099010023
47.49267 688.035050251974
47.51279 741.965860405245
47.5329 771
47.55302 746.955054741179
47.57313 720.044556193936
47.59324 781.055950490411
47.61336 758.056115091545
47.63347 753.99445032003
47.65358 748.016609260348
47.6737 726
47.69381 724.014071026182
47.71393 757.001101941987
47.73404 721.925241081252
47.75415 717.919210885207
47.77427 758.97214644766
47.79438 763.96912449515
47.81449 802.006919644673
47.83461 744.983982683433
47.85472 763.025763958067
47.87483 764.982878262423
47.89495 757.004930793404
47.91506 769.963329667289
47.93518 777.015729145883
47.95529 744.016451664801
47.9754 730
47.99552 737.986764939266
48.01563 731.07329907828
48.03574 795.982332672797
48.05586 721.085710769902
48.07597 749.934886722432
48.09609 764.001211136888
48.1162 759
48.13631 748.992390562747
48.15643 733.989562270311
48.17654 743.050529470395
48.19665 743.16723195818
48.21677 661.998764568984
48.23688 740.943036419266
48.257 726
48.27711 712.003129906534
48.29722 722.000446940979
48.31734 708.96585129705
48.33745 709.072911637413
48.35756 742.002418487635
48.37768 718.994728041806
48.39779 748.001047070045
48.4179 709
48.43802 713.004243707647
48.45813 708.009933666104
48.47825 720.982992187151
48.49836 702.988724884981
48.51847 731.974292272801
48.53859 736.986282130894
48.5587 774
48.57881 746.002828475632
48.59893 788.031177072262
48.61904 757.893227412769
48.63916 743.877401691709
48.65927 820.009876259439
48.67938 730.076014886254
48.6995 723
48.71961 749.024479028058
48.73972 794.998162602468
48.75984 744.892370549174
48.77995 726.964164776433
48.80006 745.006451657703
48.82018 720.022058186146
48.84029 718.993087318577
48.86041 748.025154218678
48.88052 790.999839568727
48.90063 755.960991693427
48.92075 766.074496405683
48.94086 785.013453931786
48.96097 760.031488327198
48.98109 756.996481066233
49.0012 772
49.02132 804.018754939623
49.04143 799.969718575372
49.06154 776.962668132831
49.08166 773.965493043438
49.10177 804.950140044345
49.12188 804.060573288692
49.142 728
49.16211 785.042857718234
49.18223 839.013204868994
49.20234 819.966518317266
49.22245 828.929615149549
49.24257 855.982751911482
49.26268 827.079913186152
49.28279 752.999544650322
49.30291 823.03203387291
49.32302 834.987367680954
49.34313 835.0334534359
49.36325 854.957854794451
49.38336 834.910281155247
49.40348 931.932893122572
49.42359 927.019243167364
49.4437 898
49.46382 914.057947432262
49.48393 974.014536810333
49.50404 916.823394225813
49.52416 854.02807840946
49.54427 866.010435131763
49.56439 832.011794430091
49.5845 837
49.60461 850.009159306282
49.62473 864.99330090321
49.64484 851.004820097202
49.66495 869.975926380428
49.68507 853.05245156832
49.70518 823.009947293004
49.7253 835
49.74541 849.001955547218
49.76552 840.981328850443
49.78564 819.96837306389
49.80575 815.011053631491
49.82586 817.021495587827
49.84598 807.982318516791
49.86609 828.013626778914
49.8862 787
49.90632 868.031407269155
49.92643 821.924349523311
49.94655 827.120679171409
49.96666 883.916184351775
49.98677 914.930899532129
50.00689 970.983310508375
50.027 993
50.04711 1105.076732374
50.06723 1217.00192753761
50.08734 1152.9678978338
50.10746 1183.07688830067
50.12757 1070.11659653675
50.14768 1071.98242039717
50.1678 1033
50.18791 931.988429965975
50.20802 979.034631680603
50.22814 974.0196500297
50.24825 985.139345862284
50.26837 884.082633160417
50.28848 885.022785936589
50.30859 817.02679690624
50.32871 820.021550487527
50.34882 837.943765059845
50.36893 742.927558619421
50.38905 768.102528530335
50.40916 772.058388117418
50.42927 735.034304195339
50.44939 731.000931511086
50.4695 724
50.48962 740.03891618434
50.50973 774.998682088516
50.52984 738.922595985626
50.54996 743.874161925932
50.57007 796.064184922992
50.59018 701.019398413759
50.6103 777
50.63041 776.996785874157
50.65053 773.930391605008
50.67064 722.05537005852
50.69075 814.856587209119
50.71087 801.032686793714
50.73098 806.994050451982
50.75109 789.018896036642
50.77121 752.992051439432
50.79132 750.987997221591
50.81143 723.965889329248
50.83155 728.086241484169
50.85166 761.009873235001
50.87178 739.979212524417
50.89189 786.001887026911
50.912 739
50.93212 782.025924152191
50.95223 759.950829149163
50.97234 742.977685062817
50.99246 740.958644441021
51.01257 753.062463653407
51.03269 691.001456728291
51.0528 754
51.07291 755.986126651208
51.09303 728.970321593965
51.11314 716.981083734496
51.13325 714.960504654904
51.15337 735.99560852999
51.17348 725.994541094749
51.1936 751
51.21371 756.002227943746
51.23382 760.992128542656
51.25394 732.916521448078
51.27405 701.009911551578
51.29416 718.967820862092
51.31428 721.997629029246
51.33439 733.990398128104
51.3545 751
51.37462 745.987173174262
51.39473 728.967381752253
51.41485 724.085633223254
51.43496 769.986174511122
51.45507 735.04411559275
51.47519 727.00887307198
51.4953 708
51.51541 752.006573199458
51.53553 721.953944530512
51.55564 730.088534375535
51.57576 762.054129889471
51.59587 698.047659864635
51.61598 710.998404919741
51.6361 683
51.65621 703.025832005229
51.67632 744.997654328228
51.69644 726.052576189997
51.71655 779.996403627093
51.73667 727.043713708327
51.75678 741.001490917213
51.77689 717.995829186966
51.79701 759.010863676714
51.81712 740.973245577643
51.83723 741.047498360046
51.85735 760.899410888226
51.87746 686.069002124228
51.89757 714.937772660036
51.91769 732.995571160828
51.9378 747
51.95792 759.99710049532
51.97803 739.957921930353
51.99814 726.027350277753
52.01826 749.99385455878
52.03837 742.963173497169
52.05848 775.026859921542
52.0786 710
52.09871 754.012587529168
52.11883 736.992552538066
52.13894 741.918013838535
52.15905 680.994721115942
52.17917 752.901770031209
52.19928 756.040025954999
52.21939 716.007819175614
52.23951 740.027378531319
52.25962 776.978622212149
52.27974 715.917776245414
52.29985 718.02541052899
52.31996 719.975337676635
52.34008 745.976071564244
52.36019 754.003267081767
52.3803 738
52.40042 736.039388351198
52.42053 770.943938498634
52.44064 701.010445883051
52.46076 767.985547994101
52.48087 695.078468646342
52.50099 715.976775539471
52.5211 743
52.54121 740.994764504707
52.56133 729.990125182914
52.58144 710.894387542931
52.60155 660.969679761594
52.62167 716.966397201306
52.64178 701.979096651086
52.6619 756
52.68201 730.011051217856
52.70212 790.003061855577
52.72224 725.906752509823
52.74235 750.833088308172
52.76246 797.017103450011
52.78258 744.052828361368
52.80269 739.975156449938
52.8228 802
52.84292 768.928617673472
52.86303 721.025159224653
52.88315 770.019008176224
52.90326 720.099905156274
52.92337 724.912864883825
52.94349 790.985423655534
52.9636 774
52.98371 759.995871783845
53.00383 766.05634080716
53.02394 804.984891872765
53.04406 764.026179256714
53.06417 769.070814539286
53.08428 693.009615282946
53.1044 776
53.12451 815.976061738355
53.14462 736.968885778305
53.16474 778.118552469438
53.18485 800.045326225194
53.20497 777.98057263081
53.22508 814.989157979979
53.24519 774.034033232675
53.26531 737.014359498426
53.28542 791.004013046267
53.30553 743.963733872277
53.32565 777.128258859028
53.34576 809.96887153802
53.36587 809.027752628794
53.38599 787.005042894349
53.4061 809
53.42622 863.001564067204
53.44633 821.960163443077
53.46644 823.976923841126
53.48656 794.021200927924
53.50667 817.945686222619
53.52678 843.985025293415
53.5469 849
53.56701 835.987595459399
53.58713 800.939148953851
53.60724 785.069953803384
53.62735 850.876699800919
53.64747 869.96863427142
53.66758 895.001611594956
53.68769 869.008647122397
53.70781 890.027926654452
53.72792 935.993830388222
53.74804 892.95515410592
53.76815 912.061664306268
53.78826 904.086411171723
53.80838 866.986109308737
53.82849 917.985414738894
53.8486 906
53.86872 925.048151522713
53.88883 981.068136188861
53.90894 999.987686781714
53.92906 972.094653151297
53.94917 925.042079809152
53.96929 936.972573228043
53.9894 989
54.00951 948.991418665633
54.02963 986.09047378315
54.04974 1023.99934701258
54.06985 996.07244320726
54.08997 986.991064947251
54.11008 995.994959870783
54.1302 979
54.15031 949.02731202928
54.17042 1040.01367025756
54.19054 967.893950054614
54.21065 984.914343989432
54.23076 989.042264331713
54.25088 954.042022820634
54.27099 924.002391144363
54.29111 943.014119399584
54.31122 963.00820119305
54.33133 950.944094078294
54.35145 916.001388391712
54.37156 923.096226233415
54.39167 860.958236365482
54.41179 946.996214077384
54.4319 865
54.45201 900.018203186042
54.47213 878.91305759231
54.49224 822.931061470296
54.51236 822.94255261579
54.53247 857.963842953511
54.55258 856.026493166547
54.5727 832
54.59281 851.99849524346
54.61292 833.010586866826
54.63304 852.927345671303
54.65315 795.939055131625
54.67327 880.966443162867
54.69338 816.053620213647
54.71349 834.972680886914
54.73361 875.005529461549
54.75372 886.05336491915
54.77383 951.003691782582
54.79395 899.94533183901
54.81406 931.943428300403
54.83417 910.092100297845
54.85429 857.003156863733
54.8744 878
54.89452 846.009506618347
54.91463 889.006082443325
54.93474 845.947756306447
54.95486 869.91308804233
54.97497 889.029145118578
54.99508 859.995329371058
55.0152 881
55.03531 831.001094451718
55.05543 872.98615729996
55.07554 807.931040115852
55.09565 832.930893799963
55.11577 830.015473896108
55.13588 827.004240834341
55.15599 816.00724804978
55.17611 804.998284946079
55.19622 818.034235730294
55.21634 851.007596303876
55.23645 832.987606966155
55.25656 853.950331302632
55.27668 850.043723007665
55.29679 802.002486673379
55.3169 820
55.33702 752.963013997189
55.35713 778.073516628284
55.37724 807.004174721167
55.39736 803.959850189185
55.41747 840.971485399541
55.43759 822.021083648645
55.4577 788
55.47781 811.021578261885
55.49793 840.990952336867
55.51804 800.901612955173
55.53815 763.073805176954
55.55827 736.039266597004
55.57838 720.991180145655
55.5985 758
55.61861 790.987171648229
55.63872 748.016297393151
55.65884 809.028835802142
55.67895 766.050319710379
55.69906 793.957406716657
55.71918 772.046909341249
55.73929 738.998858539547
55.75941 758.999418571825
55.77952 751.038141037338
55.79963 813.014950748211
55.81975 768.938229173984
55.83986 789.959484572998
55.85997 772.070920308308
55.88009 746.979666265181
55.9002 809
55.92031 737.976489098744
55.94043 743.998965270458
55.96054 720.997652626415
55.98066 749.953910584517
56.00077 750.006951162533
56.02088 754.989583961069
56.041 755
56.06111 735.009219697186
56.08122 779.020090272443
56.10134 770.01108062639
56.12145 797.964316808731
56.14157 787.017964649994
56.16168 777.029029655537
56.18179 729.022462895194
56.20191 721.020795507395
56.22202 774.012911312822
56.24213 735.926879811647
56.26225 731.13495735174
56.28236 798.959017619285
56.30248 760.049920338107
56.32259 752.979042246759
56.3427 799
56.36282 752.963999420777
56.38293 747.990153649146
56.40304 736.02294865153
56.42316 761.001330384825
56.44327 728.049225840846
56.46338 731.954743021764
56.4835 776
56.50361 723.975736969464
56.52373 718.039398289219
56.54384 740.98851993004
56.56395 724.956228834334
56.58407 768.971276272937
56.60418 737.058022997688
56.62429 697.999454456658
56.64441 727.011834915098
56.66452 736.017588286383
56.68464 763.026952651221
56.70475 755.969948681009
56.72486 746.031968926556
56.74498 742.962698880313
56.76509 783.011474699623
56.7852 708
56.80532 726.052039046415
56.82543 765.01759201701
56.84554 749.944901298405
56.86566 717.088693860866
56.88577 692.947220188987
56.90589 765.975318448857
56.926 757
56.94611 735.012235343318
56.96623 780.018548637192
56.98634 749.940914511138
57.00645 751.944568534506
57.02657 769.999083722069
57.04668 750.030426041754
57.0668 737
57.08691 776.008737514349
57.10702 762.984987399109
57.12714 762.001677831278
57.14725 759.000666554091
57.16736 764.981679106324
57.18748 764.021443472039
57.20759 727.0183524656
57.22771 710.003541421034
57.24782 750.077120188154
57.26793 811.983351089635
57.28805 757.976876269802
57.30816 787.052414927859
57.32827 709.04809692477
57.34839 758.964826294324
57.3685 798
57.38861 798.992104509485
57.40873 780.994317963605
57.42884 798.056265642397
57.44896 798.115547186087
57.46907 722.035733100888
57.48918 777.907186405852
57.5093 825
57.52941 759.005543105418
57.54952 829.007901056748
57.56964 753.883959095676
57.58975 756.976266109538
57.60987 764.92024764763
57.62998 829.007518848
57.65009 753.029246514084
57.67021 744.995333485085
57.69032 734.039052946293
57.71043 811.075568666931
57.73055 797.875034202056
57.75066 756.028541019577
57.77078 770.973066822973
57.79089 787.000492590683
57.811 772
57.83112 755.988291182975
57.85123 746.988273074875
57.87134 760.110096252144
57.89146 810.049166442143
57.91157 728.078896792624
57.93168 751.938561109231
57.9518 794
57.97191 765.982800677325
57.99203 745.986000965355
58.01214 745.018229901893
58.03225 748.05263058807
58.05237 716.01704471793
58.07248 750.924779302626
58.09259 806.01050664071
58.11271 731.976197106315
58.13282 743.023616821553
58.15294 735.929896268528
58.17305 706.015181348741
58.19316 738.960774165236
58.21328 725.027978826975
58.23339 716.986655016442
58.2535 745
58.27362 702.005360443402
58.29373 748.010495299573
58.31385 712.997941447668
58.33396 751.983544828265
58.35407 715.039332141629
58.37419 731.981618565488
58.3943 766
58.41441 766.971203293278
58.43453 704.021068324751
58.45464 773.039840201938
58.47475 736.988103661548
58.49487 790.97822002727
58.51498 746.035629241906
58.5351 754
58.55521 748.987387529555
58.57532 724.996905742478
58.59544 728.955867914299
58.61555 679.113600780788
58.63566 666.961719797287
58.65578 700.965753081302
58.67589 713.009398649809
58.69601 702.022034949801
58.71612 770.012757033979
58.73623 720.941891217744
58.75635 737.110122980869
58.77646 747.119313880765
58.79657 692.905405245873
58.81669 822.983377000703
58.8368 740
58.85691 765.007999300161
58.87703 735.969304930955
58.89714 735.958967907039
58.91726 716.908503601046
58.93737 797.966095948817
58.95748 757.016220352776
58.9776 783
58.99771 736.983660276886
59.01782 743.014150045399
59.03794 737.957969050387
59.05805 724.959529798447
59.07817 767.931353446965
59.09828 793.993258666638
59.11839 773.028838711719
59.13851 721.003111204033
59.15862 767.0150184261
59.17873 735.967342881548
59.19885 752.068840412602
59.21896 772.956459346736
59.23908 793.989596557002
59.25919 785.013745809982
59.2793 754
59.29942 756.020085972903
59.31953 765.962845906946
59.33964 727.990455915923
59.35976 755.972280997343
59.37987 745.99562922277
59.39998 768.986845461249
59.4201 757
59.44021 753.014800258959
59.46033 793.017507100631
59.48044 759.88847117525
59.50055 727.956144441035
59.52067 764.998862376933
59.54078 732.008356910172
59.56089 771.973308441941
59.58101 790.985436378609
59.60112 754.009381853363
59.62124 787.965521216935
59.64135 731.983346585337
59.66146 790.894907442837
59.68158 785.045598551568
59.70169 749.996170279524
59.7218 783
59.74192 777.037546704482
59.76203 845.039390556058
59.78215 823.993366176633
59.80226 866.900604560043
59.82237 904.932083213667
59.84249 963.970674199298
59.8626 1010
59.88271 1020.98867023418
59.90283 987.987144533683
59.92294 999.988942516162
59.94305 953.182862923663
59.96317 884.071355698281
59.98328 861.011393330272
60.0034 855
60.02351 875.013539652495
60.04362 899.016489708702
60.06374 895.939065239963
60.08385 848.11578722621
60.10396 815.051048472031
60.12408 790.024780181075
60.14419 766.010813043424
60.16431 750.997433143104
60.18442 754.006362503056
60.20453 763.023281799595
60.22465 762.895779668577
60.24476 709.019362652697
60.26487 757.901212386583
60.28499 784.014945067633
60.3051 741
60.32522 776.996382311109
60.34533 735.994200202256
60.36544 777.038921640557
60.38556 746.087619935276
60.40567 723.007834596397
60.42578 725.995129170736
60.4459 724
60.46601 709.996248505252
60.48612 725.04434320685
60.50624 767.000544255295
60.52635 732.060899442608
60.54647 734.997343769094
60.56658 720.018514839254
60.58669 718.98774138608
60.60681 743.995989335235
60.62692 697.944752099042
60.64703 682.06615041977
60.66715 753.108308416609
60.68726 745.059027947754
60.70738 731.988094078374
60.72749 754.994195321034
60.7476 742
60.76772 730.027678328637
60.78783 768.997682325998
60.80794 715.872569862424
60.82806 683.993953093666
60.84817 724.881726076187
60.86828 776.043937235202
60.8884 692
60.90851 781.031522032604
60.92863 744.860128450858
60.94874 690.076866770698
60.96885 769.965500012969
60.98897 696.113825008732
61.00908 672.999878420544
61.02919 691.968337116228
61.04931 768.0149866377
61.06942 742.968821193587
61.08954 722.920859508326
61.10965 672.950799067013
61.12976 691.948459350815
61.14988 712.964066065318
61.16999 755.989263353065
61.1901 741
61.21022 727.044801994658
61.23033 795.030543875084
61.25045 759.929545230177
61.27056 749.088908103569
61.29067 697.968076321946
61.31079 769.989322394631
61.3309 727
61.35101 752.002594618049
61.37113 717.958520452076
61.39124 730.08009613056
61.41135 775.899795738411
61.43147 775.099716067737
61.45158 690.030435267058
61.4717 744
61.49181 812.006599084023
61.51192 775.947270810072
61.53204 751.031509863031
61.55215 781.981280655202
61.57226 750.097498399377
61.59238 724.982590540363
61.61249 770.979218221398
61.63261 772.979805020174
61.65272 743.036463839361
61.67283 823.066120909184
61.69295 786.794919611701
61.71306 737.938873872151
61.73317 805.974461529829
61.75329 768.004295535412
61.7734 794
61.79352 735.987143721733
61.81363 797.119008321605
61.83374 832.969697501014
61.85386 809.960000429326
61.87397 838.074597854385
61.89408 741.026439145611
61.9142 797
61.93431 768.989736387735
61.95442 790.028737162074
61.97454 792.95420791702
61.99465 783.88816166348
62.01477 855.95231251227
62.03488 832.028260560103
62.05499 829.998190523133
62.07511 840.018836523167
62.09522 877.988980421062
62.11533 844.02725550424
62.13545 896.988356510435
62.15556 836.04665571176
62.17568 878.955555322835
62.19579 889.996639339451
62.2159 909
62.23602 922.01586041894
62.25613 922.94008875491
62.27624 887.078655200948
62.29636 971.943423601929
62.31647 921.077404996514
62.33659 926.978180562236
62.3567 958
62.37681 903.969164321
62.39693 886.06687907893
62.41704 952.053821304814
62.43715 924.096590006994
62.45727 916.965248071437
62.47738 946.985595250159
62.49749 931.019440730842
62.51761 895.994486234138
62.53772 893.972578674111
62.55784 858.014502305893
62.57795 915.154237197267
62.59806 927.096216028021
62.61818 867.012718317228
62.63829 885.013306627294
62.6584 820
62.67852 853.015038059234
62.69863 830.990134892401
62.71875 856.051094516859
62.73886 865.94208058543
62.75897 895.030157699633
62.77909 828.030756169179
62.7992 802
62.81931 794.002850147005
62.83943 802.987398586541
62.85954 777.959960516015
62.87965 779.950546509063
62.89977 797.003571653025
62.91988 787.9862482895
62.94 815
62.96011 777.976272999262
62.98022 764.036725258001
63.00034 813.010222063297
63.02045 780.023394794455
63.04056 806.971193585131
63.06068 790.018156615625
63.08079 793.990289959761
63.10091 802.98960591585
63.12102 773.00101451959
63.14113 793.984999455089
63.16125 752.947610397896
63.18136 771.943718561201
63.20147 787.980772356986
63.22159 803.991942099383
63.2417 803
63.26182 748.949770707356
63.28193 736.050431979798
63.30204 786.052854043581
63.32216 767.093189318309
63.34227 732.997237021909
63.36238 764.967045968985
63.3825 770
63.40261 767.032926366693
63.42272 842.977716535873
63.44284 737.872561183437
63.46295 765.881727244847
63.48307 775.022326473608
63.50318 761.002531830793
63.52329 764.003941724946
63.54341 747.997653642859
63.56352 770.044657683492
63.58363 810.016723268201
63.60375 787.910495463215
63.62386 781.903285273573
63.64398 840.002407226648
63.66409 768.040092941314
63.6842 739
63.70432 788.053108682649
63.72443 814.988917316851
63.74454 811.090039704393
63.76466 872.005886468144
63.78477 816.02820247877
63.80489 853.988006434953
63.825 843
63.84511 868.00204997967
63.86523 843.974640746926
63.88534 864.103712710912
63.90545 921.895764779493
63.92557 928.042238031635
63.94568 892.018366446531
63.96579 895.99700472515
63.98591 909.022586563209
64.00602 972.040244051067
64.02614 959.891612570659
64.04625 900.91099722167
64.06636 915.869757070644
64.08648 974.00709756155
64.10659 904.036096621001
64.1267 892
64.14682 939.975078794082
64.16693 878.009728631054
64.18705 961.155662322989
64.20716 944.117183283589
64.22727 892.050905156226
64.24739 884.990977935106
64.2675 879
64.28761 792.006487481241
64.30773 894.105300832601
64.32784 873.900527486867
64.34796 837.081897516622
64.36807 805.983337932286
64.38818 843.982918241195
64.4083 814
64.42841 771.994829846855
64.44852 793.034161582873
64.46864 819.02793488409
64.48875 818.038515187988
64.50886 795.047885272072
64.52898 786.981405772288
64.54909 806.008860266952
64.56921 770.000848654423
64.58932 793.97521337877
64.60943 731.975667371223
64.62955 770.046111330909
64.64966 760.942657103143
64.66977 814.002984585959
64.68989 757.016055466769
64.71 772
64.73012 740.964111146309
64.75023 734.037836923887
64.77034 755.959685507774
64.79046 716.990323556286
64.81057 758.984981599318
64.83068 738.978936482507
64.8508 798
64.87091 758.97556056218
64.89102 744.012566441812
64.91114 764.027205027475
64.93125 767.988647579842
64.95137 764.047772143933
64.97148 716.032163849186
64.99159 725.976531049264
65.01171 759.987796872439
65.03182 702.981917935634
65.05193 750.100847893395
65.07205 778.939546115431
65.09216 723.101452309677
65.11228 704.993286845383
65.13239 717.995595816607
65.1525 729
65.17262 764.009627195915
65.19273 746.978011372138
65.21284 743.978768318795
65.23296 727.004862225427
65.25307 727.045327720833
65.27319 700.977035042716
65.2933 782
65.31341 715.978429138597
65.33353 746.082224032838
65.35364 771.981766395749
65.37375 744.060313486455
65.39387 726.047161490495
65.41398 708.954563542831
65.43409 773.005156475654
65.45421 711.001047726445
65.47432 778.017132214113
65.49444 722.929711218691
65.51455 739.018943748666
65.53466 711.06149326892
65.55478 704.985940297595
65.57489 732.979972688648
65.595 753
65.61512 705.000594735804
65.63523 762.08382303573
65.65535 777.98386004273
65.67546 759.07757467941
65.69557 721.012419256384
65.71569 740.991051220274
65.7358 746
65.75591 746.977407578863
65.77603 685.985530278892
65.79614 732.07903755972
65.81626 734.01049540228
65.83637 730.037001371216
65.85648 703.985506960674
65.8766 760
65.89671 784.000141809484
65.91682 771.978664851747
65.93694 742.925233004313
65.95705 703.086437949741
65.97716 695.928437388659
65.99728 744.983592774518
66.01739 713.025237944642
66.03751 679.995768769912
66.05762 703.054563155742
66.07773 760.043609112995
66.09785 747.90785622061
66.11796 717.019484405039
66.13807 722.997650727351
66.15819 717.996738473266
66.1783 731
66.19842 709.98480993675
66.21853 721.05228231443
66.23864 744.960508105326
66.25876 706.000908066614
66.27887 740.985163926624
66.29898 709.029880055501
66.3191 713
66.33921 730.995755899159
66.35933 697.944678442665
66.37944 681.013776069289
66.39955 703.932439877195
66.41967 719.998181059221
66.43978 703.034714034275
66.45989 695.966979972904
66.48001 781.001540707863
66.50012 713.975098307435
66.52023 760.051326695872
66.54035 732.860873715149
66.56046 701.96909365761
66.58058 738.987914449864
66.60069 721.003478395545
66.6208 733
66.64092 705.970981536877
66.66103 696.011900045263
66.68114 710.01862907726
66.70126 720.941634177857
66.72137 756.978954412539
66.74149 746.005230019188
66.7616 754
66.78171 764.995818090252
66.80183 737.950145504799
66.82194 720.014137084626
66.84205 739.972939119993
66.86217 727.044296054928
66.88228 709.982177062725
66.90239 731.014990478533
66.92251 688.018333266306
66.94262 783.038763815301
66.96274 737.914235414513
66.98285 755.124305216811
67.00296 773.102764950551
67.02308 693.029330091007
67.04319 731.976979652483
67.0633 732
67.08342 705.027229914177
67.10353 743.948228481278
67.12365 669.007506969676
67.14376 745.94319640553
67.16387 699.041068221413
67.18399 715.00585900942
67.2041 676
67.22421 736.025968946539
67.24433 738.961806600234
67.26444 709.944457467694
67.28456 705.92403053459
67.30467 755.980253961712
67.32478 730.018664026172
67.3449 748
67.36501 758.977516080915
67.38512 684.954200103698
67.40524 700.104737029219
67.42535 741.984677145863
67.44546 715.06489273987
67.46558 703.98982060863
67.48569 720.995238089567
67.50581 726.008716842534
67.52592 758.031242937404
67.54603 772.996728622582
67.56615 760.96582469576
67.58626 773.880946074014
67.60637 844.960875186333
67.62649 829.998134089985
67.6466 871
67.66672 883.008072863142
67.68683 883.954856240299
67.70694 836.949609271136
67.72706 829.06590833248
67.74717 793.956653219005
67.76728 867.966733556583
67.7874 835
67.80751 825.999277941312
67.82763 805.937617224967
67.84774 781.06702497406
67.86785 854.867069069747
67.88797 862.007413299827
67.90808 857.027322550524
67.92819 815.012972159891
67.94831 809.995369646648
67.96842 796.006233781927
67.98853 818.012459712115
68.00865 817.057898246989
68.02876 875.85688387404
68.04888 934.957834985419
68.06899 956.999159130811
68.0891 938
68.10922 891.963828938503
68.12933 873.990433920486
68.14944 863.956223283699
68.16956 843.990942791275
68.18967 871.958290760013
68.20979 886.993676072055
68.2299 907
68.25001 933.010131146659
68.27013 945.009388258727
68.29024 930.897200305373
68.31035 862.119280882514
68.33047 848.007299418875
68.35058 831.025406876844
68.3707 805
68.39081 789.995155727625
68.41092 802.051684952613
68.43104 843.928171718335
68.45115 739.765040836197
68.47126 725.88034969455
68.49138 800.962916136471
68.51149 790.008454657939
68.5316 765
68.55172 675.984315302621
68.57183 729.048946207487
68.59195 709.96579226061
68.61206 739.890746242984
68.63217 762.074615852891
68.65229 684.011117774084
68.6724 721
68.69251 691.990664517547
68.71263 720.083481769788
68.73274 759.997987459969
68.75286 724.07878586992
68.77297 710.981109969934
68.79308 728.996223402415
68.8132 721
68.83331 736.004074046857
68.85342 740.021863737068
68.87354 760.958010574167
68.89365 708.082513083981
68.91376 711.98584538672
68.93388 714.974388704699
68.95399 748.001078394129
68.97411 717.996055601718
68.99422 744.021910938216
69.01433 726.920396406423
69.03445 687.050600179348
69.05456 740.972393202601
69.07467 703.041995956253
69.09479 711.994283094554
69.1149 712
69.13502 734.01789286663
69.15513 732.972887159393
69.17524 713.989301176049
69.19536 716.022351756099
69.21547 701.978595594356
69.23558 739.974499480602
69.2557 735
69.27581 719.992744520437
69.29593 716.028556132879
69.31604 734.966412580602
69.33615 694.043155589479
69.35627 713.965026371138
69.37638 719.001374539381
69.39649 719.001432943679
69.41661 721.009415564475
69.43672 737.984255664181
69.45683 704.994389443951
69.47695 730.017628087656
69.49706 709.0250163936
69.51718 717.99279570288
69.53729 725.982789016005
69.5574 766
69.57752 730.987304857827
69.59763 737.953576936
69.61774 678.961974245059
69.63786 715.917897573376
69.65797 722.025518298558
69.67809 713.989418965156
69.6982 749
69.71831 732.992013152894
69.73843 738.027367245173
69.75854 759.041294842667
69.77865 760.087621794451
69.79877 710.039859602567
69.81888 710.00810443352
69.839 690
69.85911 707.000847349238
69.87922 690.996785334563
69.89934 707.022509150993
69.91945 703.99213458027
69.93956 714.949934774869
69.95968 735.004573672993
69.97979 720.99435546124
69.9999 744
70.02002 694.966303138034
70.04013 716.097960320195
70.06025 760.923575075476
70.08036 693.023131040662
70.10047 749.933435654908
70.12059 738.015680277422
70.1407 736
70.16081 771.987635055378
70.18093 696.914523707389
70.20104 688.004636762202
70.22116 686.964311606732
70.24127 722.953999921851
70.26138 734.997140801692
70.2815 731
70.30161 707.994644435865
70.32172 721.031247143673
70.34184 727.890587569715
70.36195 659.985456479192
70.38207 728.94804574977
70.40218 711.988860029074
70.42229 753.00386219139
70.44241 722.024922483303
70.46252 809.978669672597
70.48263 696.940417841117
70.50275 758.064311956549
70.52286 696.131786678833
70.54297 678.996543292732
70.56309 686.985151454135
70.5832 724
70.60332 708.983277227022
70.62343 712.027010709922
70.64354 732.026814009505
70.66366 721.089101220438
70.68377 679.98546903644
70.70388 719.997575105681
70.724 682
70.74411 710.010189785668
70.76423 711.027243273528
70.78434 730.939495525857
70.80445 667.070079228632
70.82457 687.978488329163
70.84468 681.984508370617
70.86479 722.985982019916
70.88491 713.983960240002
70.90502 700.031704796511
70.92513 736.961012287013
70.94525 664.918464782715
70.96536 701.896162708375
70.98548 723.002036305285
71.00559 716.000926551236
71.0257 723
71.04582 720.979010765
71.06593 691.972886753285
71.08604 696.037656587007
71.10616 720.941957498809
71.12627 726.068411757272
71.14639 669.999217185601
71.1665 724
71.18661 701.980467595528
71.20673 698.068311832545
71.22684 763.078482240875
71.24695 737.214201574788
71.26707 663.98761822261
71.28718 731.962895960206
71.3073 703
71.32741 697.009264157894
71.34752 720.01664170347
71.36764 730.026759422864
71.38775 743.99659715375
71.40786 735.007985207342
71.42798 732.021271857075
71.44809 700.007654950436
71.4682 719
71.48832 746.9808848021
71.50843 710.008672841567
71.52855 746.990611922535
71.54866 703.023227945096
71.56877 744.933435398171
71.58889 758.000816473434
71.609 737
71.62911 686.016708052387
71.64923 769.035369963238
71.66934 720.952122264611
71.68946 750.963484036983
71.70957 740.984211154232
71.72968 764.021714928085
71.7498 715
71.76991 764.012838052675
71.79002 743.984703507385
71.81014 758.035452909095
71.83025 747.115991030259
71.85037 694.034430913172
71.87048 716.951633662772
71.89059 751.998735490854
71.91071 731.993203778321
71.93082 738.010133560666
71.95093 736.981909935955
71.97105 730.035604382998
71.99116 745.041873744906
72.01127 696.047989241748
72.03139 728.949555542712
72.0515 827
72.07162 765.932596325373
72.09173 751.035703012944
72.11184 779.02228285152
72.13196 770.023243526555
72.15207 742.112455629075
72.17218 665.998660906154
72.1923 740
72.21241 750.999836838064
72.23253 767.028201181948
72.25264 778.011334107829
72.27275 764.125273913544
72.29287 700.056546792447
72.31298 702.981438827114
72.33309 711.001882456852
72.35321 716.017682648574
72.37332 762.014580076455
72.39344 748.003383978253
72.41355 763.962086155227
72.43366 733.96570352248
72.45378 779.008585716929
72.47389 723.007692727486
72.494 752
72.51412 683.941338796999
72.53423 694.108723732126
72.55434 760.99746795729
72.57446 717.991423127976
72.59457 770.978810503586
72.61469 731.010775607436
72.6348 739
72.65491 687.993471592703
72.67503 730.073411934323
72.69514 734.914595972154
72.71525 697.934048231969
72.73537 755.004569428674
72.75548 688.043559035748
72.7756 700
72.79571 704.019845015079
72.81582 746.968657546252
72.83594 666.949966011491
72.85605 718.881032754251
72.87616 713.056145498953
72.89628 690.021722822144
72.91639 683.985818144587
72.9365 733
72.95662 732.97176427814
72.97673 710.01164984652
72.99685 714.858634570389
73.01696 650.915398295483
73.03707 764.944605027424
73.05719 703.016984526778
73.0773 736
73.09741 699.987671158127
73.11753 711.017528729205
73.13764 714.039241124952
73.15776 737.025350457756
73.17787 694.043116338866
73.19798 708.956144178905
73.2181 725
73.23821 649.998617111448
73.25832 734.0924722615
73.27844 775.011567490326
73.29855 767.042731290904
73.31867 742.05369261302
73.33878 712.003856467943
73.35889 741.974472911
73.37901 783.005746366375
73.39912 767.980503564987
73.41923 768.032696049661
73.43935 785.965126467464
73.45946 743.080634088431
73.47957 731.978429615904
73.49969 753.992275964136
73.5198 745
73.53992 708.999734699339
73.56003 738.026585033051
73.58014 729.983743668988
73.60026 745.923218782276
73.62037 782.981106302349
73.64048 764.034803811096
73.6606 737
73.68071 732.992371030658
73.70083 699.941735075018
73.72094 683.043009685196
73.74105 717.984044147238
73.76117 696.012559489929
73.78128 711.99091947004
73.80139 699.009465165252
73.82151 703.019908607271
73.84162 749.008928076714
73.86174 718.944048035307
73.88185 719.034200962889
73.90196 728.993884098221
73.92208 714.040923675997
73.94219 682.988285160017
73.9623 745
73.98242 736.979416884474
74.00253 716.938793300739
74.02264 676.00329817039
74.04276 721.902565388983
74.06287 731.0490105509
74.08299 684.015571085008
74.1031 674
74.12321 673.025027927315
74.14333 741.019046837278
74.16344 699.958442411743
74.18355 719.980788341227
74.20367 679.108617963682
74.22378 625.001453598788
74.2439 680
74.26401 729.995595960627
74.28412 687.978122787859
74.30424 704.037776492283
74.32435 698.059330617196
74.34446 674.026949046088
74.36458 672.000114439181
74.38469 671.996028433123
74.40481 696.0199840133
74.42492 724.990352732451
74.44503 689.970810436135
74.46515 701.040154460147
74.48526 704.006119389653
74.50537 701.005876469162
74.52549 691.010029577371
74.5456 677
74.56571 683.974470646391
74.58583 633.090687965259
74.60594 761.079722697388
74.62606 696.063218875057
74.64617 748.923706629771
74.66628 734.058198956981
74.6864 684
74.70651 709.015553811614
74.72662 717.98887757177
74.74674 687.901143301055
74.76685 648.992042516664
74.78697 688.940134904143
74.80708 693.031409562259
74.82719 656.006306357638
74.84731 685.028957904071
74.86742 722.980862745005
74.88753 673.978369410241
74.90765 699.013689101636
74.92776 669.044607607824
74.94787 678.963783010119
74.96799 693.00134937633
74.9881 688
75.00822 728.052917728331
