3.00117 15645
3.02128 15263
3.0414 14699
3.06151 14361
3.08162 14191
3.10174 13477
3.12185 13094
3.14197 12662
3.16208 12211
3.18219 11800
3.20231 11392
3.22242 11264
3.24253 10770
3.26265 10481
3.28276 10049
3.30288 9581
3.32299 9681
3.3431 9074
3.36322 8664
3.38333 8462
3.40344 8188
3.42356 8128
3.44367 7527
3.46379 7138
3.4839 6978
3.50401 6657
3.52413 6663
3.54424 6000
3.56435 5924
3.58447 5853
3.60458 5444
3.62469 5393
3.64481 4961
3.66492 4866
3.68504 4722
3.70515 4420
3.72526 4317
3.74538 4063
3.76549 3882
3.7856 3788
3.80572 3521
3.82583 3464
3.84595 3123
3.86606 3077
3.88617 2913
3.90629 2814
3.9264 2830
3.94651 2597
3.96663 2305
3.98674 2456
4.00686 2314
4.02697 2297
4.04708 2042
4.0672 2087
4.08731 2050
4.10742 1952
4.12754 1929
4.14765 1690
4.16776 1756
4.18788 1675
4.20799 1618
4.22811 1647
4.24822 1519
4.26833 1486
4.28845 1531
4.30856 1402
4.32867 1422
4.34879 1379
4.3689 1275
4.38902 1391
4.40913 1353
4.42924 1258
4.44936 1250
4.46947 1227
4.48958 1165
4.5097 1145
4.52981 1117
4.54992 1058
4.57004 1077
4.59015 1061
4.61027 967
4.63038 1003
4.65049 996
4.67061 913
4.69072 936
4.71083 861
4.73095 886
4.75106 833
4.77118 831
4.79129 840
4.8114 825
4.83152 817
4.85163 763
4.87174 716
4.89186 766
4.91197 761
4.93209 734
4.9522 751
4.97231 669
4.99243 673
5.01254 666
5.03265 602
5.05277 649
5.07288 625
5.09299 619
5.11311 603
5.13322 560
5.15334 613
5.17345 571
5.19356 584
5.21368 560
5.23379 494
5.2539 481
5.27402 502
5.29413 507
5.31425 518
5.33436 480
5.35447 463
5.37459 420
5.3947 488
5.41481 460
5.43493 431
5.45504 471
5.47516 435
5.49527 423
5.51538 397
5.5355 421
5.55561 388
5.57572 397
5.59584 442
5.61595 370
5.63606 416
5.65618 398
5.67629 382
5.69641 351
5.71652 384
5.73663 364
5.75675 388
5.77686 353
5.79697 346
5.81709 344
5.8372 342
5.85732 363
5.87743 387
5.89754 344
5.91766 338
5.93777 316
5.95788 318
5.978 346
5.99811 366
6.01823 342
6.03834 325
6.05845 299
6.07857 328
6.09868 336
6.11879 298
6.13891 302
6.15902 348
6.17913 378
6.19925 327
6.21936 338
6.23948 350
6.25959 298
6.2797 308
6.29982 310
6.31993 293
6.34004 320
6.36016 306
6.38027 310
6.40039 346
6.4205 314
6.44061 297
6.46073 318
6.48084 304
6.50095 319
6.52107 287
6.54118 324
6.56129 289
6.58141 339
6.60152 317
6.62164 321
6.64175 334
6.66186 287
6.68198 301
6.70209 302
6.7222 276
6.74232 302
6.76243 244
6.78255 311
6.80266 278
6.82277 272
6.84289 287
6.863 263
6.88311 323
6.90323 326
6.92334 294
6.94346 301
6.96357 309
6.98368 289
7.0038 332
7.02391 307
7.04402 308
7.06414 301
7.08425 286
7.10436 297
7.12448 327
7.14459 307
7.16471 298
7.18482 295
7.20493 286
7.22505 286
7.24516 314
7.26527 311
7.28539 330
7.3055 304
7.32562 286
7.34573 282
7.36584 288
7.38596 349
7.40607 288
7.42618 316
7.4463 274
7.46641 318
7.48653 294
7.50664 301
7.52675 292
7.54687 296
7.56698 320
7.58709 296
7.60721 293
7.62732 316
7.64743 275
7.66755 320
7.68766 306
7.70778 310
7.72789 299
7.748 333
7.76812 326
7.78823 324
7.80834 313
7.82846 289
7.84857 318
7.86869 290
7.8888 329
7.90891 299
7.92903 357
7.94914 290
7.96925 300
7.98937 301
8.00948 324
8.0296 352
8.04971 323
8.06982 293
8.08994 328
8.11005 309
8.13016 337
8.15028 357
8.17039 354
8.1905 333
8.21062 356
8.23073 363
8.25085 357
8.27096 352
8.29107 367
8.31119 354
8.3313 370
8.35141 434
8.37153 380
8.39164 414
8.41176 426
8.43187 415
8.45198 419
8.4721 420
8.49221 469
8.51232 494
8.53244 465
8.55255 539
8.57266 486
8.59278 537
8.61289 603
8.63301 609
8.65312 593
8.67323 614
8.69335 595
8.71346 646
8.73357 653
8.75369 640
8.7738 704
8.79392 619
8.81403 646
8.83414 619
8.85426 568
8.87437 534
8.89448 508
8.9146 473
8.93471 480
8.95483 422
8.97494 383
8.99505 385
9.01517 336
9.03528 379
9.05539 327
9.07551 336
9.09562 345
9.11573 319
9.13585 301
9.15596 320
9.17608 335
9.19619 303
9.2163 362
9.23642 308
9.25653 306
9.27664 284
9.29676 311
9.31687 300
9.33699 321
9.3571 305
9.37721 328
9.39733 327
9.41744 327
9.43755 291
9.45767 286
9.47778 276
9.4979 303
9.51801 309
9.53812 289
9.55824 318
9.57835 327
9.59846 263
9.61858 327
9.63869 307
9.6588 311
9.67892 299
9.69903 320
9.71915 296
9.73926 314
9.75937 303
9.77949 316
9.7996 308
9.81971 288
9.83983 298
9.85994 273
9.88006 273
9.90017 278
9.92028 290
9.9404 306
9.96051 303
9.98062 304
10.00074 275
10.02085 289
10.04097 300
10.06108 284
10.08119 309
10.10131 326
10.12142 290
10.14153 305
10.16165 293
10.18176 292
10.20187 300
10.22199 300
10.2421 294
10.26222 279
10.28233 275
10.30244 264
10.32256 285
10.34267 295
10.36278 340
10.3829 321
10.40301 302
10.42313 341
10.44324 314
10.46335 343
10.48347 342
10.50358 297
10.52369 323
10.54381 278
10.56392 315
10.58403 300
10.60415 307
10.62426 276
10.64438 319
10.66449 283
10.6846 298
10.70472 258
10.72483 321
10.74494 333
10.76506 330
10.78517 307
10.80529 275
10.8254 280
10.84551 308
10.86563 277
10.88574 344
10.90585 316
10.92597 311
10.94608 333
10.9662 323
10.98631 303
11.00642 341
11.02654 288
11.04665 294
11.06676 330
11.08688 328
11.10699 314
11.1271 285
11.14722 271
11.16733 278
11.18745 317
11.20756 286
11.22767 257
11.24779 268
11.2679 276
11.28801 298
11.30813 301
11.32824 297
11.34836 276
11.36847 266
11.38858 290
11.4087 283
11.42881 286
11.44892 277
11.46904 277
11.48915 291
11.50927 259
11.52938 311
11.54949 280
11.56961 298
11.58972 314
11.60983 294
11.62995 303
11.65006 297
11.67017 299
11.69029 303
11.7104 327
11.73052 306
11.75063 284
11.77074 291
11.79086 291
11.81097 268
11.83108 272
11.8512 283
11.87131 293
11.89143 313
11.91154 281
11.93165 292
11.95177 332
11.97188 330
11.99199 294
12.01211 337
12.03222 278
12.05234 274
12.07245 322
12.09256 287
12.11268 329
12.13279 310
12.1529 336
12.17302 325
12.19313 347
12.21324 377
12.23336 335
12.25347 345
12.27359 350
12.2937 336
12.31381 312
12.33393 310
12.35404 314
12.37415 335
12.39427 319
12.41438 327
12.4345 316
12.45461 317
12.47472 303
12.49484 319
12.51495 288
12.53506 281
12.55518 283
12.57529 299
12.5954 272
12.61552 301
12.63563 259
12.65575 279
12.67586 277
12.69597 270
12.71609 278
12.7362 281
12.75631 305
12.77643 278
12.79654 270
12.81666 301
12.83677 295
12.85688 260
12.877 299
12.89711 266
12.91722 258
12.93734 288
12.95745 263
12.97757 257
12.99768 304
13.01779 273
13.03791 293
13.05802 312
13.07813 295
13.09825 260
13.11836 283
13.13847 266
13.15859 247
13.1787 283
13.19882 284
13.21893 300
13.23904 277
13.25916 280
13.27927 299
13.29938 305
13.3195 316
13.33961 307
13.35973 255
13.37984 286
13.39995 276
13.42007 298
13.44018 238
13.46029 277
13.48041 289
13.50052 276
13.52064 275
13.54075 287
13.56086 316
13.58098 283
13.60109 315
13.6212 313
13.64132 322
13.66143 336
13.68154 309
13.70166 338
13.72177 315
13.74189 411
13.762 387
13.78211 424
13.80223 463
13.82234 473
13.84245 460
13.86257 408
13.88268 371
13.9028 367
13.92291 369
13.94302 346
13.96314 362
13.98325 324
14.00336 342
14.02348 296
14.04359 280
14.06371 279
14.08382 255
14.10393 308
14.12405 265
14.14416 282
14.16427 300
14.18439 313
14.2045 261
14.22461 262
14.24473 264
14.26484 248
14.28496 279
14.30507 289
14.32518 277
14.3453 289
14.36541 286
14.38552 248
14.40564 256
14.42575 281
14.44587 274
14.46598 276
14.48609 301
14.50621 235
14.52632 258
14.54643 231
14.56655 294
14.58666 283
14.60677 277
14.62689 303
14.647 274
14.66712 292
14.68723 284
14.70734 282
14.72746 259
14.74757 254
14.76768 303
14.7878 283
14.80791 300
14.82803 287
14.84814 275
14.86825 317
14.88837 370
14.90848 325
14.92859 348
14.94871 303
14.96882 286
14.98894 340
15.00905 310
15.02916 310
15.04928 267
15.06939 246
15.0895 263
15.10962 293
15.12973 285
15.14984 260
15.16996 278
15.19007 259
15.21019 252
15.2303 280
15.25041 285
15.27053 261
15.29064 254
15.31075 257
15.33087 270
15.35098 287
15.3711 261
15.39121 263
15.41132 243
15.43144 263
15.45155 255
15.47166 287
15.49178 253
15.51189 317
15.53201 281
15.55212 222
15.57223 246
15.59235 279
15.61246 262
15.63257 250
15.65269 291
15.6728 251
15.69291 310
15.71303 306
15.73314 274
15.75326 312
15.77337 285
15.79348 270
15.8136 310
15.83371 330
15.85382 291
15.87394 281
15.89405 278
15.91417 258
15.93428 274
15.95439 259
15.97451 271
15.99462 257
16.01473 255
16.03485 246
16.05496 264
16.07508 268
16.09519 271
16.1153 311
16.13542 264
16.15553 241
16.17564 237
16.19576 285
16.21587 244
16.23598 268
16.2561 255
16.27621 253
16.29633 230
16.31644 250
16.33655 245
16.35667 272
16.37678 255
16.39689 270
16.41701 273
16.43712 269
16.45724 277
16.47735 261
16.49746 256
16.51758 238
16.53769 276
16.5578 275
16.57792 269
16.59803 282
16.61814 274
16.63826 284
16.65837 263
16.67849 271
16.6986 299
16.71871 274
16.73883 249
16.75894 247
16.77905 250
16.79917 261
16.81928 256
16.8394 273
16.85951 286
16.87962 281
16.89974 236
16.91985 270
16.93996 271
16.96008 294
16.98019 238
17.00031 277
17.02042 266
17.04053 262
17.06065 285
17.08076 267
17.10087 289
17.12099 246
17.1411 286
17.16121 265
17.18133 274
17.20144 278
17.22156 298
17.24167 242
17.26178 229
17.2819 285
17.30201 278
17.32212 257
17.34224 268
17.36235 282
17.38247 297
17.40258 274
17.42269 301
17.44281 345
17.46292 293
17.48303 313
17.50315 348
17.52326 387
17.54338 374
17.56349 399
17.5836 392
17.60372 409
17.62383 394
17.64394 359
17.66406 381
17.68417 347
17.70428 306
17.7244 300
17.74451 301
17.76463 267
17.78474 275
17.80485 251
17.82497 276
17.84508 311
17.86519 257
17.88531 304
17.90542 300
17.92554 298
17.94565 294
17.96576 277
17.98588 286
18.00599 266
18.0261 325
18.04622 277
18.06633 311
18.08645 306
18.10656 257
18.12667 288
18.14679 313
18.1669 285
18.18701 292
18.20713 266
18.22724 271
18.24735 257
18.26747 274
18.28758 253
18.3077 255
18.32781 247
18.34792 248
18.36804 246
18.38815 277
18.40826 225
18.42838 255
18.44849 255
18.46861 279
18.48872 294
18.50883 273
18.52895 269
18.54906 304
18.56917 254
18.58929 297
18.6094 288
18.62951 274
18.64963 276
18.66974 288
18.68986 247
18.70997 242
18.73008 270
18.7502 281
18.77031 263
18.79042 286
18.81054 260
18.83065 285
18.85077 307
18.87088 249
18.89099 265
18.91111 274
18.93122 318
18.95133 314
18.97145 287
18.99156 279
19.01168 305
19.03179 314
19.0519 269
19.07202 277
19.09213 306
19.11224 301
19.13236 351
19.15247 349
19.17258 349
19.1927 391
19.21281 386
19.23293 388
19.25304 416
19.27315 339
19.29327 383
19.31338 359
19.33349 359
19.35361 354
19.37372 375
19.39384 342
19.41395 332
19.43406 375
19.45418 427
19.47429 352
19.4944 386
19.51452 404
19.53463 377
19.55475 355
19.57486 381
19.59497 412
19.61509 387
19.6352 412
19.65531 416
19.67543 428
19.69554 435
19.71565 435
19.73577 472
19.75588 460
19.776 469
19.79611 489
19.81622 464
19.83634 427
19.85645 452
19.87656 405
19.89668 390
19.91679 372
19.93691 382
19.95702 361
19.97713 373
19.99725 389
20.01736 398
20.03747 369
20.05759 380
20.0777 373
20.09782 377
20.11793 391
20.13804 366
20.15816 369
20.17827 401
20.19838 430
20.2185 401
20.23861 360
20.25872 392
20.27884 355
20.29895 353
20.31907 384
20.33918 361
20.35929 372
20.37941 394
20.39952 402
20.41963 413
20.43975 409
20.45986 435
20.47998 393
20.50009 433
20.5202 373
20.54032 438
20.56043 443
20.58054 483
20.60066 586
20.62077 575
20.64088 662
20.661 738
20.68111 913
20.70123 1025
20.72134 1256
20.74145 1398
20.76157 1669
20.78168 1671
20.80179 1731
20.82191 1623
20.84202 1477
20.86214 1242
20.88225 1027
20.90236 761
20.92248 673
20.94259 563
20.9627 545
20.98282 432
21.00293 482
21.02305 465
21.04316 455
21.06327 373
21.08339 397
21.1035 421
21.12361 367
21.14373 380
21.16384 378
21.18395 372
21.20407 356
21.22418 346
21.2443 346
21.26441 338
21.28452 319
21.30464 376
21.32475 331
21.34486 376
21.36498 342
21.38509 353
21.40521 340
21.42532 379
21.44543 390
21.46555 371
21.48566 357
21.50577 395
21.52589 337
21.546 380
21.56612 398
21.58623 393
21.60634 398
21.62646 375
21.64657 401
21.66668 370
21.6868 379
21.70691 416
21.72702 453
21.74714 416
21.76725 481
21.78737 533
21.80748 550
21.82759 572
21.84771 673
21.86782 763
21.88793 919
21.90805 1110
21.92816 1076
21.94828 1225
21.96839 1257
21.9885 1348
22.00862 1242
22.02873 1132
22.04884 979
22.06896 876
22.08907 777
22.10919 647
22.1293 551
22.14941 522
22.16953 525
22.18964 469
22.20975 473
22.22987 481
22.24998 466
22.27009 451
22.29021 433
22.31032 377
22.33044 393
22.35055 392
22.37066 413
22.39078 382
22.41089 381
22.431 354
22.45112 378
22.47123 347
22.49135 349
22.51146 388
22.53157 361
22.55169 375
22.5718 392
22.59191 347
22.61203 330
22.63214 366
22.65225 337
22.67237 349
22.69248 371
22.7126 408
22.73271 405
22.75282 387
22.77294 420
22.79305 438
22.81316 447
22.83328 420
22.85339 437
22.87351 437
22.89362 472
22.91373 458
22.93385 477
22.95396 463
22.97407 506
22.99419 519
23.0143 468
23.03442 487
23.05453 474
23.07464 416
23.09476 428
23.11487 424
23.13498 397
23.1551 422
23.17521 448
23.19532 380
23.21544 377
23.23555 403
23.25567 408
23.27578 416
23.29589 397
23.31601 461
23.33612 435
23.35623 427
23.37635 568
23.39646 610
23.41658 639
23.43669 748
23.4568 730
23.47692 747
23.49703 740
23.51714 733
23.53726 729
23.55737 639
23.57749 569
23.5976 576
23.61771 481
23.63783 443
23.65794 442
23.67805 432
23.69817 496
23.71828 430
23.73839 448
23.75851 455
23.77862 465
23.79874 462
23.81885 469
23.83896 453
23.85908 462
23.87919 464
23.8993 492
23.91942 501
23.93953 502
23.95965 504
23.97976 576
23.99987 570
24.01999 672
24.0401 650
24.06021 694
24.08033 738
24.10044 786
24.12056 824
24.14067 892
24.16078 973
24.1809 962
24.20101 900
24.22112 956
24.24124 979
24.26135 832
24.28146 718
24.30158 672
24.32169 592
24.34181 513
24.36192 513
24.38203 447
24.40215 447
24.42226 366
24.44237 410
24.46249 449
24.4826 408
24.50272 353
24.52283 366
24.54294 412
24.56306 391
24.58317 370
24.60328 389
24.6234 379
24.64351 394
24.66362 377
24.68374 386
24.70385 374
24.72397 379
24.74408 400
24.76419 384
24.78431 388
24.80442 439
24.82453 407
24.84465 391
24.86476 410
24.88488 337
24.90499 405
24.9251 407
24.94522 381
24.96533 390
24.98544 408
25.00556 399
25.02567 392
25.04579 385
25.0659 421
25.08601 390
25.10613 439
25.12624 405
25.14635 400
25.16647 425
25.18658 411
25.20669 441
25.22681 474
25.24692 487
25.26704 474
25.28715 543
25.30726 570
25.32738 650
25.34749 653
25.3676 677
25.38772 663
25.40783 686
25.42795 645
25.44806 702
25.46817 620
25.48829 679
25.5084 627
25.52851 601
25.54863 566
25.56874 557
25.58886 494
25.60897 479
25.62908 533
25.6492 448
25.66931 411
25.68942 461
25.70954 486
25.72965 467
25.74976 414
25.76988 421
25.78999 419
25.81011 442
25.83022 432
25.85033 456
25.87045 458
25.89056 445
25.91067 452
25.93079 477
25.9509 492
25.97102 511
25.99113 524
26.01124 503
26.03136 552
26.05147 595
26.07158 583
26.0917 620
26.11181 647
26.13193 667
26.15204 688
26.17215 708
26.19227 755
26.21238 795
26.23249 822
26.25261 898
26.27272 940
26.29283 1068
26.31295 1182
26.33306 1317
26.35318 1453
26.37329 1645
26.3934 2031
26.41352 2302
26.43363 2867
26.45374 3547
26.47386 4135
26.49397 4946
26.51409 5693
26.5342 6551
26.55431 6960
26.57443 7046
26.59454 6808
26.61465 5920
26.63477 4903
26.65488 3946
26.67499 2922
26.69511 2183
26.71522 1620
26.73534 1228
26.75545 949
26.77556 915
26.79568 805
26.81579 768
26.8359 716
26.85602 638
26.87613 649
26.89625 612
26.91636 589
26.93647 603
26.95659 580
26.9767 557
26.99681 594
27.01693 566
27.03704 561
27.05716 524
27.07727 566
27.09738 568
27.1175 488
27.13761 491
27.15772 490
27.17784 478
27.19795 475
27.21806 506
27.23818 459
27.25829 488
27.27841 561
27.29852 524
27.31863 612
27.33875 575
27.35886 598
27.37897 636
27.39909 635
27.4192 647
27.43932 673
27.45943 692
27.47954 692
27.49966 715
27.51977 819
27.53988 850
27.56 895
27.58011 986
27.60023 1098
27.62034 1172
27.64045 1344
27.66057 1438
27.68068 1511
27.70079 1505
27.72091 1559
27.74102 1676
27.76113 1790
27.78125 1783
27.80136 2001
27.82148 2008
27.84159 2092
27.8617 2095
27.88182 1988
27.90193 1995
27.92204 1769
27.94216 1555
27.96227 1436
27.98239 1313
28.0025 1086
28.02261 1085
28.04273 982
28.06284 940
28.08295 919
28.10307 910
28.12318 882
28.1433 867
28.16341 800
28.18352 807
28.20364 827
28.22375 782
28.24386 777
28.26398 659
28.28409 657
28.3042 620
28.32432 562
28.34443 521
28.36455 473
28.38466 477
28.40477 451
28.42489 456
28.445 385
28.46511 416
28.48523 405
28.50534 394
28.52546 392
28.54557 401
28.56568 310
28.5858 357
28.60591 346
28.62602 381
28.64614 374
28.66625 357
28.68636 343
28.70648 360
28.72659 314
28.74671 338
28.76682 311
28.78693 305
28.80705 340
28.82716 311
28.84727 347
28.86739 315
28.8875 326
28.90762 323
28.92773 321
28.94784 337
28.96796 359
28.98807 341
29.00818 341
29.0283 294
29.04841 354
29.06853 344
29.08864 353
29.10875 332
29.12887 322
29.14898 312
29.16909 309
29.18921 333
29.20932 304
29.22943 300
29.24955 356
29.26966 330
29.28978 349
29.30989 359
29.33 390
29.35012 335
29.37023 332
29.39034 351
29.41046 360
29.43057 297
29.45069 350
29.4708 370
29.49091 328
29.51103 352
29.53114 329
29.55125 366
29.57137 355
29.59148 365
29.6116 339
29.63171 403
29.65182 371
29.67194 368
29.69205 395
29.71216 389
29.73228 399
29.75239 420
29.7725 385
29.79262 424
29.81273 459
29.83285 425
29.85296 441
29.87307 484
29.89319 461
29.9133 508
29.93341 506
29.95353 541
29.97364 536
29.99376 561
30.01387 569
30.03398 623
30.0541 628
30.07421 619
30.09432 580
30.11444 596
30.13455 595
30.15467 506
30.17478 569
30.19489 556
30.21501 548
30.23512 538
30.25523 513
30.27535 625
30.29546 579
30.31557 623
30.33569 602
30.3558 601
30.37592 681
30.39603 693
30.41614 682
30.43626 665
30.45637 711
30.47648 685
30.4966 668
30.51671 636
30.53683 610
30.55694 526
30.57705 541
30.59717 553
30.61728 606
30.63739 591
30.65751 576
30.67762 733
30.69773 671
30.71785 716
30.73796 782
30.75808 732
30.77819 754
30.7983 721
30.81842 676
30.83853 598
30.85864 550
30.87876 488
30.89887 430
30.91899 478
30.9391 399
30.95921 430
30.97933 378
30.99944 425
31.01955 373
31.03967 394
31.05978 406
31.0799 406
31.10001 439
31.12012 454
31.14024 452
31.16035 509
31.18046 473
31.20058 439
31.22069 435
31.2408 427
31.26092 417
31.28103 381
31.30115 409
31.32126 363
31.34137 361
31.36149 359
31.3816 387
31.40171 371
31.42183 358
31.44194 342
31.46206 366
31.48217 329
31.50228 343
31.5224 352
31.54251 338
31.56262 344
31.58274 371
31.60285 364
31.62297 370
31.64308 431
31.66319 430
31.68331 433
31.70342 428
31.72353 461
31.74365 433
31.76376 432
31.78387 464
31.80399 422
31.8241 402
31.84422 368
31.86433 394
31.88444 375
31.90456 424
31.92467 377
31.94478 391
31.9649 388
31.98501 339
32.00513 373
32.02524 375
32.04535 373
32.06547 337
32.08558 330
32.10569 352
32.12581 344
32.14592 349
32.16604 326
32.18615 369
32.20626 317
32.22638 308
32.24649 332
32.2666 326
32.28672 276
32.30683 322
32.32694 300
32.34706 342
32.36717 277
32.38729 297
32.4074 293
32.42751 286
32.44763 311
32.46774 315
32.48785 311
32.50797 297
32.52808 316
32.5482 298
32.56831 312
32.58842 274
32.60854 296
32.62865 323
32.64876 285
32.66888 292
32.68899 289
32.7091 271
32.72922 294
32.74933 311
32.76945 286
32.78956 324
32.80967 316
32.82979 319
32.8499 342
32.87001 303
32.89013 313
32.91024 308
32.93036 315
32.95047 356
32.97058 342
32.9907 335
33.01081 344
33.03092 349
33.05104 355
33.07115 334
33.09127 378
33.11138 362
33.13149 390
33.15161 356
33.17172 375
33.19183 443
33.21195 474
33.23206 471
33.25217 450
33.27229 430
33.2924 435
33.31252 430
33.33263 422
33.35274 433
33.37286 398
33.39297 361
33.41308 402
33.4332 374
33.45331 380
33.47343 349
33.49354 359
33.51365 365
33.53377 381
33.55388 376
33.57399 357
33.59411 367
33.61422 380
33.63434 397
33.65445 435
33.67456 412
33.69468 398
33.71479 441
33.7349 451
33.75502 438
33.77513 462
33.79524 427
33.81536 454
33.83547 454
33.85559 453
33.8757 441
33.89581 432
33.91593 430
33.93604 460
33.95615 483
33.97627 463
33.99638 516
34.0165 489
34.03661 493
34.05672 522
34.07684 577
34.09695 545
34.11706 576
34.13718 613
34.15729 639
34.17741 636
34.19752 611
34.21763 588
34.23775 629
34.25786 625
34.27797 629
34.29809 605
34.3182 650
34.33831 640
34.35843 582
34.37854 605
34.39866 614
34.41877 617
34.43888 645
34.459 593
34.47911 560
34.49922 518
34.51934 542
34.53945 514
34.55957 479
34.57968 472
34.59979 454
34.61991 441
34.64002 386
34.66013 444
34.68025 430
34.70036 431
34.72047 436
34.74059 459
34.7607 492
34.78082 494
34.80093 530
34.82104 512
34.84116 523
34.86127 516
34.88138 551
34.9015 546
34.92161 592
34.94173 563
34.96184 508
34.98195 535
35.00207 520
35.02218 479
35.04229 506
35.06241 442
35.08252 391
35.10264 445
35.12275 403
35.14286 396
35.16298 425
35.18309 434
35.2032 422
35.22332 416
35.24343 436
35.26354 432
35.28366 457
35.30377 442
35.32389 423
35.344 420
35.36411 441
35.38423 419
35.40434 487
35.42445 436
35.44457 391
35.46468 386
35.4848 373
35.50491 403
35.52502 389
35.54514 427
35.56525 364
35.58536 397
35.60548 379
35.62559 398
35.64571 373
35.66582 386
35.68593 400
35.70605 377
35.72616 379
35.74627 388
35.76639 364
35.7865 385
35.80661 354
35.82673 350
35.84684 396
35.86696 361
35.88707 367
35.90718 355
35.9273 349
35.94741 348
35.96752 332
35.98764 314
36.00775 370
36.02787 342
36.04798 360
36.06809 363
36.08821 303
36.10832 360
36.12843 376
36.14855 355
36.16866 365
36.18878 373
36.20889 356
36.229 385
36.24912 397
36.26923 453
36.28934 462
36.30946 526
36.32957 523
36.34968 553
36.3698 636
36.38991 649
36.41003 692
36.43014 722
36.45025 808
36.47037 768
36.49048 785
36.51059 764
36.53071 767
36.55082 680
36.57094 672
36.59105 627
36.61116 597
36.63128 591
36.65139 571
36.6715 498
36.69162 530
36.71173 497
36.73184 508
36.75196 515
36.77207 460
36.79219 477
36.8123 509
36.83241 486
36.85253 490
36.87264 525
36.89275 505
36.91287 511
36.93298 486
36.9531 461
36.97321 453
36.99332 432
37.01344 430
37.03355 478
37.05366 408
37.07378 424
37.09389 421
37.11401 442
37.13412 386
37.15423 419
37.17435 460
37.19446 455
37.21457 477
37.23469 509
37.2548 498
37.27491 524
37.29503 558
37.31514 575
37.33526 540
37.35537 486
37.37548 521
37.3956 533
37.41571 525
37.43582 500
37.45594 480
37.47605 455
37.49617 421
37.51628 401
37.53639 463
37.55651 460
37.57662 432
37.59673 409
37.61685 406
37.63696 397
37.65708 405
37.67719 383
37.6973 384
37.71742 355
37.73753 423
37.75764 369
37.77776 339
37.79787 318
37.81798 355
37.8381 332
37.85821 325
37.87833 290
37.89844 307
37.91855 300
37.93867 296
37.95878 319
37.97889 299
37.99901 309
38.01912 297
38.03924 318
38.05935 326
38.07946 299
38.09958 335
38.11969 283
38.1398 288
38.15992 302
38.18003 296
38.20015 322
38.22026 333
38.24037 335
38.26049 318
38.2806 335
38.30071 292
38.32083 326
38.34094 304
38.36105 298
38.38117 316
38.40128 364
38.4214 319
38.44151 326
38.46162 338
38.48174 335
38.50185 332
38.52196 330
38.54208 359
38.56219 337
38.58231 345
38.60242 366
38.62253 335
38.64265 358
38.66276 373
38.68287 366
38.70299 368
38.7231 375
38.74321 416
38.76333 387
38.78344 390
38.80356 392
38.82367 362
38.84378 380
38.8639 341
38.88401 339
38.90412 382
38.92424 366
38.94435 390
38.96447 364
38.98458 365
39.00469 415
39.02481 403
39.04492 389
39.06503 415
39.08515 416
39.10526 444
39.12538 424
39.14549 437
39.1656 447
39.18572 467
39.20583 479
39.22594 485
39.24606 517
39.26617 557
39.28628 563
39.3064 631
39.32651 687
39.34663 716
39.36674 720
39.38685 720
39.40697 693
39.42708 706
39.44719 640
39.46731 620
39.48742 550
39.50754 465
39.52765 471
39.54776 397
39.56788 386
39.58799 355
39.6081 325
39.62822 344
39.64833 326
39.66845 341
39.68856 324
39.70867 339
39.72879 321
39.7489 341
39.76901 310
39.78913 316
39.80924 339
39.82935 340
39.84947 351
39.86958 335
39.8897 350
39.90981 344
39.92992 348
39.95004 374
39.97015 322
39.99026 311
40.01038 378
40.03049 385
40.05061 394
40.07072 410
40.09083 423
40.11095 433
40.13106 441
40.15117 436
40.17129 473
40.1914 486
40.21152 470
40.23163 498
40.25174 441
40.27186 474
40.29197 431
40.31208 402
40.3322 322
40.35231 334
40.37242 337
40.39254 352
40.41265 314
40.43277 307
40.45288 294
40.47299 302
40.49311 289
40.51322 302
40.53333 279
40.55345 289
40.57356 299
40.59368 313
40.61379 299
40.6339 305
40.65402 329
40.67413 291
40.69424 289
40.71436 317
40.73447 318
40.75458 332
40.7747 310
40.79481 280
40.81493 291
40.83504 295
40.85515 295
40.87527 302
40.89538 301
40.91549 298
40.93561 322
40.95572 281
40.97584 364
40.99595 335
41.01606 329
41.03618 345
41.05629 318
41.0764 347
41.09652 322
41.11663 353
41.13675 345
41.15686 362
41.17697 405
41.19709 374
41.2172 353
41.23731 395
41.25743 377
41.27754 361
41.29765 345
41.31777 368
41.33788 360
41.358 396
41.37811 375
41.39822 400
41.41834 323
41.43845 385
41.45856 364
41.47868 390
41.49879 390
41.51891 419
41.53902 438
41.55913 422
41.57925 424
41.59936 417
41.61947 401
41.63959 482
41.6597 449
41.67982 394
41.69993 398
41.72004 419
41.74016 439
41.76027 389
41.78038 384
41.8005 395
41.82061 396
41.84072 364
41.86084 350
41.88095 331
41.90107 336
41.92118 346
41.94129 364
41.96141 322
41.98152 324
42.00163 326
42.02175 353
42.04186 322
42.06198 358
42.08209 322
42.1022 349
42.12232 368
42.14243 370
42.16254 387
42.18266 411
42.20277 441
42.22289 464
42.243 448
42.26311 512
42.28323 516
42.30334 601
42.32345 650
42.34357 596
42.36368 627
42.38379 660
42.40391 657
42.42402 623
42.44414 575
42.46425 522
42.48436 523
42.50448 515
42.52459 472
42.5447 483
42.56482 460
42.58493 432
42.60505 442
42.62516 399
42.64527 403
42.66539 418
42.6855 404
42.70561 407
42.72573 421
42.74584 393
42.76595 393
42.78607 414
42.80618 366
42.8263 370
42.84641 391
42.86652 377
42.88664 346
42.90675 356
42.92686 342
42.94698 339
42.96709 320
42.98721 336
43.00732 283
43.02743 340
43.04755 320
43.06766 293
43.08777 276
43.10789 298
43.128 289
43.14812 285
43.16823 318
43.18834 296
43.20846 291
43.22857 359
43.24868 293
43.2688 296
43.28891 334
43.30902 305
43.32914 309
43.34925 318
43.36937 307
43.38948 299
43.40959 303
43.42971 304
43.44982 349
43.46993 329
43.49005 316
43.51016 296
43.53028 307
43.55039 351
43.5705 316
43.59062 334
43.61073 300
43.63084 312
43.65096 322
43.67107 321
43.69119 277
43.7113 272
43.73141 313
43.75153 271
43.77164 258
43.79175 287
43.81187 258
43.83198 272
43.85209 295
43.87221 277
43.89232 288
43.91244 276
43.93255 288
43.95266 265
43.97278 264
43.99289 270
44.013 318
44.03312 284
44.05323 280
44.07335 291
44.09346 298
44.11357 300
44.13369 264
44.1538 297
44.17391 277
44.19403 251
44.21414 265
44.23426 305
44.25437 278
44.27448 266
44.2946 263
44.31471 254
44.33482 309
44.35494 319
44.37505 274
44.39516 281
44.41528 293
44.43539 274
44.45551 286
44.47562 279
44.49573 298
44.51585 332
44.53596 269
44.55607 264
44.57619 304
44.5963 305
44.61642 308
44.63653 315
44.65664 252
44.67676 262
44.69687 292
44.71698 257
44.7371 289
44.75721 331
44.77732 303
44.79744 320
44.81755 302
44.83767 305
44.85778 300
44.87789 311
44.89801 338
44.91812 330
44.93823 300
44.95835 345
44.97846 303
44.99858 324
45.01869 317
45.0388 340
45.05892 344
45.07903 323
45.09914 319
45.11926 335
45.13937 347
45.15949 334
45.1796 347
45.19971 312
45.21983 331
45.23994 374
45.26005 338
45.28017 330
45.30028 309
45.32039 339
45.34051 377
45.36062 382
45.38074 360
45.40085 366
45.42096 358
45.44108 370
45.46119 364
45.4813 373
45.50142 370
45.52153 359
45.54165 403
45.56176 427
45.58187 431
45.60199 432
45.6221 425
45.64221 498
45.66233 485
45.68244 475
45.70256 492
45.72267 473
45.74278 488
45.7629 454
45.78301 439
45.80312 402
45.82324 388
45.84335 368
45.86346 341
45.88358 373
45.90369 335
45.92381 280
45.94392 295
45.96403 307
45.98415 286
46.00426 273
46.02437 299
46.04449 284
46.0646 317
46.08472 256
46.10483 267
46.12494 283
46.14506 256
46.16517 269
46.18528 289
46.2054 286
46.22551 264
46.24563 287
46.26574 277
46.28585 277
46.30597 285
46.32608 247
46.34619 252
46.36631 285
46.38642 278
46.40653 277
46.42665 256
46.44676 263
46.46688 262
46.48699 254
46.5071 286
46.52722 256
46.54733 239
46.56744 264
46.58756 283
46.60767 233
46.62779 256
46.6479 239
46.66801 282
46.68813 261
46.70824 234
46.72835 274
46.74847 272
46.76858 257
46.78869 296
46.80881 269
46.82892 270
46.84904 243
46.86915 264
46.88926 278
46.90938 267
46.92949 262
46.9496 264
46.96972 311
46.98983 304
47.00995 308
47.03006 321
47.05017 268
47.07029 298
47.0904 295
47.11051 267
47.13063 285
47.15074 291
47.17086 274
47.19097 271
47.21108 287
47.2312 284
47.25131 277
47.27142 249
47.29154 271
47.31165 256
47.33176 261
47.35188 273
47.37199 283
47.39211 285
47.41222 278
47.43233 289
47.45245 284
47.47256 268
47.49267 284
47.51279 267
47.5329 245
47.55302 284
47.57313 274
47.59324 303
47.61336 271
47.63347 264
47.65358 283
47.6737 287
47.69381 289
47.71393 296
47.73404 332
47.75415 297
47.77427 325
47.79438 331
47.81449 350
47.83461 321
47.85472 334
47.87483 299
47.89495 361
47.91506 361
47.93518 342
47.95529 338
47.9754 370
47.99552 353
48.01563 363
48.03574 367
48.05586 391
48.07597 365
48.09609 327
48.1162 355
48.13631 350
48.15643 321
48.17654 342
48.19665 326
48.21677 347
48.23688 358
48.257 314
48.27711 352
48.29722 314
48.31734 366
48.33745 354
48.35756 352
48.37768 352
48.39779 313
48.4179 351
48.43802 330
48.45813 349
48.47825 312
48.49836 362
48.51847 343
48.53859 309
48.5587 358
48.57881 343
48.59893 347
48.61904 336
48.63916 325
48.65927 316
48.67938 322
48.6995 290
48.71961 319
48.73972 297
48.75984 316
48.77995 316
48.80006 298
48.82018 295
48.84029 284
48.86041 284
48.88052 299
48.90063 268
48.92075 322
48.94086 308
48.96097 313
48.98109 327
49.0012 302
49.02132 339
49.04143 317
49.06154 328
49.08166 353
49.10177 345
49.12188 375
49.142 361
49.16211 367
49.18223 332
49.20234 326
49.22245 319
49.24257 322
49.26268 306
49.28279 350
49.30291 326
49.32302 356
49.34313 311
49.36325 312
49.38336 331
49.40348 309
49.42359 286
49.4437 311
49.46382 335
49.48393 333
49.50404 335
49.52416 361
49.54427 338
49.56439 363
49.5845 350
49.60461 365
49.62473 402
49.64484 374
49.66495 424
49.68507 429
49.70518 459
49.7253 475
49.74541 488
49.76552 435
49.78564 456
49.80575 516
49.82586 521
49.84598 580
49.86609 574
49.8862 627
49.90632 650
49.92643 679
49.94655 730
49.96666 813
49.98677 842
50.00689 999
50.027 1008
50.04711 1014
50.06723 954
50.08734 915
50.10746 789
50.12757 744
50.14768 712
50.1678 629
50.18791 591
50.20802 554
50.22814 512
50.24825 427
50.26837 413
50.28848 361
50.30859 364
50.32871 338
50.34882 357
50.36893 351
50.38905 364
50.40916 339
50.42927 378
50.44939 382
50.4695 367
50.48962 406
50.50973 345
50.52984 355
50.54996 323
50.57007 371
50.59018 325
50.6103 341
50.63041 338
50.65053 320
50.67064 293
50.69075 316
50.71087 306
50.73098 327
50.75109 316
50.77121 311
50.79132 287
50.81143 308
50.83155 274
50.85166 307
50.87178 301
50.89189 295
50.912 285
50.93212 311
50.95223 324
50.97234 336
50.99246 362
51.01257 350
51.03269 358
51.0528 383
51.07291 384
51.09303 365
51.11314 398
51.13325 354
51.15337 366
51.17348 365
51.1936 368
51.21371 364
51.23382 369
51.25394 324
51.27405 302
51.29416 292
51.31428 297
51.33439 298
51.3545 301
51.37462 302
51.39473 300
51.41485 320
51.43496 278
51.45507 276
51.47519 259
51.4953 266
51.51541 277
51.53553 269
51.55564 253
51.57576 304
51.59587 264
51.61598 281
51.6361 291
51.65621 266
51.67632 242
51.69644 249
51.71655 274
51.73667 243
51.75678 283
51.77689 260
51.79701 234
51.81712 259
51.83723 250
51.85735 274
51.87746 255
51.89757 285
51.91769 278
51.9378 300
51.95792 314
51.97803 257
51.99814 281
52.01826 315
52.03837 331
52.05848 256
52.0786 304
52.09871 275
52.11883 296
52.13894 287
52.15905 299
52.17917 331
52.19928 310
52.21939 311
52.23951 289
52.25962 288
52.27974 290
52.29985 285
52.31996 286
52.34008 309
52.36019 323
52.3803 300
52.40042 321
52.42053 310
52.44064 309
52.46076 315
52.48087 311
52.50099 321
52.5211 325
52.54121 272
52.56133 273
52.58144 291
52.60155 295
52.62167 294
52.64178 273
52.6619 307
52.68201 297
52.70212 277
52.72224 249
52.74235 263
52.76246 279
52.78258 309
52.80269 283
52.8228 282
52.84292 313
52.86303 289
52.88315 287
52.90326 323
52.92337 284
52.94349 279
52.9636 305
52.98371 299
53.00383 300
53.02394 300
53.04406 315
53.06417 324
53.08428 350
53.1044 370
53.12451 338
53.14462 326
53.16474 292
53.18485 338
53.20497 339
53.22508 312
53.24519 313
53.26531 298
53.28542 280
53.30553 303
53.32565 331
53.34576 269
53.36587 316
53.38599 300
53.4061 313
53.42622 311
53.44633 280
53.46644 294
53.48656 269
53.50667 289
53.52678 286
53.5469 291
53.56701 322
53.58713 288
53.60724 280
53.62735 293
53.64747 310
53.66758 298
53.68769 296
53.70781 310
53.72792 269
53.74804 292
53.76815 321
53.78826 290
53.80838 271
53.82849 291
53.8486 294
53.86872 284
53.88883 309
53.90894 290
53.92906 263
53.94917 280
53.96929 290
53.9894 280
54.00951 319
54.02963 299
54.04974 323
54.06985 315
54.08997 304
54.11008 323
54.1302 317
54.15031 337
54.17042 325
54.19054 318
54.21065 334
54.23076 322
54.25088 327
54.27099 362
54.29111 316
54.31122 319
54.33133 333
54.35145 347
54.37156 331
54.39167 338
54.41179 342
54.4319 329
54.45201 354
54.47213 361
54.49224 346
54.51236 344
54.53247 369
54.55258 373
54.5727 360
54.59281 383
54.61292 396
54.63304 391
54.65315 424
54.67327 453
54.69338 433
54.71349 545
54.73361 531
54.75372 562
54.77383 533
54.79395 521
54.81406 509
54.83417 538
54.85429 454
54.8744 461
54.89452 428
54.91463 456
54.93474 430
54.95486 421
54.97497 416
54.99508 428
55.0152 394
55.03531 356
55.05543 369
55.07554 330
55.09565 316
55.11577 344
55.13588 384
55.15599 387
55.17611 357
55.19622 416
55.21634 409
55.23645 379
55.25656 393
55.27668 355
55.29679 357
55.3169 329
55.33702 315
55.35713 364
55.37724 358
55.39736 335
55.41747 318
55.43759 328
55.4577 318
55.47781 345
55.49793 292
55.51804 309
55.53815 336
55.55827 308
55.57838 306
55.5985 319
55.61861 332
55.63872 316
55.65884 330
55.67895 340
55.69906 320
55.71918 318
55.73929 297
55.75941 319
55.77952 326
55.79963 305
55.81975 343
55.83986 329
55.85997 335
55.88009 337
55.9002 328
55.92031 373
55.94043 352
55.96054 363
55.98066 399
56.00077 386
56.02088 411
56.041 362
56.06111 372
56.08122 340
56.10134 328
56.12145 332
56.14157 337
56.16168 318
56.18179 331
56.20191 337
56.22202 314
56.24213 333
56.26225 338
56.28236 327
56.30248 317
56.32259 301
56.3427 298
56.36282 344
56.38293 325
56.40304 318
56.42316 331
56.44327 283
56.46338 328
56.4835 351
56.50361 327
56.52373 334
56.54384 310
56.56395 315
56.58407 328
56.60418 325
56.62429 299
56.64441 295
56.66452 302
56.68464 270
56.70475 321
56.72486 299
56.74498 293
56.76509 275
56.7852 286
56.80532 280
56.82543 272
56.84554 288
56.86566 306
56.88577 282
56.90589 290
56.926 260
56.94611 280
56.96623 278
56.98634 278
57.00645 272
57.02657 248
57.04668 267
57.0668 296
57.08691 280
57.10702 307
57.12714 305
57.14725 290
57.16736 257
57.18748 264
57.20759 251
57.22771 276
57.24782 271
57.26793 280
57.28805 298
57.30816 267
57.32827 288
57.34839 252
57.3685 266
57.38861 291
57.40873 273
57.42884 312
57.44896 259
57.46907 276
57.48918 281
57.5093 293
57.52941 288
57.54952 264
57.56964 279
57.58975 302
57.60987 281
57.62998 253
57.65009 280
57.67021 282
57.69032 273
57.71043 260
57.73055 302
57.75066 297
57.77078 303
57.79089 276
57.811 284
57.83112 267
57.85123 284
57.87134 322
57.89146 341
57.91157 315
57.93168 324
57.9518 341
57.97191 300
57.99203 297
58.01214 325
58.03225 293
58.05237 301
58.07248 303
58.09259 310
58.11271 297
58.13282 272
58.15294 291
58.17305 296
58.19316 326
58.21328 310
58.23339 320
58.2535 328
58.27362 287
58.29373 298
58.31385 299
58.33396 327
58.35407 295
58.37419 327
58.3943 335
58.41441 322
58.43453 294
58.45464 314
58.47475 343
58.49487 292
58.51498 292
58.5351 310
58.55521 335
58.57532 296
58.59544 346
58.61555 292
58.63566 320
58.65578 297
58.67589 305
58.69601 308
58.71612 278
58.73623 275
58.75635 252
58.77646 244
58.79657 255
58.81669 279
58.8368 269
58.85691 256
58.87703 288
58.89714 274
58.91726 249
58.93737 266
58.95748 260
58.9776 252
58.99771 265
59.01782 301
59.03794 271
59.05805 251
59.07817 311
59.09828 245
59.11839 285
59.13851 274
59.15862 296
59.17873 269
59.19885 261
59.21896 267
59.23908 303
59.25919 251
59.2793 284
59.29942 293
59.31953 288
59.33964 270
59.35976 281
59.37987 281
59.39998 288
59.4201 292
59.44021 270
59.46033 303
59.48044 281
59.50055 319
59.52067 294
59.54078 321
59.56089 324
59.58101 355
59.60112 341
59.62124 368
59.64135 358
59.66146 445
59.68158 402
59.70169 442
59.7218 498
59.74192 544
59.76203 529
59.78215 587
59.80226 621
59.82237 656
59.84249 683
59.8626 679
59.88271 673
59.90283 649
59.92294 655
59.94305 598
59.96317 560
59.98328 566
60.0034 579
60.02351 551
60.04362 526
60.06374 503
60.08385 488
60.10396 482
60.12408 452
60.14419 449
60.16431 428
60.18442 418
60.20453 409
60.22465 421
60.24476 440
60.26487 411
60.28499 382
60.3051 391
60.32522 397
60.34533 348
60.36544 359
60.38556 366
60.40567 367
60.42578 350
60.4459 344
60.46601 295
60.48612 338
60.50624 320
60.52635 345
60.54647 312
60.56658 306
60.58669 303
60.60681 312
60.62692 306
60.64703 271
60.66715 305
60.68726 286
60.70738 272
60.72749 304
60.7476 271
60.76772 285
60.78783 256
60.80794 260
60.82806 273
60.84817 298
60.86828 315
60.8884 294
60.90851 314
60.92863 292
60.94874 295
60.96885 321
60.98897 308
61.00908 285
61.02919 300
61.04931 292
61.06942 306
61.08954 282
61.10965 274
61.12976 307
61.14988 329
61.16999 303
61.1901 325
61.21022 319
61.23033 329
61.25045 319
61.27056 298
61.29067 299
61.31079 329
61.3309 353
61.35101 354
61.37113 323
61.39124 334
61.41135 342
61.43147 321
61.45158 306
61.4717 340
61.49181 316
61.51192 336
61.53204 333
61.55215 326
61.57226 301
61.59238 342
61.61249 324
61.63261 297
61.65272 321
61.67283 300
61.69295 294
61.71306 324
61.73317 312
61.75329 276
61.7734 301
61.79352 289
61.81363 295
61.83374 274
61.85386 284
61.87397 268
61.89408 292
61.9142 306
61.93431 295
61.95442 258
61.97454 269
61.99465 286
62.01477 278
62.03488 298
62.05499 256
62.07511 282
62.09522 289
62.11533 278
62.13545 275
62.15556 260
62.17568 277
62.19579 311
62.2159 246
62.23602 278
62.25613 272
62.27624 256
62.29636 264
62.31647 270
62.33659 252
62.3567 272
62.37681 295
62.39693 254
62.41704 271
62.43715 257
62.45727 268
62.47738 275
62.49749 251
62.51761 263
62.53772 272
62.55784 270
62.57795 254
62.59806 281
62.61818 247
62.63829 233
62.6584 244
62.67852 286
62.69863 245
62.71875 260
62.73886 271
62.75897 250
62.77909 250
62.7992 267
62.81931 300
62.83943 274
62.85954 245
62.87965 249
62.89977 266
62.91988 288
62.94 266
62.96011 266
62.98022 276
63.00034 244
63.02045 245
63.04056 241
63.06068 254
63.08079 232
63.10091 293
63.12102 244
63.14113 277
63.16125 270
63.18136 282
63.20147 281
63.22159 270
63.2417 267
63.26182 320
63.28193 277
63.30204 309
63.32216 294
63.34227 309
63.36238 298
63.3825 314
63.40261 320
63.42272 313
63.44284 304
63.46295 292
63.48307 352
63.50318 319
63.52329 327
63.54341 353
63.56352 324
63.58363 315
63.60375 359
63.62386 346
63.64398 355
63.66409 341
63.6842 347
63.70432 364
63.72443 400
63.74454 355
63.76466 370
63.78477 329
63.80489 378
63.825 389
63.84511 377
63.86523 367
63.88534 435
63.90545 360
63.92557 375
63.94568 385
63.96579 384
63.98591 350
64.00602 368
64.02614 340
64.04625 333
64.06636 292
64.08648 303
64.10659 323
64.1267 323
64.14682 295
64.16693 337
64.18705 301
64.20716 328
64.22727 282
64.24739 276
64.2675 280
64.28761 282
64.30773 278
64.32784 252
64.34796 301
64.36807 278
64.38818 229
64.4083 280
64.42841 289
64.44852 295
64.46864 258
64.48875 297
64.50886 265
64.52898 261
64.54909 300
64.56921 266
64.58932 294
64.60943 305
64.62955 304
64.64966 323
64.66977 308
64.68989 288
64.71 311
64.73012 278
64.75023 279
64.77034 269
64.79046 283
64.81057 290
64.83068 264
64.8508 272
64.87091 272
64.89102 280
64.91114 269
64.93125 283
64.95137 285
64.97148 286
64.99159 276
65.01171 286
65.03182 320
65.05193 293
65.07205 310
65.09216 297
65.11228 261
65.13239 299
65.1525 323
65.17262 312
65.19273 292
65.21284 296
65.23296 286
65.25307 274
65.27319 287
65.2933 273
65.31341 280
65.33353 282
65.35364 304
65.37375 267
65.39387 291
65.41398 274
65.43409 256
65.45421 271
65.47432 271
65.49444 262
65.51455 272
65.53466 286
65.55478 261
65.57489 253
65.595 278
65.61512 291
65.63523 274
65.65535 281
65.67546 294
65.69557 259
65.71569 273
65.7358 271
65.75591 294
65.77603 280
65.79614 251
65.81626 262
65.83637 245
65.85648 281
65.8766 282
65.89671 288
65.91682 241
65.93694 262
65.95705 226
65.97716 266
65.99728 291
66.01739 277
66.03751 273
66.05762 257
66.07773 262
66.09785 269
66.11796 290
66.13807 267
66.15819 273
66.1783 254
66.19842 272
66.21853 275
66.23864 313
66.25876 313
66.27887 308
66.29898 279
66.3191 318
66.33921 271
66.35933 307
66.37944 319
66.39955 341
66.41967 316
66.43978 306
66.45989 289
66.48001 319
66.50012 303
66.52023 274
66.54035 298
66.56046 283
66.58058 269
66.60069 249
66.6208 268
66.64092 263
66.66103 293
66.68114 290
66.70126 309
66.72137 272
66.74149 265
66.7616 282
66.78171 282
66.80183 252
66.82194 287
66.84205 264
66.86217 271
66.88228 285
66.90239 303
66.92251 282
66.94262 288
66.96274 285
66.98285 306
67.00296 333
67.02308 325
67.04319 315
67.0633 323
67.08342 325
67.10353 321
67.12365 328
67.14376 279
67.16387 294
67.18399 324
67.2041 306
67.22421 318
67.24433 298
67.26444 333
67.28456 335
67.30467 315
67.32478 340
67.3449 298
67.36501 307
67.38512 327
67.40524 341
67.42535 323
67.44546 344
67.46558 362
67.48569 372
67.50581 404
67.52592 432
67.54603 417
67.56615 433
67.58626 492
67.60637 474
67.62649 523
67.6466 517
67.66672 484
67.68683 471
67.70694 477
67.72706 445
67.74717 468
67.76728 453
67.7874 473
67.80751 494
67.82763 474
67.84774 503
67.86785 482
67.88797 460
67.90808 494
67.92819 559
67.94831 528
67.96842 578
67.98853 583
68.00865 574
68.02876 613
68.04888 616
68.06899 656
68.0891 611
68.10922 586
68.12933 575
68.14944 569
68.16956 595
68.18967 546
68.20979 556
68.2299 538
68.25001 532
68.27013 498
68.29024 470
68.31035 429
68.33047 387
68.35058 392
68.3707 402
68.39081 396
68.41092 387
68.43104 357
68.45115 334
68.47126 341
68.49138 329
68.51149 296
68.5316 296
68.55172 296
68.57183 283
68.59195 283
68.61206 281
68.63217 303
68.65229 299
68.6724 296
68.69251 300
68.71263 302
68.73274 278
68.75286 295
68.77297 293
68.79308 299
68.8132 258
68.83331 272
68.85342 299
68.87354 287
68.89365 311
68.91376 236
68.93388 271
68.95399 295
68.97411 304
68.99422 277
69.01433 289
69.03445 256
69.05456 268
69.07467 305
69.09479 258
69.1149 281
69.13502 292
69.15513 284
69.17524 294
69.19536 276
69.21547 296
69.23558 303
69.2557 313
69.27581 352
69.29593 287
69.31604 301
69.33615 335
69.35627 319
69.37638 298
69.39649 313
69.41661 306
69.43672 305
69.45683 295
69.47695 308
69.49706 300
69.51718 296
69.53729 287
69.5574 320
69.57752 298
69.59763 314
69.61774 292
69.63786 315
69.65797 311
69.67809 307
69.6982 291
69.71831 274
69.73843 306
69.75854 286
69.77865 307
69.79877 290
69.81888 266
69.839 288
69.85911 277
69.87922 273
69.89934 274
69.91945 258
69.93956 284
69.95968 240
69.97979 272
69.9999 266
70.02002 243
70.04013 263
70.06025 261
70.08036 259
70.10047 235
70.12059 243
70.1407 240
70.16081 265
70.18093 269
70.20104 229
70.22116 253
70.24127 249
70.26138 281
70.2815 254
70.30161 228
70.32172 232
70.34184 225
70.36195 223
70.38207 250
70.40218 233
70.42229 235
70.44241 260
70.46252 235
70.48263 248
70.50275 258
70.52286 240
70.54297 258
70.56309 263
70.5832 279
70.60332 250
70.62343 261
70.64354 263
70.66366 230
70.68377 266
70.70388 234
70.724 280
70.74411 249
70.76423 270
70.78434 244
70.80445 254
70.82457 277
70.84468 264
70.86479 280
70.88491 250
70.90502 282
70.92513 256
70.94525 261
70.96536 265
70.98548 267
71.00559 282
71.0257 280
71.04582 274
71.06593 273
71.08604 277
71.10616 252
71.12627 264
71.14639 274
71.1665 252
71.18661 269
71.20673 256
71.22684 266
71.24695 253
71.26707 289
71.28718 271
71.3073 275
71.32741 254
71.34752 293
71.36764 290
71.38775 277
71.40786 266
71.42798 246
71.44809 270
71.4682 251
71.48832 273
71.50843 244
71.52855 224
71.54866 256
71.56877 277
71.58889 233
71.609 234
71.62911 230
71.64923 238
71.66934 247
71.68946 244
71.70957 241
71.72968 221
71.7498 262
71.76991 263
71.79002 242
71.81014 253
71.83025 226
71.85037 252
71.87048 259
71.89059 246
71.91071 278
71.93082 237
71.95093 279
71.97105 253
71.99116 241
72.01127 247
72.03139 267
72.0515 266
72.07162 234
72.09173 245
72.11184 238
72.13196 258
72.15207 232
72.17218 252
72.1923 255
72.21241 238
72.23253 264
72.25264 251
72.27275 262
72.29287 255
72.31298 253
72.33309 249
72.35321 270
72.37332 241
72.39344 259
72.41355 247
72.43366 259
72.45378 273
72.47389 275
72.494 258
72.51412 256
72.53423 261
72.55434 274
72.57446 267
72.59457 283
72.61469 275
72.6348 284
72.65491 247
72.67503 273
72.69514 277
72.71525 264
72.73537 263
72.75548 249
72.7756 254
72.79571 281
72.81582 262
72.83594 250
72.85605 273
72.87616 276
72.89628 254
72.91639 242
72.9365 261
72.95662 270
72.97673 265
72.99685 241
73.01696 266
73.03707 290
73.05719 247
73.0773 261
73.09741 245
73.11753 261
73.13764 260
73.15776 264
73.17787 293
73.19798 263
73.2181 271
73.23821 274
73.25832 326
73.27844 272
73.29855 280
73.31867 315
73.33878 334
73.35889 338
73.37901 340
73.39912 319
73.41923 332
73.43935 311
73.45946 267
73.47957 323
73.49969 264
73.5198 294
73.53992 287
73.56003 240
73.58014 278
73.60026 323
73.62037 302
73.64048 247
73.6606 268
73.68071 271
73.70083 288
73.72094 286
73.74105 256
73.76117 278
73.78128 289
73.80139 249
73.82151 291
73.84162 251
73.86174 286
73.88185 269
73.90196 257
73.92208 253
73.94219 245
73.9623 232
73.98242 260
74.00253 233
74.02264 247
74.04276 272
74.06287 275
74.08299 268
74.1031 243
74.12321 261
74.14333 261
74.16344 254
74.18355 250
74.20367 242
74.22378 262
74.2439 254
74.26401 268
74.28412 274
74.30424 235
74.32435 258
74.34446 215
74.36458 237
74.38469 227
74.40481 249
74.42492 279
74.44503 259
74.46515 253
74.48526 286
74.50537 265
74.52549 264
74.5456 276
74.56571 288
74.58583 301
74.60594 257
74.62606 287
74.64617 264
74.66628 309
74.6864 308
74.70651 308
74.72662 294
74.74674 275
74.76685 306
74.78697 300
74.80708 291
74.82719 273
74.84731 264
74.86742 272
74.88753 274
74.90765 285
74.92776 272
74.94787 268
74.96799 241
74.9881 240
75.00822 279
