3.00117 20261
3.02128 19671
3.0414 19353
3.06151 18501
3.08162 18203
3.10174 18034
3.12185 17042
3.14197 16777
3.16208 16086
3.18219 15846
3.20231 15534
3.22242 14984
3.24253 14597
3.26265 13840
3.28276 13429
3.30288 13498
3.32299 12831
3.3431 12483
3.36322 11879
3.38333 11596
3.40344 11530
3.42356 11023
3.44367 10868
3.46379 10246
3.4839 10044
3.50401 9773
3.52413 9158
3.54424 9088
3.56435 8481
3.58447 8551
3.60458 8353
3.62469 7923
3.64481 7665
3.66492 7187
3.68504 6902
3.70515 6935
3.72526 6447
3.74538 6320
3.76549 6047
3.7856 5716
3.80572 5750
3.82583 5320
3.84595 5149
3.86606 4861
3.88617 4715
3.90629 4602
3.9264 4489
3.94651 4361
3.96663 3938
3.98674 3879
4.00686 3804
4.02697 3542
4.04708 3557
4.0672 3295
4.08731 3210
4.10742 3272
4.12754 2997
4.14765 2943
4.16776 2826
4.18788 2724
4.20799 2652
4.22811 2523
4.24822 2412
4.26833 2282
4.28845 2262
4.30856 2360
4.32867 2281
4.34879 2146
4.3689 2047
4.38902 2119
4.40913 2115
4.42924 2075
4.44936 1929
4.46947 1861
4.48958 1819
4.5097 1833
4.52981 1802
4.54992 1796
4.57004 1694
4.59015 1625
4.61027 1661
4.63038 1658
4.65049 1643
4.67061 1628
4.69072 1562
4.71083 1507
4.73095 1581
4.75106 1551
4.77118 1456
4.79129 1467
4.8114 1397
4.83152 1494
4.85163 1347
4.87174 1369
4.89186 1301
4.91197 1320
4.93209 1335
4.9522 1273
4.97231 1184
4.99243 1216
5.01254 1194
5.03265 1322
5.05277 1234
5.07288 1196
5.09299 1243
5.11311 1171
5.13322 1173
5.15334 1124
5.17345 1070
5.19356 1062
5.21368 1090
5.23379 1085
5.2539 1048
5.27402 1047
5.29413 1013
5.31425 1093
5.33436 982
5.35447 1020
5.37459 984
5.3947 960
5.41481 880
5.43493 979
5.45504 940
5.47516 960
5.49527 909
5.51538 918
5.5355 919
5.55561 871
5.57572 877
5.59584 909
5.61595 862
5.63606 853
5.65618 892
5.67629 848
5.69641 814
5.71652 862
5.73663 923
5.75675 856
5.77686 888
5.79697 824
5.81709 816
5.8372 877
5.85732 809
5.87743 788
5.89754 812
5.91766 813
5.93777 779
5.95788 783
5.978 798
5.99811 776
6.01823 797
6.03834 799
6.05845 751
6.07857 850
6.09868 758
6.11879 806
6.13891 780
6.15902 781
6.17913 770
6.19925 782
6.21936 819
6.23948 749
6.25959 756
6.2797 736
6.29982 709
6.31993 703
6.34004 711
6.36016 715
6.38027 711
6.40039 705
6.4205 631
6.44061 735
6.46073 643
6.48084 686
6.50095 636
6.52107 617
6.54118 670
6.56129 648
6.58141 640
6.60152 589
6.62164 671
6.64175 616
6.66186 643
6.68198 633
6.70209 621
6.7222 620
6.74232 612
6.76243 610
6.78255 604
6.80266 573
6.82277 566
6.84289 567
6.863 648
6.88311 586
6.90323 608
6.92334 588
6.94346 606
6.96357 548
6.98368 529
7.0038 603
7.02391 584
7.04402 595
7.06414 555
7.08425 554
7.10436 533
7.12448 541
7.14459 552
7.16471 524
7.18482 561
7.20493 545
7.22505 523
7.24516 573
7.26527 558
7.28539 539
7.3055 540
7.32562 552
7.34573 513
7.36584 582
7.38596 533
7.40607 517
7.42618 503
7.4463 499
7.46641 459
7.48653 542
7.50664 470
7.52675 523
7.54687 506
7.56698 490
7.58709 487
7.60721 483
7.62732 472
7.64743 484
7.66755 528
7.68766 496
7.70778 474
7.72789 521
7.748 435
7.76812 437
7.78823 503
7.80834 490
7.82846 451
7.84857 468
7.86869 474
7.8888 525
7.90891 464
7.92903 466
7.94914 497
7.96925 425
7.98937 423
8.00948 451
8.0296 471
8.04971 492
8.06982 455
8.08994 461
8.11005 443
8.13016 441
8.15028 463
8.17039 474
8.1905 454
8.21062 423
8.23073 458
8.25085 440
8.27096 447
8.29107 438
8.31119 456
8.3313 480
8.35141 478
8.37153 422
8.39164 433
8.41176 469
8.43187 440
8.45198 452
8.4721 451
8.49221 416
8.51232 506
8.53244 433
8.55255 472
8.57266 454
8.59278 403
8.61289 483
8.63301 478
8.65312 447
8.67323 449
8.69335 496
8.71346 466
8.73357 444
8.75369 456
8.7738 449
8.79392 433
8.81403 481
8.83414 431
8.85426 442
8.87437 403
8.89448 443
8.9146 433
8.93471 408
8.95483 347
8.97494 438
8.99505 433
9.01517 408
9.03528 425
9.05539 400
9.07551 429
9.09562 378
9.11573 376
9.13585 356
9.15596 404
9.17608 378
9.19619 393
9.2163 382
9.23642 378
9.25653 361
9.27664 380
9.29676 375
9.31687 427
9.33699 374
9.3571 356
9.37721 384
9.39733 377
9.41744 369
9.43755 380
9.45767 372
9.47778 382
9.4979 336
9.51801 389
9.53812 371
9.55824 388
9.57835 353
9.59846 374
9.61858 361
9.63869 362
9.6588 356
9.67892 385
9.69903 373
9.71915 365
9.73926 397
9.75937 356
9.77949 376
9.7996 350
9.81971 371
9.83983 350
9.85994 366
9.88006 339
9.90017 345
9.92028 390
9.9404 354
9.96051 347
9.98062 342
10.00074 346
10.02085 336
10.04097 343
10.06108 343
10.08119 320
10.10131 315
10.12142 321
10.14153 357
10.16165 304
10.18176 361
10.20187 343
10.22199 316
10.2421 335
10.26222 372
10.28233 332
10.30244 337
10.32256 372
10.34267 337
10.36278 350
10.3829 349
10.40301 344
10.42313 414
10.44324 373
10.46335 354
10.48347 403
10.50358 369
10.52369 352
10.54381 357
10.56392 329
10.58403 372
10.60415 324
10.62426 338
10.64438 334
10.66449 343
10.6846 331
10.70472 280
10.72483 383
10.74494 348
10.76506 302
10.78517 359
10.80529 358
10.8254 339
10.84551 349
10.86563 374
10.88574 325
10.90585 346
10.92597 353
10.94608 344
10.9662 340
10.98631 330
11.00642 334
11.02654 327
11.04665 340
11.06676 336
11.08688 334
11.10699 334
11.1271 328
11.14722 299
11.16733 329
11.18745 309
11.20756 314
11.22767 324
11.24779 292
11.2679 339
11.28801 364
11.30813 356
11.32824 328
11.34836 326
11.36847 352
11.38858 350
11.4087 342
11.42881 313
11.44892 317
11.46904 336
11.48915 340
11.50927 327
11.52938 351
11.54949 339
11.56961 342
11.58972 331
11.60983 383
11.62995 321
11.65006 326
11.67017 332
11.69029 365
11.7104 286
11.73052 317
11.75063 371
11.77074 344
11.79086 328
11.81097 352
11.83108 326
11.8512 348
11.87131 329
11.89143 324
11.91154 327
11.93165 315
11.95177 345
11.97188 329
11.99199 316
12.01211 340
12.03222 340
12.05234 349
12.07245 339
12.09256 329
12.11268 336
12.13279 348
12.1529 324
12.17302 362
12.19313 351
12.21324 354
12.23336 337
12.25347 397
12.27359 368
12.2937 354
12.31381 372
12.33393 366
12.35404 412
12.37415 386
12.39427 406
12.41438 373
12.4345 349
12.45461 375
12.47472 337
12.49484 354
12.51495 316
12.53506 321
12.55518 315
12.57529 323
12.5954 322
12.61552 327
12.63563 336
12.65575 330
12.67586 351
12.69597 325
12.71609 334
12.7362 330
12.75631 300
12.77643 307
12.79654 297
12.81666 288
12.83677 314
12.85688 321
12.877 303
12.89711 335
12.91722 360
12.93734 360
12.95745 329
12.97757 291
12.99768 297
13.01779 311
13.03791 301
13.05802 308
13.07813 325
13.09825 329
13.11836 339
13.13847 314
13.15859 340
13.1787 346
13.19882 319
13.21893 336
13.23904 308
13.25916 328
13.27927 324
13.29938 302
13.3195 323
13.33961 293
13.35973 296
13.37984 303
13.39995 316
13.42007 324
13.44018 338
13.46029 316
13.48041 314
13.50052 327
13.52064 304
13.54075 304
13.56086 334
13.58098 310
13.60109 362
13.6212 323
13.64132 330
13.66143 327
13.68154 292
13.70166 325
13.72177 336
13.74189 299
13.762 341
13.78211 361
13.80223 323
13.82234 324
13.84245 339
13.86257 328
13.88268 366
13.9028 328
13.92291 306
13.94302 319
13.96314 308
13.98325 309
14.00336 283
14.02348 322
14.04359 278
14.06371 322
14.08382 336
14.10393 287
14.12405 302
14.14416 286
14.16427 313
14.18439 295
14.2045 296
14.22461 291
14.24473 285
14.26484 319
14.28496 301
14.30507 332
14.32518 312
14.3453 296
14.36541 321
14.38552 305
14.40564 334
14.42575 332
14.44587 295
14.46598 323
14.48609 309
14.50621 315
14.52632 296
14.54643 319
14.56655 303
14.58666 295
14.60677 301
14.62689 314
14.647 309
14.66712 301
14.68723 314
14.70734 349
14.72746 303
14.74757 305
14.76768 313
14.7878 330
14.80791 308
14.82803 284
14.84814 340
14.86825 296
14.88837 340
14.90848 317
14.92859 288
14.94871 331
14.96882 337
14.98894 330
15.00905 319
15.02916 338
15.04928 314
15.06939 317
15.0895 333
15.10962 298
15.12973 301
15.14984 329
15.16996 343
15.19007 320
15.21019 306
15.2303 304
15.25041 273
15.27053 304
15.29064 324
15.31075 297
15.33087 336
15.35098 300
15.3711 289
15.39121 288
15.41132 276
15.43144 315
15.45155 289
15.47166 311
15.49178 278
15.51189 284
15.53201 295
15.55212 313
15.57223 299
15.59235 304
15.61246 323
15.63257 311
15.65269 314
15.6728 320
15.69291 326
15.71303 304
15.73314 326
15.75326 308
15.77337 321
15.79348 334
15.8136 321
15.83371 285
15.85382 308
15.87394 308
15.89405 335
15.91417 319
15.93428 323
15.95439 300
15.97451 315
15.99462 300
16.01473 296
16.03485 297
16.05496 311
16.07508 340
16.09519 319
16.1153 319
16.13542 306
16.15553 286
16.17564 318
16.19576 298
16.21587 314
16.23598 335
16.2561 336
16.27621 310
16.29633 301
16.31644 336
16.33655 293
16.35667 313
16.37678 314
16.39689 316
16.41701 322
16.43712 317
16.45724 326
16.47735 300
16.49746 321
16.51758 309
16.53769 317
16.5578 326
16.57792 334
16.59803 292
16.61814 348
16.63826 322
16.65837 327
16.67849 313
16.6986 281
16.71871 327
16.73883 309
16.75894 337
16.77905 271
16.79917 341
16.81928 299
16.8394 272
16.85951 306
16.87962 339
16.89974 321
16.91985 340
16.93996 307
16.96008 320
16.98019 307
17.00031 312
17.02042 338
17.04053 293
17.06065 282
17.08076 349
17.10087 303
17.12099 308
17.1411 300
17.16121 312
17.18133 340
17.20144 319
17.22156 315
17.24167 330
17.26178 310
17.2819 343
17.30201 335
17.32212 364
17.34224 312
17.36235 337
17.38247 302
17.40258 381
17.42269 313
17.44281 305
17.46292 329
17.48303 351
17.50315 335
17.52326 365
17.54338 315
17.56349 334
17.5836 346
17.60372 374
17.62383 345
17.64394 343
17.66406 343
17.68417 330
17.70428 347
17.7244 341
17.74451 340
17.76463 390
17.78474 366
17.80485 334
17.82497 359
17.84508 344
17.86519 382
17.88531 358
17.90542 349
17.92554 352
17.94565 367
17.96576 346
17.98588 341
18.00599 352
18.0261 345
18.04622 353
18.06633 347
18.08645 306
18.10656 325
18.12667 345
18.14679 300
18.1669 318
18.18701 334
18.20713 348
18.22724 329
18.24735 327
18.26747 296
18.28758 328
18.3077 335
18.32781 324
18.34792 304
18.36804 305
18.38815 382
18.40826 330
18.42838 326
18.44849 326
18.46861 335
18.48872 354
18.50883 353
18.52895 362
18.54906 308
18.56917 356
18.58929 306
18.6094 314
18.62951 335
18.64963 360
18.66974 333
18.68986 341
18.70997 356
18.73008 341
18.7502 349
18.77031 356
18.79042 321
18.81054 358
18.83065 376
18.85077 364
18.87088 325
18.89099 326
18.91111 381
18.93122 348
18.95133 313
18.97145 335
18.99156 369
19.01168 335
19.03179 308
19.0519 360
19.07202 338
19.09213 350
19.11224 382
19.13236 364
19.15247 374
19.17258 381
19.1927 407
19.21281 433
19.23293 435
19.25304 414
19.27315 388
19.29327 441
19.31338 467
19.33349 494
19.35361 496
19.37372 448
19.39384 500
19.41395 485
19.43406 488
19.45418 489
19.47429 505
19.4944 574
19.51452 569
19.53463 576
19.55475 633
19.57486 639
19.59497 659
19.61509 619
19.6352 696
19.65531 727
19.67543 697
19.69554 737
19.71565 754
19.73577 790
19.75588 762
19.776 781
19.79611 723
19.81622 733
19.83634 693
19.85645 697
19.87656 694
19.89668 713
19.91679 651
19.93691 632
19.95702 658
19.97713 626
19.99725 607
20.01736 577
20.03747 596
20.05759 560
20.0777 614
20.09782 570
20.11793 554
20.13804 572
20.15816 607
20.17827 593
20.19838 528
20.2185 538
20.23861 528
20.25872 516
20.27884 487
20.29895 518
20.31907 532
20.33918 486
20.35929 515
20.37941 545
20.39952 533
20.41963 465
20.43975 474
20.45986 494
20.47998 536
20.50009 470
20.5202 502
20.54032 504
20.56043 553
20.58054 519
20.60066 517
20.62077 568
20.64088 578
20.661 628
20.68111 712
20.70123 831
20.72134 880
20.74145 1048
20.76157 1198
20.78168 1270
20.80179 1290
20.82191 1238
20.84202 1075
20.86214 906
20.88225 800
20.90236 741
20.92248 676
20.94259 588
20.9627 512
20.98282 533
21.00293 511
21.02305 446
21.04316 449
21.06327 443
21.08339 486
21.1035 460
21.12361 438
21.14373 453
21.16384 460
21.18395 466
21.20407 453
21.22418 436
21.2443 469
21.26441 451
21.28452 454
21.30464 463
21.32475 460
21.34486 450
21.36498 464
21.38509 487
21.40521 446
21.42532 434
21.44543 459
21.46555 449
21.48566 441
21.50577 457
21.52589 474
21.546 414
21.56612 411
21.58623 401
21.60634 450
21.62646 430
21.64657 426
21.66668 447
21.6868 397
21.70691 453
21.72702 407
21.74714 470
21.76725 440
21.78737 428
21.80748 461
21.82759 456
21.84771 461
21.86782 441
21.88793 491
21.90805 478
21.92816 496
21.94828 502
21.96839 491
21.9885 495
22.00862 458
22.02873 492
22.04884 465
22.06896 439
22.08907 490
22.10919 417
22.1293 429
22.14941 403
22.16953 402
22.18964 460
22.20975 412
22.22987 379
22.24998 395
22.27009 424
22.29021 419
22.31032 412
22.33044 413
22.35055 373
22.37066 436
22.39078 396
22.41089 422
22.431 377
22.45112 379
22.47123 409
22.49135 445
22.51146 382
22.53157 441
22.55169 399
22.5718 427
22.59191 399
22.61203 382
22.63214 416
22.65225 441
22.67237 459
22.69248 407
22.7126 388
22.73271 421
22.75282 465
22.77294 462
22.79305 482
22.81316 447
22.83328 471
22.85339 468
22.87351 504
22.89362 530
22.91373 573
22.93385 565
22.95396 691
22.97407 666
22.99419 660
23.0143 696
23.03442 680
23.05453 661
23.07464 623
23.09476 642
23.11487 556
23.13498 538
23.1551 459
23.17521 407
23.19532 450
23.21544 454
23.23555 464
23.25567 422
23.27578 434
23.29589 439
23.31601 435
23.33612 461
23.35623 439
23.37635 445
23.39646 460
23.41658 458
23.43669 409
23.4568 440
23.47692 490
23.49703 470
23.51714 440
23.53726 481
23.55737 505
23.57749 434
23.5976 493
23.61771 466
23.63783 440
23.65794 468
23.67805 474
23.69817 444
23.71828 422
23.73839 437
23.75851 461
23.77862 431
23.79874 465
23.81885 434
23.83896 425
23.85908 443
23.87919 448
23.8993 458
23.91942 422
23.93953 434
23.95965 478
23.97976 435
23.99987 435
24.01999 487
24.0401 409
24.06021 416
24.08033 436
24.10044 439
24.12056 460
24.14067 436
24.16078 472
24.1809 446
24.20101 438
24.22112 447
24.24124 466
24.26135 450
24.28146 461
24.30158 477
24.32169 441
24.34181 435
24.36192 433
24.38203 417
24.40215 429
24.42226 457
24.44237 421
24.46249 428
24.4826 392
24.50272 415
24.52283 409
24.54294 429
24.56306 403
24.58317 422
24.60328 453
24.6234 464
24.64351 423
24.66362 445
24.68374 410
24.70385 456
24.72397 395
24.74408 462
24.76419 439
24.78431 420
24.80442 421
24.82453 445
24.84465 431
24.86476 448
24.88488 487
24.90499 406
24.9251 433
24.94522 416
24.96533 458
24.98544 449
25.00556 436
25.02567 430
25.04579 500
25.0659 408
25.08601 460
25.10613 460
25.12624 460
25.14635 438
25.16647 480
25.18658 506
25.20669 484
25.22681 472
25.24692 482
25.26704 468
25.28715 470
25.30726 459
25.32738 463
25.34749 468
25.3676 501
25.38772 472
25.40783 435
25.42795 491
25.44806 486
25.46817 456
25.48829 495
25.5084 472
25.52851 483
25.54863 480
25.56874 470
25.58886 491
25.60897 474
25.62908 436
25.6492 451
25.66931 445
25.68942 453
25.70954 429
25.72965 423
25.74976 428
25.76988 470
25.78999 408
25.81011 447
25.83022 446
25.85033 476
25.87045 440
25.89056 463
25.91067 477
25.93079 457
25.9509 467
25.97102 435
25.99113 469
26.01124 443
26.03136 455
26.05147 500
26.07158 467
26.0917 481
26.11181 508
26.13193 522
26.15204 544
26.17215 550
26.19227 538
26.21238 596
26.23249 560
26.25261 621
26.27272 563
26.29283 589
26.31295 669
26.33306 705
26.35318 808
26.37329 867
26.3934 992
26.41352 1125
26.43363 1418
26.45374 1764
26.47386 2288
26.49397 2774
26.51409 3378
26.5342 3862
26.55431 4336
26.57443 4561
26.59454 4343
26.61465 3874
26.63477 3174
26.65488 2575
26.67499 2014
26.69511 1497
26.71522 1141
26.73534 883
26.75545 724
26.77556 693
26.79568 656
26.81579 609
26.8359 611
26.85602 615
26.87613 535
26.89625 606
26.91636 547
26.93647 546
26.95659 508
26.9767 555
26.99681 576
27.01693 517
27.03704 496
27.05716 536
27.07727 494
27.09738 520
27.1175 451
27.13761 491
27.15772 498
27.17784 513
27.19795 528
27.21806 475
27.23818 485
27.25829 478
27.27841 537
27.29852 529
27.31863 518
27.33875 550
27.35886 523
27.37897 572
27.39909 625
27.4192 548
27.43932 508
27.45943 564
27.47954 556
27.49966 522
27.51977 565
27.53988 542
27.56 517
27.58011 507
27.60023 537
27.62034 604
27.64045 578
27.66057 567
27.68068 549
27.70079 591
27.72091 626
27.74102 607
27.76113 611
27.78125 601
27.80136 562
27.82148 593
27.84159 609
27.8617 567
27.88182 545
27.90193 590
27.92204 552
27.94216 556
27.96227 558
27.98239 524
28.0025 511
28.02261 465
28.04273 477
28.06284 482
28.08295 464
28.10307 448
28.12318 460
28.1433 423
28.16341 437
28.18352 460
28.20364 480
28.22375 478
28.24386 429
28.26398 421
28.28409 413
28.3042 425
28.32432 465
28.34443 438
28.36455 431
28.38466 452
28.40477 461
28.42489 465
28.445 516
28.46511 438
28.48523 453
28.50534 452
28.52546 428
28.54557 446
28.56568 447
28.5858 433
28.60591 440
28.62602 412
28.64614 441
28.66625 408
28.68636 429
28.70648 473
28.72659 448
28.74671 473
28.76682 428
28.78693 487
28.80705 420
28.82716 477
28.84727 453
28.86739 444
28.8875 483
28.90762 451
28.92773 457
28.94784 488
28.96796 465
28.98807 548
29.00818 534
29.0283 528
29.04841 572
29.06853 594
29.08864 705
29.10875 749
29.12887 854
29.14898 910
29.16909 1039
29.18921 1119
29.20932 1352
29.22943 1620
29.24955 1974
29.26966 2270
29.28978 2568
29.30989 3094
29.33 3244
29.35012 3334
29.37023 3161
29.39034 3012
29.41046 2739
29.43057 2354
29.45069 1912
29.4708 1591
29.49091 1229
29.51103 1084
29.53114 980
29.55125 810
29.57137 751
29.59148 664
29.6116 674
29.63171 578
29.65182 603
29.67194 566
29.69205 537
29.71216 549
29.73228 518
29.75239 537
29.7725 521
29.79262 531
29.81273 515
29.83285 514
29.85296 485
29.87307 494
29.89319 427
29.9133 477
29.93341 439
29.95353 455
29.97364 463
29.99376 455
30.01387 430
30.03398 461
30.0541 486
30.07421 422
30.09432 424
30.11444 410
30.13455 423
30.15467 425
30.17478 458
30.19489 461
30.21501 452
30.23512 425
30.25523 434
30.27535 433
30.29546 470
30.31557 473
30.33569 446
30.3558 477
30.37592 460
30.39603 452
30.41614 440
30.43626 458
30.45637 407
30.47648 403
30.4966 410
30.51671 418
30.53683 376
30.55694 374
30.57705 424
30.59717 403
30.61728 429
30.63739 453
30.65751 384
30.67762 410
30.69773 386
30.71785 453
30.73796 429
30.75808 424
30.77819 379
30.7983 448
30.81842 460
30.83853 416
30.85864 389
30.87876 376
30.89887 392
30.91899 383
30.9391 412
30.95921 359
30.97933 401
30.99944 366
31.01955 374
31.03967 395
31.05978 357
31.0799 386
31.10001 371
31.12012 392
31.14024 344
31.16035 420
31.18046 376
31.20058 439
31.22069 407
31.2408 439
31.26092 395
31.28103 414
31.30115 413
31.32126 404
31.34137 450
31.36149 465
31.3816 434
31.40171 423
31.42183 424
31.44194 404
31.46206 416
31.48217 463
31.50228 410
31.5224 414
31.54251 350
31.56262 387
31.58274 365
31.60285 408
31.62297 398
31.64308 351
31.66319 381
31.68331 379
31.70342 386
31.72353 385
31.74365 400
31.76376 389
31.78387 350
31.80399 428
31.8241 379
31.84422 377
31.86433 394
31.88444 386
31.90456 376
31.92467 388
31.94478 347
31.9649 371
31.98501 404
32.00513 391
32.02524 365
32.04535 422
32.06547 369
32.08558 405
32.10569 382
32.12581 377
32.14592 344
32.16604 392
32.18615 380
32.20626 402
32.22638 393
32.24649 362
32.2666 336
32.28672 371
32.30683 370
32.32694 373
32.34706 360
32.36717 348
32.38729 363
32.4074 379
32.42751 385
32.44763 363
32.46774 342
32.48785 381
32.50797 373
32.52808 377
32.5482 392
32.56831 381
32.58842 352
32.60854 378
32.62865 370
32.64876 333
32.66888 400
32.68899 372
32.7091 359
32.72922 344
32.74933 358
32.76945 391
32.78956 347
32.80967 367
32.82979 381
32.8499 398
32.87001 365
32.89013 434
32.91024 383
32.93036 372
32.95047 434
32.97058 394
32.9907 416
33.01081 405
33.03092 410
33.05104 388
33.07115 397
33.09127 416
33.11138 414
33.13149 405
33.15161 382
33.17172 375
33.19183 393
33.21195 400
33.23206 384
33.25217 351
33.27229 374
33.2924 361
33.31252 380
33.33263 384
33.35274 383
33.37286 393
33.39297 365
33.41308 375
33.4332 354
33.45331 365
33.47343 345
33.49354 368
33.51365 361
33.53377 352
33.55388 335
33.57399 381
33.59411 368
33.61422 364
33.63434 351
33.65445 375
33.67456 362
33.69468 406
33.71479 365
33.7349 340
33.75502 371
33.77513 370
33.79524 403
33.81536 388
33.83547 374
33.85559 407
33.8757 389
33.89581 358
33.91593 355
33.93604 355
33.95615 386
33.97627 368
33.99638 423
34.0165 416
34.03661 383
34.05672 400
34.07684 401
34.09695 393
34.11706 425
34.13718 424
34.15729 428
34.17741 448
34.19752 452
34.21763 511
34.23775 467
34.25786 481
34.27797 506
34.29809 499
34.3182 494
34.33831 513
34.35843 497
34.37854 539
34.39866 535
34.41877 536
34.43888 545
34.459 528
34.47911 565
34.49922 548
34.51934 544
34.53945 568
34.55957 551
34.57968 565
34.59979 547
34.61991 541
34.64002 587
34.66013 522
34.68025 560
34.70036 591
34.72047 586
34.74059 598
34.7607 567
34.78082 594
34.80093 615
34.82104 628
34.84116 564
34.86127 654
34.88138 612
34.9015 568
34.92161 597
34.94173 610
34.96184 578
34.98195 605
35.00207 569
35.02218 581
35.04229 573
35.06241 584
35.08252 541
35.10264 525
35.12275 534
35.14286 519
35.16298 569
35.18309 559
35.2032 539
35.22332 532
35.24343 559
35.26354 532
35.28366 526
35.30377 562
35.32389 501
35.344 504
35.36411 548
35.38423 524
35.40434 511
35.42445 505
35.44457 492
35.46468 518
35.4848 570
35.50491 550
35.52502 550
35.54514 548
35.56525 535
35.58536 520
35.60548 542
35.62559 540
35.64571 494
35.66582 541
35.68593 504
35.70605 580
35.72616 520
35.74627 584
35.76639 599
35.7865 623
35.80661 581
35.82673 678
35.84684 710
35.86696 724
35.88707 766
35.90718 796
35.9273 773
35.94741 809
35.96752 726
35.98764 690
36.00775 724
36.02787 645
36.04798 634
36.06809 570
36.08821 518
36.10832 523
36.12843 491
36.14855 474
36.16866 509
36.18878 510
36.20889 467
36.229 447
36.24912 489
36.26923 501
36.28934 525
36.30946 541
36.32957 521
36.34968 563
36.3698 576
36.38991 622
36.41003 679
36.43014 667
36.45025 692
36.47037 711
36.49048 716
36.51059 657
36.53071 643
36.55082 622
36.57094 617
36.59105 540
36.61116 498
36.63128 475
36.65139 488
36.6715 464
36.69162 433
36.71173 478
36.73184 439
36.75196 442
36.77207 456
36.79219 440
36.8123 435
36.83241 444
36.85253 451
36.87264 458
36.89275 400
36.91287 477
36.93298 464
36.9531 472
36.97321 443
36.99332 398
37.01344 417
37.03355 454
37.05366 424
37.07378 417
37.09389 445
37.11401 421
37.13412 414
37.15423 393
37.17435 455
37.19446 464
37.21457 419
37.23469 423
37.2548 443
37.27491 410
37.29503 444
37.31514 436
37.33526 392
37.35537 416
37.37548 418
37.3956 425
37.41571 432
37.43582 422
37.45594 409
37.47605 436
37.49617 415
37.51628 432
37.53639 451
37.55651 441
37.57662 433
37.59673 405
37.61685 442
37.63696 424
37.65708 419
37.67719 444
37.6973 410
37.71742 412
37.73753 417
37.75764 399
37.77776 383
37.79787 352
37.81798 407
37.8381 387
37.85821 391
37.87833 403
37.89844 380
37.91855 409
37.93867 373
37.95878 377
37.97889 363
37.99901 389
38.01912 386
38.03924 369
38.05935 336
38.07946 391
38.09958 357
38.11969 359
38.1398 401
38.15992 377
38.18003 350
38.20015 375
38.22026 374
38.24037 363
38.26049 367
38.2806 352
38.30071 376
38.32083 329
38.34094 378
38.36105 394
38.38117 380
38.40128 390
38.4214 372
38.44151 374
38.46162 349
38.48174 391
38.50185 394
38.52196 347
38.54208 393
38.56219 375
38.58231 392
38.60242 367
38.62253 373
38.64265 350
38.66276 365
38.68287 390
38.70299 363
38.7231 372
38.74321 375
38.76333 367
38.78344 378
38.80356 314
38.82367 356
38.84378 367
38.8639 377
38.88401 370
38.90412 349
38.92424 404
38.94435 351
38.96447 364
38.98458 386
39.00469 397
39.02481 394
39.04492 381
39.06503 412
39.08515 453
39.10526 436
39.12538 466
39.14549 529
39.1656 490
39.18572 556
39.20583 575
39.22594 652
39.24606 731
39.26617 775
39.28628 844
39.3064 884
39.32651 966
39.34663 1047
39.36674 1112
39.38685 1101
39.40697 1072
39.42708 1016
39.44719 892
39.46731 820
39.48742 746
39.50754 720
39.52765 600
39.54776 518
39.56788 519
39.58799 455
39.6081 403
39.62822 432
39.64833 434
39.66845 434
39.68856 384
39.70867 413
39.72879 437
39.7489 397
39.76901 392
39.78913 406
39.80924 400
39.82935 391
39.84947 403
39.86958 385
39.8897 372
39.90981 385
39.92992 375
39.95004 400
39.97015 396
39.99026 404
40.01038 404
40.03049 369
40.05061 399
40.07072 415
40.09083 415
40.11095 442
40.13106 442
40.15117 459
40.17129 435
40.1914 436
40.21152 455
40.23163 455
40.25174 501
40.27186 448
40.29197 411
40.31208 426
40.3322 405
40.35231 384
40.37242 374
40.39254 387
40.41265 382
40.43277 353
40.45288 387
40.47299 362
40.49311 343
40.51322 346
40.53333 371
40.55345 330
40.57356 361
40.59368 337
40.61379 339
40.6339 431
40.65402 365
40.67413 392
40.69424 351
40.71436 372
40.73447 376
40.75458 387
40.7747 372
40.79481 348
40.81493 389
40.83504 376
40.85515 374
40.87527 334
40.89538 382
40.91549 369
40.93561 379
40.95572 378
40.97584 373
40.99595 363
41.01606 369
41.03618 366
41.05629 393
41.0764 360
41.09652 383
41.11663 374
41.13675 375
41.15686 386
41.17697 386
41.19709 355
41.2172 358
41.23731 345
41.25743 369
41.27754 392
41.29765 376
41.31777 350
41.33788 374
41.358 367
41.37811 345
41.39822 380
41.41834 357
41.43845 339
41.45856 348
41.47868 374
41.49879 357
41.51891 365
41.53902 367
41.55913 365
41.57925 360
41.59936 388
41.61947 397
41.63959 353
41.6597 388
41.67982 362
41.69993 363
41.72004 392
41.74016 357
41.76027 361
41.78038 355
41.8005 353
41.82061 388
41.84072 409
41.86084 380
41.88095 373
41.90107 332
41.92118 355
41.94129 355
41.96141 319
41.98152 360
42.00163 367
42.02175 341
42.04186 379
42.06198 397
42.08209 375
42.1022 387
42.12232 383
42.14243 382
42.16254 366
42.18266 366
42.20277 398
42.22289 428
42.243 467
42.26311 431
42.28323 427
42.30334 478
42.32345 507
42.34357 499
42.36368 500
42.38379 510
42.40391 475
42.42402 487
42.44414 471
42.46425 448
42.48436 444
42.50448 428
42.52459 366
42.5447 448
42.56482 363
42.58493 341
42.60505 356
42.62516 368
42.64527 367
42.66539 374
42.6855 394
42.70561 392
42.72573 351
42.74584 405
42.76595 386
42.78607 368
42.80618 404
42.8263 373
42.84641 385
42.86652 418
42.88664 412
42.90675 414
42.92686 464
42.94698 497
42.96709 514
42.98721 510
43.00732 553
43.02743 619
43.04755 665
43.06766 743
43.08777 750
43.10789 729
43.128 771
43.14812 716
43.16823 718
43.18834 685
43.20846 655
43.22857 616
43.24868 555
43.2688 542
43.28891 489
43.30902 457
43.32914 410
43.34925 403
43.36937 402
43.38948 399
43.40959 370
43.42971 328
43.44982 362
43.46993 377
43.49005 360
43.51016 341
43.53028 362
43.55039 346
43.5705 336
43.59062 327
43.61073 335
43.63084 341
43.65096 340
43.67107 346
43.69119 331
43.7113 336
43.73141 348
43.75153 334
43.77164 340
43.79175 320
43.81187 315
43.83198 354
43.85209 320
43.87221 338
43.89232 325
43.91244 382
43.93255 329
43.95266 360
43.97278 330
43.99289 388
44.013 354
44.03312 336
44.05323 362
44.07335 348
44.09346 354
44.11357 350
44.13369 334
44.1538 361
44.17391 329
44.19403 335
44.21414 314
44.23426 329
44.25437 304
44.27448 333
44.2946 332
44.31471 306
44.33482 349
44.35494 357
44.37505 305
44.39516 313
44.41528 320
44.43539 325
44.45551 316
44.47562 311
44.49573 289
44.51585 308
44.53596 330
44.55607 337
44.57619 302
44.5963 311
44.61642 351
44.63653 285
44.65664 322
44.67676 354
44.69687 303
44.71698 331
44.7371 337
44.75721 377
44.77732 359
44.79744 344
44.81755 340
44.83767 331
44.85778 346
44.87789 316
44.89801 376
44.91812 375
44.93823 340
44.95835 339
44.97846 355
44.99858 338
45.01869 325
45.0388 353
45.05892 331
45.07903 339
45.09914 383
45.11926 344
45.13937 350
45.15949 367
45.1796 331
45.19971 364
45.21983 368
45.23994 332
45.26005 332
45.28017 362
45.30028 367
45.32039 338
45.34051 297
45.36062 335
45.38074 349
45.40085 355
45.42096 336
45.44108 323
45.46119 375
45.4813 322
45.50142 355
45.52153 389
45.54165 302
45.56176 341
45.58187 383
45.60199 398
45.6221 451
45.64221 455
45.66233 406
45.68244 425
45.70256 455
45.72267 438
45.74278 475
45.7629 430
45.78301 399
45.80312 387
45.82324 379
45.84335 380
45.86346 427
45.88358 368
45.90369 356
45.92381 341
45.94392 349
45.96403 347
45.98415 346
46.00426 327
46.02437 329
46.04449 344
46.0646 327
46.08472 326
46.10483 306
46.12494 341
46.14506 328
46.16517 341
46.18528 307
46.2054 343
46.22551 359
46.24563 319
46.26574 316
46.28585 337
46.30597 314
46.32608 339
46.34619 314
46.36631 288
46.38642 317
46.40653 342
46.42665 315
46.44676 328
46.46688 314
46.48699 298
46.5071 292
46.52722 335
46.54733 315
46.56744 322
46.58756 318
46.60767 351
46.62779 336
46.6479 332
46.66801 317
46.68813 346
46.70824 314
46.72835 355
46.74847 344
46.76858 365
46.78869 324
46.80881 307
46.82892 375
46.84904 341
46.86915 354
46.88926 403
46.90938 418
46.92949 437
46.9496 445
46.96972 414
46.98983 466
47.00995 467
47.03006 455
47.05017 507
47.07029 478
47.0904 494
47.11051 434
47.13063 489
47.15074 505
47.17086 457
47.19097 464
47.21108 452
47.2312 479
47.25131 460
47.27142 472
47.29154 528
47.31165 574
47.33176 619
47.35188 616
47.37199 650
47.39211 699
47.41222 708
47.43233 742
47.45245 798
47.47256 738
47.49267 721
47.51279 647
47.5329 654
47.55302 609
47.57313 588
47.59324 549
47.61336 538
47.63347 506
47.65358 499
47.6737 442
47.69381 467
47.71393 429
47.73404 357
47.75415 334
47.77427 373
47.79438 333
47.81449 348
47.83461 363
47.85472 340
47.87483 345
47.89495 360
47.91506 361
47.93518 350
47.95529 353
47.9754 332
47.99552 332
48.01563 359
48.03574 367
48.05586 357
48.07597 371
48.09609 334
48.1162 399
48.13631 358
48.15643 385
48.17654 416
48.19665 416
48.21677 430
48.23688 429
48.257 405
48.27711 529
48.29722 526
48.31734 588
48.33745 578
48.35756 638
48.37768 671
48.39779 747
48.4179 713
48.43802 769
48.45813 789
48.47825 772
48.49836 749
48.51847 684
48.53859 652
48.5587 668
48.57881 642
48.59893 535
48.61904 607
48.63916 529
48.65927 458
48.67938 441
48.6995 402
48.71961 384
48.73972 392
48.75984 383
48.77995 399
48.80006 348
48.82018 337
48.84029 343
48.86041 330
48.88052 378
48.90063 347
48.92075 351
48.94086 323
48.96097 325
48.98109 300
49.0012 291
49.02132 336
49.04143 334
49.06154 303
49.08166 316
49.10177 329
49.12188 332
49.142 335
49.16211 336
49.18223 331
49.20234 330
49.22245 331
49.24257 334
49.26268 315
49.28279 349
49.30291 321
49.32302 298
49.34313 318
49.36325 306
49.38336 321
49.40348 307
49.42359 301
49.4437 343
49.46382 299
49.48393 318
49.50404 326
49.52416 333
49.54427 327
49.56439 352
49.5845 354
49.60461 341
49.62473 338
49.64484 305
49.66495 324
49.68507 319
49.70518 341
49.7253 345
49.74541 352
49.76552 346
49.78564 321
49.80575 365
49.82586 343
49.84598 332
49.86609 398
49.8862 400
49.90632 420
49.92643 456
49.94655 487
49.96666 516
49.98677 575
50.00689 612
50.027 614
50.04711 701
50.06723 667
50.08734 686
50.10746 640
50.12757 574
50.14768 528
50.1678 498
50.18791 535
50.20802 449
50.22814 411
50.24825 386
50.26837 341
50.28848 346
50.30859 336
50.32871 347
50.34882 315
50.36893 318
50.38905 341
50.40916 308
50.42927 333
50.44939 352
50.4695 303
50.48962 344
50.50973 349
50.52984 292
50.54996 299
50.57007 326
50.59018 297
50.6103 304
50.63041 305
50.65053 293
50.67064 336
50.69075 322
50.71087 342
50.73098 317
50.75109 304
50.77121 342
50.79132 311
50.81143 312
50.83155 288
50.85166 266
50.87178 293
50.89189 327
50.912 306
50.93212 320
50.95223 293
50.97234 294
50.99246 306
51.01257 260
51.03269 304
51.0528 329
51.07291 279
51.09303 260
51.11314 275
51.13325 287
51.15337 310
51.17348 300
51.1936 295
51.21371 288
51.23382 292
51.25394 300
51.27405 293
51.29416 319
51.31428 299
51.33439 299
51.3545 272
51.37462 327
51.39473 294
51.41485 281
51.43496 325
51.45507 269
51.47519 292
51.4953 286
51.51541 305
51.53553 276
51.55564 300
51.57576 287
51.59587 304
51.61598 260
51.6361 271
51.65621 294
51.67632 270
51.69644 276
51.71655 274
51.73667 323
51.75678 282
51.77689 274
51.79701 282
51.81712 276
51.83723 264
51.85735 302
51.87746 246
51.89757 309
51.91769 308
51.9378 273
51.95792 292
51.97803 270
51.99814 288
52.01826 281
52.03837 283
52.05848 330
52.0786 285
52.09871 308
52.11883 321
52.13894 296
52.15905 270
52.17917 291
52.19928 309
52.21939 268
52.23951 294
52.25962 297
52.27974 307
52.29985 318
52.31996 276
52.34008 288
52.36019 277
52.3803 322
52.40042 294
52.42053 333
52.44064 305
52.46076 289
52.48087 295
52.50099 288
52.5211 305
52.54121 302
52.56133 293
52.58144 286
52.60155 284
52.62167 267
52.64178 304
52.6619 294
52.68201 311
52.70212 281
52.72224 288
52.74235 307
52.76246 318
52.78258 263
52.80269 304
52.8228 288
52.84292 317
52.86303 304
52.88315 312
52.90326 302
52.92337 322
52.94349 310
52.9636 339
52.98371 329
53.00383 298
53.02394 337
53.04406 313
53.06417 298
53.08428 321
53.1044 328
53.12451 333
53.14462 317
53.16474 309
53.18485 319
53.20497 327
53.22508 343
53.24519 316
53.26531 341
53.28542 318
53.30553 318
53.32565 304
53.34576 341
53.36587 318
53.38599 348
53.4061 312
53.42622 370
53.44633 342
53.46644 348
53.48656 300
53.50667 346
53.52678 356
53.5469 362
53.56701 336
53.58713 338
53.60724 329
53.62735 342
53.64747 358
53.66758 363
53.68769 323
53.70781 386
53.72792 352
53.74804 369
53.76815 362
53.78826 347
53.80838 316
53.82849 362
53.8486 355
53.86872 383
53.88883 366
53.90894 362
53.92906 357
53.94917 362
53.96929 346
53.9894 353
54.00951 356
54.02963 345
54.04974 384
54.06985 390
54.08997 330
54.11008 311
54.1302 332
54.15031 346
54.17042 353
54.19054 330
54.21065 342
54.23076 348
54.25088 362
54.27099 345
54.29111 362
54.31122 304
54.33133 352
54.35145 339
54.37156 312
54.39167 355
54.41179 332
54.4319 381
54.45201 344
54.47213 351
54.49224 304
54.51236 358
54.53247 351
54.55258 379
54.5727 350
54.59281 355
54.61292 367
54.63304 371
54.65315 376
54.67327 407
54.69338 390
54.71349 409
54.73361 431
54.75372 431
54.77383 449
54.79395 458
54.81406 458
54.83417 415
54.85429 387
54.8744 383
54.89452 400
54.91463 390
54.93474 422
54.95486 403
54.97497 387
54.99508 385
55.0152 393
55.03531 366
55.05543 358
55.07554 353
55.09565 372
55.11577 375
55.13588 346
55.15599 361
55.17611 371
55.19622 363
55.21634 412
55.23645 382
55.25656 392
55.27668 401
55.29679 354
55.3169 401
55.33702 390
55.35713 350
55.37724 350
55.39736 348
55.41747 356
55.43759 323
55.4577 372
55.47781 339
55.49793 363
55.51804 335
55.53815 349
55.55827 315
55.57838 342
55.5985 347
55.61861 339
55.63872 320
55.65884 350
55.67895 331
55.69906 339
55.71918 355
55.73929 353
55.75941 329
55.77952 360
55.79963 321
55.81975 358
55.83986 335
55.85997 338
55.88009 317
55.9002 326
55.92031 306
55.94043 324
55.96054 345
55.98066 330
56.00077 346
56.02088 304
56.041 328
56.06111 314
56.08122 348
56.10134 330
56.12145 359
56.14157 343
56.16168 308
56.18179 321
56.20191 338
56.22202 319
56.24213 323
56.26225 349
56.28236 316
56.30248 346
56.32259 325
56.3427 322
56.36282 357
56.38293 349
56.40304 380
56.42316 384
56.44327 340
56.46338 411
56.4835 398
56.50361 384
56.52373 367
56.54384 385
56.56395 399
56.58407 424
56.60418 383
56.62429 340
56.64441 386
56.66452 350
56.68464 353
56.70475 345
56.72486 355
56.74498 357
56.76509 311
56.7852 341
56.80532 343
56.82543 306
56.84554 332
56.86566 316
56.88577 316
56.90589 359
56.926 327
56.94611 333
56.96623 353
56.98634 363
57.00645 330
57.02657 324
57.04668 345
57.0668 341
57.08691 348
57.10702 330
57.12714 354
57.14725 366
57.16736 407
57.18748 361
57.20759 415
57.22771 411
57.24782 456
57.26793 432
57.28805 486
57.30816 476
57.32827 503
57.34839 503
57.3685 519
57.38861 507
57.40873 499
57.42884 477
57.44896 419
57.46907 445
57.48918 486
57.5093 465
57.52941 441
57.54952 427
57.56964 353
57.58975 391
57.60987 354
57.62998 360
57.65009 350
57.67021 354
57.69032 371
57.71043 335
57.73055 348
57.75066 296
57.77078 322
57.79089 316
57.811 339
57.83112 335
57.85123 320
57.87134 340
57.89146 299
57.91157 317
57.93168 304
57.9518 363
57.97191 316
57.99203 342
58.01214 349
58.03225 327
58.05237 325
58.07248 351
58.09259 335
58.11271 333
58.13282 331
58.15294 307
58.17305 294
58.19316 329
58.21328 293
58.23339 310
58.2535 326
58.27362 315
58.29373 313
58.31385 281
58.33396 296
58.35407 314
58.37419 332
58.3943 279
58.41441 311
58.43453 279
58.45464 316
58.47475 273
58.49487 297
58.51498 278
58.5351 320
58.55521 304
58.57532 295
58.59544 327
58.61555 283
58.63566 307
58.65578 302
58.67589 300
58.69601 296
58.71612 333
58.73623 284
58.75635 293
58.77646 295
58.79657 280
58.81669 300
58.8368 288
58.85691 316
58.87703 331
58.89714 344
58.91726 274
58.93737 313
58.95748 312
58.9776 297
58.99771 294
59.01782 278
59.03794 300
59.05805 279
59.07817 296
59.09828 310
59.11839 281
59.13851 321
59.15862 294
59.17873 300
59.19885 319
59.21896 309
59.23908 288
59.25919 290
59.2793 303
59.29942 337
59.31953 318
59.33964 316
59.35976 328
59.37987 281
59.39998 351
59.4201 295
59.44021 291
59.46033 324
59.48044 292
59.50055 320
59.52067 340
59.54078 324
59.56089 294
59.58101 330
59.60112 362
59.62124 355
59.64135 382
59.66146 347
59.68158 397
59.70169 392
59.7218 375
59.74192 410
59.76203 456
59.78215 478
59.80226 509
59.82237 490
59.84249 530
59.8626 551
59.88271 538
59.90283 543
59.92294 521
59.94305 457
59.96317 451
59.98328 433
60.0034 431
60.02351 442
60.04362 434
60.06374 423
60.08385 432
60.10396 388
60.12408 368
60.14419 394
60.16431 356
60.18442 341
60.20453 343
60.22465 348
60.24476 317
60.26487 332
60.28499 342
60.3051 371
60.32522 334
60.34533 385
60.36544 345
60.38556 349
60.40567 355
60.42578 338
60.4459 398
60.46601 367
60.48612 363
60.50624 372
60.52635 360
60.54647 420
60.56658 405
60.58669 441
60.60681 426
60.62692 432
60.64703 451
60.66715 453
60.68726 425
60.70738 419
60.72749 399
60.7476 416
60.76772 416
60.78783 395
60.80794 382
60.82806 436
60.84817 441
60.86828 381
60.8884 398
60.90851 410
60.92863 407
60.94874 406
60.96885 416
60.98897 389
61.00908 416
61.02919 428
61.04931 392
61.06942 404
61.08954 353
61.10965 404
61.12976 395
61.14988 393
61.16999 398
61.1901 396
61.21022 434
61.23033 393
61.25045 392
61.27056 416
61.29067 404
61.31079 419
61.3309 451
61.35101 400
61.37113 431
61.39124 441
61.41135 413
61.43147 446
61.45158 430
61.4717 423
61.49181 476
61.51192 413
61.53204 434
61.55215 407
61.57226 492
61.59238 481
61.61249 435
61.63261 429
61.65272 422
61.67283 394
61.69295 387
61.71306 374
61.73317 402
61.75329 400
61.7734 410
61.79352 396
61.81363 362
61.83374 407
61.85386 373
61.87397 352
61.89408 390
61.9142 375
61.93431 376
61.95442 414
61.97454 303
61.99465 384
62.01477 380
62.03488 377
62.05499 390
62.07511 346
62.09522 316
62.11533 373
62.13545 352
62.15556 329
62.17568 351
62.19579 333
62.2159 336
62.23602 349
62.25613 321
62.27624 339
62.29636 331
62.31647 320
62.33659 297
62.3567 320
62.37681 324
62.39693 315
62.41704 336
62.43715 325
62.45727 312
62.47738 345
62.49749 300
62.51761 312
62.53772 348
62.55784 328
62.57795 332
62.59806 323
62.61818 325
62.63829 313
62.6584 309
62.67852 304
62.69863 333
62.71875 338
62.73886 322
62.75897 293
62.77909 323
62.7992 362
62.81931 309
62.83943 329
62.85954 320
62.87965 335
62.89977 285
62.91988 366
62.94 320
62.96011 339
62.98022 347
63.00034 332
63.02045 373
63.04056 328
63.06068 339
63.08079 336
63.10091 350
63.12102 321
63.14113 327
63.16125 340
63.18136 319
63.20147 348
63.22159 321
63.2417 304
63.26182 307
63.28193 317
63.30204 298
63.32216 298
63.34227 303
63.36238 295
63.3825 320
63.40261 310
63.42272 296
63.44284 321
63.46295 275
63.48307 314
63.50318 331
63.52329 279
63.54341 281
63.56352 313
63.58363 301
63.60375 301
63.62386 329
63.64398 306
63.66409 316
63.6842 289
63.70432 327
63.72443 311
63.74454 337
63.76466 290
63.78477 298
63.80489 331
63.825 306
63.84511 330
63.86523 323
63.88534 324
63.90545 334
63.92557 327
63.94568 335
63.96579 334
63.98591 360
64.00602 345
64.02614 332
64.04625 324
64.06636 329
64.08648 309
64.10659 335
64.1267 316
64.14682 334
64.16693 347
64.18705 309
64.20716 296
64.22727 300
64.24739 315
64.2675 310
64.28761 300
64.30773 305
64.32784 321
64.34796 308
64.36807 333
64.38818 307
64.4083 347
64.42841 336
64.44852 341
64.46864 373
64.48875 353
64.50886 360
64.52898 388
64.54909 353
64.56921 419
64.58932 393
64.60943 413
64.62955 411
64.64966 401
64.66977 417
64.68989 377
64.71 387
64.73012 385
64.75023 367
64.77034 331
64.79046 340
64.81057 345
64.83068 332
64.8508 324
64.87091 303
64.89102 320
64.91114 313
64.93125 301
64.95137 288
64.97148 319
64.99159 315
65.01171 314
65.03182 289
65.05193 276
65.07205 292
65.09216 283
65.11228 263
65.13239 312
65.1525 294
65.17262 287
65.19273 293
65.21284 264
65.23296 309
65.25307 306
65.27319 292
65.2933 305
65.31341 292
65.33353 294
65.35364 277
65.37375 329
65.39387 327
65.41398 330
65.43409 316
65.45421 325
65.47432 317
65.49444 317
65.51455 380
65.53466 339
65.55478 376
65.57489 317
65.595 350
65.61512 348
65.63523 332
65.65535 349
65.67546 352
65.69557 341
65.71569 343
65.7358 307
65.75591 319
65.77603 309
65.79614 297
65.81626 299
65.83637 292
65.85648 319
65.8766 301
65.89671 306
65.91682 274
65.93694 291
65.95705 300
65.97716 294
65.99728 290
66.01739 291
66.03751 321
66.05762 292
66.07773 278
66.09785 293
66.11796 245
66.13807 270
66.15819 282
66.1783 288
66.19842 309
66.21853 270
66.23864 284
66.25876 276
66.27887 254
66.29898 285
66.3191 309
66.33921 273
66.35933 271
66.37944 278
66.39955 286
66.41967 262
66.43978 271
66.45989 285
66.48001 289
66.50012 309
66.52023 300
66.54035 256
66.56046 298
66.58058 288
66.60069 276
66.6208 276
66.64092 268
66.66103 289
66.68114 268
66.70126 263
66.72137 271
66.74149 256
66.7616 277
66.78171 274
66.80183 291
66.82194 265
66.84205 257
66.86217 263
66.88228 255
66.90239 263
66.92251 291
66.94262 275
66.96274 289
66.98285 306
67.00296 287
67.02308 280
67.04319 285
67.0633 282
67.08342 270
67.10353 255
67.12365 262
67.14376 291
67.16387 300
67.18399 282
67.2041 293
67.22421 261
67.24433 291
67.26444 278
67.28456 300
67.30467 293
67.32478 265
67.3449 298
67.36501 299
67.38512 277
67.40524 275
67.42535 310
67.44546 335
67.46558 331
67.48569 336
67.50581 380
67.52592 360
67.54603 325
67.56615 386
67.58626 378
67.60637 434
67.62649 402
67.6466 448
67.66672 400
67.68683 409
67.70694 399
67.72706 399
67.74717 389
67.76728 363
67.7874 378
67.80751 385
67.82763 387
67.84774 389
67.86785 382
67.88797 410
67.90808 413
67.92819 380
67.94831 432
67.96842 420
67.98853 428
68.00865 475
68.02876 468
68.04888 485
68.06899 488
68.0891 493
68.10922 465
68.12933 476
68.14944 445
68.16956 485
68.18967 473
68.20979 434
68.2299 485
68.25001 408
68.27013 455
68.29024 422
68.31035 379
68.33047 384
68.35058 351
68.3707 361
68.39081 335
68.41092 350
68.43104 347
68.45115 335
68.47126 293
68.49138 291
68.51149 316
68.5316 297
68.55172 286
68.57183 270
68.59195 298
68.61206 272
68.63217 291
68.65229 273
68.6724 291
68.69251 287
68.71263 279
68.73274 311
68.75286 274
68.77297 294
68.79308 270
68.8132 292
68.83331 276
68.85342 297
68.87354 309
68.89365 280
68.91376 295
68.93388 284
68.95399 314
68.97411 295
68.99422 283
69.01433 293
69.03445 267
69.05456 307
69.07467 305
69.09479 290
69.1149 307
69.13502 300
69.15513 304
69.17524 320
69.19536 257
69.21547 303
69.23558 320
69.2557 284
69.27581 305
69.29593 298
69.31604 306
69.33615 298
69.35627 309
69.37638 298
69.39649 283
69.41661 272
69.43672 312
69.45683 280
69.47695 279
69.49706 276
69.51718 286
69.53729 275
69.5574 313
69.57752 260
69.59763 301
69.61774 284
69.63786 293
69.65797 276
69.67809 278
69.6982 314
69.71831 292
69.73843 289
69.75854 266
69.77865 298
69.79877 294
69.81888 297
69.839 287
69.85911 291
69.87922 272
69.89934 305
69.91945 302
69.93956 304
69.95968 317
69.97979 264
69.9999 311
70.02002 302
70.04013 268
70.06025 319
70.08036 326
70.10047 292
70.12059 321
70.1407 325
70.16081 298
70.18093 335
70.20104 309
70.22116 301
70.24127 340
70.26138 307
70.2815 312
70.30161 305
70.32172 302
70.34184 329
70.36195 305
70.38207 296
70.40218 298
70.42229 290
70.44241 270
70.46252 274
70.48263 287
70.50275 290
70.52286 299
70.54297 308
70.56309 288
70.5832 279
70.60332 274
70.62343 262
70.64354 293
70.66366 266
70.68377 259
70.70388 277
70.724 309
70.74411 292
70.76423 263
70.78434 282
70.80445 267
70.82457 273
70.84468 280
70.86479 252
70.88491 271
70.90502 292
70.92513 296
70.94525 309
70.96536 276
70.98548 279
71.00559 263
71.0257 279
71.04582 252
71.06593 292
71.08604 280
71.10616 284
71.12627 310
71.14639 284
71.1665 282
71.18661 301
71.20673 282
71.22684 265
71.24695 291
71.26707 319
71.28718 284
71.3073 303
71.32741 309
71.34752 292
71.36764 298
71.38775 286
71.40786 302
71.42798 292
71.44809 301
71.4682 277
71.48832 273
71.50843 306
71.52855 289
71.54866 275
71.56877 280
71.58889 309
71.609 309
71.62911 273
71.64923 278
71.66934 286
71.68946 282
71.70957 287
71.72968 272
71.7498 287
71.76991 270
71.79002 294
71.81014 259
71.83025 287
71.85037 293
71.87048 294
71.89059 302
71.91071 296
71.93082 284
71.95093 303
71.97105 304
71.99116 307
72.01127 304
72.03139 311
72.0515 286
72.07162 299
72.09173 304
72.11184 317
72.13196 298
72.15207 285
72.17218 292
72.1923 295
72.21241 311
72.23253 306
72.25264 330
72.27275 288
72.29287 279
72.31298 272
72.33309 322
72.35321 261
72.37332 340
72.39344 318
72.41355 289
72.43366 313
72.45378 309
72.47389 314
72.494 318
72.51412 281
72.53423 348
72.55434 316
72.57446 318
72.59457 310
72.61469 317
72.6348 325
72.65491 316
72.67503 315
72.69514 316
72.71525 338
72.73537 320
72.75548 336
72.7756 337
72.79571 356
72.81582 339
72.83594 367
72.85605 358
72.87616 384
72.89628 349
72.91639 354
72.9365 352
72.95662 311
72.97673 365
72.99685 344
73.01696 365
73.03707 346
73.05719 359
73.0773 351
73.09741 370
73.11753 324
73.13764 334
73.15776 368
73.17787 372
73.19798 344
73.2181 383
73.23821 364
73.25832 361
73.27844 328
73.29855 391
73.31867 335
73.33878 399
73.35889 396
73.37901 390
73.39912 408
73.41923 386
73.43935 344
73.45946 369
73.47957 340
73.49969 340
73.5198 353
73.53992 320
73.56003 340
73.58014 346
73.60026 365
73.62037 352
73.64048 347
73.6606 351
73.68071 362
73.70083 313
73.72094 314
73.74105 305
73.76117 332
73.78128 328
73.80139 295
73.82151 330
73.84162 334
73.86174 316
73.88185 316
73.90196 339
73.92208 328
73.94219 321
73.9623 317
73.98242 339
74.00253 297
74.02264 322
74.04276 302
74.06287 292
74.08299 295
74.1031 331
74.12321 326
74.14333 318
74.16344 283
74.18355 281
74.20367 289
74.22378 320
74.2439 323
74.26401 307
74.28412 304
74.30424 271
74.32435 353
74.34446 303
74.36458 330
74.38469 347
74.40481 311
74.42492 299
74.44503 272
74.46515 314
74.48526 277
74.50537 289
74.52549 287
74.5456 318
74.56571 284
74.58583 285
74.60594 293
74.62606 280
74.64617 289
74.66628 310
74.6864 299
74.70651 262
74.72662 334
74.74674 286
74.76685 297
74.78697 295
74.80708 295
74.82719 281
74.84731 291
74.86742 276
74.88753 314
74.90765 289
74.92776 269
74.94787 308
74.96799 301
74.9881 274
75.00822 285
