3.00117 20735.9360458231
3.02128 19751.3538667157
3.0414 19673
3.06151 18756.622536137
3.08162 18369.5959949128
3.10174 17769.8537876532
3.12185 17368.7211834438
3.14197 17009.8114788114
3.16208 16251.8802009281
3.18219 15582.0988338892
3.20231 15481.6866897608
3.22242 14570.6850429228
3.24253 14816.857148414
3.26265 14082.0941060407
3.28276 13681.4787284956
3.30288 13299.6156423865
3.32299 12644.1962287872
3.3431 12445
3.36322 11881.5762423769
3.38333 11694.7334663518
3.40344 11296.7799155149
3.42356 10729.518776134
3.44367 10645.4416745558
3.46379 10056.2847386509
3.4839 9740
3.50401 9560.80353071043
3.52413 9064.52846310041
3.54424 8923.50128224896
3.56435 8450.30193825866
3.58447 8047.41997690251
3.60458 7791.32431695991
3.62469 7491.04108790682
3.64481 7426.78271456234
3.66492 6709.48808019679
3.68504 6604.05517069793
3.70515 6444.02350988996
3.72526 6043.27318948017
3.74538 6058.21396956072
3.76549 5564.21810051093
3.7856 5383
3.80572 5257.74765900799
3.82583 4986.8249907257
3.84595 4931.36624484923
3.86606 4513.56139369026
3.88617 4388.36484221221
3.90629 4029.09494661561
3.9264 4087
3.94651 4000.84500097595
3.96663 3631.66669235449
3.98674 3572.84548888762
4.00686 3365.52564914414
4.02697 3163.13939026877
4.04708 3121.09462417551
4.0672 2931
4.08731 2765.95900754288
4.10742 2698.85616900329
4.12754 2546.00118911911
4.14765 2622.2194052598
4.16776 2346.49111655582
4.18788 2266.99066563887
4.20799 2218.08714858312
4.22811 2027.98748331424
4.24822 2098.91958898191
4.26833 1866.79777114127
4.28845 1914.17187996205
4.30856 1863.30277061048
4.32867 1737.98243971532
4.34879 1804.03634983378
4.3689 1598
4.38902 1625.09261126633
4.40913 1657.92032798358
4.42924 1575.94630392606
4.44936 1570.20285502271
4.46947 1399.14270071834
4.48958 1427.94273605639
4.5097 1423
4.52981 1364.00058873765
4.54992 1406.00700567554
4.57004 1330.74372485908
4.59015 1244.9360219644
4.61027 1330.9604401009
4.63038 1275.04102213273
4.65049 1285.99837835106
4.67061 1203.9080361147
4.69072 1047.01915090459
4.71083 1180.05467716522
4.73095 1073.786491124
4.75106 1075.01526204271
4.77118 1026.02669536183
4.79129 1058.96674250487
4.8114 1107
4.83152 1065.9450876201
4.85163 1017.92754818135
4.87174 962.881229226078
4.89186 918.024239373304
4.91197 937.949369108293
4.93209 956.004759054907
4.9522 910
4.97231 847.000468902449
4.99243 881.987832337852
5.01254 811.852961998663
5.03265 785.960252572525
5.05277 802.029260215671
5.07288 751.042062193299
5.09299 739.000194014882
5.11311 733.996416843561
5.13322 711.948415821713
5.15334 673.062978834013
5.17345 729.949707292749
5.19356 640.098252606612
5.21368 687.908298789124
5.23379 731.023117252143
5.2539 636
5.27402 641.024499604705
5.29413 644.985703588389
5.31425 625.921860338074
5.33436 583.099926683164
5.35447 551.983911393187
5.37459 584.993657381293
5.3947 556
5.41481 530.010597019428
5.43493 571.014273900801
5.45504 539.940446967656
5.47516 527.042978007395
5.49527 496.022939522639
5.51538 529.908623253385
5.5355 604
5.55561 484.943438823449
5.57572 454.033123535127
5.59584 500.051060357299
5.61595 495.032327568757
5.63606 469.132622890264
5.65618 400.005028272209
5.67629 448.986804235285
5.69641 423.98559619324
5.71652 425.017335114139
5.73663 433.983957154052
5.75675 409.951358133655
5.77686 412.948382921929
5.79697 427.049451249474
5.81709 374.004982498733
5.8372 408
5.85732 388.990646063144
5.87743 401.000967965765
5.89754 378.953507267168
5.91766 370.994225160791
5.93777 376.99119448973
5.95788 373.020368668917
5.978 360
5.99811 395.994589484934
6.01823 343.955732865331
6.03834 353.001712918507
6.05845 347.905406574813
6.07857 399.02274729444
6.09868 329.033383374585
6.11879 360.982497214332
6.13891 358.991453677875
6.15902 342.97966643997
6.17913 335.040250767124
6.19925 363.939368297952
6.21936 309.014638607825
6.23948 348.990963880642
6.25959 316.003895532626
6.2797 345
6.29982 321.985252955111
6.31993 334.024311982772
6.34004 334.977285791476
6.36016 313.066343489264
6.38027 284.011861689191
6.40039 302.982625251193
6.4205 326
6.44061 307.000173157976
6.46073 335.047003159885
6.48084 336.927347328899
6.50095 294.0203502049
6.52107 315.990310560741
6.54118 300.99668420027
6.56129 322.000960209351
6.58141 306.0097007439
6.60152 351.010988932445
6.62164 316.938505257953
6.64175 319.041956172039
6.66186 325.024908301688
6.68198 307.002841707203
6.70209 317.998574879804
6.7222 303
6.74232 300.02537361912
6.76243 324.977034046594
6.78255 279.939766470516
6.80266 302.908187911424
6.82277 332.006593055259
6.84289 298.021479018568
6.863 288
6.88311 342.998737305697
6.90323 291.965519584811
6.92334 324.076457670358
6.94346 338.979700525918
6.96357 333.078292245864
6.98368 270.007033066221
7.0038 318
7.02391 311.995791254387
7.04402 314.989568716664
7.06414 287.956841068683
7.08425 279.026247158023
7.10436 284.890553437112
7.12448 348.002893001682
7.14459 291.012453520121
7.16471 317.004923805577
7.18482 299.009255808662
7.20493 330.992593035314
7.22505 287.943407733908
7.24516 306.952261628212
7.26527 313.992860361998
7.28539 318.005035287345
7.3055 300
7.32562 296.972276110235
7.34573 264.014385253031
7.36584 312.068987929924
7.38596 310.020642068991
7.40607 310.994515737842
7.42618 312.995359289717
7.4463 312
7.46641 289.000373489254
7.48653 312.024470270952
7.50664 305.969134529295
7.52675 301.961211856427
7.54687 311.047492832366
7.56698 264.999044386999
7.58709 315.978759449169
7.60721 304.974267003713
7.62732 267.017187875854
7.64743 322.050566600885
7.66755 309.940003506814
7.68766 308.953140715333
7.70778 322.033824851395
7.72789 270.00216235968
7.748 316
7.76812 310.994406810806
7.78823 312.970624850162
7.80834 276.964546055299
7.82846 293.93278764619
7.84857 315.005033289235
7.86869 292.012972248672
7.8888 276
7.90891 281.015074849154
7.92903 311.994133043099
7.94914 287.006318044778
7.96925 316.984837196948
7.98937 288.036635192638
8.00948 296.968162228795
8.0296 319
8.04971 295.00211750532
8.06982 326.014540191778
8.08994 304.934555542709
8.11005 292.037450925217
8.13016 315.988854158779
8.15028 298.019512864824
8.17039 295.993609761584
8.1905 310
8.21062 304.997421973426
8.23073 301.973413753371
8.25085 285.034409763386
8.27096 320.961564537523
8.29107 310.024384284345
8.31119 316.983077838089
8.3313 352
8.35141 328.988663780305
8.37153 325.005977630319
8.39164 325.995536206362
8.41176 314.055373761819
8.43187 294.969140480901
8.45198 330.00712233332
8.4721 291
8.49221 326.00509427496
8.51232 305.004682050949
8.53244 344.049950141192
8.55255 333.052446860202
8.57266 316.049282660236
8.59278 289.011715303364
8.61289 299.988175329237
8.63301 324.01077760194
8.65312 340.009514609518
8.67323 338.977658802986
8.69335 327.028133729652
8.71346 347.012451214121
8.73357 316.028898762195
8.75369 325.989779018249
8.7738 338
8.79392 333.990981334305
8.81403 336.040554308626
8.83414 366.998957614886
8.85426 330.085006340676
8.87437 310.99448059838
8.89448 326.981341828829
8.9146 331
8.93471 306.998067469537
8.95483 314.979485257373
8.97494 298.063197689257
8.99505 354.984080111729
9.01517 310.032127684733
9.03528 325.010432328481
9.05539 287.002677172844
9.07551 320.008396208633
9.09562 304.991775340134
9.11573 311.988455609112
9.13585 293.00776344146
9.15596 320.955989502275
9.17608 320.010702491714
9.19619 311.004493630795
9.2163 294
9.23642 281.043370958752
9.25653 354.055209217208
9.27664 323.874515330676
9.29676 290.947460139404
9.31687 349.946569651118
9.33699 329.02750870829
9.3571 296
9.37721 345.004573646265
9.39733 311.981537116143
9.41744 339.045047643328
9.43755 334.030232198979
9.45767 330.997180926565
9.47778 336.986517199288
9.4979 345
9.51801 311.984073122406
9.53812 294.992270043176
9.55824 301.060059620802
9.57835 338.040313749064
9.59846 326.039843331158
9.61858 312.014022194449
9.63869 302.99632966752
9.6588 321
9.67892 313.979566928871
9.69903 299.006900470449
9.71915 316.020297448064
9.73926 304.044142125627
9.75937 283.027366090876
9.77949 277.991302180538
9.7996 315
9.81971 339.995589651521
9.83983 306.950841142623
9.85994 301.047354486817
9.88006 330.981026996051
9.90017 310.052502144478
9.92028 287.997793872456
9.9404 318
9.96051 349.991567929076
9.98062 309.993592816139
10.00074 331.977783234474
10.02085 294.984638672965
10.04097 340.979960319438
10.06108 311.011555048331
10.08119 326.006018662088
10.10131 284.991105075871
10.12142 307.02663882681
10.14153 316.005549535344
10.16165 316.97092541127
10.18176 291.063057770371
10.20187 274.981053538634
10.22199 309.981261863544
10.2421 326
10.26222 307.997904251655
10.28233 318.996866172583
10.30244 305.002775525155
10.32256 329.941796459631
10.34267 341.015804749865
10.36278 324.004718903233
10.3829 319
10.40301 274.000431753949
10.42313 317.040514244014
10.44324 297.924739002789
10.46335 286.915292119831
10.48347 334.981191188937
10.50358 304.032985074056
10.52369 306.982112585753
10.54381 338.997115035689
10.56392 299.96629590347
10.58403 298.027521910301
10.60415 314.005343006115
10.62426 311.970523215218
10.64438 327.022354811963
10.66449 288.996902195649
10.6846 333
10.70472 301.971203483078
10.72483 295.984308969011
10.74494 284.033771231991
10.76506 316.989229968945
10.78517 298.990875469713
10.80529 330.994089488663
10.8254 313
10.84551 307.982864590404
10.86563 265.008066653614
10.88574 314.062210848153
10.90585 307.011268824659
10.92597 324.970715115755
10.94608 334.990005710307
10.9662 342
10.98631 321.993128896365
11.00642 318.995108261361
11.02654 317.036825241672
11.04665 341.007991450506
11.06676 304.088907430266
11.08688 294.956369072033
11.10699 348.998000657407
11.1271 303
11.14722 308.016035439657
11.16733 316.015309245247
11.18745 329.014602848884
11.20756 329.983794514226
11.22767 338.017163166239
11.24779 307.015403767379
11.2679 297
11.28801 308.993765377199
11.30813 285.002624590757
11.32824 321.083190474934
11.34836 332.055751755076
11.36847 295.011807264914
11.38858 321.970765348601
11.4087 331
11.42881 325.99453583071
11.44892 316.000525249792
11.46904 317.9699029002
11.48915 304.933129311588
11.50927 354.972444785257
11.52938 324.043216375685
11.54949 309.989910682505
11.56961 338.002081844582
11.58972 316.98396786913
11.60983 329.049847569475
11.62995 358.013774706788
11.65006 350.979552808756
11.67017 371.011462991164
11.69029 327.025507136754
11.7104 303
11.73052 337.045781950952
11.75063 356.953772126657
11.77074 305.969369269535
11.79086 332.959388460257
11.81097 332.978159937465
11.83108 365.980180086082
11.8512 352
11.87131 319.995506926218
11.89143 344.073787445561
11.91154 379.982599455194
11.93165 355.946686412534
11.95177 414.958440400895
11.97188 383.051243376216
11.99199 357.996417339625
12.01211 390.021690587107
12.03222 421.007313474881
12.05234 407.961948956749
12.07245 405.052842709722
12.09256 441.9287342713
12.11268 451.026725574247
12.13279 421.994130168447
12.1529 471
12.17302 484.015937095395
12.19313 510.020098741909
12.21324 512.02788592945
12.23336 542.942056967757
12.25347 572.92219787028
12.27359 636.978019567992
12.2937 651
12.31381 665.009500248947
12.33393 685.030497205253
12.35404 695.98431094951
12.37415 674.053958686707
12.39427 675.948081177874
12.41438 694.057317364503
12.4345 588
12.45461 576.989197352096
12.47472 522.959854479031
12.49484 517.006496963347
12.51495 509.036260766124
12.53506 482.099092285588
12.55518 429.025905152456
12.57529 420.016018463791
12.5954 371
12.61552 385.003587397925
12.63563 355.939532156602
12.65575 330.991344303315
12.67586 344.957454147976
12.69597 358.001701681837
12.71609 347.005323252357
12.7362 341
12.75631 316.974568979648
12.77643 277.029259687299
12.79654 350.143712708821
12.81666 368.070909998445
12.83677 324.011979136216
12.85688 346.995593069327
12.877 316
12.89711 302.998902434643
12.91722 302.000364841881
12.93734 307.025408175993
12.95745 320.986482798142
12.97757 314.020295820401
12.99768 305.996029243252
13.01779 316.996730553618
13.03791 306.98643151535
13.05802 280.994557907634
13.07813 302.051192612372
13.09825 314.925756119055
13.11836 285.926489549345
13.13847 354.996686350518
13.15859 285.02395401433
13.1787 300
13.19882 305.006532189047
13.21893 307.958747716201
13.23904 265.973759349388
13.25916 298.894463514239
13.27927 327.024146512257
13.29938 288.020883090813
13.3195 302
13.33961 309.993513056203
13.35973 290.991290101968
13.37984 292.971104333641
13.39995 279.923327625411
13.42007 326.014767577256
13.44018 266.032641237331
13.46029 290.982137397951
13.48041 295.989625031574
13.50052 271.990566539673
13.52064 293.099398694838
13.54075 327.944505527194
13.56086 271.052722382307
13.58098 285.000331368403
13.60109 256.008514901857
13.6212 279
13.64132 316.997006055857
13.66143 294.009134107993
13.68154 318.969610520665
13.70166 273.015411501793
13.72177 304.993197178027
13.74189 274.003570065341
13.762 305
13.78211 302.998836940505
13.80223 300.960009159644
13.82234 272.032663335463
13.84245 319.955581610595
13.86257 288.059647868239
13.88268 278.981094032894
13.9028 292
13.92291 257.005860538486
13.94302 306.019085414577
13.96314 271.912897316572
13.98325 259.955203503755
14.00336 281.002117482771
14.02348 263.004467456957
14.04359 271.005488825162
14.06371 241.992885753202
14.08382 265.050117019013
14.10393 303.998237595504
14.12405 272.945475987571
14.14416 275.990074761156
14.16427 271.005839634424
14.18439 272.999186418013
14.2045 264
14.22461 250.011908064011
14.24473 295.031225972927
14.26484 282.982244282908
14.28496 290.000523050958
14.30507 280.994051157079
14.32518 286.027622593194
14.3453 244
14.36541 281.013789228362
14.38552 273.982846386763
14.40564 265.99257101261
14.42575 261.016757254668
14.44587 252.016766876698
14.46598 253.969505836783
14.48609 287.003226164142
14.50621 253.997736871618
14.52632 281.00678099101
14.54643 254.970316632794
14.56655 267.076985345144
14.58666 287.015953249294
14.60677 257.043383111996
14.62689 253.987455206235
14.647 282
14.66712 267.001371562253
14.68723 279.978326219399
14.70734 241.963154104323
14.72746 260.937491101789
14.74757 277.003309890955
14.76768 267.004386305673
14.7878 277
14.80791 292.000074881384
14.82803 267.929116365044
14.84814 234.031523230734
14.86825 278.957974166155
14.88837 253.039637140405
14.90848 251.991739069044
14.92859 257.995865782375
14.94871 273.0106740432
14.96882 283.983916705035
14.98894 255.984342652956
15.00905 267.999739350307
15.02916 257.971731130415
15.04928 289.990832314841
15.06939 267.011909394033
15.0895 260
15.10962 260.016706162588
15.12973 275.976607427881
15.14984 249.025353507676
15.16996 291.97526226808
15.19007 265.022010062947
15.21019 276.000805555888
15.2303 261
15.25041 285.997357646799
15.27053 253.986524369261
15.29064 278.035282803674
15.31075 270.034410912641
15.33087 260.024496989774
15.35098 253.968671172097
15.3711 298
15.39121 266.995290695745
15.41132 288.003696670712
15.43144 270.006992944272
15.45155 292.014395204709
15.47166 257.038445918228
15.49178 264.00118696182
15.51189 255.989498748173
15.53201 295.004794922484
15.55212 265.970341817623
15.57223 256.99355243113
15.59235 247.982776974937
15.61246 246.995909048877
15.63257 247.006348150096
15.65269 242.998513032146
15.6728 249
15.69291 242.000444440742
15.71303 253.015180096342
15.73314 249.964840740602
15.75326 241.945409471273
15.77337 279.007484383409
15.79348 235.027866937638
15.8136 249
15.83371 256.993201421259
15.85382 245.015689862959
15.87394 270.985355579362
15.89405 235.040153955677
15.91417 256.955217295186
15.93428 264.016804545236
15.95439 246.99619054773
15.97451 274.008043060633
15.99462 262.975692596368
16.01473 241.978424695859
16.03485 241.040699429724
16.05496 269.934907359765
16.07508 287.009476605126
16.09519 267.001729478446
16.1153 278
16.13542 254.982054938096
16.15553 257.019221510411
16.17564 260.969155469465
16.19576 243.979752406476
16.21587 269.997127481181
16.23598 249.999665175989
16.2561 273
16.27621 252.993192453569
16.29633 252.983851093837
16.31644 232.993743538155
16.33655 251.949661150184
16.35667 255.017735709009
16.37678 251.972768678285
16.39689 280.011305464035
16.41701 234.00484921775
16.43712 299.040748414108
16.45724 266.850896529548
16.47735 217.031818787673
16.49746 269.935115977306
16.51758 257.023414524909
16.53769 249.00070350198
16.5578 253
16.57792 274.007674158614
16.59803 268.999842594056
16.61814 273.98558101956
16.63826 259.995693583162
16.65837 279.975134754685
16.67849 279.005836853171
16.6986 268
16.71871 276.012683304484
16.73883 296.98607793717
16.75894 248.861663166436
16.77905 213.904152938199
16.79917 280.982753353798
16.81928 232.03014458023
16.8394 252
16.85951 249.997228248355
16.87962 250.996875709457
16.89974 240.982285470078
16.91985 239.985673441839
16.93996 245.998228230402
16.96008 246.98833062793
16.98019 255.010367408808
17.00031 233.014808159685
17.02042 297.027771221226
17.04053 276.985562281578
17.06065 304.079650647115
17.08076 299.103974064817
17.10087 241.01790816791
17.12099 266.9981035757
17.1411 232
17.16121 240.017991280917
17.18133 277.030696984371
17.20144 263.907086943673
17.22156 229.949584558074
17.24167 293.94683526267
17.26178 267.056177965102
17.2819 226
17.30201 236.008994101319
17.32212 257.034181840274
17.34224 284.983023755538
17.36235 262.955989838674
17.38247 301.021367551399
17.40258 238.034840967947
17.42269 263.978527165137
17.44281 276.9897034452
17.46292 255.012570322663
17.48303 290.013903454245
17.50315 255.882533972361
17.52326 234.970612673489
17.54338 264.984659688259
17.56349 259.002169259258
17.5836 264
17.60372 257.002285366888
17.62383 268.005757341663
17.64394 261.994414552747
17.66406 264.009175261782
17.68417 257.986182984911
17.70428 275.996553511959
17.7244 266
17.74451 288.014232707533
17.76463 308.015742749221
17.78474 306.972354979601
17.80485 286.051604374619
17.82497 274.002833301766
17.84508 272.013657167212
17.86519 266.982169334451
17.88531 323.011543437325
17.90542 294.955384951881
17.92554 265.970551752154
17.94565 267.050253372102
17.96576 288.000200055092
17.98588 261.037744935875
18.00599 247.98414521207
18.0261 289
18.04622 246.987946573106
18.06633 278.031964736175
18.08645 268.980731906819
18.10656 281.957310599452
18.12667 289.027025194331
18.14679 257.011849490205
18.1669 244
18.18701 226.008634394555
18.20713 257.991355880913
18.22724 225.004979976544
18.24735 268.929192269474
18.26747 263.003767627321
18.28758 274.003376056324
18.3077 255
18.32781 264.002294118293
18.34792 268.028209564355
18.36804 292.938217024782
18.38815 231.036887548034
18.40826 271.945049175285
18.42838 256.02020885834
18.44849 259.991218548915
18.46861 277.00629966317
18.48872 278.988723037348
18.50883 264.99498389155
18.52895 275.032050262533
18.54906 266.089443294521
18.56917 230.947811275168
18.58929 298.998267454627
18.6094 246
18.62951 300.007264947718
18.64963 247.927156891489
18.66974 248.049723102455
18.68986 264.006381146467
18.70997 253.991589955776
18.73008 269.004431570327
18.7502 248
18.77031 266.009068746766
18.79042 269.998735583035
18.81054 266.97976709883
18.83065 258.977747505977
18.85077 278.984526677693
18.87088 275.999335594623
18.89099 280.005004714498
18.91111 258.994341884238
18.93122 259.995625220518
18.95133 242.971484958386
18.97145 239.044564724752
18.99156 259.009147484313
19.01168 247.972821405221
19.03179 301.987983851311
19.0519 273
19.07202 248.009229174521
19.09213 275.026653314226
19.11224 270.976390044514
19.13236 276.929566832198
19.15247 308.028005009876
19.17258 251.037739188488
19.1927 270
19.21281 319.008243904485
19.23293 300.955683612911
19.25304 272.92875929287
19.27315 245.979848891489
19.29327 272.994690444139
19.31338 257.986234076299
19.33349 295.99505559205
19.35361 270.99279795399
19.37372 287.020992196128
19.39384 289.974143641761
19.41395 275.994540133813
19.43406 286.974681911076
19.45418 291.00374282106
19.47429 283.004791216408
19.4944 284
19.51452 316.023334436126
19.53463 309.944400373227
19.55475 278.028692425306
19.57486 318.964160526441
19.59497 299.031058960884
19.61509 311.978036435947
19.6352 350
19.65531 318.99424208618
19.67543 350.07359159516
19.69554 385.024445357306
19.71565 370.095203547148
19.73577 355.919560350617
19.75588 447.944095540174
19.776 433
19.79611 416.018610205721
19.81622 477.029656793722
19.83634 476.046224383185
19.85645 527.925767769841
19.87656 527.974050260521
19.89668 550.016099754823
19.91679 523.980179454868
19.93691 593.994293751758
19.95702 496.925087551337
19.97713 500.04626977628
19.99725 504.938297747635
20.01736 468.054714629073
20.03747 468.959521999755
20.05759 487.012016484004
20.0777 442
20.09782 477.039531046594
20.11793 493.007963907302
20.13804 482.914039179132
20.15816 436.006337182894
20.17827 474.951727452317
20.19838 466.035843606337
20.2185 442
20.23861 479.011681793434
20.25872 481.010081331836
20.27884 493.96215849657
20.29895 461.977589324474
20.31907 513.93590573539
20.33918 507.045398516241
20.35929 476.985717150582
20.37941 543.01918919761
20.39952 529.975925977656
20.41963 525.006382971757
20.43975 535.055121980101
20.45986 558.982319263869
20.47998 556.991984272192
20.50009 573.998084808959
20.5202 565
20.54032 577.002783028195
20.56043 564.982284956124
20.58054 568.035360363657
20.60066 591.957162748088
20.62077 613.949554069348
20.64088 656.9620087258
20.661 699
20.68111 800.058094680107
20.70123 922.19914409409
20.72134 1116.59287563453
20.74145 1513.88452166722
20.76157 2011.1186097833
20.78168 2727.17660021381
20.80179 3725.38276248446
20.82191 5069.61293917974
20.84202 6040.768542419
20.86214 6574.38182287555
20.88225 6266.86561322862
20.90236 5055.6047958247
20.92248 3814.25187778871
20.94259 2574.54505725205
20.9627 1682
20.98282 1063.57991117748
21.00293 835.858079417653
21.02305 764.766274807793
21.04316 659.117326055826
21.06327 659.976242888362
21.08339 633.04114817851
21.1035 552
21.12361 603.01408380946
21.14373 569.924628140431
21.16384 558.077448826375
21.18395 592.097267337443
21.20407 514.021552750253
21.22418 556.011557564525
21.2443 495
21.26441 584.039056989338
21.28452 576.927782275135
21.30464 490.866025787809
21.32475 485.828767487795
21.34486 571.93040944096
21.36498 542.039819628188
21.38509 530.000413956502
21.40521 528.000655483679
21.42532 537.016505166104
21.44543 540.95714427552
21.46555 481.833319273132
21.48566 447.96399311552
21.50577 503.908949955482
21.52589 526.013956004055
21.546 469
21.56612 441.990673169144
21.58623 439.001738755567
21.60634 436.979516721134
21.62646 426.991914244437
21.64657 430.040048361414
21.66668 391.004496471242
21.6868 426
21.70691 419.980464293126
21.72702 389.013352156462
21.74714 428.01936398413
21.76725 393.099689994975
21.78737 384.967591373274
21.80748 402.019860722768
21.82759 370.991886376493
21.84771 427.014696093029
21.86782 396.943586711898
21.88793 366.021369393754
21.90805 404.051425925857
21.92816 393.032003420493
21.94828 395.980502719362
21.96839 418.992232521307
21.9885 414
22.00862 378.976635951103
22.02873 378.021010833066
22.04884 391.006388819717
22.06896 381.035440492056
22.08907 373.974494717267
22.10919 397.001360872002
22.1293 371
22.14941 378.003038556413
22.16953 364.959100064518
22.18964 347.020953939505
22.20975 376.94761496658
22.22987 371.034211854461
22.24998 355.992313695836
22.27009 381.98761495753
22.29021 392.000348758287
22.31032 387.990346454263
22.33044 369.94438776784
22.35055 339.943845713087
22.37066 339.943810983272
22.39078 369.003342924163
22.41089 349.992360654713
22.431 399
22.45112 385.965430585151
22.47123 360.989817014519
22.49135 376.080157608186
22.51146 394.045974829484
22.53157 352.017860582995
22.55169 371.997680190268
22.5718 355
22.59191 381.006495517017
22.61203 362.954274972444
22.63214 332.93129924906
22.65225 311.960528758253
22.67237 349.966973212575
22.69248 342.014153511828
22.7126 343
22.73271 368.018455471303
22.75282 393.990851234123
22.77294 355.927396499848
22.79305 342.001588623998
22.81316 349.957705066483
22.83328 369.003467055719
22.85339 348.006566009653
22.87351 356.008582307301
22.89362 353.962310477921
22.91373 317.025689097534
22.93385 360.975837643808
22.95396 298.069933282024
22.97407 327.922995296649
22.99419 355.998658238174
23.0143 345
23.03442 346.012443318492
23.05453 355.991450578471
23.07464 327.912889673033
23.09476 311.902913939979
23.11487 380.98841757897
23.13498 326.037088103207
23.1551 336
23.17521 320.998792352663
23.19532 339.012551193766
23.21544 339.011779255379
23.23555 348.023094922597
23.25567 328.99812883386
23.27578 343.010815895079
23.29589 314.001311070064
23.31601 352.024040925068
23.33612 375.995262026576
23.35623 345.92920661881
23.37635 308.983888626754
23.39646 328.955581256063
23.41658 330.019793123459
23.43669 314.992365709436
23.4568 351
23.47692 346.99498852043
23.49703 352.002675468666
23.51714 333.917887695444
23.53726 301.973206608312
23.55737 340.986991056869
23.57749 309.013432872784
23.5976 319
23.61771 351.009808401803
23.63783 348.966797327769
23.65794 322.970541345292
23.67805 331.924560169044
23.69817 349.042632814108
23.71828 294.029581349477
23.73839 316.97448305701
23.75851 353.00072730774
23.77862 341.014747421365
23.79874 376.016612186593
23.81885 358.006067149674
23.83896 376.035841909577
23.85908 325.029167640329
23.87919 334.993954253698
23.8993 337
23.91942 369.022920558793
23.93953 377.01650689099
23.95965 402.079150494631
23.97976 415.048530342791
23.99987 384.9782717332
24.01999 425.002111420107
24.0401 386
24.06021 425.992645391026
24.08033 362.976947761416
24.10044 406.034080403665
24.12056 376.027626296588
24.14067 398.973930062766
24.16078 387.022750368709
24.1809 373
24.20101 378.005839030114
24.22112 390.007984488506
24.24124 383.948426724157
24.26135 354.030097547337
24.28146 354.030653923801
24.30158 334.983201817102
24.32169 379.987217182808
24.34181 364.985277316146
24.36192 361.035608430674
24.38203 396.973891284895
24.40215 347.987303374601
24.42226 392.948565767033
24.44237 370.048410275019
24.46249 373.976683621244
24.4826 413
24.50272 350.988987663051
24.52283 397.034080432598
24.54294 374.982875326986
24.56306 399.959484689738
24.58317 400.992498555295
24.60328 419.980625514006
24.6234 426
24.64351 414.998583701782
24.66362 429.028196857603
24.68374 454.012905890616
24.70385 449.978597171782
24.72397 466.007479889782
24.74408 459.958653774581
24.76419 537.972869549088
24.78431 543.996218391406
24.80442 566.059703224758
24.82453 622.002437259574
24.84465 587.997864880679
24.86476 635.913334565202
24.88488 642.011573987636
24.90499 621.020846109837
24.9251 582
24.94522 594.966789134401
24.96533 532.980561836353
24.98544 567.003777677842
25.00556 512.113429993104
25.02567 486.024545253306
25.04579 464.010575639625
25.0659 447
25.08601 428.989225295697
25.10613 416.013724005585
25.12624 443.053834425006
25.14635 456.986567248199
25.16647 449.046010356108
25.18658 419.992994348753
25.20669 452.992803983205
25.22681 429.982669455301
25.24692 425.040790024556
25.26704 478.029726086158
25.28715 447.919701359912
25.30726 438.011175483431
25.32738 431.993028827732
25.34749 445.000730784483
25.3676 424
25.38772 414.008813777294
25.40783 423.984602324044
25.42795 396.953393054812
25.44806 386.056496229474
25.46817 359.967869240551
25.48829 415.9841537342
25.5084 404
25.52851 399.993929206822
25.54863 373.963704515168
25.56874 372.050999073259
25.58886 400.994800231229
25.60897 387.982649414181
25.62908 411.019197536009
25.6492 367
25.66931 425.024883515129
25.68942 441.018905913862
25.70954 473.035870462651
25.72965 488.869666341695
25.74976 536.077534242726
25.76988 453.003592637562
25.78999 538.969155839136
25.81011 515.972490309841
25.83022 484.997335414734
25.85033 500.02705606741
25.87045 501.952905560405
25.89056 485.969005015109
25.91067 520.97952224287
25.93079 504.008069930368
25.9509 518
25.97102 552.99439671687
25.99113 511.943436600784
26.01124 518.104462937822
26.03136 577.949465160819
26.05147 558.051730947293
26.07158 553.958963946495
26.0917 594
26.11181 567.043823878943
26.13193 708.018250810796
26.15204 582.82026146397
26.17215 626.737382122699
26.19227 707.935946906198
26.21238 725.980027667327
26.23249 774.961321798179
26.25261 852.023303311861
26.27272 897.100376443047
26.29283 1008.02653132975
26.31295 958.025940065568
26.33306 1061.79741169597
26.35318 1118.93580086566
26.37329 1221.94026091561
26.3934 1348
26.41352 1530.23431483181
26.43363 1830.54072168115
26.45374 2279.11458266086
26.47386 3014.12048183405
26.49397 4156.07384656286
26.51409 5724.9940052973
26.5342 8290
26.55431 11792.0430369207
26.57443 16548.930256128
26.59454 22024.5764738422
26.61465 26790.7065866688
26.63477 29599.7614285809
26.65488 28041.7085228395
26.67499 23125.6587625544
26.69511 18062.6049244521
26.71522 13522.8340113742
26.73534 9535.03321504681
26.75545 5692.84817368152
26.77556 3224.61072821189
26.79568 1951.67491458756
26.81579 1689.03580676408
26.8359 1556
26.85602 1313.82558351443
26.87613 1202.79401412578
26.89625 1048.83146193179
26.91636 1068.98467369922
26.93647 1003.15008463416
26.95659 938.997675285718
26.9767 942
26.99681 754.924736320464
27.01693 708.007122710113
27.03704 698.928726887359
27.05716 628.200057805321
27.07727 546.030114344303
27.09738 569.99329910363
27.1175 526
27.13761 479.994920319238
27.15772 499.026401029987
27.17784 499.928260581651
27.19795 456.027421244414
27.21806 485.923614191563
27.23818 500.01042578571
27.25829 480.00713254892
27.27841 481.005377521096
27.29852 491.004068033286
27.31863 483.972804790409
27.33875 466.991993937285
27.35886 469.027361305907
27.37897 447.002557572151
27.39909 482.968966598698
27.4192 521
27.43932 459.972446097211
27.45943 485.043286437159
27.47954 474.913359304229
27.49966 436.003110375196
27.51977 458.996710928556
27.53988 429.027891947762
27.56 426
27.58011 441.010194329994
27.60023 444.946387980037
27.62034 390.946187227157
27.64045 402.954995815334
27.66057 397.040598672503
27.68068 372.00214325114
27.70079 394.985235275895
27.72091 403.989754496306
27.74102 372.986737792878
27.76113 375.985085288922
27.78125 366.080355198744
27.80136 416.992829492413
27.82148 379.007988977483
27.84159 412.991855013398
27.8617 393
27.88182 398.000252150628
27.90193 384.985524240831
27.92204 379.969312695403
27.94216 371.935705765488
27.96227 418.995235119454
27.98239 386.999831543476
28.0025 416
28.02261 352.976130221148
28.04273 348.002416864114
28.06284 341.01080560417
28.08295 354.013350499627
28.10307 328.034193595913
28.12318 326.984135529968
28.1433 347
28.16341 347.991466159624
28.18352 330.001555065784
28.20364 345.00392349405
28.22375 335.013391590758
28.24386 356.975379347961
28.26398 351.006967328681
28.28409 350.002661717983
28.3042 341
28.32432 343.993704214496
28.34443 330.995284568687
28.36455 349.084889999821
28.38466 377.985285695381
28.40477 347.104378574417
28.42489 292.991249264836
28.445 357
28.46511 317.970062736253
28.48523 293.029020266212
28.50534 335.066973152772
28.52546 345.990607547648
28.54557 345.033952490075
28.56568 317.00057850164
28.5858 339
28.60591 322.995510491572
28.62602 327.996265291896
28.64614 317.011964765226
28.66625 339.961362318396
28.68636 324.09389613083
28.70648 290.973711142277
28.72659 343.99939743505
28.74671 299.997986050957
28.76682 341.006149641383
28.78693 301.977719431253
28.80705 333.074263183814
28.82716 329.046801361437
28.84727 322.949136533989
28.86739 360.010001353304
28.8875 298
28.90762 321.017125826332
28.92773 318.029147859172
28.94784 354.007637736709
28.96796 327.015442139165
28.98807 338.030807655463
29.00818 293.011357236414
29.0283 323
29.04841 302.978656195911
29.06853 271.996428010055
29.08864 305.116961233684
29.10875 346.027314183923
29.12887 304.027046828014
29.14898 319.994762324456
29.16909 301.005895361456
29.18921 309.004529687678
29.20932 312.008351797794
29.22943 313.958657606181
29.24955 284.045648094464
29.26966 339.936229887304
29.28978 322.032719253471
29.30989 306.999716946925
29.33 318
29.35012 325.982229896565
29.37023 297.989236956606
29.39034 308.991790633751
29.41046 291.988493527264
29.43057 314.005847811751
29.45069 291.994955278574
29.4708 334
29.49091 325.999331465096
29.51103 333.973248362007
29.53114 295.965808284696
29.55125 302.022922393826
29.57137 277.999633889359
29.59148 299.997959786466
29.6116 282
29.63171 309.005058126002
29.65182 293.991595545072
29.67194 303.011333626373
29.69205 303.031317327299
29.71216 324.980514641047
29.73228 320.997941725025
29.75239 323.01197817389
29.7725 296
29.79262 350.027621971529
29.81273 332.970684428665
29.83285 331.992283038576
29.85296 311.067018704826
29.87307 286.995489921965
29.89319 316.980425915017
29.9133 338
29.93341 315.993764359171
29.95353 322.014375651321
29.97364 314.942093180802
29.99376 290.972379095346
30.01387 321.01222245605
30.03398 272.037585468725
30.0541 280
30.07421 319.016928978865
30.09432 329.977764225596
30.11444 295.972705285631
30.13455 307.972113642803
30.15467 306.001623872038
30.17478 319.971040182976
30.19489 339.008150766668
30.21501 303.994311387271
30.23512 322.011181713046
30.25523 303.949765019657
30.27535 281.001062018728
30.29546 297.97230295727
30.31557 299.003288993748
30.33569 298.002533541824
30.3558 290
30.37592 294.010719288161
30.39603 301.9959982508
30.41614 289.975849344825
30.43626 291.957919062678
30.45637 314.996219004595
30.47648 297.016015146357
30.4966 303
30.51671 325.99989557337
30.53683 301.958151546825
30.55694 298.056749972505
30.57705 324.049872486213
30.59717 278.012440384592
30.61728 310.98598515373
30.63739 286.011871366212
30.65751 290.009133242163
30.67762 300.995410628183
30.69773 295.022480427358
30.71785 321.011110075654
30.73796 295.065226201308
30.75808 283.98426888789
30.77819 310.991347223049
30.7983 307
30.81842 292.994063883911
30.83853 303.042235353747
30.85864 321.959749523091
30.87876 270.091308527082
30.89887 263.954904952425
30.91899 294.001602363962
30.9391 268
30.95921 292.009066847451
30.97933 281.961588680332
30.99944 269.031377757812
31.01955 298.966504221731
31.03967 293.992254474379
31.05978 308.007250969679
31.0799 284
31.10001 295.99745683611
31.12012 284.026189379372
31.14024 335.033736005368
31.16035 304.084490886659
31.18046 295.001996845323
31.20058 290.004039600776
31.22069 290.997395416459
31.2408 291
31.26092 280.017304822397
31.28103 312.011115514559
31.30115 288.949207853254
31.32126 287.995326951351
31.34137 284.005736091231
31.36149 290.989054365536
31.3816 308
31.40171 271.984994345974
31.42183 268.019306302071
31.44194 285.034781344195
31.46206 289.039473288797
31.48217 265.992818171488
31.50228 297.972795254171
31.5224 294
31.54251 267.000095265756
31.56262 289.014345123751
31.58274 279.962242032033
31.60285 264.033127772573
31.62297 259.981430677162
31.64308 281.982662923398
31.66319 291.993087017411
31.68331 300.992020775874
31.70342 264.9693439586
31.72353 270.069318846673
31.74365 315.99529544609
31.76376 273.059252690667
31.78387 278.98472669053
31.80399 276.999571028629
31.8241 292
31.84422 309.996818394678
31.86433 287.963206050349
31.88444 275.999747210547
31.90456 283.973950305724
31.92467 297.979602741978
31.94478 304.007691310926
31.9649 294
31.98501 306.997707196283
32.00513 285.983685194364
32.02524 292.006934714782
32.04535 282.037013119034
32.06547 273.996866330385
32.08558 285.98170208289
32.10569 296.004812582692
32.12581 273.992226353638
32.14592 280.02413272327
32.16604 298.987249137198
32.18615 274.965481312659
32.20626 286.948599735429
32.22638 306.993539368005
32.24649 301.004836909197
32.2666 297
32.28672 307.018010489591
32.30683 318.986824127562
32.32694 292.950340489182
32.34706 287.968796134592
32.36717 302.015889021212
32.38729 276.004417767166
32.4074 294
32.42751 301.999156378709
32.44763 296.990501653734
32.46774 294.006308190714
32.48785 298.008232031066
32.50797 290.002870285567
32.52808 292.007003707284
32.5482 287
32.56831 324.009190319061
32.58842 311.979978477224
32.60854 307.022045703765
32.62865 313.052470252798
32.64876 283.991375821531
32.66888 323.963852085565
32.68899 328.008766480511
32.7091 308
32.72922 302.99776052703
32.74933 309.038534230301
32.76945 327.935214838903
32.78956 285.981330830682
32.80967 344.94072189314
32.82979 327.022366811422
32.8499 294
32.87001 299.005972816699
32.89013 308.010047409306
32.91024 316.024020459461
32.93036 338.925121004808
32.95047 366.019189938156
32.97058 324.030719016081
32.9907 328
33.01081 349.008373916562
33.03092 360.006377804157
33.05104 366.016962525705
33.07115 377.966836098792
33.09127 386.998504492152
33.11138 376.023140244498
33.13149 353.004937154689
33.15161 362.010405001661
33.17172 387.028126139239
33.19183 403.988019840556
33.21195 377.941964004751
33.23206 364.036516413146
33.25217 358.940396926989
33.27229 413.995897570708
33.2924 375
33.31252 395.033886167054
33.33263 402.958896063318
33.35274 376.037810836389
33.37286 401.108061665614
33.39297 296.062330950913
33.41308 358.905813443326
33.4332 405
33.45331 367.986209554717
33.47343 361.987904455849
33.49354 344.982194625968
33.51365 352.958189390106
33.53377 356.037751246163
33.55388 317.023308478581
33.57399 322.990109597718
33.59411 332.995946092958
33.61422 324.015633747072
33.63434 354.01666289902
33.65445 325.891548420485
33.67456 303.967864105375
33.69468 326.020623534029
33.71479 282.99803183083
33.7349 331
33.75502 302.977108947986
33.77513 308.005138366361
33.79524 298.994339668728
33.81536 304.00808173576
33.83547 292.002838013236
33.85559 304.99275806398
33.8757 309
33.89581 294.988464666771
33.91593 281.021100183193
33.93604 318.071368781597
33.95615 321.093329395901
33.97627 279.004132198375
33.99638 313.97286607264
34.0165 298
34.03661 256.999356757416
34.05672 296.048272748373
34.07684 311.944433239609
34.09695 265.073246397016
34.11706 263.995881657272
34.13718 255.00875671479
34.15729 259.989491531604
34.17741 287.01007694068
34.19752 286.97889523798
34.21763 263.993353439573
34.23775 284.075180064936
34.25786 296.040765523883
34.27797 264.012568732421
34.29809 288.983622078972
34.3182 303
34.33831 281.985736158201
34.35843 274.050872573464
34.37854 321.018974906278
34.39866 286.071551587001
34.41877 274.009666839883
34.43888 263.007121986658
34.459 268
34.47911 287.005385759287
34.49922 295.020509728801
34.51934 321.017410432656
34.53945 306.055961167127
34.55957 295.990585172127
34.57968 309.990905398005
34.59979 310.99892254305
34.61991 326.015026070774
34.64002 349.994030864424
34.66013 322.977096434787
34.68025 321.958902088544
34.70036 294.010792868946
34.72047 326.920376843584
34.74059 355.012464038134
34.7607 306
34.78082 339.040773952851
34.80093 363.034267471972
34.82104 390.040211725648
34.84116 401.974156727722
34.86127 422.960298783179
34.88138 433.026238212893
34.9015 402
34.92161 454.012434599954
34.94173 435.978844306076
34.96184 441.991801699825
34.98195 427.983360010142
35.00207 446.015911701873
35.02218 409.020717850299
35.04229 419.992126089181
35.06241 428.007219496854
35.08252 441.99217731673
35.10264 421.997758417306
35.12275 433.971570280475
35.14286 395.067366227678
35.16298 384.002825032667
35.18309 389.985005018602
35.2032 413
35.22332 350.976236343743
35.24343 371.000934380239
35.26354 340.982363299056
35.28366 370.931283022277
35.30377 379.023047187605
35.32389 369.987867202088
35.344 412
35.36411 390.985759560183
35.38423 388.038479177206
35.40434 418.013132266583
35.42445 396.06963886731
35.44457 396.936650358276
35.46468 443.998061128137
35.4848 408
35.50491 434.017862285135
35.52502 438.966405220347
35.54514 415.083968531268
35.56525 486.978555777459
35.58536 427.081477849512
35.60548 441.980363918731
35.62559 430.014438356296
35.64571 405.994234199987
35.66582 421.048217587021
35.68593 473.028090182462
35.70605 464.012492524765
35.72616 485.999885629995
35.74627 460.025857778008
35.76639 464.99695874574
35.7865 454
35.80661 437.005237608468
35.82673 462.01053697436
35.84684 457.041958968534
35.86696 496.973597949854
35.88707 474.03501218524
35.90718 466.012415740538
35.9273 451
35.94741 464.995930212875
35.96752 431.971376180474
35.98764 438.084435497
36.00775 479.993119442803
36.02787 434.098015568102
36.04798 389.012925358679
36.06809 394.001263598218
36.08821 389.01154283262
36.10832 426.005764343922
36.12843 388.930429789411
36.14855 370.031863234642
36.16866 399.943912760755
36.18878 413.993869373324
36.20889 415.003868670549
36.229 389
36.24912 359.039825981383
36.26923 444.082464794726
36.28934 441.975200880631
36.30946 446.99300747156
36.32957 447.975499438407
36.34968 485.95256894485
36.3698 563
36.38991 709.034712158581
36.41003 730.125349878812
36.43014 924.478041465326
36.45025 1167.33923239438
36.47037 1475.47860265321
36.49048 1794.78323511118
36.51059 1950.89810228453
36.53071 2173.04806697509
36.55082 2073.77817269448
36.57094 1803.37854103337
36.59105 1481.2433668079
36.61116 1260.19883972986
36.63128 1202.13237529191
36.65139 981.101763993638
36.6715 818
36.69162 583.817848887095
36.71173 475.862011648051
36.73184 396.984074258443
36.75196 436.985256663937
36.77207 402.010124023438
36.79219 425.008252657422
36.8123 377
36.83241 407.986444351359
36.85253 344.017562851218
36.87264 434.117305387027
36.89275 409.130320361395
36.91287 384.99474821822
36.93298 402.980007726135
36.9531 415
36.97321 405.982311557191
36.99332 365.989142820022
37.01344 385.032556455589
37.03355 377.053343763973
37.05366 363.98722676185
37.07378 378.001420865904
37.09389 359.007774363128
37.11401 353.995977812497
37.13412 342.999944324453
37.15423 357.025951792005
37.17435 358.94628772413
37.19446 325.053201621186
37.21457 317.99124455259
37.23469 326.995432009641
37.2548 324
37.27491 294.996631574969
37.29503 313.02797155837
37.31514 313.977470182747
37.33526 310.959289392059
37.35537 333.020123128308
37.37548 300.996278485765
37.3956 343
37.41571 326.98063740236
37.43582 293.980518276529
37.45594 294.036520542238
37.47605 326.888728221356
37.49617 345.066614324227
37.51628 273.027615609548
37.53639 313.968982358341
37.55651 334.982225057199
37.57662 299.03540003994
37.59673 375.020459042075
37.61685 321.945452962966
37.63696 366.900814590967
37.65708 370.033421722247
37.67719 330.013076510411
37.6973 323
37.71742 326.023453191225
37.73753 359.024049322442
37.75764 346.949769272932
37.77776 331.992119782054
37.79787 352.958877722744
37.81798 368.006138518036
37.8381 341
37.85821 312.998119254338
37.87833 328.022266281492
37.89844 325.966142645048
37.91855 312.979685797812
37.93867 329.009843179319
37.95878 308.993662238575
37.97889 335.999020822335
37.99901 310.995951703084
38.01912 332.018609323741
38.03924 329.980565200517
38.05935 331.043343077336
38.07946 350.00002896598
38.09958 330.020393136493
38.11969 326.99353702489
38.1398 346
38.15992 359.016988608089
38.18003 372.994356092618
38.20015 358.994912733016
38.22026 378.940716965624
38.24037 396.009357152307
38.26049 382.99628348874
38.2806 413
38.30071 415.991104779333
38.32083 407.039149710361
38.34094 443.994301146851
38.36105 404.058535984405
38.38117 411.00278968267
38.40128 393.998933829132
38.4214 417
38.44151 416.001535320961
38.46162 421.987277442762
38.48174 395.97610312693
38.50185 405.968176482119
38.52196 406.018186940691
38.54208 402.985255629241
38.56219 420.004086440694
38.58231 387.986631404878
38.60242 387.016717094192
38.62253 394.971127370002
38.64265 358.941336883438
38.66276 361.97059975129
38.68287 373.985733650349
38.70299 364.023363984202
38.7231 307
38.74321 334.023575403636
38.76333 356.97455811498
38.78344 314.927429949721
38.80356 306.974072811852
38.82367 327.964914264037
38.84378 339.010980988187
38.8639 319
38.88401 331.005966586131
38.90412 327.985291072879
38.92424 327.070069907662
38.94435 376.94889035009
38.96447 363.014511422874
38.98458 370.002681303275
39.00469 357.997234385223
39.02481 377.000687817763
39.04492 365.009799946656
39.06503 402.051307370656
39.08515 401.908992558256
39.10526 350.086698460983
39.12538 346.953857246166
39.14549 408.982680625647
39.1656 398
39.18572 375.996426869953
39.20583 393.04779458882
39.22594 432.086742244292
39.24606 468.957919579626
39.26617 482.963706207125
39.28628 531.929898564009
39.3064 627
39.32651 758.051968453963
39.34663 863.245481749061
39.36674 1088.45416991372
39.38685 1302.4047108119
39.40697 1584.54935074327
39.42708 1848.81003425105
39.44719 1979.94038830775
39.46731 2012.91128004067
39.48742 1657.62879858662
39.50754 1391.61796978524
39.52765 1248.78747588515
39.54776 1190.1411060706
39.56788 1077.14500180878
39.58799 882.134299209948
39.6081 603
39.62822 506.930426404413
39.64833 413.863907937412
39.66845 354.947431391699
39.68856 366.930817989222
39.70867 396.98801879682
39.72879 371.02719028383
39.7489 317
39.76901 323.013889622071
39.78913 339.979974058306
39.80924 316.009140600503
39.82935 352.91612458417
39.84947 355.033824663976
39.86958 324.029727936833
39.8897 312
39.90981 329.997625822124
39.92992 311.002878172273
39.95004 335.016523654488
39.97015 320.022556110643
39.99026 337.926586011267
40.01038 365.003598872183
40.03049 349.993171308161
40.05061 377.99382145029
40.07072 342.011786160738
40.09083 401.051225823895
40.11095 404.091188271101
40.13106 484.860064631563
40.15117 511.992080593554
40.17129 552.944012489313
40.1914 708
40.21152 809.125501524545
40.23163 970.222955739979
40.25174 1072.12941658427
40.27186 1113.95674271497
40.29197 1091.14247021003
40.31208 956.112801730122
40.3322 870
40.35231 734.953921255311
40.37242 696.966067416689
40.39254 637.876479115089
40.41265 570.242456625245
40.43277 462.111731040442
40.45288 423.0441506436
40.47299 363.022192616009
40.49311 347.998881578752
40.51322 338.981647798579
40.53333 329.028429140715
40.55345 347.92361014483
40.57356 286.049585525611
40.59368 317.95942460307
40.61379 325.010565742687
40.6339 297
40.65402 299.0181510378
40.67413 314.999671510534
40.69424 306.00704016871
40.71436 322.98024502156
40.73447 316.019933284742
40.75458 311.989547918107
40.7747 325
40.79481 309.995261054432
40.81493 312.001306563361
40.83504 312.023886651577
40.85515 327.009840632631
40.87527 315.976479274598
40.89538 351.984357873414
40.91549 331.016663941546
40.93561 317.006623121346
40.95572 342.01320771187
40.97584 332.963138052593
40.99595 324.017076335318
41.01606 337.988023796331
41.03618 324.03085345677
41.05629 308.984539043705
41.0764 358
41.09652 327.991752129887
41.11663 357.032598582015
41.13675 351.981975731355
41.15686 351.021409186957
41.17697 325.045647351867
41.19709 309.994979548221
41.2172 331
41.23731 314.986232126224
41.25743 297.000887814433
41.27754 310.020742828482
41.29765 309.015638095757
41.31777 300.022815898571
41.33788 295.971704874309
41.358 330
41.37811 287.991136753305
41.39822 305.004998117155
41.41834 289.001268582863
41.43845 312.959529509123
41.45856 304.041343009445
41.47868 287.011039499074
41.49879 286.992980161672
41.51891 308.008759334966
41.53902 311.990463602139
41.55913 305.017494479134
41.57925 317.952064406851
41.59936 271.072263874034
41.61947 269.968808079265
41.63959 297.983299342526
41.6597 307
41.67982 256.01725703171
41.69993 318.012182764922
41.72004 266.965159643235
41.74016 302.966841126637
41.76027 276.033183357645
41.78038 290.964050394604
41.8005 308
41.82061 264.995743779325
41.84072 306.054479866617
41.86084 331.980928729918
41.88095 298.099728964179
41.90107 278.983207270406
41.92118 304.984222872378
41.94129 298.008754039009
41.96141 285.99878845732
41.98152 289.000350114062
42.00163 294.03737995296
42.02175 327.033716528893
42.04186 317.020570108487
42.06198 311.020110182734
42.08209 285.002367934926
42.1022 305
42.12232 318.018919141581
42.14243 340.011631474776
42.16254 331.983437206932
42.18266 338.955498791947
42.20277 365.96898376091
42.22289 377.99423786639
42.243 401
42.26311 452.029258832393
42.28323 502.044501211181
42.30334 535.141062903143
42.32345 662.582450496522
42.34357 824.812064523901
42.36368 951.805295430808
42.38379 1197.89552835038
42.40391 1325.04153007797
42.42402 1398.05586041534
42.44414 1433.03151639852
42.46425 1356.39490656303
42.48436 1036.45933335791
42.50448 972.982163147161
42.52459 967.024050587365
42.5447 889
42.56482 812.892576895943
42.58493 650.692489245105
42.60505 456.661893187412
42.62516 389.069278115817
42.64527 354.048603328616
42.66539 328.008935502022
42.6855 308
42.70561 278.001228621259
42.72573 304.017592978249
42.74584 282.930572381464
42.76595 265.965560987028
42.78607 289.999043777774
42.80618 271.998242433268
42.8263 295
42.84641 276.992339109025
42.86652 280.009453935136
42.88664 281.984803730349
42.90675 273.992372444937
42.92686 283.003165404074
42.94698 271.005538914283
42.96709 275.998594070308
42.98721 270.997150552912
43.00732 264.987154474981
43.02743 247.982593695443
43.04755 255.073878399834
43.06766 276.046040152737
43.08777 227.031775690954
43.10789 244.992542899865
43.128 241
43.14812 265.031657278653
43.16823 276.966180161311
43.18834 242.98537391738
43.20846 262.980153825873
43.22857 249.021796593523
43.24868 251.984683404198
43.2688 257
43.28891 231.006849429696
43.30902 274.018954872761
43.32914 262.005749753715
43.34925 286.979444403003
43.36937 269.02233904088
43.38948 272.990489603246
43.40959 277.998150589492
43.42971 284.004267677869
43.44982 283.980043757522
43.46993 254.976979145257
43.49005 254.987243741509
43.51016 256.917035307058
43.53028 306.008773207082
43.55039 252.010512859347
43.5705 280
43.59062 257.978252901807
43.61073 256.00045887113
43.63084 254.017152543042
43.65096 273.962204620553
43.67107 280.010119942604
43.69119 262.013813471609
43.7113 242
43.73141 266.012067159642
43.75153 268.97019141378
43.77164 248.003118496189
43.79175 266.981042386834
43.81187 258.998646497132
43.83198 269.005282485593
43.85209 247.007750106385
43.87221 254.011246185185
43.89232 275.009093456052
43.91244 271.989594366396
43.93255 264.954637275048
43.95266 241.029067798883
43.97278 245.980213842336
43.99289 265.995031168685
44.013 255
44.03312 224.998302899518
44.05323 255.05943646891
44.07335 270.950943825582
44.09346 239.017578845032
44.11357 257.975689435876
44.13369 258.998132718909
44.1538 269
44.17391 260.997719290911
44.19403 260.989005698498
44.21414 245.978056052498
44.23426 245.98708996263
44.25437 252.990886228859
44.27448 255.00387525279
44.2946 247
44.31471 239.996455693068
44.33482 238.009955367181
44.35494 254.018186034433
44.37505 247.048440056103
44.39516 230.006344184288
44.41528 250.95619471865
44.43539 277.015919431231
44.45551 217.992636055026
44.47562 265.055161741405
44.49573 280.972966072331
44.51585 260.004772006296
44.53596 276.008937948509
44.55607 251.016387045601
44.57619 259.999877327432
44.5963 251
44.61642 275.004715956296
44.63653 249.952031804737
44.65664 240.037663919625
44.67676 264.003347209549
44.69687 239.022956027264
44.71698 248.982019005391
44.7371 257
44.75721 252.001326814137
44.77732 255.989319833533
44.79744 239.002464547273
44.81755 260.948738327532
44.83767 262.02205352089
44.85778 248.000398337394
44.87789 264.987417766661
44.89801 279.997611874594
44.91812 265.996898634484
44.93823 275.003489807432
44.95835 264.976809459651
44.97846 265.984158695853
44.99858 272.998507498722
45.01869 271.997976880803
45.0388 280
45.05892 273.989104980101
45.07903 270.015834898893
45.09914 280.979219799061
45.11926 259.997479408514
45.13937 292.938118374129
45.15949 308.011495363904
45.1796 273
45.19971 295.009840979455
45.21983 299.011581745224
45.23994 306.970568795944
45.26005 280.013532029716
45.28017 298.981132296017
45.30028 294.003046968891
45.32039 303.992746654821
45.34051 309.996379464498
45.36062 295.990558922875
45.38074 289.970631710188
45.40085 277.028568653268
45.42096 295.032057081431
45.44108 272.959313200035
45.46119 348.992910192607
45.4813 302
45.50142 355.046351655873
45.52153 358.992697287373
45.54165 368.029951182846
45.56176 366.044156505314
45.58187 350.961653743132
45.60199 402.985042664742
45.6221 406
45.64221 472.050081186945
45.66233 574.122763288134
45.68244 638.135626157173
45.70256 727.789453230696
45.72267 843.812956274434
45.74278 980.84892288952
45.7629 1110
45.78301 1096.96769734775
45.80312 986.826181583965
45.82324 788.680648959511
45.84335 701.099394183936
45.86346 686.968906521967
45.88358 699.028642221843
45.90369 638.023516708681
45.92381 600.962076931178
45.94392 478.87562551978
45.96403 382.884083958042
45.98415 323.92745714841
46.00426 311.042219372578
46.02437 285.003972570198
46.04449 300.999182565113
46.0646 282
46.08472 274.972045543462
46.10483 237.989824491298
46.12494 270.080968229751
46.14506 294.970650652407
46.16517 296.032882256347
46.18528 269.004448913109
46.2054 288
46.22551 289.000681314835
46.24563 284.954802931428
46.26574 242.963388302039
46.28585 267.869215699997
46.30597 306.004652436922
46.32608 270.033601089365
46.34619 267.987992003129
46.36631 283.989609042173
46.38642 242.984414795438
46.40653 265.039917772021
46.42665 268.966556797822
46.44676 253.017642396121
46.46688 260.975078110973
46.48699 277.00964765857
46.5071 241
46.52722 262.003835601183
46.54733 245.005669692575
46.56744 276.046119376427
46.58756 270.042667853195
46.60767 248.031949035658
46.62779 239.991522999712
46.6479 280
46.66801 305.992145515269
46.68813 270.980520555987
46.70824 281.992500783805
46.72835 261.996986737742
46.74847 286.979265027946
46.76858 269.03547113364
46.78869 247.994149910918
46.80881 278.007707698152
46.82892 268.989226796622
46.84904 267.995723639621
46.86915 265.018409631016
46.88926 274.018763133769
46.90938 246.02654113625
46.92949 238.994473855391
46.9496 250
46.96972 236.003152320585
46.98983 254.007831149616
47.00995 245.006815699386
47.03006 263.972754651169
47.05017 266.987529119754
47.07029 267.01898191398
47.0904 217
47.11051 252.007810107108
47.13063 235.999673023317
47.15074 265.04863471944
47.17086 261.044737031509
47.19097 241.009769036118
47.21108 256.96366788544
47.2312 280
47.25131 233.992532880722
47.27142 265.037605270548
47.29154 271.9556103931
47.31165 249.983826009259
47.33176 279.959453271647
47.35188 263.048532210107
47.37199 223.996580248509
47.39211 269.019461830588
47.41222 270.977613468194
47.43233 254.008751650301
47.45245 270.99789971796
47.47256 253.010893688693
47.49267 267.979401193323
47.51279 262.011279200288
47.5329 247
47.55302 272.999836153919
47.57313 250.997838922706
47.59324 278.042164377118
47.61336 270.052128952346
47.63347 247.014004986624
47.65358 256.975533300871
47.6737 275
47.69381 257.99931066371
47.71393 276.020349522676
47.73404 266.94762029687
47.75415 244.01037591791
47.77427 255.984800280734
47.79438 253.009483409766
47.81449 249.995045284593
47.83461 271.011767844329
47.85472 275.973494760156
47.87483 241.993757375395
47.89495 268.048796046118
47.91506 263.022574966196
47.93518 262.989371057176
47.95529 269.006682179209
47.9754 251
47.99552 284.029864537122
48.01563 287.97566519942
48.03574 277.028207814761
48.05586 297.026735753713
48.07597 254.044048059741
48.09609 258.991395500902
48.1162 264
48.13631 252.000325604113
48.15643 264.010654253114
48.17654 270.049267818133
48.19665 301.981145255266
48.21677 281.033189179042
48.23688 277.990701509025
48.257 289
48.27711 270.967378751565
48.29722 209.013422188785
48.31734 282.089420120451
48.33745 270.980497261861
48.35756 287.991337778027
48.37768 272.006526739976
48.39779 275.008530893246
48.4179 242
48.43802 257.02221391031
48.45813 264.991661037697
48.47825 259.014906669176
48.49836 276.965220206458
48.51847 280.019466151925
48.53859 263.003576229145
48.5587 268
48.57881 264.995062295959
48.59893 252.983463012231
48.61904 256.054394419865
48.63916 279.040444930235
48.65927 242.977974743797
48.67938 300.973270026179
48.6995 276
48.71961 276.996561274348
48.73972 260.00257097496
48.75984 280.011265651084
48.77995 264.032700603656
48.80006 264.996104974419
48.82018 269.976803351486
48.84029 299.995171033726
48.86041 280.985535999425
48.88052 256.977734363944
48.90063 255.060707630433
48.92075 301.987042322851
48.94086 256.033435919967
48.96097 281.981142350142
48.98109 260.010714437725
49.0012 261
49.02132 273.018268103794
49.04143 293.017967539034
49.06154 292.986849525436
49.08166 288.001144884647
49.10177 282.035812409208
49.12188 259.987408851531
49.142 292
49.16211 265.996363216685
49.18223 288.021118706296
49.20234 278.979138406862
49.22245 281.97579393697
49.24257 293.975306160353
49.26268 305.006886532103
49.28279 289.00187421304
49.30291 302.006440149822
49.32302 300.987990090943
49.34313 292.007958707208
49.36325 302.992041027211
49.38336 295.96153724344
49.40348 323.014098654283
49.42359 277.009675094086
49.4437 303
49.46382 306.981968531602
49.48393 298.03825893636
49.50404 333.993538342429
49.52416 297.030690901345
49.54427 315.98334861641
49.56439 307.998048791354
49.5845 330
49.60461 319.9858062227
49.62473 301.017951243088
49.64484 332.033098474892
49.66495 319.060801804939
49.68507 306.990795035032
49.70518 329.967551191916
49.7253 355
49.74541 353.003496612927
49.76552 368.003550331301
49.78564 359.999291284402
49.80575 374.039834002498
49.82586 407.841484726738
49.84598 494.972392012551
49.86609 472.997679072681
49.8862 519
49.90632 533.072992057169
49.92643 651.1155038693
49.94655 684.173543739051
49.96666 815.727184844346
49.98677 958.693759875079
50.00689 1223.8678568669
50.027 1497
50.04711 1941.24881501393
50.06723 2415.6075647025
50.08734 2761.65877905464
50.10746 3061.59092923909
50.12757 3067.35639053029
50.14768 2675.40748047313
50.1678 2304
50.18791 1855.80159746406
50.20802 1632.9948926532
50.22814 1738.13143502198
50.24825 1687.24044157326
50.26837 1560.31782724767
50.28848 1243.38084950222
50.30859 878.150135673177
50.32871 653.911772888111
50.34882 499.877745543962
50.36893 421.959771367356
50.38905 409.902701435232
50.40916 345.093539254362
50.42927 335.991413291699
50.44939 334.004515935106
50.4695 332
50.48962 363.02162022724
50.50973 355.949771561051
50.52984 323.991670011638
50.54996 338.007128973503
50.57007 317.999273710767
50.59018 347.968730994154
50.6103 364
50.63041 366.989180180583
50.65053 326.946444433152
50.67064 309.988899580862
50.69075 307.004254189797
50.71087 308.985888827883
50.73098 319.997171028738
50.75109 309.0103332045
50.77121 288.993667590475
50.79132 281.990748537541
50.81143 270.993892477844
50.83155 277.02673251605
50.85166 286.982129505374
50.87178 294.992847929429
50.89189 298.00234865212
50.912 290
50.93212 284.978927786812
50.95223 258.992447434374
50.97234 267.981223905592
50.99246 250.962558824075
51.01257 284.026466416761
51.03269 225.012638842403
51.0528 256
51.07291 264.000563823343
51.09303 271.007722009332
51.11314 262.950409804025
51.13325 247.936631419861
51.15337 290.989572666757
51.17348 257.025987220867
51.1936 268
51.21371 280.992277859697
51.23382 253.991702781006
51.25394 268.019879097236
51.27405 264.996689549361
51.29416 266.042481645066
51.31428 231.017602708066
51.33439 250.976617823022
51.3545 284
51.37462 246.986662934012
51.39473 265.012254825531
51.41485 255.011059855842
51.43496 274.992121207888
51.45507 255.030382780834
51.47519 252.994319246728
51.4953 271
51.51541 281.992552676087
51.53553 246.948052446528
51.55564 224.966737755282
51.57576 222.941056199075
51.59587 258.999649919989
51.61598 226.021138964089
51.6361 228
51.65621 205.997349410937
51.67632 228.029609495894
51.69644 246.012439068579
51.71655 250.964998036445
51.73667 270.981636040454
51.75678 256.04792877037
51.77689 210.999744446161
51.79701 249.012411058182
51.81712 239.986623182025
51.83723 242.011777838802
51.85735 250.029604746059
51.87746 262.985337260696
51.89757 262.008223884318
51.91769 251.010593139696
51.9378 238
51.95792 271.006361184939
51.97803 237.933544067104
51.99814 224.061406482434
52.01826 259.031864304876
52.03837 212.004589754692
52.05848 264.954345683306
52.0786 269
52.09871 263.994324141938
52.11883 247.988035189189
52.13894 260.06293732005
52.15905 280.056009036245
52.17917 241.993446420795
52.19928 283.983459798849
52.21939 258.011296073771
52.23951 254.993615948907
52.25962 229.990021946247
52.27974 246.051899946453
52.29985 259.989161766924
52.31996 241.046793510835
52.34008 233.979523619694
52.36019 265.992012220282
52.3803 257
52.40042 245.987033665992
52.42053 238.016255648732
52.44064 266.058954268293
52.46076 266.090072228127
52.48087 219.980006444712
52.50099 269.998432927466
52.5211 219
52.54121 244.017191745411
52.56133 251.984490225295
52.58144 244.013905368282
52.60155 257.006449511396
52.62167 243.99497853026
52.64178 266.98109733253
52.6619 259
52.68201 224.996162520642
52.70212 244.020140041656
52.72224 253.021311584045
52.74235 262.022651493718
52.76246 250.960886251593
52.78258 286.99487914603
52.80269 251.019936454117
52.8228 238
52.84292 252.01037220543
52.86303 257.01061455205
52.88315 258.955441877705
52.90326 236.990857017091
52.92337 257.009391275916
52.94349 231.997100936615
52.9636 271
52.98371 258.987779753725
53.00383 251.019981829488
53.02394 270.008165005366
53.04406 264.97587526092
53.06417 292.97561178225
53.08428 289.005326094962
53.1044 292
53.12451 284.992584481591
53.14462 268.988615156291
53.16474 269.025347667275
53.18485 275.053296607896
53.20497 242.011867406565
53.22508 261.986049053636
53.24519 260.9955633722
53.26531 280.002119152032
53.28542 263.98305129086
53.30553 265.028288889659
53.32565 292.062973027451
53.34576 301.024529448895
53.36587 288.977872676179
53.38599 316.999606124624
53.4061 291
53.42622 308.019868973971
53.44633 303.956617655105
53.46644 277.006435538118
53.48656 299.991965054354
53.50667 283.002263932672
53.52678 305.980234753983
53.5469 313
53.56701 326.997375702112
53.58713 301.964098257671
53.60724 290.987248594679
53.62735 286.988240514996
53.64747 295.996266639343
53.66758 288.011611948352
53.68769 283.995928527047
53.70781 299.005916672587
53.72792 305.007184454252
53.74804 323.062256349288
53.76815 341.946785995555
53.78826 299.034879910709
53.80838 317.980308102927
53.82849 316.005294012113
53.8486 306
53.86872 302.021376242449
53.88883 337.030403505257
53.90894 330.967829429855
53.92906 317.030914128833
53.94917 308.981359258945
53.96929 328.999298441228
53.9894 310
54.00951 311.002473555263
54.02963 310.997297599025
54.04974 312.010519475002
54.06985 323.951526244914
54.08997 341.990162165112
54.11008 338.003737600752
54.1302 327
54.15031 295.010502038296
54.17042 347.012173442485
54.19054 327.051365263088
54.21065 392.944987779854
54.23076 352.078618495
54.25088 349.993314106339
54.27099 343.007175483643
54.29111 340.010453675387
54.31122 374.023298066943
54.33133 374.985393511496
54.35145 362.956918583916
54.37156 343.033233544244
54.39167 334.999469283161
54.41179 348.983482964974
54.4319 378
54.45201 348.991875075283
54.47213 362.032268490912
54.49224 373.003560026312
54.51236 367.027288113898
54.53247 349.028129831207
54.55258 344.977053737894
54.5727 377
54.59281 374.011025512976
54.61292 411.00294198978
54.63304 378.961859718958
54.65315 396.921492008769
54.67327 424.954011163175
54.69338 460.963022666409
54.71349 507.96541357166
54.73361 597.046114240455
54.75372 667.036455276194
54.77383 711.153348222195
54.79395 879.470006284712
54.81406 1024.83774813754
54.83417 1055.97920924332
54.85429 1070.00107714867
54.8744 1034
54.89452 934.882674904102
54.91463 809.807215574805
54.93474 695.836123899728
54.95486 668.928438442416
54.97497 732.925551427725
54.99508 743.013212531312
55.0152 714
55.03531 644.967122707592
55.05543 577.865617239819
55.07554 468.797087980373
55.09565 409.020741512388
55.11577 418.025260677023
55.13588 388.983883077797
55.15599 449.976186471757
55.17611 439.972818620517
55.19622 410.050529242745
55.21634 512.134921329435
55.23645 539.160449242041
55.25656 639.886012445489
55.27668 628.027365148918
55.29679 624.996108072001
55.3169 623
55.33702 582.941739683116
55.35713 520.920890374616
55.37724 472.881835353661
55.39736 426.982175202462
55.41747 470.973100607865
55.43759 436.026729483566
55.4577 413
55.47781 449.000373580263
55.49793 406.934188475415
55.51804 382.955779576615
55.53815 346.122983081544
55.55827 297.055950305094
55.57838 287.974888017133
55.5985 318
55.61861 293.997701805302
55.63872 316.01314807315
55.65884 292.897669039519
55.67895 258.946169737367
55.69906 323.884623148263
55.71918 332.034117979099
55.73929 285.018699388006
55.75941 278.01125262146
55.77952 300.995124582115
55.79963 281.008764234446
55.81975 304.983975522847
55.83986 271.019979898678
55.85997 292.983927165383
55.88009 275.010383520138
55.9002 273
55.92031 289.005896794372
55.94043 287.977303609317
55.96054 273.00186731787
55.98066 285.989283708868
56.00077 279.0067962082
56.02088 283.993248012
56.041 287
56.06111 285.996807084692
56.08122 280.003247596087
56.10134 292.022707340423
56.12145 287.069080665479
56.14157 254.021183761175
56.16168 269.966810955584
56.18179 293.001138859023
56.20191 275.996962729266
56.22202 286.005748171909
56.24213 283.00589791232
56.26225 289.976213575211
56.28236 277.961787233479
56.30248 311.004240205439
56.32259 274.006951522623
56.3427 298
56.36282 283.9597856615
56.38293 252.003878857955
56.40304 275.006458156338
56.42316 253.024732656857
56.44327 263.979744263325
56.46338 273.978967022766
56.4835 299
56.50361 278.983400343836
56.52373 262.023483585873
56.54384 286.989218620038
56.56395 259.99996139729
56.58407 293.960720193159
56.60418 287.024057118792
56.62429 259.017176746349
56.64441 234.001652418816
56.66452 266.042119457493
56.68464 286.972645833671
56.70475 262.001035523996
56.72486 283.993865120273
56.74498 267.994831387486
56.76509 290.002960860888
56.7852 254
56.80532 269.036033776711
56.82543 287.970711741816
56.84554 256.006147888099
56.86566 285.003653435132
56.88577 248.029637474997
56.90589 265.988041757022
56.926 270
56.94611 265.007140201701
56.96623 281.98344963053
56.98634 261.035509411954
57.00645 298.030772573196
57.02657 243.033306296724
57.04668 277.958882176324
57.0668 287
57.08691 279.00277699884
57.10702 300.027543456989
57.12714 310.959415016403
57.14725 281.007352550397
57.16736 303.977403264981
57.18748 298.988337161735
57.20759 323.999159111571
57.22771 303.998315941593
57.24782 312.97902138753
57.26793 264.956049919723
57.28805 270.025171337681
57.30816 269.992217601218
57.32827 278.998274637693
57.34839 276.993762339509
57.3685 297
57.38861 276.988464635856
57.40873 264.991221112251
57.42884 260.997482422456
57.44896 263.984281021281
57.46907 271.000542443956
57.48918 267.994421082677
57.5093 271
57.52941 242.002437433126
57.54952 278.023500639867
57.56964 268.963124992944
57.58975 261.99360468799
57.60987 272.969665115265
57.62998 289.999918344604
57.65009 273.010224546099
57.67021 264.00206029574
57.69032 272.000988204239
57.71043 261.978845546335
57.73055 250.98186435079
57.75066 258.932003569098
57.77078 293.003509069864
57.79089 256.014359250711
57.811 261
57.83112 265.967141502622
57.85123 227.010531192605
57.87134 276.070024255464
57.89146 270.037427652521
57.91157 265.985182526044
57.93168 281.985079276287
57.9518 282
57.97191 258.000310505759
57.99203 282.029035421803
58.01214 275.950984772439
58.03225 250.041489887
58.05237 246.993121083133
58.07248 248.007762182242
58.09259 242.992721225411
58.11271 267.003083914346
58.13282 252.990543773552
58.15294 255.997746951702
58.17305 250.012345308429
58.19316 265.977760599817
58.21328 263.010719365443
58.23339 255.00051871597
58.2535 257
58.27362 252.004345180419
58.29373 254.969588355366
58.31385 230.027554236081
58.33396 269.958370779144
58.35407 260.007490298779
58.37419 268.003450084497
58.3943 254
58.41441 284.999397887029
58.43453 247.958177856129
58.45464 250.016994543052
58.47475 245.03735875295
58.49487 233.994673578301
58.51498 246.993401474338
58.5351 242
58.55521 247.008743323187
58.57532 260.992773313257
58.59544 242.998845505945
58.61555 257.998589245151
58.63566 242.009311672743
58.65578 254.991071733487
58.67589 247.008054018971
58.69601 240.005382575155
58.71612 259.008892385499
58.73623 252.988584603203
58.75635 250.994234188073
58.77646 247.996159779117
58.79657 253.994612021322
58.81669 254.997682832021
58.8368 261
58.85691 256.001658580829
58.87703 260.981938458741
58.89714 238.987961919728
58.91726 251.981635791208
58.93737 248.005842471159
58.95748 247.008536760101
58.9776 240
58.99771 275.01763713192
59.01782 284.978942530201
59.03794 254.978383261484
59.05805 268.958814822399
59.07817 269.019948441818
59.09828 254.007960428241
59.11839 257.993872080445
59.13851 263.99437456306
59.15862 252.01483279447
59.17873 284.017606061199
59.19885 260.91205415185
59.21896 247.956843771684
59.23908 290.961473793031
59.25919 298.013193070069
59.2793 261
59.29942 263.011658211003
59.31953 275.026383028111
59.33964 291.003152096155
59.35976 283.000016363387
59.37987 294.98438703282
59.39998 289.023657899328
59.4201 276
59.44021 329.01631419523
59.46033 316.946202577025
59.48044 289.988856623098
59.50055 299.981491452997
59.52067 299.991298691981
59.54078 315.982900423266
59.56089 325.998290915372
59.58101 331.007015794116
59.60112 346.000162617051
59.62124 336.000381998218
59.64135 350.027942138596
59.66146 371.875869020744
59.68158 453.949490812221
59.70169 461.997638733868
59.7218 489
59.74192 532.063897463392
59.76203 613.119371029732
59.78215 692.238500064926
59.80226 816.70792323406
59.82237 992.674406818051
59.84249 1224.8983511828
59.8626 1423
59.88271 1704.10648526377
59.90283 1848.24485435522
59.92294 2030.21492813743
59.94305 1992.40686857161
59.96317 1749.44172657691
59.98328 1455.26193867508
60.0034 1231
60.02351 1079.97973085894
60.04362 1118.02929949106
60.06374 1103.98961159456
60.08385 1141.84343594987
60.10396 1159.16260991767
60.12408 987.198940162509
60.14419 806.0882470918
60.16431 617.901704726214
60.18442 450.903251439796
60.20453 412.958018302635
60.22465 373.9470911072
60.24476 369.036744864599
60.26487 328.0635588706
60.28499 308.995643271188
60.3051 328
60.32522 320.997407621555
60.34533 324.991060044746
60.36544 306.969080347407
60.38556 303.989679243972
60.40567 313.976344770692
60.42578 314.038377974767
60.4459 265
60.46601 286.99548618743
60.48612 252.005521476374
60.50624 299.045927358672
60.52635 277.056723109333
60.54647 271.023698476803
60.56658 248.000623369945
60.58669 269.992412999028
60.60681 261.990869880575
60.62692 248.995214156959
60.64703 255.024852641634
60.66715 274.03294426244
60.68726 270.048899278652
60.70738 244.004878740849
60.72749 259.992999703798
60.7476 258
60.76772 247.987493576311
60.78783 242.017424164918
60.80794 264.027834075935
60.82806 264.003338046945
60.84817 263.015421173826
60.86828 248.004899678681
60.8884 256
60.90851 259.001027638571
60.92863 257.98322545294
60.94874 250.031595834165
60.96885 267.062694504387
60.98897 218.016349173276
61.00908 250.979400117136
61.02919 239.004355016701
61.04931 244.998151596718
61.06942 235.011518848864
61.08954 252.963047294778
61.10965 218.028327484022
61.12976 271.94074012273
61.14988 249.037597712523
61.16999 233.996297649857
61.1901 254
61.21022 270.008688995266
61.23033 261.949307435297
61.25045 231.025131655375
61.27056 266.983051732494
61.29067 244.008011902384
61.31079 272.984710388479
61.3309 275
61.35101 247.996367739143
61.37113 256.99975183882
61.39124 247.009669742478
61.41135 269.951452554769
61.43147 270.020970848729
61.45158 257.999227969681
61.4717 263
61.49181 245.000377272789
61.51192 257.992176222992
61.53204 229.971333991441
61.55215 243.941830299923
61.57226 259.978494177753
61.59238 268.9916057749
61.61249 263.017674562336
61.63261 229.00686677073
61.65272 284.043246102237
61.67283 281.956906856606
61.69295 266.044903579168
61.71306 305.943437815467
61.73317 297.058256857671
61.75329 260.005022427114
61.7734 277
61.79352 278.989739792023
61.81363 273.014798034579
61.83374 292.019411974255
61.85386 280.055275399485
61.87397 264.969529277377
61.89408 300.991187742077
61.9142 283
61.93431 308.009348862426
61.95442 301.983492989635
61.97454 291.99917793469
61.99465 299.969741328252
62.01477 315.964707515699
62.03488 334.004752937338
62.05499 316.002197696015
62.07511 328.002184016983
62.09522 326.016734967741
62.11533 339.946792786708
62.13545 295.081228591375
62.15556 386.909180572454
62.17568 358.026656182097
62.19579 372.99028678034
62.2159 371
62.23602 360.993801823993
62.25613 365.028784878363
62.27624 372.930475614381
62.29636 324.004412776665
62.31647 356.010098100441
62.33659 319.991210413537
62.3567 380
62.37681 321.978279386386
62.39693 332.034011108539
62.41704 332.970884872763
62.43715 315.037539062368
62.45727 321.937126275572
62.47738 377.96484232965
62.49749 361.032979366427
62.51761 294.990554418251
62.53772 316.007336858624
62.55784 291.960896300707
62.57795 297.035974496459
62.59806 303.010364705184
62.61818 297.990765322884
62.63829 314.998001872033
62.6584 305
62.67852 316.016142957514
62.69863 311.940771551713
62.71875 262.958664310433
62.73886 284.949894367687
62.75897 290.004700337242
62.77909 286.004743841692
62.7992 283
62.81931 301.988199466695
62.83943 245.945538522041
62.85954 252.0398599603
62.87965 257.026370005575
62.89977 253.957808847848
62.91988 290.003655115052
62.94 259
62.96011 289.998483180665
62.98022 249.983477293487
63.00034 278.067041522299
63.02045 287.018105512175
63.04056 272.045214996523
63.06068 249.015694658264
63.08079 243.999120162273
63.10091 251.007305506473
63.12102 268.011443572854
63.14113 266.980968016282
63.16125 252.986247334078
63.18136 262.954684937339
63.20147 296.930908054029
63.22159 321.016910842026
63.2417 258
63.26182 281.022521879451
63.28193 270.963324097733
63.30204 261.031244615071
63.32216 277.04021522646
63.34227 239.99695298352
63.36238 284.964496807271
63.3825 276
63.40261 248.000024207489
63.42272 261.99453556528
63.44284 248.043563702704
63.46295 288.010488624429
63.48307 247.012069847725
63.50318 283.975835773203
63.52329 270.009919987858
63.54341 267.002233010345
63.56352 272.007934513544
63.58363 280.003909644378
63.60375 274.976332559236
63.62386 262.036571794514
63.64398 250.988857156628
63.66409 273.995288692905
63.6842 267
63.70432 278.006643978484
63.72443 278.010862288854
63.74454 293.018467132456
63.76466 295.981104315354
63.78477 305.016925468824
63.80489 286.995504096782
63.825 324
63.84511 328.994229405884
63.86523 327.034794461206
63.88534 359.016876185059
63.90545 363.867316010629
63.92557 462.866302443145
63.94568 511.967682403505
63.96579 541.991251979551
63.98591 564.026493877671
64.00602 619.000420014541
64.02614 548.800332011534
64.04625 474.922951501775
64.06636 474.994839670878
64.08648 458.030017408339
64.10659 427.01286072514
64.1267 414
64.14682 431.03149140414
64.16693 458.005739067427
64.18705 438.942218899113
64.20716 422.037118071753
64.22727 393.059448294997
64.24739 358.006944246757
64.2675 349
64.28761 288.976390040012
64.30773 283.042323045672
64.32784 313.012175960745
64.34796 296.027347834498
64.36807 294.012009923116
64.38818 275.016917670875
64.4083 271
64.42841 274.994451036992
64.44852 253.986619333635
64.46864 266.075785276066
64.48875 300.995375831769
64.50886 271.061161578023
64.52898 265.984105131387
64.54909 282.998643868258
64.56921 276.001582054865
64.58932 280.978681257231
64.60943 249.002141094893
64.62955 284.062091634184
64.64966 264.111596259788
64.66977 222.975456506915
64.68989 269.996113346758
64.71 232
64.73012 244.999685537963
64.75023 223.996622315377
64.77034 250.048941262937
64.79046 257.988572888275
64.81057 269.981745825726
64.83068 271.015553371803
64.8508 251
64.87091 261.006011875765
64.89102 266.003236417944
64.91114 277.045663147882
64.93125 289.064679860906
64.95137 242.035619308335
64.97148 253.983832775694
64.99159 253.00404006273
65.01171 254.008092493639
65.03182 276.01201247953
65.05193 276.002052225404
65.07205 278.97867922339
65.09216 255.059387044386
65.11228 241.982904952167
65.13239 268.998523212752
65.1525 252
65.17262 269.995948408528
65.19273 240.973279103678
65.21284 252.043561388391
65.23296 262.013358654705
65.25307 247.015171079183
65.27319 242.006310082013
65.2933 219
65.31341 213.008986067809
65.33353 248.056545229341
65.35364 259.942757077193
65.37375 221.009027768416
65.39387 251.970989577579
65.41398 235.031821767345
65.43409 220.992275259199
65.45421 250.007345752859
65.47432 253.021251509777
65.49444 277.967771586331
65.51455 233.965187469088
65.53466 257.97571577619
65.55478 244.004793448209
65.57489 256.997995285031
65.595 243
65.61512 247.022987759515
65.63523 278.040176203114
65.65535 288.987835871267
65.67546 281.990858282592
65.69557 302.957452346516
65.71569 316.008279491154
65.7358 286
65.75591 305.017445896799
65.77603 327.997807954922
65.79614 300.917577728331
65.81626 270.01301897187
65.83637 288.952350005424
65.85648 302.025055426591
65.8766 268
65.89671 300.999048298836
65.91682 255.965668910559
65.93694 264.05796975288
65.95705 282.010297210731
65.97716 266.013406982481
65.99728 272.996072550776
66.01739 262.010462894633
66.03751 237.987664283883
66.05762 223.003225243125
66.07773 240.02674353329
66.09785 242.962659883754
66.11796 233.952203325317
66.13807 272.986634596004
66.15819 242.017673176126
66.1783 230
66.19842 236.000738601693
66.21853 237.020643864278
66.23864 262.043854999491
66.25876 269.012089919694
66.27887 257.019175873266
66.29898 250.996565987709
66.3191 261
66.33921 255.983861968387
66.35933 217.984738313035
66.37944 238.039047765911
66.39955 238.020571485119
66.41967 240.966657442133
66.43978 264.003191363265
66.45989 240.006150137301
66.48001 251.006771451925
66.50012 248.98492614077
66.52023 227.967075365189
66.54035 225.078414353646
66.56046 272.939086242339
66.58058 271.016320087513
66.60069 254.010901453622
66.6208 243
66.64092 268.986642896349
66.66103 222.960300307911
66.68114 242.077909016567
66.70126 258.049809887283
66.72137 229.963085363841
66.74149 286.993717990031
66.7616 241
66.78171 235.00003359239
66.80183 233.026725340073
66.82194 263.024780390951
66.84205 250.041403416283
66.86217 249.977441346358
66.88228 264.00189937195
66.90239 251.002184577505
66.92251 265.011167360531
66.94262 269.971680883226
66.96274 232.990735238755
66.98285 265.080909775482
67.00296 263.070418952026
67.02308 226.007965913592
67.04319 251.982963255883
67.0633 261
67.08342 233.004787031253
67.10353 268.038738703618
67.12365 276.050387937379
67.14376 300.021992540392
67.16387 254.062905989545
67.18399 243.994265770066
67.2041 263
67.22421 271.990355163758
67.24433 247.009855763093
67.26444 282.046284352795
67.28456 280.001417649474
67.30467 287.008232172084
67.32478 272.001116701431
67.3449 290
67.36501 304.010683413006
67.38512 329.012149804008
67.40524 323.979285809977
67.42535 320.986476770399
67.44546 336.944977995954
67.46558 362.99017455055
67.48569 365.99008493929
67.50581 411.027042087556
67.52592 455.029453900254
67.54603 479.046558441531
67.56615 533.198492634377
67.58626 615.88126319343
67.60637 675.836744642774
67.62649 831.925200231634
67.6466 958
67.66672 1102.11824442312
67.68683 1190.12725921355
67.70694 1264.05180934377
67.72706 1239.08412930398
67.74717 1178.17111393624
67.76728 1008.19070041354
67.7874 835
67.80751 740.990697473485
67.82763 780.085981201934
67.84774 826.085983133233
67.86785 882.806872768861
67.88797 949.974026764263
67.90808 916.047571969649
67.92819 895.994100711395
67.94831 911.994156623997
67.96842 857.921372253147
67.98853 810.03273184981
68.00865 905.330711650578
68.02876 1048.67906255843
68.04888 1214.85094691953
68.06899 1358.91561985919
68.0891 1523
68.10922 1569.07725810344
68.12933 1657.99832376294
68.14944 1535.65543647857
68.16956 1359.39962717224
68.18967 1180.13289319987
68.20979 1205.95169184191
68.2299 1326
68.25001 1447.0360437748
68.27013 1482.05935756779
68.29024 1517.96319418719
68.31035 1447.17440395602
68.33047 1349.30924971638
68.35058 1071.22712747425
68.3707 931
68.39081 777.943140874817
68.41092 708.925796616678
68.43104 643.015289596679
68.45115 693.998814573581
68.47126 634.064796644714
68.49138 648.006968683146
68.51149 593.031003058684
68.5316 546
68.55172 464.877699455149
68.57183 351.939328922144
68.59195 375.039970835751
68.61206 348.070561813968
68.63217 329.018064368741
68.65229 311.013512378103
68.6724 288
68.69251 305.008991257512
68.71263 306.980423876313
68.73274 286.960823556095
68.75286 270.037556800149
68.77297 258.982974077072
68.79308 282.987988681196
68.8132 276
68.83331 271.994710601109
68.85342 256.994146041192
68.87354 255.972507625735
68.89365 245.930238192683
68.91376 291.980997556385
68.93388 269.993813087092
68.95399 302.00225866117
68.97411 257.988104753399
68.99422 267.998336515799
69.01433 245.991773296342
69.03445 264.029580373896
69.05456 252.047706346758
69.07467 232.017805210588
69.09479 237.98527197996
69.1149 271
69.13502 257.988706496446
69.15513 263.016507566132
69.17524 267.994212070427
69.19536 257.034406076855
69.21547 241.013129967371
69.23558 238.004560146702
69.2557 241
69.27581 264.988540845096
69.29593 215.985015728182
69.31604 246.013117211324
69.33615 218.025341770718
69.35627 249.931230448766
69.37638 272.012101352693
69.39649 245.006096027325
69.41661 259.011007407999
69.43672 267.992728577222
69.45683 251.979168574219
69.47695 247.000488367694
69.49706 250.979857552132
69.51718 259.004716978846
69.53729 248.000048316813
69.5574 257
69.57752 238.976819730686
69.59763 236.04654563869
69.61774 281.049230576663
69.63786 267.073644704391
69.65797 238.008429865665
69.67809 247.998807431802
69.6982 235
69.71831 232.000679017146
69.73843 236.015657423599
69.75854 249.015339764599
69.77865 248.0132641432
69.79877 244.002084428612
69.81888 245.995131576587
69.839 253
69.85911 251.988979145974
69.87922 224.99580397591
69.89934 248.054062650882
69.91945 254.963666943389
69.93956 229.050809456342
69.95968 229.958237516661
69.97979 280.993311641043
69.9999 255
70.02002 253.988150377003
70.04013 230.994295579504
70.06025 251.045728513464
70.08036 255.98979398022
70.10047 267.982192143257
70.12059 267.009864112181
70.1407 240
70.16081 243.007013382942
70.18093 256.012192513366
70.20104 256.990385311358
70.22116 250.013473743207
70.24127 247.992556125622
70.26138 255.995253486794
70.2815 247
70.30161 213.98877132676
70.32172 223.045191285302
70.34184 271.023740646309
70.36195 251.022767080583
70.38207 261.00800270825
70.40218 237.011223306295
70.42229 245.997317318018
70.44241 235.993395953675
70.46252 234.011693197602
70.48263 249.007914275024
70.50275 239.962499587334
70.52286 234.974132682978
70.54297 243.041516058144
70.56309 196.009167248639
70.5832 226
70.60332 250.981546403429
70.62343 214.985933887569
70.64354 243.064767951258
70.66366 254.007733469043
70.68377 242.030126812137
70.70388 222.011269344075
70.724 225
70.74411 241.005261418984
70.76423 241.991396877288
70.78434 240.018884320263
70.80445 255.975952231078
70.82457 248.036181207155
70.84468 218.026445735443
70.86479 208.993277756181
70.88491 233.008682679492
70.90502 238.003610616763
70.92513 241.992586231004
70.94525 231.995507439245
70.96536 239.987706102756
70.98548 241.992980094212
71.00559 253.99622941339
71.0257 244
71.04582 225.030790096903
71.06593 273.996640514676
71.08604 216.907620640457
71.10616 212.989875471264
71.12627 211.983123921604
71.14639 241.981814730395
71.1665 261
71.18661 230.986402048131
71.20673 230.040256952372
71.22684 261.018982009202
71.24695 243.06463268003
71.26707 228.006725545082
71.28718 230.992123245132
71.3073 245
71.32741 256.98745355421
71.34752 214.987070697143
71.36764 237.034571800009
71.38775 231.021166607643
71.40786 229.014709399698
71.42798 225.976995681319
71.44809 253.006567229691
71.4682 223
71.48832 277.0018910932
71.50843 223.961513185541
71.52855 249.043771626524
71.54866 225.082422506933
71.56877 204.975863529851
71.58889 242.984859660511
71.609 249
71.62911 236.987655081915
71.64923 219.022694763286
71.66934 255.036267310676
71.68946 243.031934519155
71.70957 240.99407729903
71.72968 243.996874071848
71.7498 239
71.76991 223.011959745641
71.79002 260.992459484015
71.81014 223.012195124401
71.83025 266.00500227207
71.85037 217.023923887982
71.87048 250.979260373458
71.89059 236.005090408581
71.91071 250.008487685122
71.93082 250.986985295789
71.95093 232.97644152096
71.97105 230.033107633452
71.99116 252.955545055335
72.01127 256.037119368393
72.03139 229.995847831771
72.0515 265
72.07162 244.963199397557
72.09173 225.014353406682
72.11184 252.039223253156
72.13196 250.026777529133
72.15207 244.980534744752
72.17218 265.990888219227
72.1923 257
72.21241 247.995630811901
72.23253 243.010053344062
72.25264 245.951948200492
72.27275 219.948066399849
72.29287 269.981186755415
72.31298 236.022867289741
72.33309 245.996406499541
72.35321 233.99408353347
72.37332 239.019318445394
72.39344 253.988488254792
72.41355 236.993882999241
72.43366 259.933504882774
72.45378 271.029220802213
72.47389 230.002858619121
72.494 257
72.51412 243.003765989074
72.53423 264.998144781701
72.55434 240.990013572354
72.57446 259.987630601643
72.59457 236.052047409371
72.61469 222.988907804234
72.6348 257
72.65491 236.992724448409
72.67503 247.029829395079
72.69514 255.983334772704
72.71525 237.040604194628
72.73537 230.006226312396
72.75548 226.000015706034
72.7756 230
72.79571 233.002076261146
72.81582 241.012048911335
72.83594 249.996762841036
72.85605 239.028629311773
72.87616 237.976677705818
72.89628 248.008431455174
72.91639 231.997879833565
72.9365 249
72.95662 224.997320753458
72.97673 248.020267810249
72.99685 245.020564744509
73.01696 261.015222429307
73.03707 237.99812378853
73.05719 269.98538980764
73.0773 275
73.09741 263.991858253861
73.11753 258.03322425334
73.13764 287.998921847907
73.15776 261.021778082513
73.17787 276.982894341834
73.19798 269.010760619305
73.2181 275
73.23821 308.012241784371
73.25832 311.986784903531
73.27844 300.008983861497
73.29855 332.856316794209
73.31867 388.953759501983
73.33878 408.953744966588
73.35889 461.000524030213
73.37901 446.034316297747
73.39912 584.093942360844
73.41923 586.964031776223
73.43935 572.922737416359
73.45946 531.0384336412
73.47957 536.998935571392
73.49969 494.046968734599
73.5198 391
73.53992 385.011013818844
73.56003 390.020283241398
73.58014 399.959355847143
73.60026 372.965804966224
73.62037 438.897369779636
73.64048 460.030951178451
73.6606 403
73.68071 378.998190777461
73.70083 367.942611045068
73.72094 323.98471143691
73.74105 338.051344240285
73.76117 274.088710768806
73.78128 257.981817508648
73.80139 281.994935034596
73.82151 269.988579938014
73.84162 250.98872152014
73.86174 254.040556180299
73.88185 263.922416948031
73.90196 212.042448995866
73.92208 235.967273616669
73.94219 246.004117152769
73.9623 231
73.98242 232.025123441601
74.00253 258.996683318132
74.02264 239.0088481243
74.04276 264.99543088741
74.06287 237.029477115228
74.08299 240.997725737755
74.1031 231
74.12321 226.008306936021
74.14333 250.010109976448
74.16344 238.990119206412
74.18355 242.026972121423
74.20367 222.003788043991
74.22378 241.9792628349
74.2439 244
74.26401 233.005688454691
74.28412 251.993130204335
74.30424 218.94835240478
74.32435 212.022542558065
74.34446 207.941537953631
74.36458 249.99482111572
74.38469 219.008461742506
74.40481 234.007348085282
74.42492 229.990887085388
74.44503 228.005803932271
74.46515 233.006530444239
74.48526 230.016630937636
74.50537 225.985353062561
74.52549 240.000501866389
74.5456 226
74.56571 231.999997380793
74.58583 225.004117105752
74.60594 231.978184524248
74.62606 211.001546079922
74.64617 235.960913955133
74.66628 245.001919869641
74.6864 236
74.70651 218.998812238503
74.72662 237.03087226561
74.74674 252.960607164143
74.76685 214.051163966434
74.78697 220.990595268225
74.80708 218.989686914996
74.82719 237.998421945174
74.84731 220.991544832383
74.86742 221.013809399937
74.88753 234.000743133795
74.90765 225.997644451198
74.92776 237.96975065199
74.94787 243.013329911856
74.96799 227.006151603906
74.9881 224
75.00822 225.000802047125
