3.00117 19642
3.02128 19046
3.0414 18298
3.06151 18111
3.08162 17337
3.10174 16706
3.12185 16727
3.14197 16222
3.16208 15537
3.18219 14947
3.20231 14380
3.22242 14213
3.24253 13572
3.26265 13519
3.28276 13021
3.30288 12774
3.32299 12036
3.3431 11544
3.36322 11568
3.38333 10890
3.40344 10579
3.42356 10130
3.44367 9600
3.46379 9663
3.4839 9240
3.50401 8980
3.52413 8572
3.54424 7968
3.56435 7890
3.58447 7750
3.60458 7420
3.62469 7125
3.64481 6696
3.66492 6601
3.68504 6431
3.70515 6028
3.72526 5747
3.74538 5438
3.76549 5443
3.7856 5039
3.80572 4651
3.82583 4675
3.84595 4172
3.86606 4397
3.88617 4046
3.90629 3837
3.9264 3726
3.94651 3452
3.96663 3396
3.98674 3245
4.00686 3167
4.02697 2859
4.04708 2765
4.0672 2740
4.08731 2634
4.10742 2474
4.12754 2451
4.14765 2232
4.16776 2112
4.18788 2045
4.20799 2082
4.22811 1939
4.24822 1790
4.26833 1797
4.28845 1709
4.30856 1607
4.32867 1536
4.34879 1532
4.3689 1604
4.38902 1499
4.40913 1420
4.42924 1369
4.44936 1361
4.46947 1303
4.48958 1307
4.5097 1265
4.52981 1199
4.54992 1131
4.57004 1207
4.59015 1151
4.61027 1104
4.63038 1133
4.65049 1027
4.67061 1055
4.69072 1092
4.71083 906
4.73095 1041
4.75106 968
4.77118 955
4.79129 970
4.8114 857
4.83152 809
4.85163 815
4.87174 780
4.89186 846
4.91197 793
4.93209 718
4.9522 715
4.97231 697
4.99243 751
5.01254 630
5.03265 697
5.05277 636
5.07288 644
5.09299 664
5.11311 615
5.13322 588
5.15334 628
5.17345 557
5.19356 621
5.21368 538
5.23379 544
5.2539 503
5.27402 489
5.29413 555
5.31425 488
5.33436 483
5.35447 501
5.37459 475
5.3947 447
5.41481 443
5.43493 407
5.45504 441
5.47516 448
5.49527 434
5.51538 366
5.5355 374
5.55561 407
5.57572 377
5.59584 376
5.61595 373
5.63606 354
5.65618 380
5.67629 383
5.69641 370
5.71652 369
5.73663 367
5.75675 337
5.77686 354
5.79697 333
5.81709 339
5.8372 357
5.85732 323
5.87743 327
5.89754 289
5.91766 321
5.93777 332
5.95788 307
5.978 329
5.99811 321
6.01823 311
6.03834 320
6.05845 287
6.07857 293
6.09868 296
6.11879 320
6.13891 274
6.15902 286
6.17913 291
6.19925 276
6.21936 306
6.23948 285
6.25959 308
6.2797 307
6.29982 254
6.31993 258
6.34004 246
6.36016 263
6.38027 284
6.40039 247
6.4205 295
6.44061 267
6.46073 228
6.48084 273
6.50095 296
6.52107 236
6.54118 227
6.56129 244
6.58141 228
6.60152 238
6.62164 218
6.64175 247
6.66186 223
6.68198 232
6.70209 253
6.7222 230
6.74232 250
6.76243 263
6.78255 223
6.80266 232
6.82277 240
6.84289 232
6.863 252
6.88311 277
6.90323 216
6.92334 194
6.94346 252
6.96357 231
6.98368 256
7.0038 255
7.02391 253
7.04402 262
7.06414 238
7.08425 287
7.10436 217
7.12448 243
7.14459 206
7.16471 242
7.18482 250
7.20493 225
7.22505 227
7.24516 261
7.26527 250
7.28539 229
7.3055 235
7.32562 219
7.34573 260
7.36584 202
7.38596 223
7.40607 204
7.42618 234
7.4463 255
7.46641 249
7.48653 233
7.50664 258
7.52675 223
7.54687 256
7.56698 225
7.58709 248
7.60721 250
7.62732 210
7.64743 234
7.66755 232
7.68766 238
7.70778 230
7.72789 234
7.748 233
7.76812 257
7.78823 232
7.80834 232
7.82846 236
7.84857 260
7.86869 266
7.8888 227
7.90891 238
7.92903 219
7.94914 200
7.96925 252
7.98937 229
8.00948 243
8.0296 271
8.04971 252
8.06982 228
8.08994 240
8.11005 227
8.13016 219
8.15028 242
8.17039 259
8.1905 223
8.21062 227
8.23073 249
8.25085 244
8.27096 235
8.29107 244
8.31119 280
8.3313 258
8.35141 275
8.37153 256
8.39164 227
8.41176 242
8.43187 256
8.45198 254
8.4721 252
8.49221 292
8.51232 263
8.53244 257
8.55255 236
8.57266 273
8.59278 218
8.61289 259
8.63301 281
8.65312 299
8.67323 290
8.69335 285
8.71346 296
8.73357 316
8.75369 352
8.7738 362
8.79392 360
8.81403 426
8.83414 388
8.85426 466
8.87437 463
8.89448 432
8.9146 435
8.93471 371
8.95483 331
8.97494 285
8.99505 271
9.01517 282
9.03528 246
9.05539 243
9.07551 254
9.09562 281
9.11573 232
9.13585 248
9.15596 243
9.17608 262
9.19619 278
9.2163 269
9.23642 263
9.25653 260
9.27664 260
9.29676 256
9.31687 254
9.33699 260
9.3571 259
9.37721 271
9.39733 289
9.41744 260
9.43755 238
9.45767 282
9.47778 265
9.4979 300
9.51801 258
9.53812 263
9.55824 245
9.57835 239
9.59846 269
9.61858 270
9.63869 265
9.6588 226
9.67892 241
9.69903 285
9.71915 237
9.73926 268
9.75937 240
9.77949 249
9.7996 260
9.81971 259
9.83983 242
9.85994 241
9.88006 249
9.90017 218
9.92028 228
9.9404 262
9.96051 207
9.98062 266
10.00074 244
10.02085 236
10.04097 246
10.06108 248
10.08119 215
10.10131 241
10.12142 267
10.14153 236
10.16165 279
10.18176 268
10.20187 246
10.22199 276
10.2421 256
10.26222 233
10.28233 221
10.30244 263
10.32256 234
10.34267 218
10.36278 279
10.3829 271
10.40301 262
10.42313 239
10.44324 257
10.46335 253
10.48347 284
10.50358 256
10.52369 271
10.54381 259
10.56392 265
10.58403 272
10.60415 276
10.62426 261
10.64438 239
10.66449 248
10.6846 240
10.70472 255
10.72483 238
10.74494 233
10.76506 229
10.78517 210
10.80529 238
10.8254 238
10.84551 244
10.86563 225
10.88574 257
10.90585 233
10.92597 237
10.94608 248
10.9662 234
10.98631 240
11.00642 205
11.02654 223
11.04665 236
11.06676 240
11.08688 229
11.10699 240
11.1271 228
11.14722 229
11.16733 242
11.18745 256
11.20756 249
11.22767 237
11.24779 259
11.2679 233
11.28801 250
11.30813 267
11.32824 232
11.34836 220
11.36847 266
11.38858 228
11.4087 273
11.42881 243
11.44892 243
11.46904 242
11.48915 256
11.50927 230
11.52938 246
11.54949 281
11.56961 244
11.58972 245
11.60983 240
11.62995 243
11.65006 230
11.67017 254
11.69029 266
11.7104 232
11.73052 242
11.75063 252
11.77074 242
11.79086 278
11.81097 250
11.83108 257
11.8512 279
11.87131 257
11.89143 268
11.91154 262
11.93165 273
11.95177 239
11.97188 251
11.99199 245
12.01211 277
12.03222 228
12.05234 260
12.07245 300
12.09256 281
12.11268 264
12.13279 264
12.1529 255
12.17302 238
12.19313 251
12.21324 257
12.23336 264
12.25347 266
12.27359 288
12.2937 269
12.31381 260
12.33393 309
12.35404 232
12.37415 264
12.39427 221
12.41438 257
12.4345 231
12.45461 244
12.47472 248
12.49484 221
12.51495 233
12.53506 231
12.55518 263
12.57529 197
12.5954 229
12.61552 253
12.63563 243
12.65575 257
12.67586 257
12.69597 241
12.71609 239
12.7362 238
12.75631 214
12.77643 231
12.79654 228
12.81666 263
12.83677 257
12.85688 221
12.877 216
12.89711 209
12.91722 253
12.93734 224
12.95745 199
12.97757 240
12.99768 238
13.01779 231
13.03791 224
13.05802 254
13.07813 224
13.09825 233
13.11836 206
13.13847 200
13.15859 214
13.1787 210
13.19882 263
13.21893 227
13.23904 246
13.25916 221
13.27927 231
13.29938 218
13.3195 214
13.33961 212
13.35973 229
13.37984 196
13.39995 228
13.42007 230
13.44018 227
13.46029 263
13.48041 221
13.50052 254
13.52064 215
13.54075 215
13.56086 192
13.58098 224
13.60109 191
13.6212 201
13.64132 215
13.66143 211
13.68154 232
13.70166 187
13.72177 227
13.74189 216
13.762 243
13.78211 227
13.80223 233
13.82234 233
13.84245 221
13.86257 200
13.88268 200
13.9028 251
13.92291 218
13.94302 217
13.96314 212
13.98325 226
14.00336 218
14.02348 243
14.04359 218
14.06371 220
14.08382 214
14.10393 236
14.12405 200
14.14416 213
14.16427 219
14.18439 218
14.2045 191
14.22461 220
14.24473 186
14.26484 210
14.28496 200
14.30507 214
14.32518 221
14.3453 193
14.36541 206
14.38552 177
14.40564 219
14.42575 201
14.44587 230
14.46598 203
14.48609 209
14.50621 196
14.52632 194
14.54643 191
14.56655 217
14.58666 213
14.60677 218
14.62689 179
14.647 202
14.66712 198
14.68723 198
14.70734 178
14.72746 212
14.74757 213
14.76768 201
14.7878 229
14.80791 210
14.82803 186
14.84814 200
14.86825 219
14.88837 200
14.90848 202
14.92859 236
14.94871 220
14.96882 228
14.98894 209
15.00905 180
15.02916 218
15.04928 200
15.06939 227
15.0895 184
15.10962 179
15.12973 179
15.14984 184
15.16996 212
15.19007 201
15.21019 170
15.2303 202
15.25041 237
15.27053 220
15.29064 186
15.31075 205
15.33087 181
15.35098 198
15.3711 204
15.39121 184
15.41132 203
15.43144 187
15.45155 195
15.47166 217
15.49178 200
15.51189 215
15.53201 221
15.55212 196
15.57223 204
15.59235 184
15.61246 182
15.63257 181
15.65269 202
15.6728 192
15.69291 212
15.71303 200
15.73314 211
15.75326 192
15.77337 197
15.79348 238
15.8136 192
15.83371 207
15.85382 204
15.87394 169
15.89405 216
15.91417 227
15.93428 211
15.95439 190
15.97451 198
15.99462 202
16.01473 205
16.03485 150
16.05496 193
16.07508 231
16.09519 167
16.1153 229
16.13542 176
16.15553 187
16.17564 165
16.19576 187
16.21587 201
16.23598 173
16.2561 194
16.27621 179
16.29633 183
16.31644 187
16.33655 186
16.35667 190
16.37678 179
16.39689 200
16.41701 204
16.43712 176
16.45724 204
16.47735 202
16.49746 169
16.51758 169
16.53769 203
16.5578 178
16.57792 189
16.59803 176
16.61814 196
16.63826 176
16.65837 173
16.67849 193
16.6986 204
16.71871 185
16.73883 171
16.75894 143
16.77905 203
16.79917 195
16.81928 204
16.8394 210
16.85951 184
16.87962 170
16.89974 199
16.91985 194
16.93996 186
16.96008 224
16.98019 212
17.00031 188
17.02042 198
17.04053 183
17.06065 179
17.08076 179
17.10087 187
17.12099 203
17.1411 194
17.16121 161
17.18133 191
17.20144 185
17.22156 181
17.24167 224
17.26178 197
17.2819 208
17.30201 203
17.32212 210
17.34224 179
17.36235 176
17.38247 184
17.40258 185
17.42269 191
17.44281 199
17.46292 197
17.48303 185
17.50315 222
17.52326 185
17.54338 220
17.56349 218
17.5836 203
17.60372 220
17.62383 206
17.64394 199
17.66406 219
17.68417 221
17.70428 221
17.7244 254
17.74451 239
17.76463 273
17.78474 281
17.80485 253
17.82497 238
17.84508 247
17.86519 228
17.88531 221
17.90542 188
17.92554 178
17.94565 205
17.96576 185
17.98588 189
18.00599 186
18.0261 206
18.04622 192
18.06633 199
18.08645 190
18.10656 187
18.12667 199
18.14679 178
18.1669 189
18.18701 191
18.20713 193
18.22724 194
18.24735 163
18.26747 195
18.28758 214
18.3077 217
18.32781 179
18.34792 184
18.36804 202
18.38815 165
18.40826 204
18.42838 170
18.44849 170
18.46861 172
18.48872 187
18.50883 199
18.52895 205
18.54906 202
18.56917 187
18.58929 196
18.6094 176
18.62951 193
18.64963 173
18.66974 223
18.68986 196
18.70997 184
18.73008 220
18.7502 208
18.77031 189
18.79042 222
18.81054 209
18.83065 227
18.85077 207
18.87088 179
18.89099 220
18.91111 196
18.93122 193
18.95133 217
18.97145 193
18.99156 192
19.01168 211
19.03179 213
19.0519 198
19.07202 200
19.09213 194
19.11224 206
19.13236 186
19.15247 203
19.17258 244
19.1927 203
19.21281 182
19.23293 222
19.25304 224
19.27315 215
19.29327 213
19.31338 207
19.33349 202
19.35361 226
19.37372 185
19.39384 233
19.41395 212
19.43406 246
19.45418 195
19.47429 206
19.4944 218
19.51452 241
19.53463 218
19.55475 241
19.57486 254
19.59497 281
19.61509 262
19.6352 276
19.65531 300
19.67543 345
19.69554 319
19.71565 346
19.73577 352
19.75588 396
19.776 329
19.79611 341
19.81622 356
19.83634 374
19.85645 417
19.87656 357
19.89668 336
19.91679 379
19.93691 359
19.95702 348
19.97713 314
19.99725 339
20.01736 322
20.03747 310
20.05759 299
20.0777 304
20.09782 330
20.11793 328
20.13804 314
20.15816 316
20.17827 334
20.19838 317
20.2185 325
20.23861 324
20.25872 309
20.27884 353
20.29895 344
20.31907 349
20.33918 358
20.35929 360
20.37941 354
20.39952 377
20.41963 358
20.43975 382
20.45986 391
20.47998 395
20.50009 412
20.5202 459
20.54032 476
20.56043 476
20.58054 534
20.60066 510
20.62077 569
20.64088 697
20.661 769
20.68111 936
20.70123 1320
20.72134 1678
20.74145 2418
20.76157 3505
20.78168 4632
20.80179 5908
20.82191 7355
20.84202 8052
20.86214 7577
20.88225 6388
20.90236 4639
20.92248 3260
20.94259 1973
20.9627 1238
20.98282 814
21.00293 689
21.02305 569
21.04316 559
21.06327 482
21.08339 455
21.1035 470
21.12361 415
21.14373 426
21.16384 347
21.18395 358
21.20407 345
21.22418 326
21.2443 338
21.26441 335
21.28452 328
21.30464 349
21.32475 287
21.34486 329
21.36498 308
21.38509 299
21.40521 303
21.42532 303
21.44543 287
21.46555 303
21.48566 339
21.50577 250
21.52589 289
21.546 288
21.56612 284
21.58623 292
21.60634 320
21.62646 278
21.64657 281
21.66668 312
21.6868 298
21.70691 258
21.72702 261
21.74714 326
21.76725 306
21.78737 276
21.80748 245
21.82759 294
21.84771 250
21.86782 266
21.88793 250
21.90805 231
21.92816 271
21.94828 271
21.96839 265
21.9885 249
22.00862 275
22.02873 323
22.04884 302
22.06896 252
22.08907 289
22.10919 279
22.1293 270
22.14941 285
22.16953 247
22.18964 269
22.20975 271
22.22987 251
22.24998 263
22.27009 282
22.29021 256
22.31032 251
22.33044 260
22.35055 254
22.37066 231
22.39078 243
22.41089 273
22.431 249
22.45112 247
22.47123 230
22.49135 228
22.51146 226
22.53157 271
22.55169 254
22.5718 240
22.59191 240
22.61203 236
22.63214 231
22.65225 257
22.67237 264
22.69248 258
22.7126 261
22.73271 262
22.75282 253
22.77294 252
22.79305 273
22.81316 256
22.83328 262
22.85339 313
22.87351 233
22.89362 279
22.91373 286
22.93385 252
22.95396 254
22.97407 254
22.99419 226
23.0143 275
23.03442 271
23.05453 251
23.07464 239
23.09476 236
23.11487 237
23.13498 229
23.1551 245
23.17521 246
23.19532 230
23.21544 265
23.23555 227
23.25567 229
23.27578 262
23.29589 221
23.31601 222
23.33612 235
23.35623 238
23.37635 238
23.39646 255
23.41658 259
23.43669 251
23.4568 259
23.47692 287
23.49703 288
23.51714 291
23.53726 257
23.55737 271
23.57749 281
23.5976 243
23.61771 223
23.63783 270
23.65794 258
23.67805 286
23.69817 254
23.71828 280
23.73839 263
23.75851 279
23.77862 273
23.79874 301
23.81885 258
23.83896 289
23.85908 287
23.87919 257
23.8993 277
23.91942 290
23.93953 297
23.95965 326
23.97976 302
23.99987 306
24.01999 326
24.0401 299
24.06021 333
24.08033 291
24.10044 258
24.12056 273
24.14067 272
24.16078 247
24.1809 262
24.20101 252
24.22112 274
24.24124 275
24.26135 281
24.28146 286
24.30158 266
24.32169 272
24.34181 240
24.36192 267
24.38203 267
24.40215 263
24.42226 248
24.44237 264
24.46249 218
24.4826 256
24.50272 230
24.52283 241
24.54294 256
24.56306 226
24.58317 249
24.60328 254
24.6234 233
24.64351 251
24.66362 254
24.68374 238
24.70385 233
24.72397 222
24.74408 267
24.76419 236
24.78431 252
24.80442 259
24.82453 261
24.84465 233
24.86476 262
24.88488 261
24.90499 269
24.9251 277
24.94522 291
24.96533 245
24.98544 293
25.00556 277
25.02567 267
25.04579 286
25.0659 251
25.08601 278
25.10613 292
25.12624 294
25.14635 241
25.16647 265
25.18658 245
25.20669 256
25.22681 270
25.24692 279
25.26704 304
25.28715 276
25.30726 267
25.32738 288
25.34749 272
25.3676 300
25.38772 290
25.40783 336
25.42795 335
25.44806 340
25.46817 313
25.48829 303
25.5084 323
25.52851 314
25.54863 323
25.56874 324
25.58886 318
25.60897 325
25.62908 370
25.6492 341
25.66931 363
25.68942 392
25.70954 387
25.72965 459
25.74976 428
25.76988 470
25.78999 473
25.81011 466
25.83022 454
25.85033 480
25.87045 462
25.89056 478
25.91067 481
25.93079 485
25.9509 515
25.97102 488
25.99113 528
26.01124 505
26.03136 568
26.05147 577
26.07158 559
26.0917 609
26.11181 661
26.13193 705
26.15204 717
26.17215 792
26.19227 816
26.21238 846
26.23249 901
26.25261 1005
26.27272 967
26.29283 1148
26.31295 1257
26.33306 1372
26.35318 1538
26.37329 1797
26.3934 2130
26.41352 2539
26.43363 3425
26.45374 4496
26.47386 6022
26.49397 8196
26.51409 11509
26.5342 15891
26.55431 21124
26.57443 26970
26.59454 32337
26.61465 35474
26.63477 34033
26.65488 29067
26.67499 22464
26.69511 17144
26.71522 12105
26.73534 7388
26.75545 4414
26.77556 2648
26.79568 2046
26.81579 1730
26.8359 1559
26.85602 1423
26.87613 1259
26.89625 1186
26.91636 1060
26.93647 975
26.95659 828
26.9767 765
26.99681 674
27.01693 659
27.03704 661
27.05716 608
27.07727 557
27.09738 529
27.1175 500
27.13761 508
27.15772 464
27.17784 428
27.19795 472
27.21806 406
27.23818 441
27.25829 445
27.27841 488
27.29852 415
27.31863 429
27.33875 420
27.35886 431
27.37897 428
27.39909 422
27.4192 480
27.43932 461
27.45943 449
27.47954 471
27.49966 405
27.51977 404
27.53988 382
27.56 405
27.58011 361
27.60023 338
27.62034 384
27.64045 434
27.66057 441
27.68068 404
27.70079 391
27.72091 391
27.74102 375
27.76113 398
27.78125 392
27.80136 415
27.82148 403
27.84159 384
27.8617 385
27.88182 397
27.90193 382
27.92204 394
27.94216 388
27.96227 379
27.98239 368
28.0025 309
28.02261 360
28.04273 348
28.06284 293
28.08295 290
28.10307 300
28.12318 289
28.1433 319
28.16341 350
28.18352 338
28.20364 290
28.22375 309
28.24386 277
28.26398 327
28.28409 286
28.3042 335
28.32432 294
28.34443 295
28.36455 282
28.38466 289
28.40477 276
28.42489 291
28.445 274
28.46511 272
28.48523 273
28.50534 287
28.52546 270
28.54557 262
28.56568 276
28.5858 289
28.60591 260
28.62602 296
28.64614 287
28.66625 272
28.68636 259
28.70648 296
28.72659 296
28.74671 252
28.76682 295
28.78693 308
28.80705 275
28.82716 249
28.84727 293
28.86739 258
28.8875 243
28.90762 250
28.92773 246
28.94784 265
28.96796 265
28.98807 267
29.00818 267
29.0283 253
29.04841 256
29.06853 260
29.08864 251
29.10875 267
29.12887 295
29.14898 230
29.16909 250
29.18921 246
29.20932 253
29.22943 276
29.24955 257
29.26966 267
29.28978 233
29.30989 234
29.33 251
29.35012 225
29.37023 252
29.39034 233
29.41046 259
29.43057 246
29.45069 278
29.4708 247
29.49091 246
29.51103 241
29.53114 246
29.55125 257
29.57137 276
29.59148 258
29.6116 252
29.63171 263
29.65182 270
29.67194 256
29.69205 257
29.71216 261
29.73228 261
29.75239 237
29.7725 267
29.79262 294
29.81273 276
29.83285 294
29.85296 268
29.87307 300
29.89319 284
29.9133 301
29.93341 287
29.95353 257
29.97364 262
29.99376 250
30.01387 241
30.03398 246
30.0541 273
30.07421 255
30.09432 258
30.11444 275
30.13455 273
30.15467 226
30.17478 250
30.19489 215
30.21501 266
30.23512 282
30.25523 240
30.27535 241
30.29546 240
30.31557 240
30.33569 237
30.3558 226
30.37592 232
30.39603 211
30.41614 222
30.43626 229
30.45637 228
30.47648 239
30.4966 264
30.51671 245
30.53683 224
30.55694 237
30.57705 221
30.59717 249
30.61728 214
30.63739 256
30.65751 225
30.67762 230
30.69773 225
30.71785 233
30.73796 233
30.75808 224
30.77819 227
30.7983 242
30.81842 254
30.83853 241
30.85864 217
30.87876 221
30.89887 226
30.91899 243
30.9391 256
30.95921 250
30.97933 220
30.99944 197
31.01955 218
31.03967 225
31.05978 234
31.0799 233
31.10001 247
31.12012 246
31.14024 238
31.16035 227
31.18046 211
31.20058 236
31.22069 221
31.2408 212
31.26092 228
31.28103 227
31.30115 247
31.32126 213
31.34137 211
31.36149 211
31.3816 207
31.40171 204
31.42183 223
31.44194 182
31.46206 207
31.48217 197
31.50228 208
31.5224 202
31.54251 221
31.56262 230
31.58274 191
31.60285 212
31.62297 209
31.64308 181
31.66319 231
31.68331 172
31.70342 205
31.72353 212
31.74365 203
31.76376 193
31.78387 185
31.80399 208
31.8241 202
31.84422 225
31.86433 189
31.88444 190
31.90456 188
31.92467 205
31.94478 230
31.9649 237
31.98501 191
32.00513 215
32.02524 227
32.04535 212
32.06547 238
32.08558 227
32.10569 242
32.12581 220
32.14592 217
32.16604 178
32.18615 203
32.20626 212
32.22638 196
32.24649 217
32.2666 222
32.28672 199
32.30683 198
32.32694 195
32.34706 182
32.36717 205
32.38729 191
32.4074 217
32.42751 188
32.44763 200
32.46774 205
32.48785 205
32.50797 201
32.52808 199
32.5482 176
32.56831 222
32.58842 182
32.60854 205
32.62865 210
32.64876 221
32.66888 201
32.68899 202
32.7091 209
32.72922 204
32.74933 196
32.76945 215
32.78956 209
32.80967 205
32.82979 194
32.8499 200
32.87001 211
32.89013 229
32.91024 214
32.93036 233
32.95047 192
32.97058 194
32.9907 222
33.01081 218
33.03092 236
33.05104 240
33.07115 246
33.09127 208
33.11138 253
33.13149 202
33.15161 200
33.17172 193
33.19183 216
33.21195 190
33.23206 227
33.25217 218
33.27229 238
33.2924 190
33.31252 205
33.33263 202
33.35274 195
33.37286 197
33.39297 194
33.41308 182
33.4332 211
33.45331 209
33.47343 168
33.49354 190
33.51365 181
33.53377 184
33.55388 188
33.57399 175
33.59411 194
33.61422 172
33.63434 179
33.65445 160
33.67456 198
33.69468 154
33.71479 215
33.7349 170
33.75502 198
33.77513 193
33.79524 206
33.81536 189
33.83547 175
33.85559 166
33.8757 186
33.89581 186
33.91593 199
33.93604 188
33.95615 213
33.97627 187
33.99638 191
34.0165 182
34.03661 209
34.05672 196
34.07684 197
34.09695 211
34.11706 169
34.13718 200
34.15729 193
34.17741 191
34.19752 225
34.21763 202
34.23775 214
34.25786 181
34.27797 204
34.29809 191
34.3182 220
34.33831 236
34.35843 219
34.37854 239
34.39866 228
34.41877 216
34.43888 226
34.459 254
34.47911 229
34.49922 234
34.51934 229
34.53945 278
34.55957 238
34.57968 236
34.59979 239
34.61991 244
34.64002 303
34.66013 294
34.68025 298
34.70036 295
34.72047 286
34.74059 301
34.7607 287
34.78082 305
34.80093 327
34.82104 317
34.84116 341
34.86127 297
34.88138 318
34.9015 318
34.92161 317
34.94173 299
34.96184 287
34.98195 275
35.00207 281
35.02218 306
35.04229 295
35.06241 287
35.08252 248
35.10264 266
35.12275 249
35.14286 245
35.16298 263
35.18309 229
35.2032 240
35.22332 233
35.24343 227
35.26354 208
35.28366 238
35.30377 247
35.32389 241
35.344 223
35.36411 269
35.38423 238
35.40434 256
35.42445 229
35.44457 228
35.46468 251
35.4848 238
35.50491 247
35.52502 219
35.54514 228
35.56525 246
35.58536 274
35.60548 294
35.62559 241
35.64571 261
35.66582 226
35.68593 248
35.70605 273
35.72616 259
35.74627 243
35.76639 248
35.7865 254
35.80661 264
35.82673 244
35.84684 246
35.86696 227
35.88707 250
35.90718 267
35.9273 250
35.94741 241
35.96752 244
35.98764 248
36.00775 255
36.02787 253
36.04798 268
36.06809 282
36.08821 280
36.10832 306
36.12843 269
36.14855 288
36.16866 278
36.18878 300
36.20889 302
36.229 313
36.24912 373
36.26923 344
36.28934 400
36.30946 429
36.32957 475
36.34968 597
36.3698 746
36.38991 920
36.41003 1128
36.43014 1372
36.45025 1773
36.47037 2034
36.49048 2262
36.51059 2431
36.53071 2358
36.55082 1972
36.57094 1612
36.59105 1475
36.61116 1265
36.63128 1126
36.65139 792
36.6715 569
36.69162 404
36.71173 299
36.73184 361
36.75196 322
36.77207 305
36.79219 278
36.8123 244
36.83241 270
36.85253 255
36.87264 232
36.89275 226
36.91287 237
36.93298 234
36.9531 236
36.97321 240
36.99332 214
37.01344 212
37.03355 205
37.05366 231
37.07378 221
37.09389 233
37.11401 225
37.13412 222
37.15423 204
37.17435 228
37.19446 227
37.21457 212
37.23469 186
37.2548 196
37.27491 212
37.29503 213
37.31514 188
37.33526 221
37.35537 203
37.37548 224
37.3956 200
37.41571 242
37.43582 221
37.45594 187
37.47605 212
37.49617 222
37.51628 213
37.53639 237
37.55651 231
37.57662 245
37.59673 222
37.61685 258
37.63696 210
37.65708 270
37.67719 221
37.6973 211
37.71742 217
37.73753 244
37.75764 243
37.77776 238
37.79787 229
37.81798 210
37.8381 228
37.85821 200
37.87833 226
37.89844 207
37.91855 213
37.93867 208
37.95878 207
37.97889 224
37.99901 194
38.01912 230
38.03924 230
38.05935 214
38.07946 236
38.09958 218
38.11969 227
38.1398 204
38.15992 214
38.18003 232
38.20015 244
38.22026 221
38.24037 208
38.26049 224
38.2806 216
38.30071 210
38.32083 217
38.34094 237
38.36105 223
38.38117 250
38.40128 184
38.4214 212
38.44151 220
38.46162 235
38.48174 217
38.50185 225
38.52196 219
38.54208 204
38.56219 221
38.58231 203
38.60242 209
38.62253 205
38.64265 207
38.66276 229
38.68287 188
38.70299 213
38.7231 208
38.74321 197
38.76333 209
38.78344 206
38.80356 205
38.82367 219
38.84378 197
38.8639 206
38.88401 212
38.90412 226
38.92424 242
38.94435 213
38.96447 241
38.98458 213
39.00469 234
39.02481 219
39.04492 222
39.06503 242
39.08515 262
39.10526 255
39.12538 269
39.14549 300
39.1656 321
39.18572 360
39.20583 394
39.22594 429
39.24606 447
39.26617 544
39.28628 669
39.3064 784
39.32651 931
39.34663 1208
39.36674 1448
39.38685 1593
39.40697 1972
39.42708 2173
39.44719 2074
39.46731 1887
39.48742 1592
39.50754 1312
39.52765 1160
39.54776 1051
39.56788 844
39.58799 648
39.6081 427
39.62822 336
39.64833 302
39.66845 302
39.68856 289
39.70867 288
39.72879 262
39.7489 252
39.76901 241
39.78913 227
39.80924 243
39.82935 233
39.84947 245
39.86958 260
39.8897 249
39.90981 238
39.92992 242
39.95004 300
39.97015 255
39.99026 273
40.01038 269
40.03049 310
40.05061 332
40.07072 341
40.09083 384
40.11095 419
40.13106 532
40.15117 601
40.17129 659
40.1914 833
40.21152 1002
40.23163 1138
40.25174 1251
40.27186 1178
40.29197 1081
40.31208 894
40.3322 809
40.35231 744
40.37242 688
40.39254 568
40.41265 432
40.43277 317
40.45288 280
40.47299 247
40.49311 244
40.51322 238
40.53333 242
40.55345 242
40.57356 229
40.59368 225
40.61379 241
40.6339 203
40.65402 209
40.67413 233
40.69424 217
40.71436 220
40.73447 208
40.75458 218
40.7747 215
40.79481 190
40.81493 227
40.83504 233
40.85515 210
40.87527 204
40.89538 195
40.91549 214
40.93561 196
40.95572 207
40.97584 212
40.99595 245
41.01606 199
41.03618 197
41.05629 189
41.0764 199
41.09652 209
41.11663 223
41.13675 240
41.15686 215
41.17697 220
41.19709 201
41.2172 208
41.23731 216
41.25743 229
41.27754 207
41.29765 206
41.31777 203
41.33788 241
41.358 186
41.37811 194
41.39822 209
41.41834 204
41.43845 195
41.45856 202
41.47868 210
41.49879 195
41.51891 236
41.53902 185
41.55913 225
41.57925 199
41.59936 214
41.61947 198
41.63959 191
41.6597 209
41.67982 225
41.69993 221
41.72004 232
41.74016 198
41.76027 223
41.78038 196
41.8005 210
41.82061 219
41.84072 194
41.86084 195
41.88095 208
41.90107 214
41.92118 261
41.94129 218
41.96141 234
41.98152 242
42.00163 233
42.02175 237
42.04186 239
42.06198 270
42.08209 263
42.1022 285
42.12232 269
42.14243 264
42.16254 309
42.18266 310
42.20277 366
42.22289 381
42.243 440
42.26311 531
42.28323 595
42.30334 740
42.32345 867
42.34357 1100
42.36368 1273
42.38379 1438
42.40391 1593
42.42402 1618
42.44414 1471
42.46425 1278
42.48436 1028
42.50448 978
42.52459 855
42.5447 799
42.56482 659
42.58493 493
42.60505 349
42.62516 278
42.64527 282
42.66539 240
42.6855 218
42.70561 238
42.72573 218
42.74584 200
42.76595 211
42.78607 210
42.80618 221
42.8263 201
42.84641 184
42.86652 173
42.88664 177
42.90675 156
42.92686 199
42.94698 212
42.96709 190
42.98721 184
43.00732 195
43.02743 174
43.04755 180
43.06766 182
43.08777 182
43.10789 180
43.128 159
43.14812 191
43.16823 188
43.18834 162
43.20846 188
43.22857 194
43.24868 176
43.2688 161
43.28891 174
43.30902 166
43.32914 180
43.34925 179
43.36937 198
43.38948 205
43.40959 187
43.42971 168
43.44982 164
43.46993 179
43.49005 182
43.51016 173
43.53028 176
43.55039 153
43.5705 175
43.59062 149
43.61073 189
43.63084 169
43.65096 158
43.67107 179
43.69119 171
43.7113 175
43.73141 178
43.75153 179
43.77164 179
43.79175 178
43.81187 187
43.83198 158
43.85209 170
43.87221 183
43.89232 163
43.91244 198
43.93255 188
43.95266 186
43.97278 166
43.99289 180
44.013 180
44.03312 167
44.05323 182
44.07335 181
44.09346 175
44.11357 166
44.13369 159
44.1538 168
44.17391 183
44.19403 180
44.21414 180
44.23426 188
44.25437 187
44.27448 198
44.2946 203
44.31471 171
44.33482 185
44.35494 175
44.37505 181
44.39516 190
44.41528 162
44.43539 164
44.45551 176
44.47562 178
44.49573 162
44.51585 170
44.53596 169
44.55607 193
44.57619 170
44.5963 163
44.61642 170
44.63653 191
44.65664 170
44.67676 185
44.69687 167
44.71698 183
44.7371 175
44.75721 168
44.77732 165
44.79744 201
44.81755 170
44.83767 190
44.85778 184
44.87789 189
44.89801 169
44.91812 174
44.93823 176
44.95835 211
44.97846 189
44.99858 182
45.01869 187
45.0388 184
45.05892 180
45.07903 178
45.09914 189
45.11926 158
45.13937 175
45.15949 192
45.1796 183
45.19971 174
45.21983 186
45.23994 208
45.26005 190
45.28017 208
45.30028 198
45.32039 185
45.34051 219
45.36062 227
45.38074 243
45.40085 264
45.42096 243
45.44108 230
45.46119 223
45.4813 240
45.50142 271
45.52153 303
45.54165 305
45.56176 348
45.58187 334
45.60199 403
45.6221 475
45.64221 516
45.66233 605
45.68244 767
45.70256 867
45.72267 986
45.74278 1092
45.7629 1134
45.78301 1008
45.80312 876
45.82324 723
45.84335 668
45.86346 661
45.88358 599
45.90369 527
45.92381 461
45.94392 322
45.96403 289
45.98415 239
46.00426 223
46.02437 239
46.04449 214
46.0646 158
46.08472 208
46.10483 195
46.12494 190
46.14506 205
46.16517 194
46.18528 185
46.2054 200
46.22551 152
46.24563 171
46.26574 177
46.28585 175
46.30597 152
46.32608 171
46.34619 183
46.36631 168
46.38642 175
46.40653 198
46.42665 184
46.44676 172
46.46688 176
46.48699 149
46.5071 174
46.52722 175
46.54733 175
46.56744 167
46.58756 169
46.60767 173
46.62779 166
46.6479 160
46.66801 153
46.68813 168
46.70824 178
46.72835 166
46.74847 145
46.76858 173
46.78869 166
46.80881 169
46.82892 157
46.84904 172
46.86915 162
46.88926 178
46.90938 151
46.92949 160
46.9496 165
46.96972 162
46.98983 157
47.00995 153
47.03006 163
47.05017 154
47.07029 186
47.0904 183
47.11051 146
47.13063 162
47.15074 178
47.17086 146
47.19097 163
47.21108 170
47.2312 177
47.25131 173
47.27142 151
47.29154 149
47.31165 153
47.33176 156
47.35188 168
47.37199 150
47.39211 162
47.41222 168
47.43233 165
47.45245 169
47.47256 177
47.49267 146
47.51279 159
47.5329 158
47.55302 165
47.57313 139
47.59324 135
47.61336 163
47.63347 169
47.65358 152
47.6737 181
47.69381 156
47.71393 162
47.73404 149
47.75415 165
47.77427 145
47.79438 163
47.81449 161
47.83461 152
47.85472 170
47.87483 163
47.89495 192
47.91506 169
47.93518 157
47.95529 152
47.9754 158
47.99552 151
48.01563 155
48.03574 186
48.05586 145
48.07597 155
48.09609 147
48.1162 155
48.13631 159
48.15643 164
48.17654 174
48.19665 156
48.21677 157
48.23688 178
48.257 149
48.27711 153
48.29722 147
48.31734 156
48.33745 159
48.35756 152
48.37768 178
48.39779 163
48.4179 189
48.43802 155
48.45813 173
48.47825 174
48.49836 157
48.51847 172
48.53859 195
48.5587 168
48.57881 168
48.59893 171
48.61904 161
48.63916 195
48.65927 178
48.67938 179
48.6995 172
48.71961 169
48.73972 171
48.75984 185
48.77995 178
48.80006 184
48.82018 159
48.84029 178
48.86041 168
48.88052 152
48.90063 194
48.92075 159
48.94086 184
48.96097 177
48.98109 176
49.0012 167
49.02132 169
49.04143 169
49.06154 161
49.08166 164
49.10177 161
49.12188 190
49.142 186
49.16211 191
49.18223 188
49.20234 158
49.22245 169
49.24257 178
49.26268 190
49.28279 196
49.30291 200
49.32302 195
49.34313 205
49.36325 173
49.38336 222
49.40348 195
49.42359 212
49.4437 174
49.46382 213
49.48393 208
49.50404 193
49.52416 230
49.54427 217
49.56439 236
49.5845 204
49.60461 234
49.62473 273
49.64484 204
49.66495 278
49.68507 293
49.70518 273
49.7253 291
49.74541 315
49.76552 346
49.78564 380
49.80575 385
49.82586 461
49.84598 498
49.86609 526
49.8862 650
49.90632 761
49.92643 855
49.94655 1030
49.96666 1191
49.98677 1563
50.00689 1850
50.027 2300
50.04711 2787
50.06723 3141
50.08734 3336
50.10746 3271
50.12757 2997
50.14768 2568
50.1678 2051
50.18791 1886
50.20802 1712
50.22814 1709
50.24825 1600
50.26837 1307
50.28848 912
50.30859 617
50.32871 452
50.34882 375
50.36893 339
50.38905 314
50.40916 286
50.42927 275
50.44939 281
50.4695 273
50.48962 266
50.50973 270
50.52984 260
50.54996 270
50.57007 272
50.59018 274
50.6103 250
50.63041 244
50.65053 253
50.67064 256
50.69075 214
50.71087 222
50.73098 209
50.75109 211
50.77121 182
50.79132 212
50.81143 205
50.83155 172
50.85166 180
50.87178 192
50.89189 156
50.912 154
50.93212 167
50.95223 180
50.97234 135
50.99246 171
51.01257 160
51.03269 178
51.0528 166
51.07291 168
51.09303 162
51.11314 159
51.13325 176
51.15337 160
51.17348 156
51.1936 172
51.21371 169
51.23382 155
51.25394 159
51.27405 157
51.29416 142
51.31428 152
51.33439 149
51.3545 162
51.37462 155
51.39473 157
51.41485 138
51.43496 164
51.45507 158
51.47519 156
51.4953 147
51.51541 169
51.53553 121
51.55564 144
51.57576 154
51.59587 158
51.61598 157
51.6361 152
51.65621 169
51.67632 132
51.69644 152
51.71655 144
51.73667 131
51.75678 145
51.77689 159
51.79701 153
51.81712 150
51.83723 142
51.85735 151
51.87746 136
51.89757 155
51.91769 148
51.9378 152
51.95792 151
51.97803 167
51.99814 144
52.01826 174
52.03837 164
52.05848 167
52.0786 151
52.09871 147
52.11883 168
52.13894 166
52.15905 143
52.17917 160
52.19928 166
52.21939 153
52.23951 129
52.25962 155
52.27974 164
52.29985 159
52.31996 147
52.34008 166
52.36019 142
52.3803 170
52.40042 177
52.42053 157
52.44064 116
52.46076 159
52.48087 154
52.50099 139
52.5211 157
52.54121 162
52.56133 174
52.58144 157
52.60155 156
52.62167 139
52.64178 147
52.6619 173
52.68201 156
52.70212 133
52.72224 135
52.74235 146
52.76246 161
52.78258 151
52.80269 185
52.8228 165
52.84292 167
52.86303 145
52.88315 156
52.90326 174
52.92337 146
52.94349 172
52.9636 156
52.98371 137
53.00383 175
53.02394 173
53.04406 142
53.06417 181
53.08428 150
53.1044 188
53.12451 161
53.14462 162
53.16474 146
53.18485 146
53.20497 156
53.22508 171
53.24519 176
53.26531 153
53.28542 158
53.30553 181
53.32565 142
53.34576 156
53.36587 186
53.38599 173
53.4061 177
53.42622 196
53.44633 169
53.46644 155
53.48656 176
53.50667 167
53.52678 175
53.5469 180
53.56701 183
53.58713 186
53.60724 168
53.62735 177
53.64747 188
53.66758 152
53.68769 158
53.70781 187
53.72792 177
53.74804 160
53.76815 180
53.78826 174
53.80838 139
53.82849 171
53.8486 196
53.86872 187
53.88883 189
53.90894 187
53.92906 178
53.94917 182
53.96929 159
53.9894 198
54.00951 186
54.02963 201
54.04974 196
54.06985 199
54.08997 184
54.11008 196
54.1302 180
54.15031 187
54.17042 197
54.19054 210
54.21065 198
54.23076 216
54.25088 196
54.27099 195
54.29111 213
54.31122 210
54.33133 198
54.35145 206
54.37156 208
54.39167 194
54.41179 229
54.4319 217
54.45201 211
54.47213 225
54.49224 224
54.51236 237
54.53247 243
54.55258 263
54.5727 269
54.59281 288
54.61292 277
54.63304 346
54.65315 429
54.67327 435
54.69338 500
54.71349 604
54.73361 665
54.75372 777
54.77383 878
54.79395 1008
54.81406 1042
54.83417 1086
54.85429 972
54.8744 851
54.89452 768
54.91463 625
54.93474 594
54.95486 588
54.97497 613
54.99508 582
55.0152 526
55.03531 422
55.05543 361
55.07554 342
55.09565 343
55.11577 307
55.13588 346
55.15599 356
55.17611 390
55.19622 414
55.21634 471
55.23645 569
55.25656 555
55.27668 600
55.29679 556
55.3169 530
55.33702 458
55.35713 406
55.37724 360
55.39736 382
55.41747 387
55.43759 365
55.4577 368
55.47781 289
55.49793 270
55.51804 225
55.53815 197
55.55827 214
55.57838 196
55.5985 188
55.61861 194
55.63872 199
55.65884 181
55.67895 207
55.69906 200
55.71918 197
55.73929 181
55.75941 180
55.77952 175
55.79963 199
55.81975 180
55.83986 174
55.85997 192
55.88009 199
55.9002 174
55.92031 184
55.94043 176
55.96054 155
55.98066 151
56.00077 154
56.02088 193
56.041 177
56.06111 161
56.08122 152
56.10134 158
56.12145 150
56.14157 159
56.16168 165
56.18179 183
56.20191 154
56.22202 168
56.24213 168
56.26225 151
56.28236 180
56.30248 177
56.32259 182
56.3427 164
56.36282 174
56.38293 135
56.40304 152
56.42316 174
56.44327 151
56.46338 174
56.4835 158
56.50361 156
56.52373 150
56.54384 162
56.56395 187
56.58407 168
56.60418 191
56.62429 157
56.64441 154
56.66452 155
56.68464 149
56.70475 179
56.72486 147
56.74498 146
56.76509 133
56.7852 166
56.80532 176
56.82543 163
56.84554 171
56.86566 165
56.88577 155
56.90589 146
56.926 137
56.94611 150
56.96623 152
56.98634 168
57.00645 169
57.02657 183
57.04668 169
57.0668 167
57.08691 183
57.10702 176
57.12714 190
57.14725 205
57.16736 205
57.18748 203
57.20759 196
57.22771 195
57.24782 193
57.26793 190
57.28805 209
57.30816 166
57.32827 169
57.34839 161
57.3685 168
57.38861 175
57.40873 157
57.42884 155
57.44896 174
57.46907 164
57.48918 173
57.5093 168
57.52941 156
57.54952 152
57.56964 162
57.58975 151
57.60987 155
57.62998 175
57.65009 188
57.67021 156
57.69032 155
57.71043 146
57.73055 159
57.75066 158
57.77078 150
57.79089 170
57.811 160
57.83112 168
57.85123 144
57.87134 137
57.89146 147
57.91157 142
57.93168 156
57.9518 176
57.97191 166
57.99203 188
58.01214 127
58.03225 165
58.05237 143
58.07248 120
58.09259 133
58.11271 167
58.13282 132
58.15294 162
58.17305 179
58.19316 168
58.21328 174
58.23339 150
58.2535 161
58.27362 169
58.29373 156
58.31385 156
58.33396 158
58.35407 159
58.37419 162
58.3943 170
58.41441 148
58.43453 142
58.45464 155
58.47475 161
58.49487 166
58.51498 156
58.5351 140
58.55521 134
58.57532 140
58.59544 165
58.61555 152
58.63566 147
58.65578 150
58.67589 147
58.69601 142
58.71612 160
58.73623 159
58.75635 154
58.77646 158
58.79657 154
58.81669 157
58.8368 150
58.85691 168
58.87703 160
58.89714 155
58.91726 163
58.93737 166
58.95748 161
58.9776 185
58.99771 151
59.01782 165
59.03794 163
59.05805 147
59.07817 155
59.09828 166
59.11839 176
59.13851 173
59.15862 184
59.17873 173
59.19885 165
59.21896 176
59.23908 186
59.25919 168
59.2793 190
59.29942 175
59.31953 176
59.33964 194
59.35976 206
59.37987 194
59.39998 192
59.4201 205
59.44021 212
59.46033 233
59.48044 187
59.50055 217
59.52067 280
59.54078 256
59.56089 263
59.58101 286
59.60112 271
59.62124 305
59.64135 354
59.66146 421
59.68158 443
59.70169 507
59.7218 584
59.74192 726
59.76203 824
59.78215 903
59.80226 1098
59.82237 1286
59.84249 1634
59.8626 1822
59.88271 1944
59.90283 2114
59.92294 2115
59.94305 1924
59.96317 1482
59.98328 1243
60.0034 1057
60.02351 1102
60.04362 1098
60.06374 1078
60.08385 1042
60.10396 938
60.12408 743
60.14419 558
60.16431 424
60.18442 309
60.20453 272
60.22465 241
60.24476 242
60.26487 226
60.28499 196
60.3051 221
60.32522 195
60.34533 202
60.36544 202
60.38556 201
60.40567 193
60.42578 186
60.4459 182
60.46601 210
60.48612 187
60.50624 205
60.52635 178
60.54647 188
60.56658 183
60.58669 190
60.60681 156
60.62692 195
60.64703 175
60.66715 161
60.68726 161
60.70738 182
60.72749 178
60.7476 184
60.76772 165
60.78783 172
60.80794 173
60.82806 137
60.84817 151
60.86828 142
60.8884 163
60.90851 143
60.92863 178
60.94874 190
60.96885 155
60.98897 162
61.00908 159
61.02919 170
61.04931 162
61.06942 164
61.08954 173
61.10965 178
61.12976 175
61.14988 185
61.16999 165
61.1901 173
61.21022 153
61.23033 169
61.25045 176
61.27056 190
61.29067 169
61.31079 197
61.3309 168
61.35101 164
61.37113 168
61.39124 179
61.41135 176
61.43147 184
61.45158 168
61.4717 174
61.49181 175
61.51192 199
61.53204 171
61.55215 187
61.57226 210
61.59238 193
61.61249 180
61.63261 188
61.65272 204
61.67283 172
61.69295 157
61.71306 192
61.73317 182
61.75329 193
61.7734 162
61.79352 169
61.81363 174
61.83374 162
61.85386 166
61.87397 164
61.89408 189
61.9142 164
61.93431 179
61.95442 192
61.97454 169
61.99465 156
62.01477 185
62.03488 158
62.05499 183
62.07511 161
62.09522 194
62.11533 187
62.13545 187
62.15556 180
62.17568 171
62.19579 178
62.2159 171
62.23602 152
62.25613 186
62.27624 164
62.29636 205
62.31647 160
62.33659 156
62.3567 184
62.37681 162
62.39693 171
62.41704 167
62.43715 162
62.45727 150
62.47738 160
62.49749 167
62.51761 183
62.53772 158
62.55784 168
62.57795 134
62.59806 140
62.61818 160
62.63829 139
62.6584 149
62.67852 156
62.69863 131
62.71875 145
62.73886 140
62.75897 142
62.77909 155
62.7992 146
62.81931 155
62.83943 145
62.85954 144
62.87965 143
62.89977 141
62.91988 154
62.94 170
62.96011 140
62.98022 147
63.00034 141
63.02045 166
63.04056 158
63.06068 118
63.08079 146
63.10091 166
63.12102 144
63.14113 153
63.16125 159
63.18136 136
63.20147 157
63.22159 151
63.2417 155
63.26182 149
63.28193 141
63.30204 155
63.32216 157
63.34227 147
63.36238 143
63.3825 128
63.40261 150
63.42272 151
63.44284 135
63.46295 140
63.48307 156
63.50318 156
63.52329 168
63.54341 156
63.56352 167
63.58363 169
63.60375 145
63.62386 168
63.64398 186
63.66409 177
63.6842 196
63.70432 169
63.72443 180
63.74454 203
63.76466 199
63.78477 242
63.80489 250
63.825 247
63.84511 266
63.86523 313
63.88534 327
63.90545 379
63.92557 390
63.94568 461
63.96579 482
63.98591 469
64.00602 487
64.02614 450
64.04625 371
64.06636 330
64.08648 308
64.10659 302
64.1267 281
64.14682 302
64.16693 301
64.18705 294
64.20716 282
64.22727 219
64.24739 191
64.2675 182
64.28761 148
64.30773 186
64.32784 181
64.34796 178
64.36807 159
64.38818 136
64.4083 163
64.42841 160
64.44852 120
64.46864 154
64.48875 129
64.50886 147
64.52898 131
64.54909 147
64.56921 139
64.58932 127
64.60943 133
64.62955 121
64.64966 153
64.66977 144
64.68989 140
64.71 136
64.73012 142
64.75023 131
64.77034 137
64.79046 148
64.81057 150
64.83068 118
64.8508 153
64.87091 175
64.89102 150
64.91114 124
64.93125 140
64.95137 150
64.97148 139
64.99159 141
65.01171 145
65.03182 140
65.05193 147
65.07205 145
65.09216 136
65.11228 140
65.13239 135
65.1525 134
65.17262 153
65.19273 150
65.21284 179
65.23296 143
65.25307 156
65.27319 135
65.2933 137
65.31341 143
65.33353 146
65.35364 165
65.37375 159
65.39387 164
65.41398 159
65.43409 149
65.45421 151
65.47432 167
65.49444 178
65.51455 148
65.53466 157
65.55478 173
65.57489 168
65.595 169
65.61512 191
65.63523 175
65.65535 197
65.67546 211
65.69557 236
65.71569 227
65.7358 236
65.75591 231
65.77603 222
65.79614 201
65.81626 201
65.83637 167
65.85648 186
65.8766 191
65.89671 180
65.91682 168
65.93694 188
65.95705 186
65.97716 181
65.99728 156
66.01739 151
66.03751 139
66.05762 143
66.07773 147
66.09785 151
66.11796 134
66.13807 156
66.15819 155
66.1783 145
66.19842 138
66.21853 141
66.23864 163
66.25876 157
66.27887 153
66.29898 156
66.3191 143
66.33921 180
66.35933 145
66.37944 155
66.39955 164
66.41967 119
66.43978 158
66.45989 129
66.48001 167
66.50012 140
66.52023 156
66.54035 164
66.56046 143
66.58058 153
66.60069 137
66.6208 143
66.64092 147
66.66103 139
66.68114 143
66.70126 150
66.72137 151
66.74149 152
66.7616 148
66.78171 150
66.80183 145
66.82194 149
66.84205 147
66.86217 144
66.88228 173
66.90239 159
66.92251 149
66.94262 155
66.96274 176
66.98285 142
67.00296 167
67.02308 133
67.04319 155
67.0633 152
67.08342 177
67.10353 181
67.12365 200
67.14376 188
67.16387 182
67.18399 180
67.2041 181
67.22421 222
67.24433 182
67.26444 203
67.28456 210
67.30467 220
67.32478 229
67.3449 242
67.36501 255
67.38512 245
67.40524 267
67.42535 312
67.44546 302
67.46558 320
67.48569 433
67.50581 460
67.52592 512
67.54603 573
67.56615 634
67.58626 762
67.60637 836
67.62649 997
67.6466 1100
67.66672 1159
67.68683 1200
67.70694 1185
67.72706 1123
67.74717 967
67.76728 883
67.7874 828
67.80751 791
67.82763 763
67.84774 890
67.86785 893
67.88797 947
67.90808 1019
67.92819 969
67.94831 916
67.96842 982
67.98853 1039
68.00865 1177
68.02876 1302
68.04888 1396
68.06899 1563
68.0891 1505
68.10922 1555
68.12933 1547
68.14944 1453
68.16956 1349
68.18967 1342
68.20979 1373
68.2299 1462
68.25001 1475
68.27013 1470
68.29024 1393
68.31035 1220
68.33047 1029
68.35058 856
68.3707 685
68.39081 660
68.41092 582
68.43104 540
68.45115 551
68.47126 530
68.49138 491
68.51149 391
68.5316 322
68.55172 280
68.57183 244
68.59195 234
68.61206 202
68.63217 208
68.65229 196
68.6724 185
68.69251 192
68.71263 176
68.73274 185
68.75286 177
68.77297 171
68.79308 187
68.8132 171
68.83331 183
68.85342 152
68.87354 170
68.89365 165
68.91376 163
68.93388 147
68.95399 162
68.97411 162
68.99422 162
69.01433 161
69.03445 159
69.05456 164
69.07467 153
69.09479 159
69.1149 154
69.13502 158
69.15513 137
69.17524 150
69.19536 170
69.21547 158
69.23558 143
69.2557 140
69.27581 146
69.29593 155
69.31604 160
69.33615 147
69.35627 170
69.37638 163
69.39649 179
69.41661 150
69.43672 137
69.45683 134
69.47695 158
69.49706 148
69.51718 152
69.53729 145
69.5574 175
69.57752 147
69.59763 152
69.61774 119
69.63786 132
69.65797 136
69.67809 143
69.6982 136
69.71831 140
69.73843 152
69.75854 138
69.77865 139
69.79877 126
69.81888 141
69.839 138
69.85911 142
69.87922 156
69.89934 153
69.91945 139
69.93956 130
69.95968 123
69.97979 145
69.9999 140
70.02002 143
70.04013 142
70.06025 155
70.08036 145
70.10047 154
70.12059 138
70.1407 151
70.16081 126
70.18093 129
70.20104 144
70.22116 146
70.24127 142
70.26138 124
70.2815 147
70.30161 141
70.32172 129
70.34184 141
70.36195 121
70.38207 137
70.40218 141
70.42229 134
70.44241 130
70.46252 134
70.48263 138
70.50275 120
70.52286 147
70.54297 147
70.56309 120
70.5832 152
70.60332 134
70.62343 132
70.64354 139
70.66366 120
70.68377 127
70.70388 153
70.724 148
70.74411 130
70.76423 142
70.78434 134
70.80445 136
70.82457 127
70.84468 124
70.86479 137
70.88491 127
70.90502 156
70.92513 116
70.94525 128
70.96536 118
70.98548 139
71.00559 96
71.0257 130
71.04582 131
71.06593 128
71.08604 134
71.10616 132
71.12627 142
71.14639 122
71.1665 113
71.18661 127
71.20673 120
71.22684 132
71.24695 149
71.26707 100
71.28718 125
71.3073 132
71.32741 123
71.34752 118
71.36764 130
71.38775 136
71.40786 150
71.42798 111
71.44809 136
71.4682 120
71.48832 123
71.50843 123
71.52855 137
71.54866 129
71.56877 122
71.58889 130
71.609 129
71.62911 134
71.64923 124
71.66934 117
71.68946 143
71.70957 146
71.72968 148
71.7498 135
71.76991 124
71.79002 111
71.81014 156
71.83025 139
71.85037 143
71.87048 142
71.89059 142
71.91071 122
71.93082 134
71.95093 123
71.97105 142
71.99116 145
72.01127 150
72.03139 126
72.0515 151
72.07162 131
72.09173 151
72.11184 120
72.13196 124
72.15207 136
72.17218 123
72.1923 130
72.21241 130
72.23253 144
72.25264 128
72.27275 143
72.29287 139
72.31298 141
72.33309 142
72.35321 128
72.37332 139
72.39344 148
72.41355 130
72.43366 143
72.45378 140
72.47389 149
72.494 140
72.51412 150
72.53423 144
72.55434 146
72.57446 146
72.59457 147
72.61469 131
72.6348 153
72.65491 145
72.67503 144
72.69514 138
72.71525 149
72.73537 165
72.75548 144
72.7756 136
72.79571 133
72.81582 145
72.83594 140
72.85605 149
72.87616 150
72.89628 157
72.91639 158
72.9365 143
72.95662 158
72.97673 136
72.99685 155
73.01696 143
73.03707 154
73.05719 157
73.0773 150
73.09741 165
73.11753 151
73.13764 184
73.15776 174
73.17787 175
73.19798 219
73.2181 225
73.23821 240
73.25832 256
73.27844 299
73.29855 318
73.31867 360
73.33878 383
73.35889 426
73.37901 425
73.39912 456
73.41923 494
73.43935 509
73.45946 449
73.47957 394
73.49969 296
73.5198 288
73.53992 292
73.56003 273
73.58014 297
73.60026 286
73.62037 320
73.64048 300
73.6606 278
73.68071 245
73.70083 201
73.72094 200
73.74105 172
73.76117 157
73.78128 146
73.80139 148
73.82151 142
73.84162 134
73.86174 148
73.88185 156
73.90196 138
73.92208 134
73.94219 113
73.9623 142
73.98242 136
74.00253 143
74.02264 142
74.04276 123
74.06287 148
74.08299 130
74.1031 127
74.12321 132
74.14333 115
74.16344 123
74.18355 132
74.20367 123
74.22378 135
74.2439 140
74.26401 121
74.28412 140
74.30424 121
74.32435 145
74.34446 142
74.36458 144
74.38469 141
74.40481 138
74.42492 147
74.44503 128
74.46515 131
74.48526 130
74.50537 114
74.52549 113
74.5456 125
74.56571 122
74.58583 116
74.60594 119
74.62606 146
74.64617 113
74.66628 130
74.6864 124
74.70651 136
74.72662 130
74.74674 127
74.76685 113
74.78697 128
74.80708 130
74.82719 125
74.84731 107
74.86742 134
74.88753 125
74.90765 115
74.92776 147
74.94787 133
74.96799 139
74.9881 146
75.00822 110
