3.00117 20469
3.02128 19735
3.0414 19195
3.06151 18801
3.08162 18550
3.10174 17685
3.12185 17598
3.14197 16870
3.16208 16313
3.18219 16081
3.20231 15481
3.22242 15123
3.24253 14471
3.26265 13812
3.28276 13925
3.30288 13095
3.32299 12733
3.3431 12163
3.36322 11986
3.38333 11735
3.40344 11084
3.42356 10952
3.44367 10338
3.46379 10235
3.4839 9997
3.50401 9171
3.52413 9243
3.54424 8687
3.56435 8478
3.58447 8242
3.60458 7643
3.62469 7689
3.64481 7172
3.66492 7048
3.68504 6809
3.70515 6389
3.72526 6306
3.74538 5860
3.76549 5622
3.7856 5635
3.80572 5227
3.82583 5297
3.84595 4681
3.86606 4600
3.88617 4443
3.90629 4319
3.9264 4114
3.94651 3777
3.96663 3714
3.98674 3583
4.00686 3345
4.02697 3417
4.04708 3145
4.0672 2974
4.08731 2822
4.10742 2756
4.12754 2826
4.14765 2507
4.16776 2417
4.18788 2383
4.20799 2192
4.22811 2171
4.24822 2020
4.26833 1940
4.28845 1893
4.30856 1763
4.32867 1835
4.34879 1693
4.3689 1650
4.38902 1619
4.40913 1674
4.42924 1591
4.44936 1540
4.46947 1485
4.48958 1409
4.5097 1469
4.52981 1339
4.54992 1297
4.57004 1346
4.59015 1238
4.61027 1312
4.63038 1233
4.65049 1158
4.67061 1200
4.69072 1173
4.71083 1105
4.73095 1094
4.75106 992
4.77118 965
4.79129 1018
4.8114 1001
4.83152 1051
4.85163 881
4.87174 926
4.89186 892
4.91197 951
4.93209 866
4.9522 925
4.97231 848
4.99243 875
5.01254 831
5.03265 791
5.05277 727
5.07288 706
5.09299 702
5.11311 736
5.13322 685
5.15334 681
5.17345 672
5.19356 656
5.21368 681
5.23379 625
5.2539 620
5.27402 566
5.29413 563
5.31425 538
5.33436 543
5.35447 524
5.37459 538
5.3947 550
5.41481 505
5.43493 476
5.45504 469
5.47516 491
5.49527 495
5.51538 486
5.5355 471
5.55561 481
5.57572 447
5.59584 386
5.61595 417
5.63606 436
5.65618 419
5.67629 371
5.69641 366
5.71652 397
5.73663 403
5.75675 367
5.77686 385
5.79697 364
5.81709 395
5.8372 331
5.85732 379
5.87743 333
5.89754 332
5.91766 357
5.93777 315
5.95788 333
5.978 340
5.99811 321
6.01823 287
6.03834 330
6.05845 303
6.07857 342
6.09868 300
6.11879 278
6.13891 309
6.15902 321
6.17913 325
6.19925 349
6.21936 302
6.23948 320
6.25959 329
6.2797 303
6.29982 287
6.31993 304
6.34004 322
6.36016 313
6.38027 282
6.40039 316
6.4205 286
6.44061 275
6.46073 267
6.48084 282
6.50095 342
6.52107 281
6.54118 295
6.56129 302
6.58141 277
6.60152 272
6.62164 257
6.64175 284
6.66186 295
6.68198 299
6.70209 289
6.7222 281
6.74232 293
6.76243 317
6.78255 266
6.80266 240
6.82277 260
6.84289 315
6.863 268
6.88311 270
6.90323 291
6.92334 287
6.94346 307
6.96357 303
6.98368 299
7.0038 278
7.02391 331
7.04402 298
7.06414 302
7.08425 278
7.10436 281
7.12448 280
7.14459 299
7.16471 265
7.18482 275
7.20493 281
7.22505 279
7.24516 308
7.26527 269
7.28539 319
7.3055 281
7.32562 277
7.34573 261
7.36584 291
7.38596 289
7.40607 299
7.42618 272
7.4463 327
7.46641 327
7.48653 276
7.50664 281
7.52675 301
7.54687 287
7.56698 288
7.58709 299
7.60721 282
7.62732 293
7.64743 295
7.66755 291
7.68766 294
7.70778 310
7.72789 282
7.748 271
7.76812 288
7.78823 282
7.80834 282
7.82846 303
7.84857 278
7.86869 259
7.8888 287
7.90891 230
7.92903 313
7.94914 300
7.96925 286
7.98937 306
8.00948 286
8.0296 341
8.04971 275
8.06982 329
8.08994 284
8.11005 300
8.13016 281
8.15028 278
8.17039 284
8.1905 303
8.21062 258
8.23073 280
8.25085 307
8.27096 323
8.29107 300
8.31119 303
8.3313 297
8.35141 265
8.37153 317
8.39164 302
8.41176 282
8.43187 320
8.45198 329
8.4721 300
8.49221 336
8.51232 335
8.53244 305
8.55255 294
8.57266 287
8.59278 297
8.61289 328
8.63301 308
8.65312 330
8.67323 318
8.69335 341
8.71346 318
8.73357 346
8.75369 306
8.7738 307
8.79392 360
8.81403 316
8.83414 315
8.85426 327
8.87437 314
8.89448 341
8.9146 363
8.93471 319
8.95483 276
8.97494 303
8.99505 270
9.01517 300
9.03528 290
9.05539 304
9.07551 282
9.09562 286
9.11573 314
9.13585 290
9.15596 282
9.17608 280
9.19619 299
9.2163 287
9.23642 271
9.25653 282
9.27664 276
9.29676 249
9.31687 263
9.33699 272
9.3571 286
9.37721 262
9.39733 291
9.41744 264
9.43755 264
9.45767 310
9.47778 296
9.4979 327
9.51801 283
9.53812 287
9.55824 262
9.57835 296
9.59846 267
9.61858 287
9.63869 285
9.6588 307
9.67892 282
9.69903 275
9.71915 252
9.73926 278
9.75937 251
9.77949 260
9.7996 243
9.81971 304
9.83983 281
9.85994 274
9.88006 253
9.90017 239
9.92028 293
9.9404 296
9.96051 245
9.98062 267
10.00074 234
10.02085 253
10.04097 279
10.06108 260
10.08119 310
10.10131 265
10.12142 244
10.14153 261
10.16165 249
10.18176 262
10.20187 258
10.22199 250
10.2421 266
10.26222 263
10.28233 254
10.30244 283
10.32256 284
10.34267 276
10.36278 276
10.3829 242
10.40301 271
10.42313 276
10.44324 272
10.46335 286
10.48347 271
10.50358 284
10.52369 282
10.54381 274
10.56392 239
10.58403 292
10.60415 286
10.62426 293
10.64438 287
10.66449 308
10.6846 267
10.70472 290
10.72483 258
10.74494 284
10.76506 270
10.78517 277
10.80529 281
10.8254 262
10.84551 267
10.86563 298
10.88574 274
10.90585 279
10.92597 284
10.94608 264
10.9662 303
10.98631 258
11.00642 267
11.02654 260
11.04665 283
11.06676 282
11.08688 250
11.10699 275
11.1271 275
11.14722 288
11.16733 292
11.18745 240
11.20756 286
11.22767 305
11.24779 307
11.2679 270
11.28801 288
11.30813 264
11.32824 315
11.34836 256
11.36847 290
11.38858 266
11.4087 290
11.42881 306
11.44892 294
11.46904 287
11.48915 286
11.50927 273
11.52938 280
11.54949 293
11.56961 277
11.58972 290
11.60983 265
11.62995 247
11.65006 282
11.67017 285
11.69029 257
11.7104 269
11.73052 319
11.75063 283
11.77074 272
11.79086 254
11.81097 284
11.83108 279
11.8512 308
11.87131 277
11.89143 312
11.91154 272
11.93165 260
11.95177 274
11.97188 306
11.99199 309
12.01211 305
12.03222 282
12.05234 282
12.07245 307
12.09256 292
12.11268 319
12.13279 291
12.1529 334
12.17302 293
12.19313 301
12.21324 307
12.23336 350
12.25347 276
12.27359 311
12.2937 301
12.31381 296
12.33393 288
12.35404 309
12.37415 296
12.39427 290
12.41438 276
12.4345 304
12.45461 307
12.47472 268
12.49484 256
12.51495 278
12.53506 276
12.55518 242
12.57529 270
12.5954 266
12.61552 245
12.63563 273
12.65575 267
12.67586 278
12.69597 266
12.71609 257
12.7362 249
12.75631 265
12.77643 276
12.79654 270
12.81666 258
12.83677 261
12.85688 259
12.877 271
12.89711 264
12.91722 269
12.93734 272
12.95745 257
12.97757 250
12.99768 253
13.01779 220
13.03791 255
13.05802 239
13.07813 252
13.09825 224
13.11836 266
13.13847 261
13.15859 221
13.1787 243
13.19882 254
13.21893 249
13.23904 267
13.25916 233
13.27927 252
13.29938 226
13.3195 242
13.33961 261
13.35973 238
13.37984 220
13.39995 250
13.42007 267
13.44018 221
13.46029 265
13.48041 228
13.50052 237
13.52064 244
13.54075 237
13.56086 233
13.58098 232
13.60109 228
13.6212 229
13.64132 217
13.66143 224
13.68154 270
13.70166 203
13.72177 221
13.74189 234
13.762 239
13.78211 232
13.80223 213
13.82234 237
13.84245 244
13.86257 241
13.88268 215
13.9028 227
13.92291 226
13.94302 245
13.96314 249
13.98325 238
14.00336 243
14.02348 220
14.04359 236
14.06371 243
14.08382 217
14.10393 223
14.12405 238
14.14416 256
14.16427 252
14.18439 237
14.2045 238
14.22461 231
14.24473 273
14.26484 249
14.28496 225
14.30507 216
14.32518 205
14.3453 225
14.36541 252
14.38552 221
14.40564 227
14.42575 206
14.44587 226
14.46598 223
14.48609 230
14.50621 248
14.52632 225
14.54643 237
14.56655 232
14.58666 250
14.60677 216
14.62689 221
14.647 193
14.66712 222
14.68723 225
14.70734 216
14.72746 213
14.74757 200
14.76768 205
14.7878 238
14.80791 253
14.82803 207
14.84814 238
14.86825 239
14.88837 196
14.90848 230
14.92859 229
14.94871 218
14.96882 237
14.98894 215
15.00905 210
15.02916 228
15.04928 217
15.06939 169
15.0895 204
15.10962 203
15.12973 226
15.14984 220
15.16996 187
15.19007 215
15.21019 225
15.2303 249
15.25041 231
15.27053 225
15.29064 215
15.31075 253
15.33087 208
15.35098 203
15.3711 189
15.39121 220
15.41132 205
15.43144 216
15.45155 234
15.47166 181
15.49178 232
15.51189 224
15.53201 217
15.55212 251
15.57223 211
15.59235 220
15.61246 217
15.63257 208
15.65269 194
15.6728 218
15.69291 221
15.71303 212
15.73314 196
15.75326 258
15.77337 192
15.79348 209
15.8136 205
15.83371 241
15.85382 220
15.87394 225
15.89405 203
15.91417 223
15.93428 189
15.95439 205
15.97451 209
15.99462 197
16.01473 216
16.03485 183
16.05496 197
16.07508 205
16.09519 200
16.1153 183
16.13542 217
16.15553 204
16.17564 220
16.19576 209
16.21587 221
16.23598 224
16.2561 230
16.27621 220
16.29633 205
16.31644 252
16.33655 207
16.35667 222
16.37678 208
16.39689 217
16.41701 209
16.43712 241
16.45724 199
16.47735 214
16.49746 219
16.51758 184
16.53769 249
16.5578 224
16.57792 202
16.59803 235
16.61814 213
16.63826 218
16.65837 214
16.67849 227
16.6986 250
16.71871 222
16.73883 217
16.75894 197
16.77905 198
16.79917 197
16.81928 221
16.8394 215
16.85951 205
16.87962 188
16.89974 199
16.91985 234
16.93996 218
16.96008 213
16.98019 219
17.00031 208
17.02042 233
17.04053 215
17.06065 221
17.08076 218
17.10087 199
17.12099 187
17.1411 178
17.16121 201
17.18133 197
17.20144 238
17.22156 204
17.24167 225
17.26178 209
17.2819 235
17.30201 182
17.32212 187
17.34224 226
17.36235 213
17.38247 209
17.40258 223
17.42269 248
17.44281 215
17.46292 233
17.48303 227
17.50315 201
17.52326 216
17.54338 253
17.56349 242
17.5836 221
17.60372 220
17.62383 229
17.64394 223
17.66406 247
17.68417 234
17.70428 250
17.7244 237
17.74451 226
17.76463 214
17.78474 209
17.80485 251
17.82497 253
17.84508 245
17.86519 220
17.88531 215
17.90542 236
17.92554 232
17.94565 253
17.96576 187
17.98588 218
18.00599 207
18.0261 210
18.04622 224
18.06633 223
18.08645 201
18.10656 231
18.12667 244
18.14679 204
18.1669 204
18.18701 234
18.20713 228
18.22724 205
18.24735 238
18.26747 223
18.28758 211
18.3077 207
18.32781 227
18.34792 204
18.36804 209
18.38815 215
18.40826 199
18.42838 235
18.44849 226
18.46861 250
18.48872 208
18.50883 208
18.52895 203
18.54906 210
18.56917 210
18.58929 194
18.6094 228
18.62951 191
18.64963 193
18.66974 236
18.68986 248
18.70997 234
18.73008 240
18.7502 215
18.77031 239
18.79042 243
18.81054 237
18.83065 215
18.85077 226
18.87088 200
18.89099 233
18.91111 215
18.93122 195
18.95133 215
18.97145 212
18.99156 230
19.01168 223
19.03179 237
19.0519 216
19.07202 206
19.09213 222
19.11224 198
19.13236 237
19.15247 230
19.17258 231
19.1927 237
19.21281 214
19.23293 225
19.25304 222
19.27315 247
19.29327 240
19.31338 233
19.33349 270
19.35361 252
19.37372 235
19.39384 236
19.41395 270
19.43406 249
19.45418 258
19.47429 266
19.4944 256
19.51452 259
19.53463 297
19.55475 308
19.57486 337
19.59497 361
19.61509 406
19.6352 396
19.65531 467
19.67543 480
19.69554 491
19.71565 494
19.73577 565
19.75588 560
19.776 541
19.79611 534
19.81622 591
19.83634 520
19.85645 576
19.87656 566
19.89668 557
19.91679 469
19.93691 456
19.95702 464
19.97713 412
19.99725 463
20.01736 403
20.03747 401
20.05759 405
20.0777 437
20.09782 443
20.11793 371
20.13804 411
20.15816 400
20.17827 424
20.19838 394
20.2185 416
20.23861 406
20.25872 425
20.27884 420
20.29895 428
20.31907 432
20.33918 419
20.35929 427
20.37941 444
20.39952 478
20.41963 408
20.43975 456
20.45986 458
20.47998 506
20.50009 529
20.5202 510
20.54032 526
20.56043 519
20.58054 618
20.60066 619
20.62077 710
20.64088 797
20.661 1002
20.68111 1171
20.70123 1648
20.72134 2146
20.74145 2899
20.76157 3946
20.78168 5037
20.80179 6197
20.82191 6804
20.84202 6734
20.86214 5866
20.88225 4663
20.90236 3307
20.92248 2279
20.94259 1509
20.9627 976
20.98282 674
21.00293 593
21.02305 570
21.04316 527
21.06327 529
21.08339 460
21.1035 490
21.12361 524
21.14373 458
21.16384 430
21.18395 435
21.20407 416
21.22418 443
21.2443 436
21.26441 422
21.28452 436
21.30464 413
21.32475 424
21.34486 419
21.36498 442
21.38509 415
21.40521 428
21.42532 391
21.44543 453
21.46555 400
21.48566 402
21.50577 382
21.52589 390
21.546 399
21.56612 366
21.58623 367
21.60634 339
21.62646 338
21.64657 369
21.66668 327
21.6868 351
21.70691 328
21.72702 362
21.74714 327
21.76725 315
21.78737 291
21.80748 322
21.82759 335
21.84771 338
21.86782 307
21.88793 305
21.90805 314
21.92816 319
21.94828 286
21.96839 329
21.9885 312
22.00862 308
22.02873 334
22.04884 349
22.06896 305
22.08907 360
22.10919 333
22.1293 298
22.14941 305
22.16953 325
22.18964 297
22.20975 292
22.22987 307
22.24998 303
22.27009 293
22.29021 292
22.31032 312
22.33044 320
22.35055 292
22.37066 289
22.39078 304
22.41089 299
22.431 296
22.45112 294
22.47123 287
22.49135 318
22.51146 294
22.53157 270
22.55169 322
22.5718 266
22.59191 312
22.61203 307
22.63214 293
22.65225 290
22.67237 303
22.69248 297
22.7126 255
22.73271 294
22.75282 303
22.77294 288
22.79305 305
22.81316 290
22.83328 281
22.85339 300
22.87351 309
22.89362 277
22.91373 275
22.93385 296
22.95396 318
22.97407 307
22.99419 292
23.0143 345
23.03442 292
23.05453 273
23.07464 282
23.09476 314
23.11487 272
23.13498 297
23.1551 292
23.17521 271
23.19532 260
23.21544 279
23.23555 282
23.25567 272
23.27578 318
23.29589 278
23.31601 294
23.33612 282
23.35623 272
23.37635 274
23.39646 271
23.41658 309
23.43669 303
23.4568 281
23.47692 254
23.49703 289
23.51714 306
23.53726 320
23.55737 298
23.57749 274
23.5976 280
23.61771 281
23.63783 311
23.65794 289
23.67805 301
23.69817 312
23.71828 322
23.73839 279
23.75851 311
23.77862 334
23.79874 334
23.81885 312
23.83896 312
23.85908 296
23.87919 308
23.8993 304
23.91942 288
23.93953 347
23.95965 370
23.97976 335
23.99987 389
24.01999 367
24.0401 297
24.06021 324
24.08033 336
24.10044 331
24.12056 304
24.14067 327
24.16078 274
24.1809 302
24.20101 294
24.22112 361
24.24124 321
24.26135 292
24.28146 310
24.30158 296
24.32169 273
24.34181 308
24.36192 295
24.38203 309
24.40215 292
24.42226 307
24.44237 291
24.46249 281
24.4826 305
24.50272 292
24.52283 320
24.54294 301
24.56306 339
24.58317 346
24.60328 308
24.6234 317
24.64351 270
24.66362 334
24.68374 309
24.70385 313
24.72397 286
24.74408 283
24.76419 303
24.78431 301
24.80442 317
24.82453 311
24.84465 292
24.86476 336
24.88488 321
24.90499 332
24.9251 324
24.94522 341
24.96533 353
24.98544 311
25.00556 340
25.02567 304
25.04579 352
25.0659 318
25.08601 350
25.10613 302
25.12624 308
25.14635 367
25.16647 351
25.18658 395
25.20669 377
25.22681 398
25.24692 432
25.26704 414
25.28715 366
25.30726 376
25.32738 400
25.34749 366
25.3676 358
25.38772 397
25.40783 391
25.42795 354
25.44806 367
25.46817 349
25.48829 361
25.5084 338
25.52851 384
25.54863 398
25.56874 371
25.58886 378
25.60897 407
25.62908 403
25.6492 411
25.66931 468
25.68942 446
25.70954 469
25.72965 482
25.74976 510
25.76988 502
25.78999 497
25.81011 543
25.83022 520
25.85033 525
25.87045 517
25.89056 521
25.91067 512
25.93079 545
25.9509 528
25.97102 565
25.99113 649
26.01124 552
26.03136 609
26.05147 605
26.07158 657
26.0917 650
26.11181 709
26.13193 718
26.15204 825
26.17215 838
26.19227 860
26.21238 955
26.23249 966
26.25261 1062
26.27272 1181
26.29283 1245
26.31295 1385
26.33306 1544
26.35318 1646
26.37329 2029
26.3934 2364
26.41352 2993
26.43363 3842
26.45374 5162
26.47386 6894
26.49397 9730
26.51409 13368
26.5342 17802
26.55431 22905
26.57443 27195
26.59454 30047
26.61465 29726
26.63477 26783
26.65488 21895
26.67499 16672
26.69511 12323
26.71522 8456
26.73534 5250
26.75545 3278
26.77556 2214
26.79568 1743
26.81579 1588
26.8359 1412
26.85602 1330
26.87613 1169
26.89625 1106
26.91636 971
26.93647 942
26.95659 799
26.9767 700
26.99681 662
27.01693 621
27.03704 609
27.05716 607
27.07727 586
27.09738 482
27.1175 578
27.13761 508
27.15772 473
27.17784 507
27.19795 449
27.21806 442
27.23818 484
27.25829 391
27.27841 483
27.29852 423
27.31863 405
27.33875 448
27.35886 439
27.37897 447
27.39909 419
27.4192 420
27.43932 416
27.45943 388
27.47954 398
27.49966 378
27.51977 399
27.53988 396
27.56 414
27.58011 385
27.60023 338
27.62034 374
27.64045 391
27.66057 366
27.68068 386
27.70079 419
27.72091 392
27.74102 424
27.76113 387
27.78125 375
27.80136 364
27.82148 428
27.84159 369
27.8617 425
27.88182 377
27.90193 377
27.92204 332
27.94216 338
27.96227 405
27.98239 345
28.0025 329
28.02261 329
28.04273 350
28.06284 316
28.08295 346
28.10307 335
28.12318 373
28.1433 320
28.16341 376
28.18352 342
28.20364 338
28.22375 359
28.24386 336
28.26398 341
28.28409 297
28.3042 319
28.32432 306
28.34443 293
28.36455 292
28.38466 298
28.40477 301
28.42489 301
28.445 316
28.46511 317
28.48523 324
28.50534 311
28.52546 309
28.54557 271
28.56568 306
28.5858 311
28.60591 262
28.62602 296
28.64614 309
28.66625 291
28.68636 279
28.70648 298
28.72659 306
28.74671 320
28.76682 294
28.78693 297
28.80705 285
28.82716 281
28.84727 289
28.86739 305
28.8875 271
28.90762 316
28.92773 320
28.94784 298
28.96796 280
28.98807 300
29.00818 325
29.0283 266
29.04841 327
29.06853 257
29.08864 284
29.10875 279
29.12887 289
29.14898 293
29.16909 271
29.18921 264
29.20932 302
29.22943 282
29.24955 297
29.26966 278
29.28978 303
29.30989 294
29.33 279
29.35012 281
29.37023 271
29.39034 284
29.41046 263
29.43057 294
29.45069 275
29.4708 323
29.49091 261
29.51103 270
29.53114 274
29.55125 269
29.57137 240
29.59148 262
29.6116 278
29.63171 295
29.65182 264
29.67194 292
29.69205 313
29.71216 262
29.73228 303
29.75239 293
29.7725 286
29.79262 299
29.81273 273
29.83285 290
29.85296 281
29.87307 277
29.89319 310
29.9133 243
29.93341 286
29.95353 286
29.97364 275
29.99376 295
30.01387 257
30.03398 242
30.0541 264
30.07421 245
30.09432 279
30.11444 255
30.13455 275
30.15467 273
30.17478 246
30.19489 252
30.21501 245
30.23512 276
30.25523 283
30.27535 268
30.29546 297
30.31557 274
30.33569 263
30.3558 280
30.37592 235
30.39603 263
30.41614 269
30.43626 246
30.45637 268
30.47648 278
30.4966 254
30.51671 269
30.53683 259
30.55694 258
30.57705 255
30.59717 255
30.61728 242
30.63739 262
30.65751 252
30.67762 278
30.69773 269
30.71785 244
30.73796 262
30.75808 236
30.77819 257
30.7983 247
30.81842 273
30.83853 270
30.85864 266
30.87876 237
30.89887 280
30.91899 256
30.9391 255
30.95921 256
30.97933 245
30.99944 263
31.01955 266
31.03967 278
31.05978 275
31.0799 288
31.10001 259
31.12012 228
31.14024 281
31.16035 291
31.18046 284
31.20058 246
31.22069 253
31.2408 238
31.26092 258
31.28103 243
31.30115 234
31.32126 240
31.34137 257
31.36149 253
31.3816 251
31.40171 243
31.42183 234
31.44194 262
31.46206 226
31.48217 216
31.50228 228
31.5224 257
31.54251 259
31.56262 250
31.58274 257
31.60285 248
31.62297 249
31.64308 278
31.66319 225
31.68331 253
31.70342 231
31.72353 254
31.74365 237
31.76376 223
31.78387 246
31.80399 253
31.8241 233
31.84422 246
31.86433 228
31.88444 226
31.90456 261
31.92467 259
31.94478 247
31.9649 235
31.98501 232
32.00513 224
32.02524 234
32.04535 217
32.06547 258
32.08558 243
32.10569 245
32.12581 221
32.14592 231
32.16604 229
32.18615 227
32.20626 231
32.22638 232
32.24649 235
32.2666 233
32.28672 227
32.30683 246
32.32694 241
32.34706 234
32.36717 230
32.38729 233
32.4074 219
32.42751 214
32.44763 253
32.46774 221
32.48785 206
32.50797 251
32.52808 212
32.5482 221
32.56831 222
32.58842 225
32.60854 211
32.62865 236
32.64876 226
32.66888 213
32.68899 211
32.7091 237
32.72922 229
32.74933 232
32.76945 222
32.78956 229
32.80967 254
32.82979 227
32.8499 250
32.87001 248
32.89013 253
32.91024 235
32.93036 225
32.95047 274
32.97058 238
32.9907 243
33.01081 274
33.03092 248
33.05104 253
33.07115 229
33.09127 248
33.11138 262
33.13149 256
33.15161 266
33.17172 254
33.19183 280
33.21195 224
33.23206 269
33.25217 258
33.27229 279
33.2924 235
33.31252 261
33.33263 221
33.35274 256
33.37286 257
33.39297 238
33.41308 248
33.4332 266
33.45331 241
33.47343 243
33.49354 261
33.51365 265
33.53377 197
33.55388 194
33.57399 244
33.59411 252
33.61422 245
33.63434 234
33.65445 197
33.67456 223
33.69468 235
33.71479 248
33.7349 230
33.75502 194
33.77513 215
33.79524 212
33.81536 201
33.83547 207
33.85559 233
33.8757 224
33.89581 226
33.91593 235
33.93604 236
33.95615 235
33.97627 229
33.99638 260
34.0165 213
34.03661 202
34.05672 244
34.07684 200
34.09695 229
34.11706 201
34.13718 212
34.15729 230
34.17741 204
34.19752 242
34.21763 206
34.23775 234
34.25786 245
34.27797 266
34.29809 244
34.3182 262
34.33831 236
34.35843 257
34.37854 262
34.39866 285
34.41877 273
34.43888 321
34.459 334
34.47911 322
34.49922 301
34.51934 320
34.53945 360
34.55957 336
34.57968 346
34.59979 377
34.61991 368
34.64002 351
34.66013 363
34.68025 386
34.70036 397
34.72047 386
34.74059 372
34.7607 423
34.78082 416
34.80093 409
34.82104 420
34.84116 426
34.86127 491
34.88138 443
34.9015 434
34.92161 402
34.94173 450
34.96184 452
34.98195 396
35.00207 387
35.02218 416
35.04229 391
35.06241 400
35.08252 358
35.10264 340
35.12275 305
35.14286 330
35.16298 325
35.18309 291
35.2032 341
35.22332 318
35.24343 325
35.26354 305
35.28366 298
35.30377 295
35.32389 283
35.344 293
35.36411 281
35.38423 316
35.40434 284
35.42445 309
35.44457 302
35.46468 318
35.4848 290
35.50491 291
35.52502 285
35.54514 279
35.56525 305
35.58536 292
35.60548 327
35.62559 283
35.64571 314
35.66582 305
35.68593 303
35.70605 310
35.72616 313
35.74627 296
35.76639 292
35.7865 306
35.80661 300
35.82673 299
35.84684 293
35.86696 288
35.88707 302
35.90718 280
35.9273 315
35.94741 332
35.96752 332
35.98764 305
36.00775 317
36.02787 303
36.04798 299
36.06809 292
36.08821 286
36.10832 306
36.12843 379
36.14855 335
36.16866 330
36.18878 332
36.20889 325
36.229 389
36.24912 369
36.26923 424
36.28934 481
36.30946 553
36.32957 587
36.34968 726
36.3698 855
36.38991 1027
36.41003 1208
36.43014 1512
36.45025 1788
36.47037 2063
36.49048 2172
36.51059 2205
36.53071 1948
36.55082 1704
36.57094 1454
36.59105 1281
36.61116 1089
36.63128 879
36.65139 672
36.6715 550
36.69162 431
36.71173 434
36.73184 372
36.75196 367
36.77207 332
36.79219 318
36.8123 332
36.83241 302
36.85253 301
36.87264 331
36.89275 297
36.91287 306
36.93298 294
36.9531 328
36.97321 305
36.99332 289
37.01344 303
37.03355 311
37.05366 332
37.07378 319
37.09389 278
37.11401 306
37.13412 309
37.15423 317
37.17435 297
37.19446 293
37.21457 282
37.23469 270
37.2548 307
37.27491 296
37.29503 294
37.31514 282
37.33526 288
37.35537 310
37.37548 281
37.3956 291
37.41571 289
37.43582 292
37.45594 277
37.47605 281
37.49617 270
37.51628 263
37.53639 303
37.55651 287
37.57662 318
37.59673 283
37.61685 277
37.63696 297
37.65708 305
37.67719 319
37.6973 312
37.71742 313
37.73753 300
37.75764 293
37.77776 304
37.79787 292
37.81798 273
37.8381 278
37.85821 254
37.87833 280
37.89844 301
37.91855 264
37.93867 277
37.95878 275
37.97889 307
37.99901 273
38.01912 252
38.03924 258
38.05935 270
38.07946 244
38.09958 253
38.11969 252
38.1398 271
38.15992 292
38.18003 283
38.20015 267
38.22026 273
38.24037 247
38.26049 247
38.2806 277
38.30071 292
38.32083 269
38.34094 280
38.36105 269
38.38117 279
38.40128 263
38.4214 238
38.44151 276
38.46162 280
38.48174 255
38.50185 268
38.52196 263
38.54208 248
38.56219 259
38.58231 262
38.60242 272
38.62253 276
38.64265 260
38.66276 272
38.68287 229
38.70299 265
38.7231 264
38.74321 233
38.76333 253
38.78344 267
38.80356 227
38.82367 251
38.84378 253
38.8639 251
38.88401 287
38.90412 250
38.92424 243
38.94435 256
38.96447 269
38.98458 261
39.00469 256
39.02481 261
39.04492 315
39.06503 293
39.08515 260
39.10526 351
39.12538 328
39.14549 341
39.1656 364
39.18572 370
39.20583 356
39.22594 438
39.24606 531
39.26617 584
39.28628 737
39.3064 842
39.32651 1000
39.34663 1336
39.36674 1517
39.38685 1728
39.40697 1908
39.42708 1950
39.44719 1760
39.46731 1577
39.48742 1338
39.50754 1198
39.52765 1091
39.54776 891
39.56788 758
39.58799 589
39.6081 457
39.62822 406
39.64833 353
39.66845 327
39.68856 325
39.70867 320
39.72879 308
39.7489 273
39.76901 283
39.78913 305
39.80924 294
39.82935 274
39.84947 269
39.86958 283
39.8897 274
39.90981 279
39.92992 308
39.95004 313
39.97015 303
39.99026 348
40.01038 313
40.03049 380
40.05061 344
40.07072 424
40.09083 440
40.11095 477
40.13106 555
40.15117 657
40.17129 790
40.1914 889
40.21152 1035
40.23163 1048
40.25174 1015
40.27186 1027
40.29197 874
40.31208 744
40.3322 701
40.35231 653
40.37242 597
40.39254 501
40.41265 422
40.43277 319
40.45288 328
40.47299 276
40.49311 296
40.51322 299
40.53333 255
40.55345 263
40.57356 281
40.59368 278
40.61379 283
40.6339 261
40.65402 240
40.67413 250
40.69424 226
40.71436 252
40.73447 264
40.75458 250
40.7747 253
40.79481 272
40.81493 258
40.83504 266
40.85515 275
40.87527 235
40.89538 280
40.91549 273
40.93561 245
40.95572 268
40.97584 232
40.99595 243
41.01606 238
41.03618 225
41.05629 250
41.0764 246
41.09652 233
41.11663 255
41.13675 258
41.15686 261
41.17697 246
41.19709 224
41.2172 245
41.23731 233
41.25743 255
41.27754 253
41.29765 237
41.31777 260
41.33788 241
41.358 256
41.37811 245
41.39822 265
41.41834 230
41.43845 237
41.45856 257
41.47868 228
41.49879 232
41.51891 261
41.53902 252
41.55913 254
41.57925 248
41.59936 257
41.61947 273
41.63959 252
41.6597 264
41.67982 251
41.69993 257
41.72004 247
41.74016 242
41.76027 244
41.78038 252
41.8005 220
41.82061 247
41.84072 262
41.86084 265
41.88095 247
41.90107 278
41.92118 276
41.94129 259
41.96141 260
41.98152 250
42.00163 278
42.02175 287
42.04186 283
42.06198 299
42.08209 319
42.1022 306
42.12232 300
42.14243 346
42.16254 367
42.18266 373
42.20277 389
42.22289 473
42.243 504
42.26311 585
42.28323 661
42.30334 822
42.32345 940
42.34357 1114
42.36368 1326
42.38379 1385
42.40391 1431
42.42402 1419
42.44414 1237
42.46425 1115
42.48436 931
42.50448 907
42.52459 824
42.5447 642
42.56482 565
42.58493 415
42.60505 328
42.62516 302
42.64527 295
42.66539 278
42.6855 278
42.70561 265
42.72573 273
42.74584 236
42.76595 246
42.78607 217
42.80618 231
42.8263 219
42.84641 201
42.86652 260
42.88664 228
42.90675 228
42.92686 230
42.94698 181
42.96709 224
42.98721 233
43.00732 215
43.02743 205
43.04755 244
43.06766 239
43.08777 206
43.10789 208
43.128 197
43.14812 204
43.16823 211
43.18834 210
43.20846 206
43.22857 215
43.24868 207
43.2688 210
43.28891 200
43.30902 206
43.32914 218
43.34925 230
43.36937 230
43.38948 229
43.40959 206
43.42971 221
43.44982 218
43.46993 211
43.49005 224
43.51016 217
43.53028 185
43.55039 200
43.5705 220
43.59062 209
43.61073 191
43.63084 233
43.65096 222
43.67107 205
43.69119 207
43.7113 214
43.73141 197
43.75153 203
43.77164 209
43.79175 209
43.81187 215
43.83198 225
43.85209 194
43.87221 205
43.89232 201
43.91244 195
43.93255 191
43.95266 217
43.97278 200
43.99289 203
44.013 216
44.03312 215
44.05323 207
44.07335 198
44.09346 195
44.11357 205
44.13369 208
44.1538 221
44.17391 202
44.19403 206
44.21414 225
44.23426 205
44.25437 211
44.27448 226
44.2946 195
44.31471 188
44.33482 190
44.35494 186
44.37505 234
44.39516 218
44.41528 201
44.43539 202
44.45551 216
44.47562 210
44.49573 214
44.51585 186
44.53596 205
44.55607 221
44.57619 214
44.5963 205
44.61642 198
44.63653 222
44.65664 215
44.67676 221
44.69687 218
44.71698 205
44.7371 209
44.75721 220
44.77732 204
44.79744 204
44.81755 230
44.83767 227
44.85778 219
44.87789 201
44.89801 221
44.91812 208
44.93823 209
44.95835 208
44.97846 226
44.99858 233
45.01869 234
45.0388 209
45.05892 207
45.07903 202
45.09914 236
45.11926 231
45.13937 219
45.15949 213
45.1796 235
45.19971 226
45.21983 236
45.23994 233
45.26005 212
45.28017 230
45.30028 230
45.32039 248
45.34051 289
45.36062 240
45.38074 266
45.40085 260
45.42096 283
45.44108 239
45.46119 292
45.4813 301
45.50142 291
45.52153 314
45.54165 301
45.56176 364
45.58187 411
45.60199 500
45.6221 540
45.64221 657
45.66233 697
45.68244 859
45.70256 888
45.72267 989
45.74278 985
45.7629 954
45.78301 875
45.80312 784
45.82324 683
45.84335 646
45.86346 626
45.88358 588
45.90369 473
45.92381 415
45.94392 338
45.96403 290
45.98415 233
46.00426 239
46.02437 256
46.04449 219
46.0646 237
46.08472 237
46.10483 230
46.12494 203
46.14506 221
46.16517 247
46.18528 220
46.2054 201
46.22551 206
46.24563 203
46.26574 238
46.28585 222
46.30597 219
46.32608 215
46.34619 197
46.36631 212
46.38642 209
46.40653 201
46.42665 206
46.44676 194
46.46688 194
46.48699 212
46.5071 203
46.52722 197
46.54733 216
46.56744 203
46.58756 209
46.60767 208
46.62779 195
46.6479 189
46.66801 219
46.68813 213
46.70824 195
46.72835 164
46.74847 207
46.76858 209
46.78869 200
46.80881 216
46.82892 204
46.84904 208
46.86915 193
46.88926 188
46.90938 168
46.92949 186
46.9496 201
46.96972 181
46.98983 184
47.00995 193
47.03006 230
47.05017 201
47.07029 202
47.0904 194
47.11051 214
47.13063 234
47.15074 184
47.17086 203
47.19097 187
47.21108 197
47.2312 210
47.25131 179
47.27142 208
47.29154 185
47.31165 193
47.33176 202
47.35188 201
47.37199 194
47.39211 169
47.41222 210
47.43233 210
47.45245 176
47.47256 179
47.49267 199
47.51279 205
47.5329 188
47.55302 183
47.57313 198
47.59324 215
47.61336 219
47.63347 199
47.65358 197
47.6737 187
47.69381 202
47.71393 201
47.73404 205
47.75415 168
47.77427 192
47.79438 208
47.81449 218
47.83461 206
47.85472 169
47.87483 172
47.89495 193
47.91506 220
47.93518 219
47.95529 194
47.9754 212
47.99552 213
48.01563 200
48.03574 205
48.05586 209
48.07597 216
48.09609 229
48.1162 198
48.13631 198
48.15643 181
48.17654 173
48.19665 182
48.21677 198
48.23688 192
48.257 189
48.27711 184
48.29722 197
48.31734 216
48.33745 220
48.35756 209
48.37768 178
48.39779 206
48.4179 198
48.43802 197
48.45813 216
48.47825 190
48.49836 207
48.51847 206
48.53859 201
48.5587 197
48.57881 184
48.59893 206
48.61904 202
48.63916 217
48.65927 212
48.67938 201
48.6995 186
48.71961 207
48.73972 229
48.75984 214
48.77995 181
48.80006 188
48.82018 209
48.84029 200
48.86041 195
48.88052 189
48.90063 208
48.92075 202
48.94086 220
48.96097 193
48.98109 178
49.0012 185
49.02132 225
49.04143 182
49.06154 209
49.08166 213
49.10177 199
49.12188 178
49.142 216
49.16211 205
49.18223 206
49.20234 216
49.22245 210
49.24257 230
49.26268 195
49.28279 228
49.30291 219
49.32302 204
49.34313 191
49.36325 220
49.38336 227
49.40348 240
49.42359 218
49.4437 252
49.46382 236
49.48393 252
49.50404 229
49.52416 243
49.54427 248
49.56439 242
49.5845 247
49.60461 258
49.62473 256
49.64484 265
49.66495 319
49.68507 317
49.70518 279
49.7253 309
49.74541 344
49.76552 348
49.78564 408
49.80575 389
49.82586 438
49.84598 534
49.86609 608
49.8862 604
49.90632 808
49.92643 927
49.94655 1185
49.96666 1358
49.98677 1608
50.00689 1972
50.027 2456
50.04711 2757
50.06723 2835
50.08734 2879
50.10746 2720
50.12757 2432
50.14768 2127
50.1678 1814
50.18791 1687
50.20802 1560
50.22814 1501
50.24825 1259
50.26837 968
50.28848 736
50.30859 572
50.32871 473
50.34882 370
50.36893 360
50.38905 321
50.40916 298
50.42927 263
50.44939 256
50.4695 299
50.48962 284
50.50973 282
50.52984 281
50.54996 301
50.57007 286
50.59018 279
50.6103 261
50.63041 277
50.65053 271
50.67064 249
50.69075 252
50.71087 220
50.73098 216
50.75109 239
50.77121 226
50.79132 200
50.81143 210
50.83155 210
50.85166 206
50.87178 240
50.89189 184
50.912 201
50.93212 191
50.95223 227
50.97234 200
50.99246 208
51.01257 198
51.03269 199
51.0528 200
51.07291 190
51.09303 194
51.11314 178
51.13325 196
51.15337 188
51.17348 208
51.1936 176
51.21371 178
51.23382 211
51.25394 206
51.27405 177
51.29416 190
51.31428 192
51.33439 193
51.3545 210
51.37462 171
51.39473 180
51.41485 177
51.43496 171
51.45507 190
51.47519 214
51.4953 174
51.51541 199
51.53553 191
51.55564 197
51.57576 198
51.59587 180
51.61598 177
51.6361 175
51.65621 200
51.67632 163
51.69644 161
51.71655 177
51.73667 197
51.75678 187
51.77689 195
51.79701 195
51.81712 187
51.83723 158
51.85735 192
51.87746 174
51.89757 178
51.91769 175
51.9378 192
51.95792 200
51.97803 186
51.99814 166
52.01826 220
52.03837 170
52.05848 193
52.0786 183
52.09871 202
52.11883 177
52.13894 186
52.15905 180
52.17917 185
52.19928 193
52.21939 197
52.23951 190
52.25962 164
52.27974 190
52.29985 192
52.31996 160
52.34008 154
52.36019 187
52.3803 190
52.40042 170
52.42053 195
52.44064 163
52.46076 190
52.48087 185
52.50099 190
52.5211 165
52.54121 178
52.56133 171
52.58144 189
52.60155 183
52.62167 178
52.64178 194
52.6619 158
52.68201 180
52.70212 202
52.72224 194
52.74235 187
52.76246 201
52.78258 193
52.80269 182
52.8228 198
52.84292 183
52.86303 211
52.88315 191
52.90326 214
52.92337 177
52.94349 196
52.9636 212
52.98371 196
53.00383 187
53.02394 184
53.04406 166
53.06417 187
53.08428 198
53.1044 190
53.12451 193
53.14462 204
53.16474 214
53.18485 219
53.20497 212
53.22508 236
53.24519 222
53.26531 202
53.28542 242
53.30553 223
53.32565 220
53.34576 231
53.36587 220
53.38599 191
53.4061 219
53.42622 229
53.44633 220
53.46644 271
53.48656 208
53.50667 236
53.52678 240
53.5469 253
53.56701 243
53.58713 242
53.60724 240
53.62735 215
53.64747 219
53.66758 250
53.68769 227
53.70781 205
53.72792 238
53.74804 241
53.76815 257
53.78826 250
53.80838 248
53.82849 236
53.8486 238
53.86872 245
53.88883 232
53.90894 236
53.92906 222
53.94917 269
53.96929 235
53.9894 272
54.00951 240
54.02963 208
54.04974 255
54.06985 245
54.08997 229
54.11008 261
54.1302 221
54.15031 236
54.17042 235
54.19054 259
54.21065 233
54.23076 252
54.25088 230
54.27099 251
54.29111 229
54.31122 217
54.33133 232
54.35145 273
54.37156 247
54.39167 229
54.41179 254
54.4319 262
54.45201 269
54.47213 276
54.49224 264
54.51236 283
54.53247 289
54.55258 274
54.5727 331
54.59281 327
54.61292 412
54.63304 377
54.65315 465
54.67327 511
54.69338 553
54.71349 666
54.73361 697
54.75372 776
54.77383 884
54.79395 988
54.81406 1010
54.83417 958
54.85429 857
54.8744 781
54.89452 677
54.91463 694
54.93474 637
54.95486 636
54.97497 580
54.99508 583
55.0152 471
55.03531 439
55.05543 403
55.07554 381
55.09565 378
55.11577 362
55.13588 353
55.15599 419
55.17611 433
55.19622 457
55.21634 523
55.23645 588
55.25656 580
55.27668 595
55.29679 516
55.3169 474
55.33702 471
55.35713 422
55.37724 421
55.39736 407
55.41747 416
55.43759 386
55.4577 351
55.47781 333
55.49793 293
55.51804 254
55.53815 247
55.55827 267
55.57838 256
55.5985 215
55.61861 260
55.63872 257
55.65884 256
55.67895 242
55.69906 248
55.71918 251
55.73929 203
55.75941 226
55.77952 239
55.79963 210
55.81975 263
55.83986 217
55.85997 227
55.88009 211
55.9002 220
55.92031 194
55.94043 215
55.96054 226
55.98066 220
56.00077 225
56.02088 234
56.041 207
56.06111 213
56.08122 222
56.10134 226
56.12145 199
56.14157 190
56.16168 205
56.18179 218
56.20191 208
56.22202 209
56.24213 214
56.26225 191
56.28236 211
56.30248 192
56.32259 194
56.3427 183
56.36282 211
56.38293 212
56.40304 224
56.42316 220
56.44327 213
56.46338 219
56.4835 198
56.50361 216
56.52373 210
56.54384 206
56.56395 203
56.58407 203
56.60418 224
56.62429 215
56.64441 190
56.66452 184
56.68464 199
56.70475 181
56.72486 190
56.74498 198
56.76509 184
56.7852 218
56.80532 200
56.82543 170
56.84554 184
56.86566 201
56.88577 202
56.90589 187
56.926 173
56.94611 186
56.96623 197
56.98634 201
57.00645 191
57.02657 207
57.04668 213
57.0668 212
57.08691 229
57.10702 206
57.12714 216
57.14725 211
57.16736 230
57.18748 218
57.20759 238
57.22771 208
57.24782 234
57.26793 215
57.28805 241
57.30816 213
57.32827 214
57.34839 199
57.3685 219
57.38861 215
57.40873 185
57.42884 191
57.44896 214
57.46907 186
57.48918 211
57.5093 202
57.52941 230
57.54952 199
57.56964 184
57.58975 212
57.60987 200
57.62998 199
57.65009 187
57.67021 185
57.69032 203
57.71043 203
57.73055 193
57.75066 203
57.77078 217
57.79089 204
57.811 182
57.83112 207
57.85123 190
57.87134 196
57.89146 189
57.91157 204
57.93168 187
57.9518 205
57.97191 187
57.99203 197
58.01214 178
58.03225 212
58.05237 179
58.07248 181
58.09259 203
58.11271 187
58.13282 195
58.15294 200
58.17305 192
58.19316 159
58.21328 186
58.23339 200
58.2535 204
58.27362 176
58.29373 175
58.31385 201
58.33396 177
58.35407 203
58.37419 196
58.3943 178
58.41441 191
58.43453 171
58.45464 204
58.47475 201
58.49487 179
58.51498 168
58.5351 178
58.55521 194
58.57532 189
58.59544 196
58.61555 173
58.63566 186
58.65578 193
58.67589 187
58.69601 175
58.71612 202
58.73623 210
58.75635 210
58.77646 208
58.79657 194
58.81669 195
58.8368 185
58.85691 203
58.87703 189
58.89714 184
58.91726 203
58.93737 203
58.95748 204
58.9776 164
58.99771 194
59.01782 195
59.03794 203
59.05805 238
59.07817 196
59.09828 184
59.11839 192
59.13851 182
59.15862 196
59.17873 189
59.19885 204
59.21896 207
59.23908 219
59.25919 209
59.2793 203
59.29942 221
59.31953 219
59.33964 220
59.35976 239
59.37987 234
59.39998 252
59.4201 228
59.44021 235
59.46033 273
59.48044 243
59.50055 278
59.52067 287
59.54078 316
59.56089 305
59.58101 325
59.60112 360
59.62124 376
59.64135 402
59.66146 462
59.68158 495
59.70169 571
59.7218 676
59.74192 737
59.76203 877
59.78215 967
59.80226 1195
59.82237 1485
59.84249 1538
59.8626 1680
59.88271 1843
59.90283 1795
59.92294 1630
59.94305 1473
59.96317 1235
59.98328 1132
60.0034 1077
60.02351 1094
60.04362 998
60.06374 982
60.08385 895
60.10396 742
60.12408 615
60.14419 488
60.16431 395
60.18442 365
60.20453 291
60.22465 265
60.24476 290
60.26487 263
60.28499 236
60.3051 262
60.32522 239
60.34533 220
60.36544 242
60.38556 211
60.40567 237
60.42578 205
60.4459 250
60.46601 193
60.48612 210
60.50624 214
60.52635 201
60.54647 178
60.56658 211
60.58669 200
60.60681 202
60.62692 205
60.64703 202
60.66715 204
60.68726 209
60.70738 220
60.72749 190
60.7476 205
60.76772 218
60.78783 207
60.80794 212
60.82806 196
60.84817 214
60.86828 200
60.8884 195
60.90851 202
60.92863 202
60.94874 208
60.96885 174
60.98897 177
61.00908 193
61.02919 195
61.04931 203
61.06942 180
61.08954 183
61.10965 195
61.12976 192
61.14988 190
61.16999 193
61.1901 172
61.21022 182
61.23033 206
61.25045 192
61.27056 229
61.29067 206
61.31079 217
61.3309 209
61.35101 199
61.37113 198
61.39124 227
61.41135 207
61.43147 219
61.45158 205
61.4717 226
61.49181 247
61.51192 230
61.53204 253
61.55215 245
61.57226 263
61.59238 242
61.61249 256
61.63261 275
61.65272 267
61.67283 277
61.69295 253
61.71306 289
61.73317 243
61.75329 247
61.7734 255
61.79352 264
61.81363 252
61.83374 268
61.85386 265
61.87397 258
61.89408 230
61.9142 255
61.93431 233
61.95442 245
61.97454 239
61.99465 239
62.01477 235
62.03488 243
62.05499 211
62.07511 256
62.09522 243
62.11533 251
62.13545 255
62.15556 228
62.17568 213
62.19579 227
62.2159 227
62.23602 231
62.25613 224
62.27624 216
62.29636 211
62.31647 217
62.33659 212
62.3567 208
62.37681 198
62.39693 226
62.41704 219
62.43715 226
62.45727 236
62.47738 208
62.49749 223
62.51761 192
62.53772 215
62.55784 209
62.57795 194
62.59806 208
62.61818 199
62.63829 190
62.6584 187
62.67852 189
62.69863 209
62.71875 195
62.73886 209
62.75897 204
62.77909 165
62.7992 183
62.81931 182
62.83943 193
62.85954 187
62.87965 184
62.89977 168
62.91988 162
62.94 179
62.96011 180
62.98022 187
63.00034 186
63.02045 183
63.04056 173
63.06068 199
63.08079 177
63.10091 179
63.12102 180
63.14113 193
63.16125 166
63.18136 187
63.20147 169
63.22159 162
63.2417 159
63.26182 177
63.28193 203
63.30204 199
63.32216 155
63.34227 172
63.36238 178
63.3825 161
63.40261 183
63.42272 187
63.44284 196
63.46295 196
63.48307 184
63.50318 206
63.52329 186
63.54341 168
63.56352 200
63.58363 185
63.60375 198
63.62386 172
63.64398 199
63.66409 209
63.6842 234
63.70432 212
63.72443 239
63.74454 220
63.76466 235
63.78477 237
63.80489 269
63.825 288
63.84511 315
63.86523 339
63.88534 368
63.90545 388
63.92557 425
63.94568 439
63.96579 459
63.98591 451
64.00602 385
64.02614 415
64.04625 349
64.06636 339
64.08648 368
64.10659 376
64.1267 353
64.14682 337
64.16693 342
64.18705 265
64.20716 264
64.22727 230
64.24739 195
64.2675 210
64.28761 195
64.30773 201
64.32784 167
64.34796 190
64.36807 185
64.38818 189
64.4083 178
64.42841 186
64.44852 186
64.46864 180
64.48875 176
64.50886 178
64.52898 192
64.54909 186
64.56921 150
64.58932 170
64.60943 163
64.62955 207
64.64966 187
64.66977 167
64.68989 168
64.71 161
64.73012 157
64.75023 149
64.77034 146
64.79046 175
64.81057 185
64.83068 185
64.8508 173
64.87091 152
64.89102 179
64.91114 178
64.93125 168
64.95137 160
64.97148 199
64.99159 175
65.01171 176
65.03182 157
65.05193 161
65.07205 186
65.09216 156
65.11228 184
65.13239 164
65.1525 182
65.17262 187
65.19273 198
65.21284 180
65.23296 201
65.25307 180
65.27319 157
65.2933 170
65.31341 147
65.33353 172
65.35364 183
65.37375 178
65.39387 163
65.41398 195
65.43409 183
65.45421 194
65.47432 196
65.49444 193
65.51455 179
65.53466 191
65.55478 195
65.57489 200
65.595 204
65.61512 211
65.63523 232
65.65535 219
65.67546 255
65.69557 246
65.71569 251
65.7358 248
65.75591 237
65.77603 226
65.79614 215
65.81626 226
65.83637 227
65.85648 235
65.8766 222
65.89671 210
65.91682 194
65.93694 216
65.95705 208
65.97716 182
65.99728 194
66.01739 166
66.03751 162
66.05762 164
66.07773 193
66.09785 172
66.11796 154
66.13807 177
66.15819 157
66.1783 159
66.19842 166
66.21853 166
66.23864 160
66.25876 158
66.27887 185
66.29898 187
66.3191 189
66.33921 183
66.35933 168
66.37944 169
66.39955 182
66.41967 161
66.43978 182
66.45989 172
66.48001 194
66.50012 171
66.52023 174
66.54035 205
66.56046 152
66.58058 177
66.60069 161
66.6208 185
66.64092 179
66.66103 176
66.68114 193
66.70126 159
66.72137 184
66.74149 186
66.7616 202
66.78171 179
66.80183 205
66.82194 196
66.84205 197
66.86217 182
66.88228 181
66.90239 182
66.92251 166
66.94262 172
66.96274 180
66.98285 186
67.00296 174
67.02308 206
67.04319 186
67.0633 195
67.08342 188
67.10353 184
67.12365 212
67.14376 192
67.16387 223
67.18399 232
67.2041 191
67.22421 186
67.24433 238
67.26444 236
67.28456 234
67.30467 251
67.32478 248
67.3449 261
67.36501 266
67.38512 276
67.40524 333
67.42535 318
67.44546 343
67.46558 440
67.48569 424
67.50581 464
67.52592 525
67.54603 624
67.56615 665
67.58626 771
67.60637 863
67.62649 967
67.6466 1046
67.66672 1025
67.68683 1033
67.70694 1051
67.72706 926
67.74717 821
67.76728 796
67.7874 815
67.80751 753
67.82763 812
67.84774 814
67.86785 895
67.88797 849
67.90808 885
67.92819 845
67.94831 895
67.96842 1002
67.98853 1064
68.00865 1180
68.02876 1345
68.04888 1362
68.06899 1502
68.0891 1410
68.10922 1431
68.12933 1331
68.14944 1290
68.16956 1271
68.18967 1281
68.20979 1233
68.2299 1301
68.25001 1300
68.27013 1313
68.29024 1135
68.31035 967
68.33047 847
68.35058 696
68.3707 659
68.39081 616
68.41092 548
68.43104 552
68.45115 504
68.47126 519
68.49138 431
68.51149 333
68.5316 373
68.55172 273
68.57183 268
68.59195 252
68.61206 248
68.63217 242
68.65229 219
68.6724 199
68.69251 201
68.71263 200
68.73274 192
68.75286 193
68.77297 195
68.79308 234
68.8132 190
68.83331 183
68.85342 194
68.87354 229
68.89365 194
68.91376 177
68.93388 185
68.95399 184
68.97411 183
68.99422 173
69.01433 199
69.03445 206
69.05456 186
69.07467 192
69.09479 183
69.1149 159
69.13502 198
69.15513 198
69.17524 192
69.19536 172
69.21547 184
69.23558 199
69.2557 172
69.27581 192
69.29593 164
69.31604 175
69.33615 196
69.35627 190
69.37638 189
69.39649 192
69.41661 163
69.43672 179
69.45683 176
69.47695 166
69.49706 178
69.51718 182
69.53729 169
69.5574 177
69.57752 160
69.59763 175
69.61774 179
69.63786 166
69.65797 169
69.67809 181
69.6982 181
69.71831 192
69.73843 170
69.75854 169
69.77865 159
69.79877 172
69.81888 176
69.839 173
69.85911 177
69.87922 171
69.89934 198
69.91945 175
69.93956 192
69.95968 180
69.97979 159
69.9999 183
70.02002 195
70.04013 151
70.06025 175
70.08036 175
70.10047 176
70.12059 169
70.1407 182
70.16081 164
70.18093 160
70.20104 162
70.22116 180
70.24127 159
70.26138 169
70.2815 161
70.30161 185
70.32172 142
70.34184 164
70.36195 174
70.38207 186
70.40218 185
70.42229 159
70.44241 169
70.46252 168
70.48263 143
70.50275 153
70.52286 167
70.54297 170
70.56309 155
70.5832 179
70.60332 173
70.62343 170
70.64354 167
70.66366 158
70.68377 158
70.70388 180
70.724 158
70.74411 169
70.76423 160
70.78434 168
70.80445 140
70.82457 176
70.84468 142
70.86479 164
70.88491 183
70.90502 153
70.92513 154
70.94525 158
70.96536 153
70.98548 161
71.00559 155
71.0257 144
71.04582 158
71.06593 162
71.08604 136
71.10616 150
71.12627 168
71.14639 168
71.1665 166
71.18661 150
71.20673 167
71.22684 150
71.24695 168
71.26707 171
71.28718 152
71.3073 177
71.32741 150
71.34752 171
71.36764 167
71.38775 157
71.40786 165
71.42798 144
71.44809 154
71.4682 144
71.48832 155
71.50843 156
71.52855 146
71.54866 155
71.56877 143
71.58889 143
71.609 153
71.62911 147
71.64923 170
71.66934 158
71.68946 171
71.70957 173
71.72968 157
71.7498 156
71.76991 165
71.79002 158
71.81014 141
71.83025 160
71.85037 157
71.87048 180
71.89059 150
71.91071 173
71.93082 162
71.95093 156
71.97105 167
71.99116 163
72.01127 148
72.03139 168
72.0515 142
72.07162 163
72.09173 172
72.11184 167
72.13196 164
72.15207 158
72.17218 158
72.1923 171
72.21241 169
72.23253 169
72.25264 165
72.27275 161
72.29287 150
72.31298 163
72.33309 179
72.35321 169
72.37332 165
72.39344 163
72.41355 150
72.43366 161
72.45378 173
72.47389 181
72.494 167
72.51412 184
72.53423 188
72.55434 172
72.57446 176
72.59457 183
72.61469 170
72.6348 157
72.65491 168
72.67503 173
72.69514 184
72.71525 182
72.73537 201
72.75548 174
72.7756 180
72.79571 180
72.81582 181
72.83594 199
72.85605 172
72.87616 164
72.89628 177
72.91639 186
72.9365 203
72.95662 204
72.97673 196
72.99685 216
73.01696 196
73.03707 212
73.05719 198
73.0773 205
73.09741 202
73.11753 215
73.13764 200
73.15776 235
73.17787 247
73.19798 240
73.2181 241
73.23821 289
73.25832 325
73.27844 295
73.29855 360
73.31867 377
73.33878 378
73.35889 475
73.37901 420
73.39912 437
73.41923 428
73.43935 439
73.45946 402
73.47957 354
73.49969 300
73.5198 284
73.53992 346
73.56003 303
73.58014 317
73.60026 303
73.62037 284
73.64048 295
73.6606 284
73.68071 256
73.70083 194
73.72094 210
73.74105 189
73.76117 191
73.78128 190
73.80139 185
73.82151 166
73.84162 180
73.86174 156
73.88185 156
73.90196 154
73.92208 178
73.94219 157
73.9623 165
73.98242 159
74.00253 168
74.02264 147
74.04276 187
74.06287 155
74.08299 174
74.1031 166
74.12321 161
74.14333 160
74.16344 161
74.18355 158
74.20367 167
74.22378 160
74.2439 166
74.26401 164
74.28412 171
74.30424 171
74.32435 173
74.34446 184
74.36458 170
74.38469 155
74.40481 180
74.42492 144
74.44503 169
74.46515 158
74.48526 148
74.50537 150
74.52549 143
74.5456 160
74.56571 146
74.58583 169
74.60594 152
74.62606 158
74.64617 164
74.66628 172
74.6864 154
74.70651 160
74.72662 183
74.74674 173
74.76685 171
74.78697 169
74.80708 150
74.82719 174
74.84731 144
74.86742 174
74.88753 152
74.90765 173
74.92776 149
74.94787 149
74.96799 158
74.9881 171
75.00822 160
