3.00117 19506
3.02128 19103
3.0414 18377
3.06151 18107
3.08162 17443
3.10174 17175
3.12185 16376
3.14197 15718
3.16208 15665
3.18219 15261
3.20231 14817
3.22242 14491
3.24253 14086
3.26265 13619
3.28276 13100
3.30288 12727
3.32299 12483
3.3431 11664
3.36322 11562
3.38333 11077
3.40344 10758
3.42356 10538
3.44367 10163
3.46379 9730
3.4839 9415
3.50401 9283
3.52413 8822
3.54424 8244
3.56435 8381
3.58447 8045
3.60458 7709
3.62469 7284
3.64481 7088
3.66492 6902
3.68504 6580
3.70515 6335
3.72526 6014
3.74538 5823
3.76549 5726
3.7856 5298
3.80572 5061
3.82583 5043
3.84595 4740
3.86606 4502
3.88617 4487
3.90629 4224
3.9264 3957
3.94651 3753
3.96663 3721
3.98674 3535
4.00686 3474
4.02697 3100
4.04708 3011
4.0672 3062
4.08731 2862
4.10742 2782
4.12754 2553
4.14765 2427
4.16776 2428
4.18788 2271
4.20799 2208
4.22811 2078
4.24822 2042
4.26833 1967
4.28845 1877
4.30856 1866
4.32867 1716
4.34879 1685
4.3689 1745
4.38902 1678
4.40913 1595
4.42924 1587
4.44936 1482
4.46947 1424
4.48958 1481
4.5097 1415
4.52981 1342
4.54992 1380
4.57004 1371
4.59015 1299
4.61027 1190
4.63038 1196
4.65049 1177
4.67061 1234
4.69072 1236
4.71083 1079
4.73095 1070
4.75106 1100
4.77118 1026
4.79129 1128
4.8114 977
4.83152 986
4.85163 913
4.87174 959
4.89186 966
4.91197 783
4.93209 873
4.9522 844
4.97231 888
4.99243 864
5.01254 820
5.03265 834
5.05277 770
5.07288 791
5.09299 786
5.11311 696
5.13322 775
5.15334 696
5.17345 725
5.19356 676
5.21368 654
5.23379 674
5.2539 637
5.27402 641
5.29413 673
5.31425 608
5.33436 618
5.35447 628
5.37459 611
5.3947 661
5.41481 544
5.43493 581
5.45504 601
5.47516 610
5.49527 578
5.51538 492
5.5355 518
5.55561 503
5.57572 526
5.59584 500
5.61595 482
5.63606 468
5.65618 492
5.67629 472
5.69641 479
5.71652 451
5.73663 428
5.75675 453
5.77686 418
5.79697 475
5.81709 450
5.8372 465
5.85732 406
5.87743 438
5.89754 436
5.91766 454
5.93777 400
5.95788 434
5.978 386
5.99811 369
6.01823 407
6.03834 389
6.05845 395
6.07857 360
6.09868 378
6.11879 377
6.13891 393
6.15902 380
6.17913 359
6.19925 406
6.21936 373
6.23948 429
6.25959 391
6.2797 340
6.29982 350
6.31993 348
6.34004 352
6.36016 382
6.38027 321
6.40039 306
6.4205 347
6.44061 301
6.46073 336
6.48084 340
6.50095 320
6.52107 304
6.54118 309
6.56129 309
6.58141 310
6.60152 316
6.62164 328
6.64175 279
6.66186 288
6.68198 333
6.70209 302
6.7222 293
6.74232 298
6.76243 305
6.78255 284
6.80266 282
6.82277 278
6.84289 298
6.863 297
6.88311 320
6.90323 290
6.92334 278
6.94346 286
6.96357 293
6.98368 296
7.0038 288
7.02391 295
7.04402 279
7.06414 273
7.08425 241
7.10436 287
7.12448 231
7.14459 304
7.16471 250
7.18482 263
7.20493 252
7.22505 260
7.24516 260
7.26527 264
7.28539 222
7.3055 219
7.32562 251
7.34573 256
7.36584 244
7.38596 235
7.40607 278
7.42618 257
7.4463 272
7.46641 248
7.48653 234
7.50664 264
7.52675 246
7.54687 260
7.56698 281
7.58709 220
7.60721 259
7.62732 247
7.64743 241
7.66755 244
7.68766 256
7.70778 272
7.72789 242
7.748 221
7.76812 237
7.78823 206
7.80834 244
7.82846 220
7.84857 283
7.86869 241
7.8888 260
7.90891 223
7.92903 280
7.94914 228
7.96925 247
7.98937 243
8.00948 235
8.0296 247
8.04971 232
8.06982 248
8.08994 216
8.11005 219
8.13016 217
8.15028 232
8.17039 268
8.1905 259
8.21062 254
8.23073 225
8.25085 229
8.27096 270
8.29107 254
8.31119 252
8.3313 233
8.35141 255
8.37153 242
8.39164 258
8.41176 245
8.43187 235
8.45198 242
8.4721 213
8.49221 242
8.51232 229
8.53244 255
8.55255 227
8.57266 220
8.59278 259
8.61289 218
8.63301 233
8.65312 209
8.67323 228
8.69335 278
8.71346 263
8.73357 247
8.75369 251
8.7738 240
8.79392 234
8.81403 290
8.83414 257
8.85426 257
8.87437 266
8.89448 250
8.9146 251
8.93471 255
8.95483 251
8.97494 239
8.99505 245
9.01517 229
9.03528 223
9.05539 274
9.07551 241
9.09562 253
9.11573 204
9.13585 211
9.15596 250
9.17608 221
9.19619 242
9.2163 244
9.23642 236
9.25653 239
9.27664 228
9.29676 240
9.31687 250
9.33699 245
9.3571 236
9.37721 218
9.39733 240
9.41744 203
9.43755 245
9.45767 231
9.47778 229
9.4979 222
9.51801 266
9.53812 224
9.55824 247
9.57835 275
9.59846 269
9.61858 222
9.63869 236
9.6588 248
9.67892 231
9.69903 241
9.71915 211
9.73926 277
9.75937 247
9.77949 249
9.7996 230
9.81971 237
9.83983 253
9.85994 279
9.88006 241
9.90017 252
9.92028 248
9.9404 217
9.96051 257
9.98062 237
10.00074 238
10.02085 239
10.04097 254
10.06108 238
10.08119 256
10.10131 260
10.12142 220
10.14153 220
10.16165 260
10.18176 245
10.20187 247
10.22199 278
10.2421 245
10.26222 261
10.28233 215
10.30244 246
10.32256 230
10.34267 236
10.36278 266
10.3829 239
10.40301 263
10.42313 243
10.44324 249
10.46335 257
10.48347 217
10.50358 259
10.52369 288
10.54381 270
10.56392 253
10.58403 249
10.60415 245
10.62426 248
10.64438 232
10.66449 233
10.6846 237
10.70472 247
10.72483 226
10.74494 271
10.76506 252
10.78517 257
10.80529 266
10.8254 277
10.84551 226
10.86563 242
10.88574 247
10.90585 257
10.92597 237
10.94608 245
10.9662 224
10.98631 224
11.00642 253
11.02654 231
11.04665 250
11.06676 251
11.08688 202
11.10699 251
11.1271 220
11.14722 230
11.16733 221
11.18745 252
11.20756 283
11.22767 238
11.24779 239
11.2679 235
11.28801 255
11.30813 239
11.32824 224
11.34836 222
11.36847 231
11.38858 255
11.4087 224
11.42881 242
11.44892 285
11.46904 263
11.48915 263
11.50927 253
11.52938 295
11.54949 216
11.56961 256
11.58972 251
11.60983 232
11.62995 256
11.65006 276
11.67017 219
11.69029 259
11.7104 217
11.73052 228
11.75063 233
11.77074 214
11.79086 253
11.81097 241
11.83108 265
11.8512 263
11.87131 278
11.89143 284
11.91154 288
11.93165 258
11.95177 266
11.97188 275
11.99199 258
12.01211 273
12.03222 260
12.05234 278
12.07245 291
12.09256 289
12.11268 289
12.13279 294
12.1529 272
12.17302 280
12.19313 295
12.21324 271
12.23336 313
12.25347 279
12.27359 299
12.2937 298
12.31381 328
12.33393 292
12.35404 313
12.37415 303
12.39427 311
12.41438 300
12.4345 298
12.45461 288
12.47472 265
12.49484 290
12.51495 296
12.53506 255
12.55518 274
12.57529 262
12.5954 257
12.61552 224
12.63563 239
12.65575 215
12.67586 208
12.69597 277
12.71609 231
12.7362 244
12.75631 235
12.77643 229
12.79654 269
12.81666 261
12.83677 240
12.85688 230
12.877 215
12.89711 209
12.91722 231
12.93734 204
12.95745 228
12.97757 216
12.99768 205
13.01779 227
13.03791 216
13.05802 215
13.07813 222
13.09825 217
13.11836 204
13.13847 209
13.15859 194
13.1787 238
13.19882 253
13.21893 221
13.23904 217
13.25916 217
13.27927 210
13.29938 225
13.3195 212
13.33961 208
13.35973 221
13.37984 214
13.39995 238
13.42007 221
13.44018 182
13.46029 203
13.48041 208
13.50052 219
13.52064 206
13.54075 237
13.56086 233
13.58098 183
13.60109 206
13.6212 239
13.64132 233
13.66143 205
13.68154 230
13.70166 252
13.72177 244
13.74189 204
13.762 207
13.78211 194
13.80223 201
13.82234 223
13.84245 183
13.86257 230
13.88268 227
13.9028 205
13.92291 207
13.94302 204
13.96314 234
13.98325 176
14.00336 186
14.02348 210
14.04359 212
14.06371 206
14.08382 202
14.10393 198
14.12405 218
14.14416 197
14.16427 213
14.18439 181
14.2045 182
14.22461 205
14.24473 201
14.26484 201
14.28496 207
14.30507 198
14.32518 217
14.3453 187
14.36541 213
14.38552 216
14.40564 215
14.42575 200
14.44587 189
14.46598 202
14.48609 195
14.50621 205
14.52632 206
14.54643 201
14.56655 217
14.58666 192
14.60677 184
14.62689 207
14.647 189
14.66712 179
14.68723 208
14.70734 179
14.72746 203
14.74757 213
14.76768 201
14.7878 201
14.80791 202
14.82803 189
14.84814 205
14.86825 180
14.88837 209
14.90848 187
14.92859 196
14.94871 212
14.96882 204
14.98894 220
15.00905 203
15.02916 207
15.04928 198
15.06939 183
15.0895 208
15.10962 195
15.12973 199
15.14984 191
15.16996 202
15.19007 192
15.21019 218
15.2303 177
15.25041 151
15.27053 177
15.29064 176
15.31075 201
15.33087 185
15.35098 207
15.3711 192
15.39121 202
15.41132 199
15.43144 194
15.45155 212
15.47166 180
15.49178 182
15.51189 192
15.53201 185
15.55212 191
15.57223 205
15.59235 196
15.61246 200
15.63257 192
15.65269 206
15.6728 211
15.69291 201
15.71303 193
15.73314 196
15.75326 169
15.77337 165
15.79348 188
15.8136 181
15.83371 192
15.85382 196
15.87394 188
15.89405 186
15.91417 204
15.93428 218
15.95439 187
15.97451 161
15.99462 168
16.01473 203
16.03485 197
16.05496 165
16.07508 186
16.09519 176
16.1153 208
16.13542 164
16.15553 179
16.17564 176
16.19576 198
16.21587 199
16.23598 168
16.2561 202
16.27621 188
16.29633 194
16.31644 182
16.33655 221
16.35667 224
16.37678 186
16.39689 214
16.41701 188
16.43712 186
16.45724 180
16.47735 181
16.49746 187
16.51758 183
16.53769 204
16.5578 173
16.57792 205
16.59803 212
16.61814 183
16.63826 218
16.65837 186
16.67849 182
16.6986 200
16.71871 169
16.73883 173
16.75894 200
16.77905 188
16.79917 192
16.81928 193
16.8394 163
16.85951 176
16.87962 174
16.89974 190
16.91985 181
16.93996 178
16.96008 175
16.98019 189
17.00031 164
17.02042 200
17.04053 191
17.06065 185
17.08076 210
17.10087 185
17.12099 194
17.1411 177
17.16121 197
17.18133 165
17.20144 220
17.22156 202
17.24167 195
17.26178 173
17.2819 173
17.30201 171
17.32212 189
17.34224 196
17.36235 174
17.38247 179
17.40258 185
17.42269 173
17.44281 176
17.46292 176
17.48303 210
17.50315 201
17.52326 172
17.54338 206
17.56349 183
17.5836 174
17.60372 198
17.62383 168
17.64394 198
17.66406 178
17.68417 185
17.70428 165
17.7244 180
17.74451 199
17.76463 185
17.78474 171
17.80485 197
17.82497 178
17.84508 211
17.86519 208
17.88531 218
17.90542 170
17.92554 188
17.94565 194
17.96576 167
17.98588 209
18.00599 193
18.0261 177
18.04622 153
18.06633 173
18.08645 187
18.10656 192
18.12667 185
18.14679 206
18.1669 193
18.18701 181
18.20713 172
18.22724 185
18.24735 167
18.26747 177
18.28758 180
18.3077 189
18.32781 201
18.34792 154
18.36804 177
18.38815 172
18.40826 180
18.42838 163
18.44849 173
18.46861 185
18.48872 189
18.50883 171
18.52895 195
18.54906 193
18.56917 200
18.58929 176
18.6094 197
18.62951 214
18.64963 201
18.66974 177
18.68986 177
18.70997 174
18.73008 198
18.7502 177
18.77031 217
18.79042 203
18.81054 223
18.83065 192
18.85077 222
18.87088 200
18.89099 184
18.91111 181
18.93122 198
18.95133 195
18.97145 159
18.99156 186
19.01168 211
19.03179 181
19.0519 187
19.07202 212
19.09213 202
19.11224 221
19.13236 196
19.15247 190
19.17258 222
19.1927 220
19.21281 172
19.23293 219
19.25304 197
19.27315 211
19.29327 204
19.31338 191
19.33349 241
19.35361 198
19.37372 223
19.39384 238
19.41395 222
19.43406 209
19.45418 214
19.47429 225
19.4944 229
19.51452 248
19.53463 255
19.55475 257
19.57486 237
19.59497 273
19.61509 260
19.6352 298
19.65531 278
19.67543 312
19.69554 361
19.71565 297
19.73577 343
19.75588 338
19.776 385
19.79611 442
19.81622 330
19.83634 373
19.85645 415
19.87656 383
19.89668 394
19.91679 398
19.93691 416
19.95702 410
19.97713 394
19.99725 387
20.01736 359
20.03747 342
20.05759 369
20.0777 329
20.09782 379
20.11793 379
20.13804 367
20.15816 374
20.17827 383
20.19838 329
20.2185 347
20.23861 381
20.25872 396
20.27884 381
20.29895 377
20.31907 401
20.33918 400
20.35929 409
20.37941 410
20.39952 429
20.41963 418
20.43975 416
20.45986 433
20.47998 422
20.50009 442
20.5202 476
20.54032 509
20.56043 536
20.58054 609
20.60066 632
20.62077 745
20.64088 836
20.661 984
20.68111 1291
20.70123 1631
20.72134 2198
20.74145 2716
20.76157 3368
20.78168 4442
20.80179 5380
20.82191 5989
20.84202 6827
20.86214 6619
20.88225 6051
20.90236 4901
20.92248 3733
20.94259 2724
20.9627 1855
20.98282 1287
21.00293 987
21.02305 834
21.04316 710
21.06327 583
21.08339 567
21.1035 500
21.12361 492
21.14373 416
21.16384 399
21.18395 388
21.20407 362
21.22418 364
21.2443 347
21.26441 293
21.28452 333
21.30464 315
21.32475 318
21.34486 306
21.36498 341
21.38509 335
21.40521 309
21.42532 331
21.44543 340
21.46555 312
21.48566 322
21.50577 285
21.52589 296
21.546 293
21.56612 279
21.58623 295
21.60634 285
21.62646 282
21.64657 286
21.66668 306
21.6868 281
21.70691 298
21.72702 287
21.74714 295
21.76725 271
21.78737 297
21.80748 329
21.82759 288
21.84771 281
21.86782 265
21.88793 250
21.90805 286
21.92816 302
21.94828 283
21.96839 282
21.9885 287
22.00862 287
22.02873 295
22.04884 269
22.06896 259
22.08907 247
22.10919 260
22.1293 266
22.14941 254
22.16953 283
22.18964 225
22.20975 264
22.22987 267
22.24998 302
22.27009 280
22.29021 272
22.31032 265
22.33044 284
22.35055 276
22.37066 278
22.39078 235
22.41089 271
22.431 257
22.45112 251
22.47123 281
22.49135 249
22.51146 289
22.53157 231
22.55169 256
22.5718 272
22.59191 296
22.61203 250
22.63214 252
22.65225 245
22.67237 258
22.69248 233
22.7126 239
22.73271 248
22.75282 255
22.77294 259
22.79305 255
22.81316 251
22.83328 250
22.85339 254
22.87351 238
22.89362 248
22.91373 247
22.93385 234
22.95396 259
22.97407 258
22.99419 264
23.0143 244
23.03442 257
23.05453 245
23.07464 241
23.09476 221
23.11487 286
23.13498 268
23.1551 271
23.17521 277
23.19532 259
23.21544 277
23.23555 278
23.25567 256
23.27578 247
23.29589 234
23.31601 219
23.33612 260
23.35623 219
23.37635 255
23.39646 252
23.41658 229
23.43669 251
23.4568 244
23.47692 264
23.49703 217
23.51714 252
23.53726 249
23.55737 259
23.57749 263
23.5976 280
23.61771 229
23.63783 228
23.65794 228
23.67805 239
23.69817 245
23.71828 237
23.73839 242
23.75851 258
23.77862 247
23.79874 249
23.81885 279
23.83896 262
23.85908 251
23.87919 294
23.8993 308
23.91942 288
23.93953 305
23.95965 312
23.97976 310
23.99987 345
24.01999 338
24.0401 327
24.06021 272
24.08033 283
24.10044 295
24.12056 283
24.14067 248
24.16078 229
24.1809 229
24.20101 269
24.22112 252
24.24124 258
24.26135 244
24.28146 258
24.30158 226
24.32169 273
24.34181 277
24.36192 252
24.38203 266
24.40215 281
24.42226 250
24.44237 290
24.46249 268
24.4826 297
24.50272 246
24.52283 269
24.54294 264
24.56306 238
24.58317 233
24.60328 251
24.6234 270
24.64351 293
24.66362 315
24.68374 294
24.70385 308
24.72397 303
24.74408 307
24.76419 292
24.78431 287
24.80442 287
24.82453 294
24.84465 292
24.86476 299
24.88488 282
24.90499 292
24.9251 294
24.94522 307
24.96533 278
24.98544 291
25.00556 292
25.02567 318
25.04579 252
25.0659 312
25.08601 258
25.10613 277
25.12624 269
25.14635 269
25.16647 239
25.18658 308
25.20669 268
25.22681 277
25.24692 255
25.26704 256
25.28715 279
25.30726 246
25.32738 297
25.34749 296
25.3676 274
25.38772 255
25.40783 247
25.42795 300
25.44806 293
25.46817 321
25.48829 332
25.5084 318
25.52851 319
25.54863 311
25.56874 342
25.58886 349
25.60897 367
25.62908 327
25.6492 360
25.66931 384
25.68942 397
25.70954 379
25.72965 425
25.74976 410
25.76988 446
25.78999 440
25.81011 479
25.83022 463
25.85033 495
25.87045 490
25.89056 452
25.91067 484
25.93079 491
25.9509 485
25.97102 471
25.99113 512
26.01124 521
26.03136 514
26.05147 537
26.07158 584
26.0917 586
26.11181 622
26.13193 695
26.15204 748
26.17215 720
26.19227 869
26.21238 882
26.23249 987
26.25261 1064
26.27272 1181
26.29283 1308
26.31295 1559
26.33306 1777
26.35318 2053
26.37329 2506
26.3934 3078
26.41352 3833
26.43363 4760
26.45374 6240
26.47386 7824
26.49397 10284
26.51409 13035
26.5342 16075
26.55431 20007
26.57443 24037
26.59454 27467
26.61465 29982
26.63477 30043
26.65488 27420
26.67499 22774
26.69511 18194
26.71522 13995
26.73534 9779
26.75545 6377
26.77556 4240
26.79568 2911
26.81579 2085
26.8359 1646
26.85602 1430
26.87613 1261
26.89625 1110
26.91636 951
26.93647 906
26.95659 795
26.9767 749
26.99681 721
27.01693 631
27.03704 620
27.05716 612
27.07727 561
27.09738 534
27.1175 514
27.13761 527
27.15772 549
27.17784 490
27.19795 488
27.21806 447
27.23818 462
27.25829 461
27.27841 439
27.29852 455
27.31863 466
27.33875 469
27.35886 449
27.37897 466
27.39909 494
27.4192 485
27.43932 488
27.45943 480
27.47954 475
27.49966 524
27.51977 402
27.53988 381
27.56 406
27.58011 376
27.60023 376
27.62034 379
27.64045 385
27.66057 350
27.68068 337
27.70079 323
27.72091 316
27.74102 339
27.76113 365
27.78125 374
27.80136 294
27.82148 310
27.84159 320
27.8617 328
27.88182 328
27.90193 271
27.92204 331
27.94216 313
27.96227 306
27.98239 309
28.0025 311
28.02261 290
28.04273 329
28.06284 296
28.08295 288
28.10307 283
28.12318 295
28.1433 309
28.16341 298
28.18352 287
28.20364 291
28.22375 268
28.24386 293
28.26398 296
28.28409 293
28.3042 282
28.32432 281
28.34443 290
28.36455 281
28.38466 249
28.40477 277
28.42489 272
28.445 265
28.46511 265
28.48523 254
28.50534 255
28.52546 252
28.54557 279
28.56568 243
28.5858 276
28.60591 264
28.62602 250
28.64614 261
28.66625 270
28.68636 261
28.70648 259
28.72659 266
28.74671 295
28.76682 272
28.78693 244
28.80705 267
28.82716 222
28.84727 275
28.86739 270
28.8875 266
28.90762 277
28.92773 229
28.94784 247
28.96796 259
28.98807 233
29.00818 243
29.0283 278
29.04841 231
29.06853 250
29.08864 258
29.10875 253
29.12887 239
29.14898 256
29.16909 227
29.18921 240
29.20932 237
29.22943 227
29.24955 282
29.26966 272
29.28978 246
29.30989 242
29.33 247
29.35012 233
29.37023 301
29.39034 234
29.41046 245
29.43057 228
29.45069 230
29.4708 260
29.49091 240
29.51103 231
29.53114 282
29.55125 217
29.57137 233
29.59148 245
29.6116 229
29.63171 245
29.65182 222
29.67194 231
29.69205 221
29.71216 195
29.73228 216
29.75239 236
29.7725 201
29.79262 267
29.81273 209
29.83285 213
29.85296 241
29.87307 244
29.89319 258
29.9133 216
29.93341 243
29.95353 241
29.97364 232
29.99376 258
30.01387 239
30.03398 226
30.0541 258
30.07421 268
30.09432 223
30.11444 262
30.13455 247
30.15467 248
30.17478 261
30.19489 238
30.21501 219
30.23512 246
30.25523 218
30.27535 222
30.29546 266
30.31557 222
30.33569 201
30.3558 221
30.37592 224
30.39603 235
30.41614 222
30.43626 226
30.45637 239
30.47648 225
30.4966 209
30.51671 204
30.53683 184
30.55694 219
30.57705 250
30.59717 233
30.61728 189
30.63739 194
30.65751 227
30.67762 211
30.69773 224
30.71785 243
30.73796 218
30.75808 221
30.77819 227
30.7983 217
30.81842 224
30.83853 231
30.85864 207
30.87876 211
30.89887 201
30.91899 198
30.9391 225
30.95921 208
30.97933 209
30.99944 206
31.01955 199
31.03967 203
31.05978 227
31.0799 207
31.10001 206
31.12012 209
31.14024 184
31.16035 199
31.18046 203
31.20058 211
31.22069 196
31.2408 210
31.26092 192
31.28103 202
31.30115 205
31.32126 195
31.34137 194
31.36149 175
31.3816 190
31.40171 184
31.42183 187
31.44194 184
31.46206 181
31.48217 180
31.50228 188
31.5224 194
31.54251 201
31.56262 205
31.58274 194
31.60285 212
31.62297 210
31.64308 202
31.66319 184
31.68331 189
31.70342 188
31.72353 207
31.74365 185
31.76376 202
31.78387 166
31.80399 183
31.8241 199
31.84422 181
31.86433 177
31.88444 157
31.90456 195
31.92467 191
31.94478 179
31.9649 211
31.98501 214
32.00513 213
32.02524 167
32.04535 180
32.06547 169
32.08558 192
32.10569 195
32.12581 204
32.14592 155
32.16604 210
32.18615 217
32.20626 212
32.22638 201
32.24649 185
32.2666 178
32.28672 202
32.30683 165
32.32694 185
32.34706 189
32.36717 227
32.38729 177
32.4074 207
32.42751 186
32.44763 182
32.46774 158
32.48785 198
32.50797 189
32.52808 174
32.5482 191
32.56831 189
32.58842 207
32.60854 178
32.62865 196
32.64876 173
32.66888 167
32.68899 156
32.7091 158
32.72922 192
32.74933 168
32.76945 204
32.78956 179
32.80967 182
32.82979 162
32.8499 182
32.87001 150
32.89013 169
32.91024 159
32.93036 207
32.95047 154
32.97058 194
32.9907 175
33.01081 174
33.03092 161
33.05104 171
33.07115 162
33.09127 186
33.11138 173
33.13149 169
33.15161 174
33.17172 182
33.19183 171
33.21195 172
33.23206 165
33.25217 161
33.27229 159
33.2924 156
33.31252 164
33.33263 169
33.35274 193
33.37286 158
33.39297 157
33.41308 145
33.4332 164
33.45331 198
33.47343 163
33.49354 140
33.51365 149
33.53377 162
33.55388 153
33.57399 186
33.59411 167
33.61422 158
33.63434 165
33.65445 155
33.67456 154
33.69468 170
33.71479 157
33.7349 161
33.75502 184
33.77513 177
33.79524 168
33.81536 178
33.83547 157
33.85559 149
33.8757 183
33.89581 175
33.91593 175
33.93604 174
33.95615 172
33.97627 174
33.99638 155
34.0165 187
34.03661 198
34.05672 175
34.07684 191
34.09695 198
34.11706 189
34.13718 162
34.15729 195
34.17741 192
34.19752 173
34.21763 202
34.23775 206
34.25786 188
34.27797 183
34.29809 173
34.3182 167
34.33831 197
34.35843 168
34.37854 202
34.39866 182
34.41877 196
34.43888 187
34.459 187
34.47911 206
34.49922 216
34.51934 228
34.53945 212
34.55957 222
34.57968 239
34.59979 179
34.61991 221
34.64002 233
34.66013 186
34.68025 242
34.70036 251
34.72047 238
34.74059 241
34.7607 262
34.78082 223
34.80093 268
34.82104 258
34.84116 264
34.86127 272
34.88138 247
34.9015 282
34.92161 285
34.94173 256
34.96184 274
34.98195 242
35.00207 236
35.02218 273
35.04229 214
35.06241 249
35.08252 268
35.10264 226
35.12275 257
35.14286 217
35.16298 242
35.18309 222
35.2032 244
35.22332 246
35.24343 236
35.26354 234
35.28366 233
35.30377 294
35.32389 237
35.344 251
35.36411 218
35.38423 257
35.40434 244
35.42445 245
35.44457 224
35.46468 237
35.4848 240
35.50491 242
35.52502 242
35.54514 240
35.56525 261
35.58536 256
35.60548 245
35.62559 281
35.64571 255
35.66582 226
35.68593 235
35.70605 237
35.72616 259
35.74627 232
35.76639 261
35.7865 258
35.80661 238
35.82673 285
35.84684 242
35.86696 241
35.88707 244
35.90718 238
35.9273 248
35.94741 265
35.96752 248
35.98764 263
36.00775 231
36.02787 248
36.04798 235
36.06809 253
36.08821 263
36.10832 277
36.12843 281
36.14855 307
36.16866 317
36.18878 346
36.20889 355
36.229 388
36.24912 401
36.26923 441
36.28934 506
36.30946 548
36.32957 647
36.34968 748
36.3698 884
36.38991 1004
36.41003 1131
36.43014 1375
36.45025 1606
36.47037 1785
36.49048 1962
36.51059 2182
36.53071 2102
36.55082 1894
36.57094 1671
36.59105 1496
36.61116 1292
36.63128 1085
36.65139 833
36.6715 661
36.69162 506
36.71173 404
36.73184 325
36.75196 290
36.77207 328
36.79219 269
36.8123 298
36.83241 224
36.85253 232
36.87264 223
36.89275 232
36.91287 245
36.93298 256
36.9531 229
36.97321 265
36.99332 254
37.01344 194
37.03355 215
37.05366 222
37.07378 209
37.09389 208
37.11401 219
37.13412 229
37.15423 213
37.17435 242
37.19446 218
37.21457 216
37.23469 220
37.2548 213
37.27491 183
37.29503 209
37.31514 200
37.33526 227
37.35537 200
37.37548 206
37.3956 212
37.41571 223
37.43582 204
37.45594 217
37.47605 223
37.49617 212
37.51628 231
37.53639 208
37.55651 206
37.57662 204
37.59673 206
37.61685 183
37.63696 231
37.65708 220
37.67719 213
37.6973 227
37.71742 236
37.73753 212
37.75764 229
37.77776 207
37.79787 216
37.81798 208
37.8381 214
37.85821 201
37.87833 236
37.89844 220
37.91855 223
37.93867 210
37.95878 212
37.97889 193
37.99901 226
38.01912 226
38.03924 204
38.05935 222
38.07946 220
38.09958 237
38.11969 226
38.1398 241
38.15992 208
38.18003 193
38.20015 221
38.22026 223
38.24037 214
38.26049 230
38.2806 235
38.30071 212
38.32083 215
38.34094 199
38.36105 219
38.38117 247
38.40128 209
38.4214 249
38.44151 242
38.46162 219
38.48174 232
38.50185 223
38.52196 257
38.54208 220
38.56219 244
38.58231 194
38.60242 252
38.62253 202
38.64265 233
38.66276 221
38.68287 212
38.70299 219
38.7231 206
38.74321 242
38.76333 204
38.78344 213
38.80356 189
38.82367 222
38.84378 216
38.8639 201
38.88401 223
38.90412 229
38.92424 229
38.94435 253
38.96447 240
38.98458 237
39.00469 247
39.02481 266
39.04492 260
39.06503 269
39.08515 275
39.10526 305
39.12538 349
39.14549 353
39.1656 389
39.18572 438
39.20583 476
39.22594 544
39.24606 584
39.26617 682
39.28628 775
39.3064 913
39.32651 1055
39.34663 1253
39.36674 1375
39.38685 1628
39.40697 1795
39.42708 1876
39.44719 1859
39.46731 1771
39.48742 1664
39.50754 1401
39.52765 1171
39.54776 1083
39.56788 920
39.58799 697
39.6081 529
39.62822 452
39.64833 366
39.66845 297
39.68856 274
39.70867 287
39.72879 274
39.7489 261
39.76901 256
39.78913 236
39.80924 232
39.82935 285
39.84947 245
39.86958 238
39.8897 238
39.90981 251
39.92992 257
39.95004 269
39.97015 274
39.99026 316
40.01038 289
40.03049 330
40.05061 383
40.07072 432
40.09083 436
40.11095 466
40.13106 592
40.15117 634
40.17129 724
40.1914 761
40.21152 913
40.23163 903
40.25174 994
40.27186 1000
40.29197 959
40.31208 836
40.3322 728
40.35231 682
40.37242 584
40.39254 507
40.41265 468
40.43277 368
40.45288 323
40.47299 252
40.49311 234
40.51322 215
40.53333 219
40.55345 217
40.57356 193
40.59368 200
40.61379 177
40.6339 202
40.65402 197
40.67413 187
40.69424 210
40.71436 185
40.73447 188
40.75458 179
40.7747 224
40.79481 204
40.81493 188
40.83504 185
40.85515 170
40.87527 223
40.89538 198
40.91549 176
40.93561 180
40.95572 216
40.97584 177
40.99595 201
41.01606 188
41.03618 186
41.05629 201
41.0764 221
41.09652 187
41.11663 189
41.13675 222
41.15686 181
41.17697 183
41.19709 209
41.2172 197
41.23731 172
41.25743 176
41.27754 211
41.29765 190
41.31777 179
41.33788 195
41.358 177
41.37811 194
41.39822 187
41.41834 169
41.43845 180
41.45856 186
41.47868 183
41.49879 208
41.51891 153
41.53902 171
41.55913 183
41.57925 182
41.59936 217
41.61947 202
41.63959 202
41.6597 209
41.67982 224
41.69993 221
41.72004 231
41.74016 222
41.76027 219
41.78038 218
41.8005 234
41.82061 213
41.84072 209
41.86084 201
41.88095 223
41.90107 222
41.92118 207
41.94129 203
41.96141 225
41.98152 245
42.00163 234
42.02175 228
42.04186 241
42.06198 233
42.08209 276
42.1022 268
42.12232 310
42.14243 312
42.16254 353
42.18266 371
42.20277 443
42.22289 449
42.243 578
42.26311 586
42.28323 727
42.30334 782
42.32345 907
42.34357 1029
42.36368 1120
42.38379 1261
42.40391 1351
42.42402 1346
42.44414 1323
42.46425 1213
42.48436 998
42.50448 912
42.52459 807
42.5447 775
42.56482 616
42.58493 522
42.60505 373
42.62516 327
42.64527 265
42.66539 252
42.6855 220
42.70561 230
42.72573 216
42.74584 222
42.76595 194
42.78607 222
42.80618 186
42.8263 197
42.84641 191
42.86652 195
42.88664 188
42.90675 171
42.92686 185
42.94698 189
42.96709 175
42.98721 171
43.00732 180
43.02743 165
43.04755 177
43.06766 177
43.08777 174
43.10789 206
43.128 155
43.14812 168
43.16823 183
43.18834 183
43.20846 172
43.22857 167
43.24868 161
43.2688 162
43.28891 180
43.30902 156
43.32914 195
43.34925 181
43.36937 171
43.38948 178
43.40959 165
43.42971 177
43.44982 164
43.46993 181
43.49005 165
43.51016 175
43.53028 191
43.55039 161
43.5705 178
43.59062 177
43.61073 178
43.63084 178
43.65096 165
43.67107 166
43.69119 175
43.7113 183
43.73141 190
43.75153 187
43.77164 165
43.79175 156
43.81187 180
43.83198 161
43.85209 169
43.87221 183
43.89232 152
43.91244 159
43.93255 146
43.95266 167
43.97278 182
43.99289 159
44.013 187
44.03312 155
44.05323 182
44.07335 176
44.09346 159
44.11357 179
44.13369 166
44.1538 185
44.17391 197
44.19403 163
44.21414 169
44.23426 157
44.25437 159
44.27448 161
44.2946 181
44.31471 176
44.33482 155
44.35494 163
44.37505 173
44.39516 180
44.41528 183
44.43539 179
44.45551 186
44.47562 154
44.49573 155
44.51585 153
44.53596 163
44.55607 180
44.57619 169
44.5963 185
44.61642 163
44.63653 186
44.65664 149
44.67676 166
44.69687 167
44.71698 179
44.7371 179
44.75721 181
44.77732 184
44.79744 195
44.81755 178
44.83767 180
44.85778 165
44.87789 174
44.89801 181
44.91812 177
44.93823 184
44.95835 155
44.97846 180
44.99858 187
45.01869 168
45.0388 181
45.05892 193
45.07903 162
45.09914 180
45.11926 175
45.13937 179
45.15949 166
45.1796 218
45.19971 165
45.21983 164
45.23994 185
45.26005 178
45.28017 196
45.30028 202
45.32039 214
45.34051 211
45.36062 184
45.38074 214
45.40085 212
45.42096 233
45.44108 242
45.46119 273
45.4813 257
45.50142 309
45.52153 309
45.54165 360
45.56176 394
45.58187 408
45.60199 489
45.6221 519
45.64221 599
45.66233 664
45.68244 725
45.70256 819
45.72267 885
45.74278 919
45.7629 934
45.78301 946
45.80312 867
45.82324 729
45.84335 680
45.86346 587
45.88358 558
45.90369 553
45.92381 399
45.94392 375
45.96403 289
45.98415 248
46.00426 211
46.02437 198
46.04449 183
46.0646 200
46.08472 182
46.10483 186
46.12494 178
46.14506 169
46.16517 172
46.18528 170
46.2054 202
46.22551 167
46.24563 178
46.26574 168
46.28585 160
46.30597 176
46.32608 189
46.34619 161
46.36631 162
46.38642 172
46.40653 171
46.42665 169
46.44676 148
46.46688 166
46.48699 154
46.5071 165
46.52722 159
46.54733 178
46.56744 159
46.58756 165
46.60767 181
46.62779 184
46.6479 162
46.66801 170
46.68813 162
46.70824 174
46.72835 166
46.74847 154
46.76858 140
46.78869 151
46.80881 160
46.82892 169
46.84904 147
46.86915 160
46.88926 164
46.90938 173
46.92949 171
46.9496 168
46.96972 169
46.98983 171
47.00995 174
47.03006 143
47.05017 162
47.07029 173
47.0904 161
47.11051 153
47.13063 163
47.15074 168
47.17086 173
47.19097 170
47.21108 150
47.2312 153
47.25131 159
47.27142 173
47.29154 152
47.31165 151
47.33176 167
47.35188 150
47.37199 157
47.39211 148
47.41222 144
47.43233 163
47.45245 145
47.47256 161
47.49267 167
47.51279 160
47.5329 153
47.55302 165
47.57313 162
47.59324 154
47.61336 158
47.63347 162
47.65358 148
47.6737 150
47.69381 184
47.71393 151
47.73404 160
47.75415 156
47.77427 150
47.79438 152
47.81449 167
47.83461 182
47.85472 151
47.87483 168
47.89495 148
47.91506 181
47.93518 161
47.95529 161
47.9754 143
47.99552 151
48.01563 159
48.03574 138
48.05586 161
48.07597 153
48.09609 152
48.1162 165
48.13631 147
48.15643 145
48.17654 160
48.19665 158
48.21677 148
48.23688 176
48.257 164
48.27711 143
48.29722 181
48.31734 159
48.33745 167
48.35756 149
48.37768 153
48.39779 188
48.4179 160
48.43802 169
48.45813 154
48.47825 167
48.49836 193
48.51847 164
48.53859 186
48.5587 162
48.57881 174
48.59893 158
48.61904 180
48.63916 161
48.65927 184
48.67938 158
48.6995 163
48.71961 176
48.73972 159
48.75984 160
48.77995 150
48.80006 165
48.82018 158
48.84029 160
48.86041 156
48.88052 197
48.90063 191
48.92075 168
48.94086 180
48.96097 158
48.98109 173
49.0012 181
49.02132 148
49.04143 188
49.06154 198
49.08166 176
49.10177 177
49.12188 167
49.142 173
49.16211 183
49.18223 191
49.20234 159
49.22245 173
49.24257 151
49.26268 173
49.28279 175
49.30291 157
49.32302 194
49.34313 168
49.36325 152
49.38336 161
49.40348 182
49.42359 191
49.4437 190
49.46382 173
49.48393 184
49.50404 213
49.52416 205
49.54427 211
49.56439 226
49.5845 214
49.60461 263
49.62473 263
49.64484 258
49.66495 288
49.68507 302
49.70518 341
49.7253 366
49.74541 390
49.76552 407
49.78564 491
49.80575 552
49.82586 555
49.84598 634
49.86609 718
49.8862 808
49.90632 924
49.92643 1066
49.94655 1268
49.96666 1547
49.98677 1758
50.00689 1914
50.027 2281
50.04711 2517
50.06723 2706
50.08734 2968
50.10746 2981
50.12757 2994
50.14768 2608
50.1678 2298
50.18791 1913
50.20802 1788
50.22814 1620
50.24825 1389
50.26837 1322
50.28848 997
50.30859 805
50.32871 593
50.34882 483
50.36893 431
50.38905 350
50.40916 345
50.42927 281
50.44939 281
50.4695 268
50.48962 270
50.50973 290
50.52984 275
50.54996 275
50.57007 287
50.59018 245
50.6103 247
50.63041 219
50.65053 285
50.67064 217
50.69075 225
50.71087 216
50.73098 209
50.75109 225
50.77121 199
50.79132 173
50.81143 218
50.83155 183
50.85166 187
50.87178 184
50.89189 189
50.912 179
50.93212 168
50.95223 171
50.97234 154
50.99246 184
51.01257 181
51.03269 145
51.0528 131
51.07291 149
51.09303 145
51.11314 181
51.13325 173
51.15337 153
51.17348 173
51.1936 152
51.21371 193
51.23382 145
51.25394 138
51.27405 142
51.29416 171
51.31428 153
51.33439 144
51.3545 162
51.37462 147
51.39473 144
51.41485 155
51.43496 150
51.45507 139
51.47519 141
51.4953 142
51.51541 142
51.53553 159
51.55564 144
51.57576 146
51.59587 176
51.61598 147
51.6361 138
51.65621 147
51.67632 138
51.69644 149
51.71655 136
51.73667 135
51.75678 147
51.77689 142
51.79701 152
51.81712 149
51.83723 144
51.85735 169
51.87746 136
51.89757 167
51.91769 118
51.9378 131
51.95792 141
51.97803 159
51.99814 134
52.01826 162
52.03837 134
52.05848 152
52.0786 161
52.09871 158
52.11883 145
52.13894 145
52.15905 155
52.17917 134
52.19928 145
52.21939 141
52.23951 143
52.25962 154
52.27974 152
52.29985 135
52.31996 134
52.34008 156
52.36019 144
52.3803 148
52.40042 141
52.42053 155
52.44064 146
52.46076 155
52.48087 149
52.50099 168
52.5211 142
52.54121 143
52.56133 140
52.58144 160
52.60155 130
52.62167 131
52.64178 164
52.6619 138
52.68201 143
52.70212 143
52.72224 138
52.74235 162
52.76246 154
52.78258 138
52.80269 168
52.8228 148
52.84292 124
52.86303 173
52.88315 161
52.90326 153
52.92337 147
52.94349 160
52.9636 137
52.98371 150
53.00383 136
53.02394 147
53.04406 146
53.06417 142
53.08428 150
53.1044 172
53.12451 156
53.14462 150
53.16474 137
53.18485 138
53.20497 158
53.22508 151
53.24519 149
53.26531 180
53.28542 138
53.30553 150
53.32565 159
53.34576 156
53.36587 184
53.38599 145
53.4061 136
53.42622 182
53.44633 154
53.46644 153
53.48656 168
53.50667 164
53.52678 183
53.5469 169
53.56701 160
53.58713 172
53.60724 169
53.62735 168
53.64747 191
53.66758 192
53.68769 173
53.70781 150
53.72792 185
53.74804 158
53.76815 172
53.78826 141
53.80838 139
53.82849 148
53.8486 184
53.86872 164
53.88883 158
53.90894 170
53.92906 161
53.94917 171
53.96929 189
53.9894 156
54.00951 173
54.02963 160
54.04974 183
54.06985 179
54.08997 200
54.11008 166
54.1302 188
54.15031 171
54.17042 179
54.19054 166
54.21065 188
54.23076 192
54.25088 210
54.27099 190
54.29111 212
54.31122 201
54.33133 203
54.35145 195
54.37156 191
54.39167 194
54.41179 226
54.4319 240
54.45201 209
54.47213 232
54.49224 268
54.51236 254
54.53247 266
54.55258 307
54.5727 295
54.59281 332
54.61292 367
54.63304 423
54.65315 447
54.67327 572
54.69338 566
54.71349 630
54.73361 751
54.75372 793
54.77383 837
54.79395 953
54.81406 1002
54.83417 973
54.85429 1020
54.8744 922
54.89452 765
54.91463 760
54.93474 656
54.95486 587
54.97497 622
54.99508 585
55.0152 555
55.03531 492
55.05543 447
55.07554 354
55.09565 389
55.11577 341
55.13588 362
55.15599 406
55.17611 416
55.19622 476
55.21634 465
55.23645 455
55.25656 494
55.27668 528
55.29679 527
55.3169 483
55.33702 473
55.35713 444
55.37724 409
55.39736 355
55.41747 353
55.43759 390
55.4577 340
55.47781 306
55.49793 289
55.51804 257
55.53815 241
55.55827 195
55.57838 203
55.5985 204
55.61861 184
55.63872 175
55.65884 178
55.67895 167
55.69906 178
55.71918 191
55.73929 154
55.75941 179
55.77952 187
55.79963 195
55.81975 160
55.83986 169
55.85997 154
55.88009 163
55.9002 171
55.92031 179
55.94043 162
55.96054 178
55.98066 177
56.00077 183
56.02088 158
56.041 146
56.06111 179
56.08122 150
56.10134 167
56.12145 174
56.14157 137
56.16168 164
56.18179 177
56.20191 168
56.22202 157
56.24213 153
56.26225 142
56.28236 178
56.30248 172
56.32259 160
56.3427 171
56.36282 177
56.38293 162
56.40304 158
56.42316 167
56.44327 172
56.46338 182
56.4835 127
56.50361 173
56.52373 144
56.54384 151
56.56395 156
56.58407 162
56.60418 143
56.62429 145
56.64441 159
56.66452 148
56.68464 150
56.70475 146
56.72486 140
56.74498 198
56.76509 131
56.7852 158
56.80532 146
56.82543 166
56.84554 140
56.86566 158
56.88577 167
56.90589 165
56.926 173
56.94611 152
56.96623 176
56.98634 173
57.00645 183
57.02657 185
57.04668 182
57.0668 161
57.08691 179
57.10702 206
57.12714 189
57.14725 208
57.16736 228
57.18748 203
57.20759 214
57.22771 186
57.24782 175
57.26793 177
57.28805 173
57.30816 157
57.32827 190
57.34839 174
57.3685 173
57.38861 181
57.40873 166
57.42884 177
57.44896 145
57.46907 145
57.48918 134
57.5093 181
57.52941 152
57.54952 159
57.56964 165
57.58975 142
57.60987 157
57.62998 143
57.65009 149
57.67021 133
57.69032 151
57.71043 133
57.73055 146
57.75066 186
57.77078 150
57.79089 150
57.811 157
57.83112 139
57.85123 165
57.87134 144
57.89146 136
57.91157 162
57.93168 121
57.9518 167
57.97191 173
57.99203 158
58.01214 148
58.03225 150
58.05237 166
58.07248 173
58.09259 171
58.11271 136
58.13282 155
58.15294 137
58.17305 159
58.19316 147
58.21328 172
58.23339 136
58.2535 136
58.27362 162
58.29373 159
58.31385 141
58.33396 145
58.35407 148
58.37419 161
58.3943 196
58.41441 163
58.43453 150
58.45464 135
58.47475 169
58.49487 138
58.51498 153
58.5351 165
58.55521 134
58.57532 152
58.59544 163
58.61555 156
58.63566 165
58.65578 167
58.67589 161
58.69601 163
58.71612 125
58.73623 175
58.75635 145
58.77646 166
58.79657 137
58.81669 173
58.8368 172
58.85691 165
58.87703 139
58.89714 150
58.91726 174
58.93737 180
58.95748 154
58.9776 130
58.99771 147
59.01782 156
59.03794 149
59.05805 172
59.07817 155
59.09828 139
59.11839 153
59.13851 155
59.15862 184
59.17873 175
59.19885 170
59.21896 166
59.23908 162
59.25919 184
59.2793 169
59.29942 182
59.31953 185
59.33964 200
59.35976 213
59.37987 208
59.39998 210
59.4201 200
59.44021 237
59.46033 247
59.48044 290
59.50055 266
59.52067 275
59.54078 333
59.56089 324
59.58101 388
59.60112 405
59.62124 426
59.64135 478
59.66146 497
59.68158 600
59.70169 653
59.7218 762
59.74192 855
59.76203 962
59.78215 1100
59.80226 1263
59.82237 1427
59.84249 1574
59.8626 1694
59.88271 1848
59.90283 1920
59.92294 1903
59.94305 1899
59.96317 1722
59.98328 1520
60.0034 1239
60.02351 1125
60.04362 1068
60.06374 1039
60.08385 992
60.10396 913
60.12408 757
60.14419 613
60.16431 502
60.18442 400
60.20453 303
60.22465 280
60.24476 251
60.26487 199
60.28499 204
60.3051 190
60.32522 192
60.34533 180
60.36544 177
60.38556 179
60.40567 185
60.42578 173
60.4459 200
60.46601 179
60.48612 172
60.50624 200
60.52635 183
60.54647 187
60.56658 141
60.58669 179
60.60681 160
60.62692 167
60.64703 170
60.66715 162
60.68726 184
60.70738 164
60.72749 153
60.7476 182
60.76772 174
60.78783 159
60.80794 180
60.82806 184
60.84817 171
60.86828 169
60.8884 164
60.90851 179
60.92863 179
60.94874 159
60.96885 157
60.98897 172
61.00908 171
61.02919 159
61.04931 161
61.06942 148
61.08954 177
61.10965 186
61.12976 188
61.14988 158
61.16999 181
61.1901 173
61.21022 181
61.23033 167
61.25045 154
61.27056 183
61.29067 168
61.31079 192
61.3309 158
61.35101 183
61.37113 161
61.39124 168
61.41135 177
61.43147 175
61.45158 186
61.4717 182
61.49181 164
61.51192 155
61.53204 188
61.55215 188
61.57226 167
61.59238 214
61.61249 176
61.63261 206
61.65272 175
61.67283 188
61.69295 178
61.71306 198
61.73317 159
61.75329 198
61.7734 170
61.79352 179
61.81363 206
61.83374 200
61.85386 192
61.87397 181
61.89408 199
61.9142 183
61.93431 196
61.95442 195
61.97454 174
61.99465 201
62.01477 194
62.03488 201
62.05499 181
62.07511 192
62.09522 177
62.11533 210
62.13545 176
62.15556 206
62.17568 203
62.19579 194
62.2159 190
62.23602 168
62.25613 204
62.27624 199
62.29636 187
62.31647 189
62.33659 174
62.3567 170
62.37681 190
62.39693 181
62.41704 188
62.43715 154
62.45727 140
62.47738 159
62.49749 179
62.51761 153
62.53772 170
62.55784 156
62.57795 158
62.59806 160
62.61818 160
62.63829 167
62.6584 159
62.67852 165
62.69863 144
62.71875 156
62.73886 153
62.75897 169
62.77909 153
62.7992 158
62.81931 159
62.83943 169
62.85954 162
62.87965 161
62.89977 166
62.91988 152
62.94 167
62.96011 148
62.98022 173
63.00034 130
63.02045 165
63.04056 173
63.06068 155
63.08079 170
63.10091 185
63.12102 145
63.14113 154
63.16125 173
63.18136 147
63.20147 162
63.22159 150
63.2417 155
63.26182 160
63.28193 153
63.30204 157
63.32216 147
63.34227 151
63.36238 174
63.3825 165
63.40261 135
63.42272 158
63.44284 174
63.46295 156
63.48307 197
63.50318 174
63.52329 149
63.54341 172
63.56352 160
63.58363 168
63.60375 177
63.62386 164
63.64398 192
63.66409 219
63.6842 163
63.70432 214
63.72443 202
63.74454 201
63.76466 233
63.78477 246
63.80489 248
63.825 291
63.84511 320
63.86523 321
63.88534 375
63.90545 380
63.92557 372
63.94568 434
63.96579 468
63.98591 452
64.00602 442
64.02614 416
64.04625 437
64.06636 346
64.08648 315
64.10659 288
64.1267 291
64.14682 304
64.16693 273
64.18705 294
64.20716 242
64.22727 254
64.24739 216
64.2675 200
64.28761 170
64.30773 150
64.32784 188
64.34796 158
64.36807 167
64.38818 154
64.4083 150
64.42841 143
64.44852 134
64.46864 151
64.48875 155
64.50886 155
64.52898 131
64.54909 149
64.56921 141
64.58932 127
64.60943 133
64.62955 142
64.64966 124
64.66977 160
64.68989 123
64.71 149
64.73012 135
64.75023 136
64.77034 138
64.79046 149
64.81057 172
64.83068 157
64.8508 146
64.87091 124
64.89102 144
64.91114 159
64.93125 150
64.95137 143
64.97148 139
64.99159 145
65.01171 155
65.03182 151
65.05193 134
65.07205 159
65.09216 136
65.11228 159
65.13239 154
65.1525 167
65.17262 136
65.19273 143
65.21284 162
65.23296 160
65.25307 126
65.27319 153
65.2933 132
65.31341 153
65.33353 173
65.35364 144
65.37375 165
65.39387 186
65.41398 166
65.43409 151
65.45421 160
65.47432 156
65.49444 151
65.51455 165
65.53466 179
65.55478 188
65.57489 189
65.595 202
65.61512 202
65.63523 209
65.65535 217
65.67546 239
65.69557 242
65.71569 219
65.7358 201
65.75591 243
65.77603 212
65.79614 230
65.81626 205
65.83637 212
65.85648 191
65.8766 194
65.89671 195
65.91682 193
65.93694 188
65.95705 177
65.97716 159
65.99728 170
66.01739 177
66.03751 156
66.05762 164
66.07773 152
66.09785 153
66.11796 137
66.13807 152
66.15819 140
66.1783 143
66.19842 156
66.21853 153
66.23864 152
66.25876 169
66.27887 163
66.29898 179
66.3191 156
66.33921 144
66.35933 161
66.37944 175
66.39955 165
66.41967 154
66.43978 141
66.45989 160
66.48001 165
66.50012 151
66.52023 161
66.54035 145
66.56046 165
66.58058 135
66.60069 160
66.6208 173
66.64092 180
66.66103 173
66.68114 170
66.70126 139
66.72137 161
66.74149 161
66.7616 155
66.78171 145
66.80183 165
66.82194 158
66.84205 144
66.86217 167
66.88228 165
66.90239 157
66.92251 163
66.94262 195
66.96274 164
66.98285 165
67.00296 179
67.02308 188
67.04319 179
67.0633 173
67.08342 199
67.10353 179
67.12365 184
67.14376 203
67.16387 208
67.18399 219
67.2041 217
67.22421 242
67.24433 208
67.26444 245
67.28456 252
67.30467 288
67.32478 261
67.3449 282
67.36501 294
67.38512 338
67.40524 359
67.42535 361
67.44546 404
67.46558 439
67.48569 513
67.50581 584
67.52592 612
67.54603 710
67.56615 734
67.58626 826
67.60637 1002
67.62649 1016
67.6466 1105
67.66672 1183
67.68683 1229
67.70694 1244
67.72706 1190
67.74717 1184
67.76728 1049
67.7874 968
67.80751 880
67.82763 999
67.84774 998
67.86785 1003
67.88797 1124
67.90808 1089
67.92819 1182
67.94831 1183
67.96842 1162
67.98853 1225
68.00865 1270
68.02876 1317
68.04888 1548
68.06899 1630
68.0891 1692
68.10922 1722
68.12933 1665
68.14944 1664
68.16956 1482
68.18967 1455
68.20979 1384
68.2299 1503
68.25001 1479
68.27013 1490
68.29024 1421
68.31035 1347
68.33047 1219
68.35058 999
68.3707 850
68.39081 714
68.41092 635
68.43104 634
68.45115 628
68.47126 526
68.49138 519
68.51149 494
68.5316 374
68.55172 312
68.57183 275
68.59195 268
68.61206 241
68.63217 197
68.65229 199
68.6724 190
68.69251 228
68.71263 192
68.73274 206
68.75286 176
68.77297 173
68.79308 185
68.8132 170
68.83331 160
68.85342 177
68.87354 176
68.89365 180
68.91376 182
68.93388 186
68.95399 163
68.97411 162
68.99422 174
69.01433 158
69.03445 173
69.05456 159
69.07467 146
69.09479 150
69.1149 150
69.13502 147
69.15513 119
69.17524 160
69.19536 152
69.21547 151
69.23558 149
69.2557 138
69.27581 164
69.29593 151
69.31604 151
69.33615 152
69.35627 166
69.37638 151
69.39649 161
69.41661 170
69.43672 143
69.45683 160
69.47695 157
69.49706 153
69.51718 127
69.53729 160
69.5574 147
69.57752 157
69.59763 143
69.61774 138
69.63786 154
69.65797 123
69.67809 148
69.6982 146
69.71831 149
69.73843 145
69.75854 135
69.77865 153
69.79877 132
69.81888 137
69.839 136
69.85911 140
69.87922 147
69.89934 146
69.91945 136
69.93956 129
69.95968 143
69.97979 146
69.9999 152
70.02002 138
70.04013 166
70.06025 144
70.08036 164
70.10047 172
70.12059 144
70.1407 150
70.16081 150
70.18093 143
70.20104 143
70.22116 127
70.24127 150
70.26138 118
70.2815 144
70.30161 133
70.32172 168
70.34184 148
70.36195 150
70.38207 143
70.40218 146
70.42229 143
70.44241 152
70.46252 146
70.48263 149
70.50275 137
70.52286 144
70.54297 129
70.56309 171
70.5832 156
70.60332 143
70.62343 143
70.64354 138
70.66366 163
70.68377 135
70.70388 145
70.724 139
70.74411 155
70.76423 133
70.78434 148
70.80445 140
70.82457 152
70.84468 142
70.86479 146
70.88491 128
70.90502 151
70.92513 154
70.94525 138
70.96536 133
70.98548 140
71.00559 135
71.0257 153
71.04582 154
71.06593 140
71.08604 137
71.10616 110
71.12627 131
71.14639 149
71.1665 131
71.18661 131
71.20673 150
71.22684 149
71.24695 138
71.26707 145
71.28718 128
71.3073 144
71.32741 139
71.34752 138
71.36764 137
71.38775 147
71.40786 141
71.42798 138
71.44809 120
71.4682 147
71.48832 158
71.50843 113
71.52855 130
71.54866 130
71.56877 145
71.58889 142
71.609 136
71.62911 139
71.64923 135
71.66934 155
71.68946 141
71.70957 138
71.72968 164
71.7498 121
71.76991 150
71.79002 149
71.81014 151
71.83025 135
71.85037 141
71.87048 155
71.89059 135
71.91071 145
71.93082 159
71.95093 133
71.97105 134
71.99116 144
72.01127 137
72.03139 140
72.0515 171
72.07162 141
72.09173 145
72.11184 143
72.13196 133
72.15207 146
72.17218 164
72.1923 154
72.21241 145
72.23253 149
72.25264 135
72.27275 133
72.29287 130
72.31298 138
72.33309 126
72.35321 142
72.37332 153
72.39344 137
72.41355 157
72.43366 175
72.45378 105
72.47389 139
72.494 149
72.51412 137
72.53423 137
72.55434 146
72.57446 145
72.59457 143
72.61469 155
72.6348 135
72.65491 127
72.67503 129
72.69514 151
72.71525 154
72.73537 174
72.75548 158
72.7756 159
72.79571 149
72.81582 155
72.83594 137
72.85605 147
72.87616 149
72.89628 179
72.91639 161
72.9365 162
72.95662 171
72.97673 173
72.99685 186
73.01696 174
73.03707 201
73.05719 188
73.0773 201
73.09741 200
73.11753 177
73.13764 234
73.15776 233
73.17787 239
73.19798 263
73.2181 259
73.23821 304
73.25832 321
73.27844 359
73.29855 364
73.31867 409
73.33878 417
73.35889 518
73.37901 453
73.39912 494
73.41923 507
73.43935 500
73.45946 516
73.47957 444
73.49969 404
73.5198 341
73.53992 330
73.56003 310
73.58014 332
73.60026 349
73.62037 308
73.64048 334
73.6606 291
73.68071 286
73.70083 228
73.72094 213
73.74105 208
73.76117 176
73.78128 176
73.80139 161
73.82151 169
73.84162 151
73.86174 154
73.88185 154
73.90196 148
73.92208 159
73.94219 160
73.9623 151
73.98242 165
74.00253 134
74.02264 156
74.04276 129
74.06287 159
74.08299 134
74.1031 143
74.12321 164
74.14333 162
74.16344 145
74.18355 130
74.20367 148
74.22378 158
74.2439 146
74.26401 134
74.28412 145
74.30424 130
74.32435 154
74.34446 154
74.36458 146
74.38469 152
74.40481 152
74.42492 144
74.44503 156
74.46515 145
74.48526 147
74.50537 155
74.52549 137
74.5456 161
74.56571 148
74.58583 158
74.60594 115
74.62606 137
74.64617 134
74.66628 159
74.6864 148
74.70651 137
74.72662 135
74.74674 144
74.76685 136
74.78697 166
74.80708 128
74.82719 138
74.84731 161
74.86742 139
74.88753 159
74.90765 148
74.92776 142
74.94787 134
74.96799 135
74.9881 162
75.00822 146
