3.00117 20409
3.02128 19544
3.0414 19403
3.06151 18808
3.08162 18396
3.10174 17697
3.12185 17230
3.14197 16890
3.16208 16361
3.18219 16052
3.20231 15304
3.22242 15254
3.24253 14574
3.26265 13968
3.28276 13708
3.30288 13164
3.32299 12981
3.3431 12508
3.36322 11870
3.38333 11475
3.40344 11075
3.42356 10959
3.44367 10617
3.46379 9913
3.4839 9847
3.50401 9517
3.52413 8984
3.54424 9059
3.56435 8340
3.58447 8393
3.60458 7804
3.62469 7684
3.64481 7299
3.66492 6901
3.68504 7022
3.70515 6441
3.72526 6227
3.74538 5968
3.76549 5639
3.7856 5634
3.80572 5346
3.82583 5206
3.84595 5159
3.86606 4658
3.88617 4670
3.90629 4379
3.9264 4426
3.94651 4171
3.96663 3920
3.98674 3735
4.00686 3557
4.02697 3505
4.04708 3610
4.0672 3102
4.08731 3118
4.10742 3004
4.12754 2894
4.14765 2837
4.16776 2635
4.18788 2443
4.20799 2458
4.22811 2530
4.24822 2352
4.26833 2064
4.28845 2130
4.30856 2108
4.32867 1950
4.34879 2038
4.3689 1868
4.38902 1805
4.40913 1985
4.42924 1904
4.44936 1893
4.46947 1653
4.48958 1668
4.5097 1659
4.52981 1686
4.54992 1652
4.57004 1493
4.59015 1464
4.61027 1411
4.63038 1434
4.65049 1442
4.67061 1283
4.69072 1358
4.71083 1351
4.73095 1318
4.75106 1333
4.77118 1191
4.79129 1350
4.8114 1256
4.83152 1253
4.85163 1240
4.87174 1125
4.89186 1089
4.91197 1186
4.93209 1101
4.9522 1105
4.97231 1050
4.99243 1063
5.01254 1046
5.03265 992
5.05277 967
5.07288 923
5.09299 936
5.11311 958
5.13322 974
5.15334 925
5.17345 870
5.19356 870
5.21368 890
5.23379 877
5.2539 810
5.27402 861
5.29413 812
5.31425 760
5.33436 836
5.35447 796
5.37459 740
5.3947 753
5.41481 688
5.43493 718
5.45504 710
5.47516 735
5.49527 698
5.51538 655
5.5355 730
5.55561 708
5.57572 668
5.59584 658
5.61595 679
5.63606 647
5.65618 647
5.67629 620
5.69641 572
5.71652 577
5.73663 679
5.75675 627
5.77686 610
5.79697 604
5.81709 596
5.8372 589
5.85732 589
5.87743 569
5.89754 574
5.91766 523
5.93777 562
5.95788 594
5.978 571
5.99811 561
6.01823 609
6.03834 624
6.05845 520
6.07857 538
6.09868 523
6.11879 561
6.13891 578
6.15902 546
6.17913 523
6.19925 484
6.21936 582
6.23948 555
6.25959 547
6.2797 504
6.29982 528
6.31993 501
6.34004 520
6.36016 524
6.38027 503
6.40039 510
6.4205 497
6.44061 495
6.46073 484
6.48084 516
6.50095 507
6.52107 531
6.54118 538
6.56129 486
6.58141 495
6.60152 479
6.62164 478
6.64175 501
6.66186 507
6.68198 498
6.70209 550
6.7222 468
6.74232 528
6.76243 509
6.78255 528
6.80266 490
6.82277 500
6.84289 473
6.863 515
6.88311 487
6.90323 501
6.92334 499
6.94346 525
6.96357 474
6.98368 504
7.0038 472
7.02391 505
7.04402 478
7.06414 489
7.08425 526
7.10436 485
7.12448 466
7.14459 453
7.16471 498
7.18482 480
7.20493 495
7.22505 436
7.24516 520
7.26527 473
7.28539 497
7.3055 491
7.32562 472
7.34573 456
7.36584 499
7.38596 458
7.40607 540
7.42618 442
7.4463 495
7.46641 469
7.48653 511
7.50664 461
7.52675 490
7.54687 442
7.56698 536
7.58709 461
7.60721 470
7.62732 446
7.64743 511
7.66755 445
7.68766 470
7.70778 451
7.72789 486
7.748 479
7.76812 486
7.78823 451
7.80834 505
7.82846 467
7.84857 529
7.86869 479
7.8888 475
7.90891 457
7.92903 511
7.94914 475
7.96925 482
7.98937 449
8.00948 460
8.0296 464
8.04971 472
8.06982 432
8.08994 479
8.11005 446
8.13016 452
8.15028 419
8.17039 500
8.1905 468
8.21062 441
8.23073 480
8.25085 495
8.27096 452
8.29107 466
8.31119 497
8.3313 457
8.35141 503
8.37153 486
8.39164 534
8.41176 493
8.43187 500
8.45198 522
8.4721 518
8.49221 456
8.51232 483
8.53244 438
8.55255 474
8.57266 465
8.59278 467
8.61289 460
8.63301 495
8.65312 506
8.67323 437
8.69335 481
8.71346 492
8.73357 469
8.75369 485
8.7738 537
8.79392 510
8.81403 466
8.83414 503
8.85426 490
8.87437 506
8.89448 499
8.9146 450
8.93471 478
8.95483 459
8.97494 488
8.99505 491
9.01517 468
9.03528 483
9.05539 457
9.07551 487
9.09562 458
9.11573 483
9.13585 458
9.15596 453
9.17608 490
9.19619 429
9.2163 486
9.23642 478
9.25653 466
9.27664 489
9.29676 504
9.31687 477
9.33699 479
9.3571 454
9.37721 508
9.39733 477
9.41744 538
9.43755 499
9.45767 472
9.47778 485
9.4979 475
9.51801 490
9.53812 483
9.55824 506
9.57835 453
9.59846 404
9.61858 494
9.63869 479
9.6588 469
9.67892 488
9.69903 457
9.71915 474
9.73926 494
9.75937 449
9.77949 485
9.7996 463
9.81971 450
9.83983 483
9.85994 445
9.88006 479
9.90017 473
9.92028 471
9.9404 469
9.96051 455
9.98062 470
10.00074 469
10.02085 492
10.04097 467
10.06108 461
10.08119 482
10.10131 426
10.12142 480
10.14153 465
10.16165 488
10.18176 469
10.20187 461
10.22199 495
10.2421 504
10.26222 491
10.28233 482
10.30244 474
10.32256 496
10.34267 502
10.36278 481
10.3829 470
10.40301 520
10.42313 454
10.44324 477
10.46335 483
10.48347 455
10.50358 494
10.52369 469
10.54381 482
10.56392 490
10.58403 468
10.60415 443
10.62426 435
10.64438 496
10.66449 499
10.6846 478
10.70472 487
10.72483 445
10.74494 473
10.76506 470
10.78517 494
10.80529 498
10.8254 505
10.84551 519
10.86563 465
10.88574 524
10.90585 473
10.92597 477
10.94608 454
10.9662 532
10.98631 502
11.00642 479
11.02654 492
11.04665 424
11.06676 470
11.08688 459
11.10699 522
11.1271 518
11.14722 525
11.16733 491
11.18745 489
11.20756 490
11.22767 533
11.24779 490
11.2679 506
11.28801 505
11.30813 507
11.32824 512
11.34836 526
11.36847 490
11.38858 524
11.4087 536
11.42881 531
11.44892 501
11.46904 564
11.48915 539
11.50927 512
11.52938 549
11.54949 557
11.56961 566
11.58972 586
11.60983 602
11.62995 563
11.65006 596
11.67017 586
11.69029 582
11.7104 574
11.73052 600
11.75063 578
11.77074 614
11.79086 648
11.81097 637
11.83108 668
11.8512 688
11.87131 657
11.89143 679
11.91154 673
11.93165 751
11.95177 734
11.97188 822
11.99199 778
12.01211 814
12.03222 894
12.05234 904
12.07245 867
12.09256 942
12.11268 1061
12.13279 1111
12.1529 1113
12.17302 1215
12.19313 1207
12.21324 1346
12.23336 1368
12.25347 1339
12.27359 1447
12.2937 1506
12.31381 1400
12.33393 1435
12.35404 1348
12.37415 1355
12.39427 1311
12.41438 1220
12.4345 1162
12.45461 1058
12.47472 1030
12.49484 961
12.51495 891
12.53506 812
12.55518 849
12.57529 795
12.5954 713
12.61552 688
12.63563 661
12.65575 693
12.67586 628
12.69597 580
12.71609 621
12.7362 550
12.75631 551
12.77643 560
12.79654 534
12.81666 496
12.83677 548
12.85688 503
12.877 509
12.89711 530
12.91722 531
12.93734 507
12.95745 496
12.97757 489
12.99768 506
13.01779 510
13.03791 465
13.05802 486
13.07813 479
13.09825 462
13.11836 456
13.13847 481
13.15859 469
13.1787 477
13.19882 493
13.21893 447
13.23904 464
13.25916 496
13.27927 451
13.29938 458
13.3195 474
13.33961 458
13.35973 456
13.37984 471
13.39995 484
13.42007 457
13.44018 444
13.46029 465
13.48041 478
13.50052 435
13.52064 453
13.54075 443
13.56086 410
13.58098 428
13.60109 467
13.6212 478
13.64132 475
13.66143 464
13.68154 402
13.70166 423
13.72177 456
13.74189 438
13.762 434
13.78211 420
13.80223 451
13.82234 467
13.84245 457
13.86257 441
13.88268 438
13.9028 461
13.92291 405
13.94302 455
13.96314 429
13.98325 420
14.00336 413
14.02348 446
14.04359 462
14.06371 419
14.08382 459
14.10393 434
14.12405 452
14.14416 418
14.16427 411
14.18439 444
14.2045 419
14.22461 401
14.24473 468
14.26484 448
14.28496 416
14.30507 401
14.32518 407
14.3453 436
14.36541 441
14.38552 430
14.40564 422
14.42575 439
14.44587 404
14.46598 467
14.48609 421
14.50621 424
14.52632 419
14.54643 459
14.56655 404
14.58666 383
14.60677 467
14.62689 469
14.647 469
14.66712 431
14.68723 424
14.70734 412
14.72746 445
14.74757 442
14.76768 448
14.7878 431
14.80791 450
14.82803 425
14.84814 446
14.86825 443
14.88837 428
14.90848 459
14.92859 428
14.94871 436
14.96882 438
14.98894 456
15.00905 435
15.02916 433
15.04928 440
15.06939 438
15.0895 390
15.10962 456
15.12973 398
15.14984 463
15.16996 411
15.19007 443
15.21019 406
15.2303 435
15.25041 491
15.27053 399
15.29064 430
15.31075 390
15.33087 400
15.35098 440
15.3711 413
15.39121 414
15.41132 432
15.43144 384
15.45155 405
15.47166 418
15.49178 414
15.51189 488
15.53201 454
15.55212 451
15.57223 450
15.59235 419
15.61246 407
15.63257 426
15.65269 446
15.6728 405
15.69291 408
15.71303 403
15.73314 405
15.75326 463
15.77337 410
15.79348 417
15.8136 411
15.83371 412
15.85382 434
15.87394 437
15.89405 427
15.91417 427
15.93428 472
15.95439 437
15.97451 418
15.99462 438
16.01473 423
16.03485 455
16.05496 398
16.07508 424
16.09519 398
16.1153 430
16.13542 411
16.15553 398
16.17564 416
16.19576 405
16.21587 441
16.23598 434
16.2561 420
16.27621 407
16.29633 434
16.31644 446
16.33655 451
16.35667 439
16.37678 421
16.39689 443
16.41701 415
16.43712 435
16.45724 466
16.47735 432
16.49746 472
16.51758 412
16.53769 429
16.5578 436
16.57792 418
16.59803 425
16.61814 427
16.63826 418
16.65837 391
16.67849 438
16.6986 430
16.71871 412
16.73883 434
16.75894 460
16.77905 430
16.79917 414
16.81928 412
16.8394 393
16.85951 470
16.87962 427
16.89974 437
16.91985 413
16.93996 457
16.96008 434
16.98019 365
17.00031 442
17.02042 405
17.04053 381
17.06065 466
17.08076 407
17.10087 412
17.12099 423
17.1411 430
17.16121 441
17.18133 409
17.20144 406
17.22156 456
17.24167 414
17.26178 428
17.2819 379
17.30201 465
17.32212 416
17.34224 453
17.36235 375
17.38247 429
17.40258 464
17.42269 364
17.44281 445
17.46292 430
17.48303 388
17.50315 456
17.52326 425
17.54338 471
17.56349 419
17.5836 458
17.60372 454
17.62383 458
17.64394 438
17.66406 435
17.68417 441
17.70428 406
17.7244 413
17.74451 414
17.76463 389
17.78474 446
17.80485 441
17.82497 484
17.84508 436
17.86519 459
17.88531 439
17.90542 422
17.92554 478
17.94565 476
17.96576 440
17.98588 433
18.00599 466
18.0261 417
18.04622 456
18.06633 464
18.08645 480
18.10656 447
18.12667 488
18.14679 513
18.1669 500
18.18701 511
18.20713 552
18.22724 512
18.24735 564
18.26747 559
18.28758 549
18.3077 514
18.32781 552
18.34792 537
18.36804 513
18.38815 466
18.40826 488
18.42838 474
18.44849 430
18.46861 439
18.48872 434
18.50883 440
18.52895 454
18.54906 466
18.56917 476
18.58929 470
18.6094 491
18.62951 450
18.64963 441
18.66974 467
18.68986 416
18.70997 474
18.73008 487
18.7502 445
18.77031 462
18.79042 405
18.81054 453
18.83065 468
18.85077 446
18.87088 434
18.89099 430
18.91111 448
18.93122 473
18.95133 455
18.97145 438
18.99156 470
19.01168 444
19.03179 440
19.0519 448
19.07202 444
19.09213 411
19.11224 419
19.13236 425
19.15247 460
19.17258 427
19.1927 475
19.21281 443
19.23293 476
19.25304 432
19.27315 484
19.29327 463
19.31338 476
19.33349 460
19.35361 481
19.37372 468
19.39384 466
19.41395 536
19.43406 470
19.45418 487
19.47429 550
19.4944 486
19.51452 530
19.53463 529
19.55475 495
19.57486 530
19.59497 588
19.61509 620
19.6352 590
19.65531 633
19.67543 674
19.69554 712
19.71565 742
19.73577 839
19.75588 925
19.776 906
19.79611 988
19.81622 958
19.83634 1080
19.85645 1017
19.87656 1071
19.89668 1042
19.91679 1048
19.93691 1049
19.95702 1038
19.97713 1017
19.99725 1014
20.01736 962
20.03747 977
20.05759 919
20.0777 950
20.09782 907
20.11793 929
20.13804 919
20.15816 967
20.17827 981
20.19838 989
20.2185 985
20.23861 976
20.25872 1021
20.27884 999
20.29895 1018
20.31907 1002
20.33918 961
20.35929 984
20.37941 1031
20.39952 989
20.41963 1036
20.43975 975
20.45986 918
20.47998 972
20.50009 990
20.5202 968
20.54032 909
20.56043 971
20.58054 988
20.60066 1021
20.62077 1037
20.64088 1052
20.661 1080
20.68111 1120
20.70123 1246
20.72134 1370
20.74145 1534
20.76157 1712
20.78168 1958
20.80179 2213
20.82191 2290
20.84202 2065
20.86214 1922
20.88225 1752
20.90236 1483
20.92248 1321
20.94259 1140
20.9627 1048
20.98282 969
21.00293 968
21.02305 946
21.04316 922
21.06327 967
21.08339 910
21.1035 941
21.12361 895
21.14373 944
21.16384 938
21.18395 1000
21.20407 918
21.22418 913
21.2443 971
21.26441 925
21.28452 940
21.30464 946
21.32475 922
21.34486 942
21.36498 984
21.38509 935
21.40521 971
21.42532 918
21.44543 918
21.46555 866
21.48566 858
21.50577 818
21.52589 860
21.546 832
21.56612 839
21.58623 807
21.60634 793
21.62646 779
21.64657 740
21.66668 786
21.6868 787
21.70691 798
21.72702 806
21.74714 779
21.76725 785
21.78737 754
21.80748 720
21.82759 735
21.84771 775
21.86782 684
21.88793 768
21.90805 728
21.92816 729
21.94828 701
21.96839 709
21.9885 670
22.00862 755
22.02873 730
22.04884 661
22.06896 667
22.08907 687
22.10919 680
22.1293 703
22.14941 675
22.16953 662
22.18964 694
22.20975 697
22.22987 658
22.24998 643
22.27009 748
22.29021 688
22.31032 671
22.33044 633
22.35055 603
22.37066 682
22.39078 646
22.41089 686
22.431 644
22.45112 645
22.47123 657
22.49135 665
22.51146 637
22.53157 638
22.55169 599
22.5718 678
22.59191 647
22.61203 630
22.63214 603
22.65225 620
22.67237 656
22.69248 633
22.7126 626
22.73271 618
22.75282 585
22.77294 632
22.79305 640
22.81316 640
22.83328 612
22.85339 646
22.87351 620
22.89362 606
22.91373 633
22.93385 623
22.95396 652
22.97407 577
22.99419 642
23.0143 627
23.03442 606
23.05453 645
23.07464 615
23.09476 650
23.11487 629
23.13498 631
23.1551 634
23.17521 608
23.19532 570
23.21544 609
23.23555 594
23.25567 597
23.27578 555
23.29589 534
23.31601 621
23.33612 597
23.35623 578
23.37635 612
23.39646 621
23.41658 616
23.43669 625
23.4568 583
23.47692 556
23.49703 577
23.51714 616
23.53726 603
23.55737 612
23.57749 610
23.5976 581
23.61771 621
23.63783 595
23.65794 658
23.67805 603
23.69817 586
23.71828 607
23.73839 630
23.75851 645
23.77862 640
23.79874 631
23.81885 672
23.83896 689
23.85908 671
23.87919 716
23.8993 642
23.91942 677
23.93953 673
23.95965 686
23.97976 686
23.99987 616
24.01999 748
24.0401 671
24.06021 681
24.08033 725
24.10044 717
24.12056 705
24.14067 760
24.16078 654
24.1809 671
24.20101 702
24.22112 675
24.24124 748
24.26135 651
24.28146 667
24.30158 730
24.32169 693
24.34181 687
24.36192 671
24.38203 719
24.40215 744
24.42226 710
24.44237 705
24.46249 794
24.4826 752
24.50272 787
24.52283 787
24.54294 822
24.56306 804
24.58317 838
24.60328 916
24.6234 910
24.64351 978
24.66362 997
24.68374 1048
24.70385 1028
24.72397 1233
24.74408 1135
24.76419 1196
24.78431 1261
24.80442 1203
24.82453 1270
24.84465 1274
24.86476 1282
24.88488 1278
24.90499 1191
24.9251 1211
24.94522 1150
24.96533 1092
24.98544 1087
25.00556 982
25.02567 898
25.04579 951
25.0659 871
25.08601 911
25.10613 944
25.12624 905
25.14635 914
25.16647 854
25.18658 875
25.20669 869
25.22681 834
25.24692 826
25.26704 850
25.28715 773
25.30726 802
25.32738 791
25.34749 715
25.3676 665
25.38772 681
25.40783 646
25.42795 731
25.44806 657
25.46817 637
25.48829 625
25.5084 599
25.52851 654
25.54863 632
25.56874 603
25.58886 646
25.60897 615
25.62908 652
25.6492 665
25.66931 644
25.68942 634
25.70954 627
25.72965 657
25.74976 632
25.76988 636
25.78999 633
25.81011 612
25.83022 616
25.85033 591
25.87045 592
25.89056 564
25.91067 611
25.93079 633
25.9509 638
25.97102 611
25.99113 604
26.01124 658
26.03136 663
26.05147 663
26.07158 672
26.0917 655
26.11181 684
26.13193 688
26.15204 716
26.17215 742
26.19227 794
26.21238 781
26.23249 722
26.25261 784
26.27272 804
26.29283 815
26.31295 839
26.33306 866
26.35318 986
26.37329 1086
26.3934 1208
26.41352 1345
26.43363 1646
26.45374 1927
26.47386 2366
26.49397 3114
26.51409 4052
26.5342 5312
26.55431 6318
26.57443 6895
26.59454 6923
26.61465 6652
26.63477 6002
26.65488 5009
26.67499 3810
26.69511 2791
26.71522 2168
26.73534 1566
26.75545 1172
26.77556 1078
26.79568 925
26.81579 905
26.8359 834
26.85602 827
26.87613 737
26.89625 706
26.91636 711
26.93647 733
26.95659 691
26.9767 642
26.99681 644
27.01693 624
27.03704 577
27.05716 642
27.07727 609
27.09738 587
27.1175 578
27.13761 582
27.15772 576
27.17784 558
27.19795 530
27.21806 555
27.23818 557
27.25829 552
27.27841 541
27.29852 559
27.31863 557
27.33875 558
27.35886 601
27.37897 583
27.39909 571
27.4192 564
27.43932 525
27.45943 550
27.47954 536
27.49966 583
27.51977 538
27.53988 490
27.56 541
27.58011 523
27.60023 532
27.62034 572
27.64045 492
27.66057 557
27.68068 516
27.70079 548
27.72091 509
27.74102 511
27.76113 498
27.78125 505
27.80136 544
27.82148 491
27.84159 558
27.8617 538
27.88182 510
27.90193 492
27.92204 539
27.94216 559
27.96227 495
27.98239 510
28.0025 513
28.02261 551
28.04273 511
28.06284 517
28.08295 506
28.10307 519
28.12318 503
28.1433 494
28.16341 482
28.18352 507
28.20364 473
28.22375 501
28.24386 479
28.26398 495
28.28409 536
28.3042 498
28.32432 543
28.34443 514
28.36455 520
28.38466 476
28.40477 520
28.42489 469
28.445 509
28.46511 481
28.48523 502
28.50534 522
28.52546 482
28.54557 503
28.56568 491
28.5858 514
28.60591 514
28.62602 520
28.64614 523
28.66625 475
28.68636 519
28.70648 461
28.72659 475
28.74671 477
28.76682 479
28.78693 489
28.80705 518
28.82716 532
28.84727 499
28.86739 472
28.8875 442
28.90762 495
28.92773 455
28.94784 490
28.96796 445
28.98807 492
29.00818 486
29.0283 475
29.04841 446
29.06853 460
29.08864 523
29.10875 521
29.12887 460
29.14898 473
29.16909 476
29.18921 483
29.20932 433
29.22943 439
29.24955 468
29.26966 495
29.28978 500
29.30989 466
29.33 453
29.35012 487
29.37023 460
29.39034 451
29.41046 501
29.43057 484
29.45069 444
29.4708 495
29.49091 438
29.51103 529
29.53114 443
29.55125 463
29.57137 468
29.59148 458
29.6116 454
29.63171 458
29.65182 475
29.67194 454
29.69205 509
29.71216 442
29.73228 481
29.75239 499
29.7725 529
29.79262 514
29.81273 493
29.83285 461
29.85296 449
29.87307 504
29.89319 485
29.9133 495
29.93341 466
29.95353 478
29.97364 485
29.99376 549
30.01387 475
30.03398 469
30.0541 485
30.07421 454
30.09432 497
30.11444 458
30.13455 455
30.15467 458
30.17478 485
30.19489 505
30.21501 475
30.23512 470
30.25523 427
30.27535 462
30.29546 489
30.31557 524
30.33569 462
30.3558 452
30.37592 467
30.39603 471
30.41614 486
30.43626 499
30.45637 484
30.47648 485
30.4966 499
30.51671 470
30.53683 490
30.55694 499
30.57705 453
30.59717 475
30.61728 483
30.63739 407
30.65751 452
30.67762 477
30.69773 470
30.71785 445
30.73796 475
30.75808 492
30.77819 501
30.7983 451
30.81842 471
30.83853 476
30.85864 450
30.87876 484
30.89887 457
30.91899 476
30.9391 459
30.95921 444
30.97933 505
30.99944 480
31.01955 469
31.03967 440
31.05978 483
31.0799 496
31.10001 468
31.12012 460
31.14024 490
31.16035 427
31.18046 492
31.20058 465
31.22069 440
31.2408 486
31.26092 470
31.28103 484
31.30115 464
31.32126 505
31.34137 477
31.36149 532
31.3816 474
31.40171 479
31.42183 451
31.44194 492
31.46206 495
31.48217 486
31.50228 445
31.5224 494
31.54251 499
31.56262 476
31.58274 470
31.60285 511
31.62297 454
31.64308 457
31.66319 465
31.68331 455
31.70342 464
31.72353 477
31.74365 436
31.76376 466
31.78387 487
31.80399 452
31.8241 443
31.84422 462
31.86433 489
31.88444 446
31.90456 483
31.92467 428
31.94478 498
31.9649 432
31.98501 471
32.00513 465
32.02524 474
32.04535 465
32.06547 448
32.08558 526
32.10569 478
32.12581 495
32.14592 470
32.16604 541
32.18615 468
32.20626 485
32.22638 542
32.24649 495
32.2666 484
32.28672 518
32.30683 510
32.32694 491
32.34706 508
32.36717 516
32.38729 557
32.4074 560
32.42751 567
32.44763 576
32.46774 560
32.48785 610
32.50797 608
32.52808 574
32.5482 648
32.56831 576
32.58842 610
32.60854 575
32.62865 599
32.64876 564
32.66888 547
32.68899 553
32.7091 563
32.72922 616
32.74933 572
32.76945 541
32.78956 567
32.80967 515
32.82979 555
32.8499 578
32.87001 589
32.89013 562
32.91024 605
32.93036 575
32.95047 638
32.97058 619
32.9907 650
33.01081 645
33.03092 714
33.05104 669
33.07115 690
33.09127 690
33.11138 709
33.13149 710
33.15161 683
33.17172 616
33.19183 646
33.21195 641
33.23206 647
33.25217 616
33.27229 583
33.2924 634
33.31252 581
33.33263 595
33.35274 596
33.37286 609
33.39297 596
33.41308 587
33.4332 561
33.45331 542
33.47343 555
33.49354 550
33.51365 526
33.53377 622
33.55388 558
33.57399 539
33.59411 547
33.61422 533
33.63434 547
33.65445 508
33.67456 573
33.69468 570
33.71479 500
33.7349 526
33.75502 561
33.77513 533
33.79524 482
33.81536 529
33.83547 537
33.85559 467
33.8757 492
33.89581 519
33.91593 508
33.93604 528
33.95615 494
33.97627 500
33.99638 489
34.0165 509
34.03661 504
34.05672 511
34.07684 515
34.09695 510
34.11706 514
34.13718 531
34.15729 585
34.17741 501
34.19752 488
34.21763 508
34.23775 500
34.25786 501
34.27797 503
34.29809 472
34.3182 481
34.33831 518
34.35843 503
34.37854 522
34.39866 550
34.41877 517
34.43888 505
34.459 544
34.47911 498
34.49922 511
34.51934 526
34.53945 555
34.55957 574
34.57968 522
34.59979 565
34.61991 590
34.64002 564
34.66013 626
34.68025 666
34.70036 615
34.72047 596
34.74059 648
34.7607 697
34.78082 714
34.80093 771
34.82104 776
34.84116 740
34.86127 797
34.88138 814
34.9015 815
34.92161 817
34.94173 825
34.96184 814
34.98195 793
35.00207 804
35.02218 787
35.04229 754
35.06241 795
35.08252 747
35.10264 727
35.12275 732
35.14286 736
35.16298 734
35.18309 772
35.2032 744
35.22332 786
35.24343 780
35.26354 749
35.28366 762
35.30377 828
35.32389 772
35.344 759
35.36411 781
35.38423 810
35.40434 751
35.42445 824
35.44457 760
35.46468 803
35.4848 794
35.50491 868
35.52502 816
35.54514 845
35.56525 881
35.58536 920
35.60548 904
35.62559 894
35.64571 934
35.66582 903
35.68593 908
35.70605 954
35.72616 946
35.74627 947
35.76639 922
35.7865 913
35.80661 898
35.82673 931
35.84684 861
35.86696 831
35.88707 861
35.90718 817
35.9273 854
35.94741 835
35.96752 853
35.98764 795
36.00775 769
36.02787 721
36.04798 730
36.06809 717
36.08821 703
36.10832 683
36.12843 645
36.14855 647
36.16866 649
36.18878 699
36.20889 618
36.229 664
36.24912 616
36.26923 686
36.28934 681
36.30946 624
36.32957 676
36.34968 725
36.3698 702
36.38991 789
36.41003 846
36.43014 880
36.45025 916
36.47037 974
36.49048 964
36.51059 939
36.53071 902
36.55082 892
36.57094 850
36.59105 831
36.61116 689
36.63128 755
36.65139 709
36.6715 666
36.69162 612
36.71173 627
36.73184 603
36.75196 658
36.77207 610
36.79219 608
36.8123 623
36.83241 611
36.85253 606
36.87264 596
36.89275 677
36.91287 618
36.93298 649
36.9531 604
36.97321 608
36.99332 602
37.01344 649
37.03355 647
37.05366 634
37.07378 616
37.09389 578
37.11401 607
37.13412 604
37.15423 682
37.17435 632
37.19446 632
37.21457 572
37.23469 579
37.2548 617
37.27491 608
37.29503 613
37.31514 561
37.33526 580
37.35537 649
37.37548 606
37.3956 596
37.41571 645
37.43582 581
37.45594 588
37.47605 610
37.49617 634
37.51628 621
37.53639 676
37.55651 608
37.57662 651
37.59673 623
37.61685 654
37.63696 693
37.65708 660
37.67719 644
37.6973 642
37.71742 659
37.73753 622
37.75764 655
37.77776 682
37.79787 634
37.81798 639
37.8381 613
37.85821 622
37.87833 646
37.89844 652
37.91855 606
37.93867 618
37.95878 696
37.97889 668
37.99901 678
38.01912 721
38.03924 700
38.05935 688
38.07946 699
38.09958 743
38.11969 736
38.1398 820
38.15992 763
38.18003 775
38.20015 805
38.22026 778
38.24037 887
38.26049 831
38.2806 872
38.30071 824
38.32083 873
38.34094 955
38.36105 915
38.38117 862
38.40128 886
38.4214 848
38.44151 829
38.46162 861
38.48174 845
38.50185 809
38.52196 809
38.54208 747
38.56219 755
38.58231 784
38.60242 709
38.62253 751
38.64265 707
38.66276 694
38.68287 697
38.70299 668
38.7231 635
38.74321 640
38.76333 655
38.78344 626
38.80356 586
38.82367 691
38.84378 657
38.8639 669
38.88401 703
38.90412 709
38.92424 703
38.94435 651
38.96447 684
38.98458 685
39.00469 622
39.02481 710
39.04492 713
39.06503 704
39.08515 721
39.10526 749
39.12538 723
39.14549 682
39.1656 743
39.18572 732
39.20583 697
39.22594 698
39.24606 744
39.26617 765
39.28628 777
39.3064 808
39.32651 859
39.34663 851
39.36674 875
39.38685 927
39.40697 961
39.42708 936
39.44719 927
39.46731 834
39.48742 785
39.50754 800
39.52765 698
39.54776 652
39.56788 605
39.58799 601
39.6081 587
39.62822 599
39.64833 512
39.66845 601
39.68856 511
39.70867 524
39.72879 537
39.7489 552
39.76901 528
39.78913 486
39.80924 526
39.82935 522
39.84947 533
39.86958 572
39.8897 509
39.90981 514
39.92992 590
39.95004 556
39.97015 564
39.99026 505
40.01038 531
40.03049 546
40.05061 573
40.07072 555
40.09083 605
40.11095 574
40.13106 619
40.15117 654
40.17129 668
40.1914 668
40.21152 705
40.23163 696
40.25174 711
40.27186 712
40.29197 635
40.31208 624
40.3322 688
40.35231 604
40.37242 640
40.39254 589
40.41265 621
40.43277 588
40.45288 559
40.47299 560
40.49311 552
40.51322 542
40.53333 561
40.55345 545
40.57356 536
40.59368 527
40.61379 539
40.6339 524
40.65402 559
40.67413 573
40.69424 536
40.71436 560
40.73447 566
40.75458 559
40.7747 539
40.79481 592
40.81493 576
40.83504 547
40.85515 578
40.87527 570
40.89538 581
40.91549 582
40.93561 567
40.95572 588
40.97584 595
40.99595 569
41.01606 556
41.03618 580
41.05629 527
41.0764 618
41.09652 601
41.11663 563
41.13675 545
41.15686 566
41.17697 545
41.19709 569
41.2172 524
41.23731 549
41.25743 558
41.27754 498
41.29765 488
41.31777 504
41.33788 508
41.358 517
41.37811 520
41.39822 489
41.41834 522
41.43845 492
41.45856 502
41.47868 520
41.49879 502
41.51891 499
41.53902 507
41.55913 504
41.57925 484
41.59936 537
41.61947 530
41.63959 507
41.6597 553
41.67982 501
41.69993 507
41.72004 489
41.74016 495
41.76027 475
41.78038 495
41.8005 502
41.82061 523
41.84072 489
41.86084 465
41.88095 462
41.90107 481
41.92118 467
41.94129 467
41.96141 448
41.98152 495
42.00163 473
42.02175 466
42.04186 439
42.06198 490
42.08209 505
42.1022 469
42.12232 483
42.14243 491
42.16254 514
42.18266 518
42.20277 511
42.22289 503
42.243 576
42.26311 549
42.28323 593
42.30334 586
42.32345 626
42.34357 652
42.36368 726
42.38379 721
42.40391 709
42.42402 642
42.44414 667
42.46425 601
42.48436 616
42.50448 623
42.52459 591
42.5447 549
42.56482 558
42.58493 500
42.60505 488
42.62516 463
42.64527 462
42.66539 465
42.6855 414
42.70561 454
42.72573 433
42.74584 421
42.76595 454
42.78607 444
42.80618 452
42.8263 454
42.84641 462
42.86652 431
42.88664 455
42.90675 428
42.92686 468
42.94698 465
42.96709 447
42.98721 469
43.00732 476
43.02743 427
43.04755 439
43.06766 454
43.08777 409
43.10789 441
43.128 438
43.14812 413
43.16823 458
43.18834 469
43.20846 465
43.22857 456
43.24868 464
43.2688 500
43.28891 477
43.30902 471
43.32914 434
43.34925 405
43.36937 469
43.38948 448
43.40959 432
43.42971 464
43.44982 433
43.46993 484
43.49005 439
43.51016 475
43.53028 468
43.55039 408
43.5705 461
43.59062 439
43.61073 449
43.63084 449
43.65096 461
43.67107 432
43.69119 453
43.7113 438
43.73141 430
43.75153 435
43.77164 410
43.79175 426
43.81187 431
43.83198 439
43.85209 425
43.87221 460
43.89232 449
43.91244 472
43.93255 447
43.95266 459
43.97278 439
43.99289 460
44.013 451
44.03312 467
44.05323 450
44.07335 488
44.09346 430
44.11357 475
44.13369 465
44.1538 465
44.17391 464
44.19403 471
44.21414 427
44.23426 438
44.25437 462
44.27448 470
44.2946 454
44.31471 438
44.33482 475
44.35494 430
44.37505 481
44.39516 477
44.41528 441
44.43539 471
44.45551 452
44.47562 474
44.49573 424
44.51585 495
44.53596 469
44.55607 461
44.57619 501
44.5963 449
44.61642 476
44.63653 470
44.65664 475
44.67676 451
44.69687 486
44.71698 465
44.7371 461
44.75721 478
44.77732 462
44.79744 464
44.81755 464
44.83767 481
44.85778 417
44.87789 472
44.89801 504
44.91812 501
44.93823 497
44.95835 477
44.97846 519
44.99858 502
45.01869 499
45.0388 497
45.05892 479
45.07903 457
45.09914 533
45.11926 478
45.13937 500
45.15949 482
45.1796 537
45.19971 551
45.21983 539
45.23994 561
45.26005 513
45.28017 496
45.30028 524
45.32039 589
45.34051 541
45.36062 504
45.38074 548
45.40085 563
45.42096 608
45.44108 568
45.46119 580
45.4813 568
45.50142 568
45.52153 531
45.54165 561
45.56176 561
45.58187 620
45.60199 586
45.6221 607
45.64221 630
45.66233 673
45.68244 675
45.70256 681
45.72267 686
45.74278 680
45.7629 704
45.78301 584
45.80312 632
45.82324 611
45.84335 567
45.86346 592
45.88358 519
45.90369 569
45.92381 531
45.94392 481
45.96403 501
45.98415 514
46.00426 457
46.02437 482
46.04449 505
46.0646 484
46.08472 458
46.10483 495
46.12494 485
46.14506 478
46.16517 480
46.18528 470
46.2054 467
46.22551 496
46.24563 465
46.26574 460
46.28585 435
46.30597 476
46.32608 501
46.34619 471
46.36631 470
46.38642 489
46.40653 460
46.42665 495
46.44676 485
46.46688 472
46.48699 495
46.5071 505
46.52722 496
46.54733 465
46.56744 524
46.58756 450
46.60767 493
46.62779 487
46.6479 480
46.66801 482
46.68813 507
46.70824 506
46.72835 472
46.74847 456
46.76858 476
46.78869 493
46.80881 510
46.82892 498
46.84904 524
46.86915 454
46.88926 470
46.90938 496
46.92949 461
46.9496 442
46.96972 447
46.98983 481
47.00995 447
47.03006 497
47.05017 478
47.07029 485
47.0904 438
47.11051 470
47.13063 475
47.15074 477
47.17086 476
47.19097 481
47.21108 474
47.2312 456
47.25131 452
47.27142 506
47.29154 495
47.31165 461
47.33176 469
47.35188 462
47.37199 517
47.39211 496
47.41222 488
47.43233 478
47.45245 448
47.47256 483
47.49267 498
47.51279 498
47.5329 470
47.55302 518
47.57313 449
47.59324 486
47.61336 488
47.63347 513
47.65358 481
47.6737 509
47.69381 503
47.71393 487
47.73404 492
47.75415 486
47.77427 529
47.79438 517
47.81449 498
47.83461 503
47.85472 540
47.87483 479
47.89495 515
47.91506 527
47.93518 530
47.95529 457
47.9754 498
47.99552 512
48.01563 518
48.03574 527
48.05586 469
48.07597 481
48.09609 492
48.1162 484
48.13631 447
48.15643 472
48.17654 449
48.19665 497
48.21677 505
48.23688 495
48.257 437
48.27711 462
48.29722 485
48.31734 456
48.33745 451
48.35756 491
48.37768 476
48.39779 442
48.4179 458
48.43802 449
48.45813 461
48.47825 506
48.49836 506
48.51847 502
48.53859 484
48.5587 501
48.57881 477
48.59893 499
48.61904 484
48.63916 456
48.65927 471
48.67938 496
48.6995 475
48.71961 483
48.73972 487
48.75984 488
48.77995 451
48.80006 448
48.82018 499
48.84029 459
48.86041 492
48.88052 441
48.90063 505
48.92075 534
48.94086 468
48.96097 503
48.98109 507
49.0012 506
49.02132 484
49.04143 489
49.06154 504
49.08166 498
49.10177 478
49.12188 471
49.142 518
49.16211 531
49.18223 459
49.20234 494
49.22245 532
49.24257 530
49.26268 528
49.28279 511
49.30291 538
49.32302 545
49.34313 514
49.36325 524
49.38336 475
49.40348 561
49.42359 562
49.4437 514
49.46382 564
49.48393 544
49.50404 530
49.52416 528
49.54427 540
49.56439 528
49.5845 530
49.60461 476
49.62473 517
49.64484 501
49.66495 511
49.68507 549
49.70518 536
49.7253 499
49.74541 544
49.76552 549
49.78564 566
49.80575 559
49.82586 584
49.84598 570
49.86609 592
49.8862 575
49.90632 659
49.92643 647
49.94655 681
49.96666 676
49.98677 845
50.00689 933
50.027 944
50.04711 1035
50.06723 1053
50.08734 1082
50.10746 1027
50.12757 931
50.14768 910
50.1678 826
50.18791 776
50.20802 763
50.22814 666
50.24825 666
50.26837 641
50.28848 565
50.30859 547
50.32871 517
50.34882 475
50.36893 522
50.38905 498
50.40916 476
50.42927 445
50.44939 490
50.4695 490
50.48962 502
50.50973 519
50.52984 492
50.54996 491
50.57007 516
50.59018 495
50.6103 485
50.63041 492
50.65053 488
50.67064 471
50.69075 467
50.71087 487
50.73098 496
50.75109 497
50.77121 463
50.79132 427
50.81143 477
50.83155 464
50.85166 432
50.87178 485
50.89189 458
50.912 503
50.93212 480
50.95223 454
50.97234 440
50.99246 464
51.01257 436
51.03269 464
51.0528 483
51.07291 495
51.09303 476
51.11314 440
51.13325 469
51.15337 447
51.17348 435
51.1936 447
51.21371 462
51.23382 458
51.25394 490
51.27405 393
51.29416 440
51.31428 416
51.33439 447
51.3545 440
51.37462 467
51.39473 429
51.41485 454
51.43496 466
51.45507 419
51.47519 477
51.4953 453
51.51541 422
51.53553 434
51.55564 452
51.57576 460
51.59587 451
51.61598 430
51.6361 423
51.65621 441
51.67632 441
51.69644 380
51.71655 458
51.73667 428
51.75678 462
51.77689 434
51.79701 460
51.81712 429
51.83723 465
51.85735 438
51.87746 415
51.89757 418
51.91769 432
51.9378 486
51.95792 437
51.97803 407
51.99814 408
52.01826 459
52.03837 452
52.05848 440
52.0786 459
52.09871 494
52.11883 448
52.13894 474
52.15905 436
52.17917 436
52.19928 429
52.21939 449
52.23951 461
52.25962 460
52.27974 462
52.29985 462
52.31996 435
52.34008 434
52.36019 452
52.3803 429
52.40042 461
52.42053 455
52.44064 407
52.46076 466
52.48087 429
52.50099 414
52.5211 448
52.54121 426
52.56133 418
52.58144 470
52.60155 442
52.62167 488
52.64178 448
52.6619 492
52.68201 408
52.70212 460
52.72224 451
52.74235 472
52.76246 439
52.78258 479
52.80269 426
52.8228 494
52.84292 471
52.86303 521
52.88315 455
52.90326 482
52.92337 469
52.94349 481
52.9636 473
52.98371 484
53.00383 483
53.02394 459
53.04406 471
53.06417 510
53.08428 480
53.1044 467
53.12451 502
53.14462 491
53.16474 461
53.18485 477
53.20497 457
53.22508 512
53.24519 507
53.26531 515
53.28542 492
53.30553 456
53.32565 517
53.34576 513
53.36587 572
53.38599 485
53.4061 498
53.42622 593
53.44633 550
53.46644 506
53.48656 560
53.50667 523
53.52678 526
53.5469 526
53.56701 513
53.58713 539
53.60724 520
53.62735 493
53.64747 545
53.66758 549
53.68769 543
53.70781 573
53.72792 546
53.74804 572
53.76815 549
53.78826 563
53.80838 602
53.82849 558
53.8486 598
53.86872 553
53.88883 611
53.90894 600
53.92906 587
53.94917 597
53.96929 595
53.9894 606
54.00951 640
54.02963 640
54.04974 624
54.06985 657
54.08997 647
54.11008 623
54.1302 606
54.15031 664
54.17042 663
54.19054 636
54.21065 658
54.23076 637
54.25088 644
54.27099 685
54.29111 609
54.31122 624
54.33133 664
54.35145 603
54.37156 655
54.39167 628
54.41179 623
54.4319 632
54.45201 631
54.47213 680
54.49224 637
54.51236 634
54.53247 619
54.55258 635
54.5727 594
54.59281 643
54.61292 604
54.63304 646
54.65315 646
54.67327 681
54.69338 709
54.71349 692
54.73361 692
54.75372 747
54.77383 845
54.79395 822
54.81406 850
54.83417 810
54.85429 777
54.8744 725
54.89452 724
54.91463 722
54.93474 697
54.95486 688
54.97497 729
54.99508 672
55.0152 657
55.03531 664
55.05543 635
55.07554 700
55.09565 647
55.11577 653
55.13588 624
55.15599 614
55.17611 657
55.19622 674
55.21634 662
55.23645 662
55.25656 704
55.27668 673
55.29679 645
55.3169 608
55.33702 599
55.35713 602
55.37724 595
55.39736 621
55.41747 624
55.43759 634
55.4577 643
55.47781 600
55.49793 565
55.51804 563
55.53815 573
55.55827 571
55.57838 539
55.5985 521
55.61861 577
55.63872 540
55.65884 520
55.67895 532
55.69906 527
55.71918 528
55.73929 507
55.75941 521
55.77952 560
55.79963 515
55.81975 518
55.83986 485
55.85997 523
55.88009 480
55.9002 501
55.92031 523
55.94043 519
55.96054 507
55.98066 548
56.00077 523
56.02088 482
56.041 512
56.06111 499
56.08122 501
56.10134 503
56.12145 523
56.14157 496
56.16168 540
56.18179 508
56.20191 525
56.22202 536
56.24213 491
56.26225 510
56.28236 546
56.30248 520
56.32259 545
56.3427 534
56.36282 492
56.38293 519
56.40304 525
56.42316 485
56.44327 527
56.46338 527
56.4835 517
56.50361 504
56.52373 507
56.54384 527
56.56395 563
56.58407 521
56.60418 495
56.62429 508
56.64441 473
56.66452 494
56.68464 514
56.70475 486
56.72486 524
56.74498 529
56.76509 493
56.7852 440
56.80532 456
56.82543 503
56.84554 478
56.86566 498
56.88577 499
56.90589 503
56.926 505
56.94611 494
56.96623 503
56.98634 483
57.00645 485
57.02657 520
57.04668 484
57.0668 477
57.08691 498
57.10702 481
57.12714 491
57.14725 516
57.16736 468
57.18748 493
57.20759 451
57.22771 484
57.24782 518
57.26793 467
57.28805 517
57.30816 476
57.32827 451
57.34839 477
57.3685 480
57.38861 496
57.40873 473
57.42884 474
57.44896 471
57.46907 484
57.48918 486
57.5093 471
57.52941 488
57.54952 448
57.56964 534
57.58975 523
57.60987 443
57.62998 458
57.65009 479
57.67021 460
57.69032 492
57.71043 468
57.73055 505
57.75066 466
57.77078 455
57.79089 499
57.811 489
57.83112 475
57.85123 505
57.87134 470
57.89146 494
57.91157 488
57.93168 466
57.9518 481
57.97191 501
57.99203 459
58.01214 470
58.03225 480
58.05237 467
58.07248 490
58.09259 449
58.11271 502
58.13282 489
58.15294 466
58.17305 474
58.19316 490
58.21328 449
58.23339 460
58.2535 481
58.27362 497
58.29373 478
58.31385 479
58.33396 486
58.35407 455
58.37419 447
58.3943 513
58.41441 467
58.43453 464
58.45464 446
58.47475 460
58.49487 429
58.51498 477
58.5351 453
58.55521 443
58.57532 486
58.59544 482
58.61555 465
58.63566 438
58.65578 473
58.67589 434
58.69601 457
58.71612 461
58.73623 450
58.75635 452
58.77646 465
58.79657 458
58.81669 436
58.8368 446
58.85691 445
58.87703 452
58.89714 447
58.91726 439
58.93737 436
58.95748 509
58.9776 460
58.99771 474
59.01782 460
59.03794 456
59.05805 477
59.07817 425
59.09828 450
59.11839 453
59.13851 473
59.15862 470
59.17873 466
59.19885 473
59.21896 464
59.23908 437
59.25919 489
59.2793 485
59.29942 470
59.31953 478
59.33964 511
59.35976 511
59.37987 488
59.39998 483
59.4201 495
59.44021 484
59.46033 492
59.48044 505
59.50055 476
59.52067 515
59.54078 502
59.56089 464
59.58101 525
59.60112 558
59.62124 536
59.64135 512
59.66146 530
59.68158 546
59.70169 597
59.7218 582
59.74192 608
59.76203 702
59.78215 664
59.80226 726
59.82237 777
59.84249 879
59.8626 886
59.88271 906
59.90283 821
59.92294 841
59.94305 744
59.96317 747
59.98328 714
60.0034 715
60.02351 679
60.04362 712
60.06374 611
60.08385 650
60.10396 633
60.12408 571
60.14419 535
60.16431 516
60.18442 518
60.20453 526
60.22465 511
60.24476 494
60.26487 515
60.28499 437
60.3051 456
60.32522 452
60.34533 458
60.36544 467
60.38556 457
60.40567 484
60.42578 420
60.4459 457
60.46601 482
60.48612 495
60.50624 499
60.52635 481
60.54647 438
60.56658 459
60.58669 475
60.60681 456
60.62692 447
60.64703 446
60.66715 446
60.68726 467
60.70738 448
60.72749 458
60.7476 467
60.76772 450
60.78783 454
60.80794 435
60.82806 433
60.84817 447
60.86828 462
60.8884 428
60.90851 440
60.92863 439
60.94874 434
60.96885 469
60.98897 466
61.00908 437
61.02919 443
61.04931 466
61.06942 446
61.08954 460
61.10965 460
61.12976 471
61.14988 445
61.16999 461
61.1901 414
61.21022 446
61.23033 454
61.25045 454
61.27056 452
61.29067 483
61.31079 464
61.3309 461
61.35101 470
61.37113 450
61.39124 505
61.41135 491
61.43147 480
61.45158 491
61.4717 479
61.49181 491
61.51192 532
61.53204 482
61.55215 470
61.57226 528
61.59238 511
61.61249 509
61.63261 507
61.65272 523
61.67283 486
61.69295 482
61.71306 522
61.73317 541
61.75329 546
61.7734 496
61.79352 555
61.81363 571
61.83374 498
61.85386 553
61.87397 522
61.89408 582
61.9142 577
61.93431 585
61.95442 604
61.97454 637
61.99465 578
62.01477 606
62.03488 672
62.05499 750
62.07511 709
62.09522 718
62.11533 740
62.13545 791
62.15556 707
62.17568 782
62.19579 750
62.2159 797
62.23602 725
62.25613 742
62.27624 788
62.29636 718
62.31647 699
62.33659 664
62.3567 739
62.37681 689
62.39693 655
62.41704 681
62.43715 644
62.45727 626
62.47738 638
62.49749 614
62.51761 598
62.53772 599
62.55784 561
62.57795 574
62.59806 594
62.61818 557
62.63829 588
62.6584 526
62.67852 559
62.69863 509
62.71875 514
62.73886 486
62.75897 542
62.77909 500
62.7992 525
62.81931 557
62.83943 472
62.85954 501
62.87965 505
62.89977 562
62.91988 521
62.94 547
62.96011 504
62.98022 485
63.00034 494
63.02045 505
63.04056 492
63.06068 501
63.08079 479
63.10091 519
63.12102 493
63.14113 489
63.16125 512
63.18136 480
63.20147 497
63.22159 500
63.2417 523
63.26182 486
63.28193 530
63.30204 527
63.32216 501
63.34227 515
63.36238 492
63.3825 501
63.40261 494
63.42272 522
63.44284 482
63.46295 510
63.48307 503
63.50318 511
63.52329 529
63.54341 494
63.56352 508
63.58363 504
63.60375 539
63.62386 505
63.64398 542
63.66409 545
63.6842 544
63.70432 557
63.72443 548
63.74454 519
63.76466 531
63.78477 535
63.80489 553
63.825 561
63.84511 542
63.86523 543
63.88534 611
63.90545 600
63.92557 616
63.94568 610
63.96579 590
63.98591 598
64.00602 614
64.02614 564
64.04625 582
64.06636 561
64.08648 579
64.10659 583
64.1267 569
64.14682 569
64.16693 567
64.18705 600
64.20716 527
64.22727 561
64.24739 545
64.2675 521
64.28761 535
64.30773 526
64.32784 479
64.34796 537
64.36807 495
64.38818 518
64.4083 476
64.42841 447
64.44852 486
64.46864 485
64.48875 511
64.50886 493
64.52898 461
64.54909 481
64.56921 461
64.58932 494
64.60943 470
64.62955 529
64.64966 468
64.66977 458
64.68989 443
64.71 459
64.73012 461
64.75023 457
64.77034 463
64.79046 492
64.81057 463
64.83068 470
64.8508 443
64.87091 423
64.89102 462
64.91114 419
64.93125 459
64.95137 428
64.97148 440
64.99159 483
65.01171 444
65.03182 444
65.05193 463
65.07205 452
65.09216 442
65.11228 428
65.13239 443
65.1525 425
65.17262 446
65.19273 467
65.21284 467
65.23296 452
65.25307 440
65.27319 436
65.2933 453
65.31341 441
65.33353 480
65.35364 442
65.37375 405
65.39387 421
65.41398 434
65.43409 418
65.45421 449
65.47432 465
65.49444 437
65.51455 472
65.53466 447
65.55478 437
65.57489 446
65.595 456
65.61512 459
65.63523 474
65.65535 450
65.67546 462
65.69557 441
65.71569 470
65.7358 456
65.75591 446
65.77603 448
65.79614 424
65.81626 486
65.83637 421
65.85648 436
65.8766 447
65.89671 424
65.91682 443
65.93694 429
65.95705 456
65.97716 434
65.99728 421
66.01739 431
66.03751 475
66.05762 461
66.07773 463
66.09785 468
66.11796 438
66.13807 418
66.15819 460
66.1783 456
66.19842 469
66.21853 485
66.23864 439
66.25876 434
66.27887 415
66.29898 436
66.3191 461
66.33921 462
66.35933 487
66.37944 453
66.39955 440
66.41967 440
66.43978 458
66.45989 402
66.48001 429
66.50012 475
66.52023 427
66.54035 419
66.56046 438
66.58058 477
66.60069 438
66.6208 481
66.64092 475
66.66103 451
66.68114 469
66.70126 444
66.72137 475
66.74149 427
66.7616 461
66.78171 496
66.80183 470
66.82194 435
66.84205 417
66.86217 459
66.88228 466
66.90239 421
66.92251 468
66.94262 462
66.96274 417
66.98285 493
67.00296 470
67.02308 503
67.04319 459
67.0633 477
67.08342 473
67.10353 439
67.12365 429
67.14376 489
67.16387 475
67.18399 421
67.2041 510
67.22421 474
67.24433 454
67.26444 460
67.28456 495
67.30467 448
67.32478 490
67.3449 449
67.36501 508
67.38512 454
67.40524 485
67.42535 490
67.44546 489
67.46558 506
67.48569 455
67.50581 506
67.52592 522
67.54603 564
67.56615 576
67.58626 621
67.60637 653
67.62649 661
67.6466 659
67.66672 683
67.68683 688
67.70694 663
67.72706 576
67.74717 609
67.76728 573
67.7874 608
67.80751 630
67.82763 619
67.84774 615
67.86785 635
67.88797 624
67.90808 623
67.92819 654
67.94831 676
67.96842 630
67.98853 719
68.00865 750
68.02876 686
68.04888 741
68.06899 771
68.0891 760
68.10922 753
68.12933 715
68.14944 724
68.16956 695
68.18967 753
68.20979 730
68.2299 709
68.25001 755
68.27013 753
68.29024 736
68.31035 653
68.33047 596
68.35058 561
68.3707 613
68.39081 584
68.41092 572
68.43104 561
68.45115 550
68.47126 540
68.49138 499
68.51149 496
68.5316 500
68.55172 494
68.57183 450
68.59195 504
68.61206 457
68.63217 468
68.65229 469
68.6724 446
68.69251 466
68.71263 495
68.73274 442
68.75286 483
68.77297 464
68.79308 446
68.8132 440
68.83331 461
68.85342 477
68.87354 454
68.89365 450
68.91376 443
68.93388 445
68.95399 461
68.97411 397
68.99422 439
69.01433 454
69.03445 467
69.05456 445
69.07467 423
69.09479 423
69.1149 465
69.13502 417
69.15513 448
69.17524 480
69.19536 473
69.21547 433
69.23558 461
69.2557 455
69.27581 485
69.29593 440
69.31604 422
69.33615 444
69.35627 418
69.37638 456
69.39649 435
69.41661 425
69.43672 466
69.45683 432
69.47695 415
69.49706 468
69.51718 434
69.53729 456
69.5574 442
69.57752 409
69.59763 404
69.61774 442
69.63786 450
69.65797 448
69.67809 401
69.6982 457
69.71831 414
69.73843 475
69.75854 440
69.77865 439
69.79877 415
69.81888 455
69.839 445
69.85911 445
69.87922 478
69.89934 446
69.91945 471
69.93956 454
69.95968 438
69.97979 427
69.9999 440
70.02002 483
70.04013 491
70.06025 444
70.08036 444
70.10047 434
70.12059 468
70.1407 497
70.16081 450
70.18093 445
70.20104 462
70.22116 460
70.24127 452
70.26138 432
70.2815 466
70.30161 430
70.32172 459
70.34184 453
70.36195 433
70.38207 440
70.40218 462
70.42229 452
70.44241 404
70.46252 432
70.48263 403
70.50275 443
70.52286 467
70.54297 423
70.56309 451
70.5832 407
70.60332 400
70.62343 465
70.64354 443
70.66366 452
70.68377 417
70.70388 419
70.724 405
70.74411 426
70.76423 477
70.78434 429
70.80445 456
70.82457 456
70.84468 420
70.86479 392
70.88491 418
70.90502 453
70.92513 409
70.94525 466
70.96536 431
70.98548 411
71.00559 430
71.0257 424
71.04582 414
71.06593 443
71.08604 433
71.10616 415
71.12627 427
71.14639 433
71.1665 426
71.18661 419
71.20673 431
71.22684 455
71.24695 429
71.26707 465
71.28718 422
71.3073 440
71.32741 456
71.34752 415
71.36764 443
71.38775 436
71.40786 469
71.42798 455
71.44809 443
71.4682 442
71.48832 415
71.50843 466
71.52855 480
71.54866 452
71.56877 459
71.58889 433
71.609 418
71.62911 422
71.64923 428
71.66934 451
71.68946 429
71.70957 478
71.72968 490
71.7498 441
71.76991 445
71.79002 509
71.81014 463
71.83025 444
71.85037 464
71.87048 484
71.89059 496
71.91071 478
71.93082 463
71.95093 476
71.97105 484
71.99116 479
72.01127 469
72.03139 425
72.0515 484
72.07162 489
72.09173 468
72.11184 462
72.13196 432
72.15207 465
72.17218 507
72.1923 465
72.21241 467
72.23253 444
72.25264 466
72.27275 452
72.29287 445
72.31298 457
72.33309 463
72.35321 472
72.37332 459
72.39344 386
72.41355 479
72.43366 444
72.45378 459
72.47389 434
72.494 452
72.51412 442
72.53423 400
72.55434 451
72.57446 458
72.59457 474
72.61469 445
72.6348 430
72.65491 435
72.67503 476
72.69514 440
72.71525 433
72.73537 446
72.75548 447
72.7756 406
72.79571 446
72.81582 440
72.83594 414
72.85605 430
72.87616 454
72.89628 426
72.91639 444
72.9365 445
72.95662 470
72.97673 417
72.99685 474
73.01696 427
73.03707 446
73.05719 451
73.0773 432
73.09741 448
73.11753 456
73.13764 461
73.15776 465
73.17787 491
73.19798 472
73.2181 478
73.23821 495
73.25832 465
73.27844 470
73.29855 470
73.31867 524
73.33878 574
73.35889 556
73.37901 571
73.39912 550
73.41923 542
73.43935 551
73.45946 483
73.47957 531
73.49969 489
73.5198 520
73.53992 515
73.56003 505
73.58014 472
73.60026 539
73.62037 532
73.64048 492
73.6606 485
73.68071 478
73.70083 508
73.72094 485
73.74105 442
73.76117 491
73.78128 450
73.80139 449
73.82151 446
73.84162 459
73.86174 473
73.88185 480
73.90196 428
73.92208 461
73.94219 462
73.9623 458
73.98242 424
74.00253 437
74.02264 468
74.04276 430
74.06287 415
74.08299 447
74.1031 441
74.12321 417
74.14333 399
74.16344 463
74.18355 462
74.20367 388
74.22378 462
74.2439 445
74.26401 418
74.28412 428
74.30424 471
74.32435 436
74.34446 427
74.36458 419
74.38469 424
74.40481 397
74.42492 461
74.44503 460
74.46515 422
74.48526 432
74.50537 440
74.52549 441
74.5456 435
74.56571 425
74.58583 420
74.60594 456
74.62606 451
74.64617 442
74.66628 463
74.6864 442
74.70651 450
74.72662 409
74.74674 456
74.76685 422
74.78697 446
74.80708 456
74.82719 464
74.84731 472
74.86742 466
74.88753 438
74.90765 450
74.92776 430
74.94787 463
74.96799 457
74.9881 434
75.00822 433
