3.00117 21539
3.02128 20833
3.0414 20548
3.06151 19973
3.08162 19064
3.10174 19071
3.12185 18105
3.14197 17406
3.16208 16958
3.18219 16426
3.20231 16271
3.22242 15687
3.24253 15527
3.26265 15147
3.28276 14569
3.30288 14239
3.32299 13564
3.3431 13096
3.36322 12755
3.38333 12069
3.40344 11910
3.42356 11753
3.44367 11106
3.46379 10930
3.4839 10426
3.50401 10295
3.52413 9628
3.54424 9260
3.56435 9037
3.58447 8625
3.60458 8479
3.62469 8249
3.64481 7916
3.66492 7576
3.68504 7167
3.70515 7094
3.72526 6646
3.74538 6700
3.76549 6266
3.7856 5798
3.80572 5912
3.82583 5514
3.84595 5188
3.86606 5118
3.88617 4990
3.90629 4704
3.9264 4635
3.94651 4336
3.96663 4056
3.98674 3877
4.00686 3915
4.02697 3671
4.04708 3351
4.0672 3433
4.08731 3095
4.10742 3170
4.12754 3069
4.14765 2903
4.16776 2667
4.18788 2493
4.20799 2549
4.22811 2448
4.24822 2283
4.26833 2130
4.28845 2179
4.30856 2130
4.32867 2116
4.34879 1943
4.3689 1949
4.38902 1898
4.40913 1784
4.42924 1875
4.44936 1734
4.46947 1690
4.48958 1700
4.5097 1676
4.52981 1652
4.54992 1498
4.57004 1521
4.59015 1468
4.61027 1409
4.63038 1444
4.65049 1282
4.67061 1298
4.69072 1298
4.71083 1270
4.73095 1328
4.75106 1226
4.77118 1267
4.79129 1147
4.8114 1068
4.83152 1168
4.85163 1089
4.87174 1152
4.89186 1091
4.91197 1049
4.93209 1028
4.9522 919
4.97231 1006
4.99243 991
5.01254 937
5.03265 983
5.05277 921
5.07288 891
5.09299 877
5.11311 837
5.13322 843
5.15334 850
5.17345 816
5.19356 815
5.21368 789
5.23379 721
5.2539 656
5.27402 727
5.29413 785
5.31425 714
5.33436 722
5.35447 696
5.37459 671
5.3947 662
5.41481 651
5.43493 624
5.45504 608
5.47516 585
5.49527 599
5.51538 611
5.5355 606
5.55561 526
5.57572 550
5.59584 549
5.61595 563
5.63606 501
5.65618 489
5.67629 538
5.69641 462
5.71652 543
5.73663 475
5.75675 533
5.77686 465
5.79697 521
5.81709 460
5.8372 500
5.85732 487
5.87743 482
5.89754 489
5.91766 425
5.93777 459
5.95788 421
5.978 446
5.99811 474
6.01823 449
6.03834 452
6.05845 459
6.07857 418
6.09868 415
6.11879 471
6.13891 439
6.15902 410
6.17913 409
6.19925 439
6.21936 402
6.23948 420
6.25959 419
6.2797 438
6.29982 435
6.31993 411
6.34004 404
6.36016 391
6.38027 409
6.40039 429
6.4205 360
6.44061 409
6.46073 427
6.48084 387
6.50095 405
6.52107 430
6.54118 446
6.56129 379
6.58141 426
6.60152 391
6.62164 357
6.64175 372
6.66186 422
6.68198 404
6.70209 332
6.7222 365
6.74232 422
6.76243 399
6.78255 389
6.80266 385
6.82277 393
6.84289 393
6.863 350
6.88311 387
6.90323 370
6.92334 341
6.94346 406
6.96357 410
6.98368 360
7.0038 380
7.02391 376
7.04402 368
7.06414 387
7.08425 358
7.10436 394
7.12448 333
7.14459 383
7.16471 363
7.18482 370
7.20493 328
7.22505 358
7.24516 391
7.26527 361
7.28539 324
7.3055 384
7.32562 367
7.34573 402
7.36584 407
7.38596 374
7.40607 367
7.42618 338
7.4463 368
7.46641 384
7.48653 415
7.50664 358
7.52675 354
7.54687 391
7.56698 398
7.58709 355
7.60721 369
7.62732 421
7.64743 351
7.66755 374
7.68766 378
7.70778 341
7.72789 398
7.748 348
7.76812 339
7.78823 357
7.80834 356
7.82846 327
7.84857 362
7.86869 358
7.8888 347
7.90891 378
7.92903 352
7.94914 383
7.96925 361
7.98937 375
8.00948 383
8.0296 369
8.04971 357
8.06982 355
8.08994 374
8.11005 370
8.13016 392
8.15028 351
8.17039 394
8.1905 375
8.21062 360
8.23073 373
8.25085 356
8.27096 386
8.29107 394
8.31119 354
8.3313 362
8.35141 389
8.37153 333
8.39164 353
8.41176 387
8.43187 367
8.45198 377
8.4721 335
8.49221 361
8.51232 357
8.53244 377
8.55255 393
8.57266 342
8.59278 362
8.61289 357
8.63301 352
8.65312 345
8.67323 346
8.69335 382
8.71346 371
8.73357 388
8.75369 382
8.7738 390
8.79392 360
8.81403 379
8.83414 391
8.85426 372
8.87437 420
8.89448 369
8.9146 360
8.93471 367
8.95483 375
8.97494 375
8.99505 355
9.01517 356
9.03528 375
9.05539 392
9.07551 364
9.09562 382
9.11573 380
9.13585 375
9.15596 369
9.17608 354
9.19619 383
9.2163 337
9.23642 326
9.25653 368
9.27664 403
9.29676 367
9.31687 382
9.33699 341
9.3571 355
9.37721 346
9.39733 359
9.41744 380
9.43755 363
9.45767 406
9.47778 369
9.4979 397
9.51801 348
9.53812 342
9.55824 325
9.57835 356
9.59846 373
9.61858 375
9.63869 370
9.6588 390
9.67892 368
9.69903 328
9.71915 394
9.73926 361
9.75937 383
9.77949 423
9.7996 377
9.81971 406
9.83983 346
9.85994 331
9.88006 353
9.90017 373
9.92028 373
9.9404 370
9.96051 358
9.98062 354
10.00074 367
10.02085 403
10.04097 401
10.06108 390
10.08119 381
10.10131 332
10.12142 378
10.14153 410
10.16165 360
10.18176 394
10.20187 370
10.22199 358
10.2421 333
10.26222 382
10.28233 316
10.30244 356
10.32256 372
10.34267 373
10.36278 342
10.3829 342
10.40301 345
10.42313 369
10.44324 380
10.46335 373
10.48347 362
10.50358 339
10.52369 390
10.54381 380
10.56392 320
10.58403 379
10.60415 399
10.62426 370
10.64438 404
10.66449 369
10.6846 368
10.70472 399
10.72483 366
10.74494 377
10.76506 377
10.78517 358
10.80529 368
10.8254 363
10.84551 365
10.86563 398
10.88574 340
10.90585 403
10.92597 375
10.94608 364
10.9662 376
10.98631 384
11.00642 396
11.02654 403
11.04665 388
11.06676 407
11.08688 411
11.10699 370
11.1271 365
11.14722 390
11.16733 390
11.18745 406
11.20756 379
11.22767 379
11.24779 446
11.2679 373
11.28801 398
11.30813 416
11.32824 376
11.34836 422
11.36847 359
11.38858 407
11.4087 426
11.42881 430
11.44892 404
11.46904 385
11.48915 387
11.50927 426
11.52938 379
11.54949 423
11.56961 394
11.58972 429
11.60983 443
11.62995 423
11.65006 442
11.67017 468
11.69029 457
11.7104 501
11.73052 472
11.75063 454
11.77074 558
11.79086 497
11.81097 515
11.83108 535
11.8512 552
11.87131 506
11.89143 574
11.91154 577
11.93165 592
11.95177 629
11.97188 673
11.99199 666
12.01211 735
12.03222 731
12.05234 771
12.07245 770
12.09256 787
12.11268 874
12.13279 871
12.1529 948
12.17302 959
12.19313 1020
12.21324 1026
12.23336 1140
12.25347 1094
12.27359 1094
12.2937 1016
12.31381 1054
12.33393 961
12.35404 951
12.37415 905
12.39427 931
12.41438 841
12.4345 811
12.45461 742
12.47472 651
12.49484 708
12.51495 678
12.53506 580
12.55518 605
12.57529 581
12.5954 532
12.61552 496
12.63563 476
12.65575 485
12.67586 482
12.69597 475
12.71609 474
12.7362 458
12.75631 435
12.77643 432
12.79654 414
12.81666 387
12.83677 396
12.85688 388
12.877 383
12.89711 420
12.91722 375
12.93734 368
12.95745 403
12.97757 344
12.99768 399
13.01779 345
13.03791 384
13.05802 383
13.07813 367
13.09825 384
13.11836 386
13.13847 358
13.15859 350
13.1787 377
13.19882 319
13.21893 363
13.23904 378
13.25916 359
13.27927 348
13.29938 343
13.3195 337
13.33961 365
13.35973 337
13.37984 349
13.39995 358
13.42007 365
13.44018 331
13.46029 350
13.48041 354
13.50052 384
13.52064 340
13.54075 385
13.56086 350
13.58098 358
13.60109 379
13.6212 348
13.64132 340
13.66143 318
13.68154 397
13.70166 323
13.72177 342
13.74189 363
13.762 348
13.78211 349
13.80223 325
13.82234 336
13.84245 347
13.86257 371
13.88268 328
13.9028 342
13.92291 334
13.94302 354
13.96314 331
13.98325 338
14.00336 333
14.02348 358
14.04359 338
14.06371 368
14.08382 313
14.10393 314
14.12405 339
14.14416 317
14.16427 381
14.18439 311
14.2045 304
14.22461 323
14.24473 345
14.26484 302
14.28496 354
14.30507 340
14.32518 291
14.3453 330
14.36541 341
14.38552 308
14.40564 296
14.42575 368
14.44587 338
14.46598 346
14.48609 357
14.50621 317
14.52632 301
14.54643 341
14.56655 317
14.58666 341
14.60677 297
14.62689 352
14.647 320
14.66712 265
14.68723 337
14.70734 330
14.72746 318
14.74757 382
14.76768 370
14.7878 306
14.80791 314
14.82803 314
14.84814 354
14.86825 305
14.88837 306
14.90848 330
14.92859 324
14.94871 353
14.96882 268
14.98894 343
15.00905 346
15.02916 327
15.04928 335
15.06939 328
15.0895 322
15.10962 336
15.12973 294
15.14984 327
15.16996 346
15.19007 329
15.21019 302
15.2303 331
15.25041 285
15.27053 352
15.29064 354
15.31075 313
15.33087 317
15.35098 315
15.3711 310
15.39121 331
15.41132 322
15.43144 336
15.45155 336
15.47166 319
15.49178 288
15.51189 293
15.53201 328
15.55212 320
15.57223 325
15.59235 313
15.61246 333
15.63257 325
15.65269 339
15.6728 331
15.69291 342
15.71303 329
15.73314 321
15.75326 305
15.77337 326
15.79348 347
15.8136 309
15.83371 301
15.85382 354
15.87394 324
15.89405 320
15.91417 311
15.93428 303
15.95439 324
15.97451 318
15.99462 346
16.01473 351
16.03485 304
16.05496 341
16.07508 328
16.09519 306
16.1153 362
16.13542 287
16.15553 322
16.17564 309
16.19576 333
16.21587 310
16.23598 303
16.2561 315
16.27621 301
16.29633 340
16.31644 351
16.33655 287
16.35667 314
16.37678 347
16.39689 330
16.41701 320
16.43712 338
16.45724 304
16.47735 343
16.49746 297
16.51758 299
16.53769 313
16.5578 313
16.57792 301
16.59803 329
16.61814 286
16.63826 307
16.65837 340
16.67849 351
16.6986 326
16.71871 333
16.73883 286
16.75894 323
16.77905 295
16.79917 293
16.81928 332
16.8394 325
16.85951 302
16.87962 343
16.89974 292
16.91985 295
16.93996 313
16.96008 332
16.98019 360
17.00031 326
17.02042 317
17.04053 295
17.06065 366
17.08076 297
17.10087 327
17.12099 329
17.1411 316
17.16121 309
17.18133 330
17.20144 323
17.22156 305
17.24167 298
17.26178 328
17.2819 308
17.30201 323
17.32212 328
17.34224 347
17.36235 332
17.38247 307
17.40258 335
17.42269 343
17.44281 302
17.46292 315
17.48303 310
17.50315 292
17.52326 327
17.54338 322
17.56349 310
17.5836 350
17.60372 350
17.62383 320
17.64394 318
17.66406 287
17.68417 348
17.70428 318
17.7244 312
17.74451 334
17.76463 321
17.78474 347
17.80485 326
17.82497 282
17.84508 318
17.86519 293
17.88531 325
17.90542 347
17.92554 315
17.94565 331
17.96576 338
17.98588 304
18.00599 353
18.0261 342
18.04622 325
18.06633 354
18.08645 349
18.10656 377
18.12667 353
18.14679 389
18.1669 404
18.18701 474
18.20713 429
18.22724 463
18.24735 485
18.26747 438
18.28758 447
18.3077 472
18.32781 375
18.34792 391
18.36804 350
18.38815 333
18.40826 351
18.42838 349
18.44849 323
18.46861 345
18.48872 314
18.50883 322
18.52895 349
18.54906 345
18.56917 317
18.58929 319
18.6094 333
18.62951 337
18.64963 300
18.66974 358
18.68986 298
18.70997 325
18.73008 322
18.7502 325
18.77031 317
18.79042 341
18.81054 304
18.83065 316
18.85077 347
18.87088 316
18.89099 326
18.91111 310
18.93122 331
18.95133 337
18.97145 328
18.99156 338
19.01168 347
19.03179 329
19.0519 330
19.07202 356
19.09213 369
19.11224 338
19.13236 343
19.15247 353
19.17258 320
19.1927 344
19.21281 339
19.23293 360
19.25304 390
19.27315 376
19.29327 321
19.31338 356
19.33349 387
19.35361 392
19.37372 378
19.39384 378
19.41395 396
19.43406 377
19.45418 383
19.47429 373
19.4944 363
19.51452 399
19.53463 396
19.55475 441
19.57486 430
19.59497 406
19.61509 453
19.6352 459
19.65531 524
19.67543 517
19.69554 567
19.71565 642
19.73577 641
19.75588 706
19.776 751
19.79611 781
19.81622 836
19.83634 830
19.85645 785
19.87656 796
19.89668 819
19.91679 773
19.93691 900
19.95702 794
19.97713 829
19.99725 765
20.01736 742
20.03747 712
20.05759 801
20.0777 714
20.09782 742
20.11793 797
20.13804 838
20.15816 815
20.17827 795
20.19838 801
20.2185 832
20.23861 767
20.25872 842
20.27884 843
20.29895 827
20.31907 761
20.33918 790
20.35929 832
20.37941 770
20.39952 789
20.41963 783
20.43975 827
20.45986 808
20.47998 841
20.50009 841
20.5202 832
20.54032 886
20.56043 871
20.58054 876
20.60066 1038
20.62077 1197
20.64088 1283
20.661 1453
20.68111 1720
20.70123 2072
20.72134 2473
20.74145 2664
20.76157 3015
20.78168 3189
20.80179 3281
20.82191 3047
20.84202 2862
20.86214 2339
20.88225 1944
20.90236 1596
20.92248 1261
20.94259 1010
20.9627 942
20.98282 865
21.00293 826
21.02305 833
21.04316 765
21.06327 797
21.08339 743
21.1035 759
21.12361 756
21.14373 727
21.16384 768
21.18395 726
21.20407 723
21.22418 763
21.2443 726
21.26441 758
21.28452 743
21.30464 708
21.32475 666
21.34486 660
21.36498 662
21.38509 713
21.40521 673
21.42532 691
21.44543 658
21.46555 638
21.48566 654
21.50577 657
21.52589 638
21.546 590
21.56612 593
21.58623 596
21.60634 645
21.62646 588
21.64657 593
21.66668 586
21.6868 526
21.70691 617
21.72702 570
21.74714 595
21.76725 589
21.78737 571
21.80748 591
21.82759 535
21.84771 538
21.86782 530
21.88793 536
21.90805 566
21.92816 523
21.94828 582
21.96839 534
21.9885 528
22.00862 530
22.02873 503
22.04884 486
22.06896 501
22.08907 545
22.10919 485
22.1293 529
22.14941 507
22.16953 473
22.18964 508
22.20975 519
22.22987 487
22.24998 486
22.27009 478
22.29021 517
22.31032 492
22.33044 503
22.35055 507
22.37066 516
22.39078 497
22.41089 535
22.431 557
22.45112 476
22.47123 487
22.49135 459
22.51146 477
22.53157 512
22.55169 503
22.5718 492
22.59191 465
22.61203 484
22.63214 454
22.65225 475
22.67237 501
22.69248 508
22.7126 496
22.73271 477
22.75282 459
22.77294 480
22.79305 444
22.81316 417
22.83328 498
22.85339 488
22.87351 485
22.89362 465
22.91373 480
22.93385 467
22.95396 493
22.97407 458
22.99419 452
23.0143 455
23.03442 454
23.05453 491
23.07464 497
23.09476 467
23.11487 459
23.13498 457
23.1551 459
23.17521 498
23.19532 489
23.21544 452
23.23555 429
23.25567 457
23.27578 436
23.29589 444
23.31601 433
23.33612 464
23.35623 478
23.37635 489
23.39646 481
23.41658 441
23.43669 450
23.4568 441
23.47692 466
23.49703 453
23.51714 458
23.53726 519
23.55737 502
23.57749 471
23.5976 432
23.61771 453
23.63783 468
23.65794 481
23.67805 519
23.69817 470
23.71828 490
23.73839 474
23.75851 492
23.77862 497
23.79874 484
23.81885 499
23.83896 520
23.85908 495
23.87919 519
23.8993 531
23.91942 546
23.93953 502
23.95965 502
23.97976 504
23.99987 534
24.01999 524
24.0401 583
24.06021 580
24.08033 510
24.10044 583
24.12056 528
24.14067 537
24.16078 517
24.1809 503
24.20101 550
24.22112 535
24.24124 502
24.26135 564
24.28146 515
24.30158 524
24.32169 539
24.34181 537
24.36192 558
24.38203 538
24.40215 550
24.42226 544
24.44237 594
24.46249 624
24.4826 593
24.50272 641
24.52283 686
24.54294 668
24.56306 634
24.58317 672
24.60328 705
24.6234 747
24.64351 770
24.66362 782
24.68374 770
24.70385 894
24.72397 836
24.74408 848
24.76419 918
24.78431 890
24.80442 906
24.82453 890
24.84465 903
24.86476 828
24.88488 848
24.90499 860
24.9251 805
24.94522 750
24.96533 800
24.98544 768
25.00556 668
25.02567 700
25.04579 757
25.0659 652
25.08601 625
25.10613 675
25.12624 708
25.14635 689
25.16647 701
25.18658 663
25.20669 587
25.22681 643
25.24692 558
25.26704 578
25.28715 585
25.30726 611
25.32738 513
25.34749 527
25.3676 497
25.38772 468
25.40783 512
25.42795 525
25.44806 512
25.46817 522
25.48829 516
25.5084 557
25.52851 539
25.54863 513
25.56874 528
25.58886 510
25.60897 541
25.62908 506
25.6492 491
25.66931 546
25.68942 544
25.70954 529
25.72965 579
25.74976 491
25.76988 551
25.78999 538
25.81011 533
25.83022 552
25.85033 485
25.87045 491
25.89056 499
25.91067 544
25.93079 547
25.9509 533
25.97102 557
25.99113 580
26.01124 584
26.03136 621
26.05147 575
26.07158 624
26.0917 700
26.11181 684
26.13193 702
26.15204 692
26.17215 750
26.19227 797
26.21238 848
26.23249 929
26.25261 1021
26.27272 1153
26.29283 1272
26.31295 1419
26.33306 1598
26.35318 1949
26.37329 2333
26.3934 2946
26.41352 3631
26.43363 4608
26.45374 5918
26.47386 7507
26.49397 8919
26.51409 10474
26.5342 11980
26.55431 12916
26.57443 12944
26.59454 12472
26.61465 10999
26.63477 8982
26.65488 7252
26.67499 5379
26.69511 3816
26.71522 2745
26.73534 1976
26.75545 1452
26.77556 1235
26.79568 1036
26.81579 984
26.8359 926
26.85602 849
26.87613 770
26.89625 782
26.91636 774
26.93647 751
26.95659 627
26.9767 654
26.99681 657
27.01693 616
27.03704 578
27.05716 539
27.07727 547
27.09738 520
27.1175 524
27.13761 531
27.15772 510
27.17784 459
27.19795 468
27.21806 473
27.23818 488
27.25829 529
27.27841 498
27.29852 539
27.31863 522
27.33875 530
27.35886 551
27.37897 510
27.39909 510
27.4192 548
27.43932 508
27.45943 535
27.47954 532
27.49966 486
27.51977 497
27.53988 474
27.56 413
27.58011 436
27.60023 438
27.62034 467
27.64045 406
27.66057 453
27.68068 420
27.70079 459
27.72091 445
27.74102 432
27.76113 426
27.78125 445
27.80136 449
27.82148 448
27.84159 421
27.8617 449
27.88182 400
27.90193 398
27.92204 437
27.94216 437
27.96227 408
27.98239 470
28.0025 420
28.02261 408
28.04273 371
28.06284 406
28.08295 390
28.10307 390
28.12318 398
28.1433 376
28.16341 389
28.18352 393
28.20364 388
28.22375 386
28.24386 399
28.26398 375
28.28409 368
28.3042 378
28.32432 367
28.34443 389
28.36455 359
28.38466 396
28.40477 374
28.42489 381
28.445 389
28.46511 399
28.48523 388
28.50534 385
28.52546 394
28.54557 376
28.56568 378
28.5858 375
28.60591 361
28.62602 368
28.64614 370
28.66625 330
28.68636 424
28.70648 361
28.72659 395
28.74671 375
28.76682 369
28.78693 411
28.80705 353
28.82716 390
28.84727 329
28.86739 369
28.8875 361
28.90762 385
28.92773 345
28.94784 338
28.96796 372
28.98807 353
29.00818 362
29.0283 361
29.04841 355
29.06853 383
29.08864 362
29.10875 349
29.12887 343
29.14898 380
29.16909 322
29.18921 348
29.20932 354
29.22943 351
29.24955 358
29.26966 398
29.28978 371
29.30989 359
29.33 342
29.35012 375
29.37023 349
29.39034 356
29.41046 350
29.43057 377
29.45069 349
29.4708 363
29.49091 361
29.51103 348
29.53114 377
29.55125 398
29.57137 366
29.59148 390
29.6116 366
29.63171 345
29.65182 354
29.67194 377
29.69205 358
29.71216 384
29.73228 392
29.75239 357
29.7725 361
29.79262 391
29.81273 404
29.83285 369
29.85296 372
29.87307 384
29.89319 367
29.9133 352
29.93341 406
29.95353 358
29.97364 340
29.99376 335
30.01387 346
30.03398 334
30.0541 357
30.07421 364
30.09432 405
30.11444 345
30.13455 392
30.15467 365
30.17478 359
30.19489 367
30.21501 342
30.23512 371
30.25523 391
30.27535 388
30.29546 373
30.31557 371
30.33569 345
30.3558 359
30.37592 359
30.39603 370
30.41614 343
30.43626 320
30.45637 386
30.47648 360
30.4966 368
30.51671 406
30.53683 342
30.55694 371
30.57705 369
30.59717 369
30.61728 390
30.63739 322
30.65751 364
30.67762 359
30.69773 354
30.71785 366
30.73796 360
30.75808 394
30.77819 388
30.7983 371
30.81842 344
30.83853 359
30.85864 376
30.87876 344
30.89887 345
30.91899 359
30.9391 354
30.95921 344
30.97933 371
30.99944 356
31.01955 358
31.03967 345
31.05978 325
31.0799 368
31.10001 319
31.12012 342
31.14024 353
31.16035 345
31.18046 338
31.20058 312
31.22069 320
31.2408 350
31.26092 349
31.28103 375
31.30115 333
31.32126 317
31.34137 311
31.36149 389
31.3816 339
31.40171 357
31.42183 321
31.44194 317
31.46206 344
31.48217 331
31.50228 364
31.5224 336
31.54251 330
31.56262 352
31.58274 353
31.60285 357
31.62297 371
31.64308 337
31.66319 350
31.68331 372
31.70342 376
31.72353 365
31.74365 343
31.76376 335
31.78387 325
31.80399 367
31.8241 363
31.84422 282
31.86433 352
31.88444 362
31.90456 368
31.92467 330
31.94478 354
31.9649 344
31.98501 321
32.00513 340
32.02524 348
32.04535 382
32.06547 357
32.08558 352
32.10569 355
32.12581 358
32.14592 395
32.16604 342
32.18615 358
32.20626 359
32.22638 361
32.24649 357
32.2666 357
32.28672 366
32.30683 383
32.32694 369
32.34706 366
32.36717 394
32.38729 392
32.4074 372
32.42751 383
32.44763 446
32.46774 418
32.48785 408
32.50797 388
32.52808 402
32.5482 397
32.56831 398
32.58842 422
32.60854 392
32.62865 380
32.64876 412
32.66888 410
32.68899 381
32.7091 386
32.72922 407
32.74933 406
32.76945 437
32.78956 409
32.80967 423
32.82979 420
32.8499 433
32.87001 395
32.89013 467
32.91024 462
32.93036 467
32.95047 469
32.97058 515
32.9907 483
33.01081 517
33.03092 522
33.05104 542
33.07115 518
33.09127 479
33.11138 506
33.13149 469
33.15161 493
33.17172 468
33.19183 443
33.21195 436
33.23206 454
33.25217 437
33.27229 477
33.2924 450
33.31252 416
33.33263 408
33.35274 431
33.37286 388
33.39297 424
33.41308 441
33.4332 386
33.45331 420
33.47343 409
33.49354 415
33.51365 366
33.53377 357
33.55388 391
33.57399 391
33.59411 348
33.61422 356
33.63434 376
33.65445 394
33.67456 378
33.69468 369
33.71479 386
33.7349 353
33.75502 355
33.77513 358
33.79524 374
33.81536 349
33.83547 360
33.85559 355
33.8757 389
33.89581 347
33.91593 351
33.93604 382
33.95615 353
33.97627 309
33.99638 386
34.0165 381
34.03661 355
34.05672 343
34.07684 367
34.09695 354
34.11706 392
34.13718 358
34.15729 358
34.17741 388
34.19752 391
34.21763 368
34.23775 371
34.25786 369
34.27797 362
34.29809 379
34.3182 387
34.33831 335
34.35843 392
34.37854 416
34.39866 382
34.41877 408
34.43888 374
34.459 395
34.47911 384
34.49922 373
34.51934 402
34.53945 408
34.55957 410
34.57968 387
34.59979 437
34.61991 406
34.64002 490
34.66013 460
34.68025 473
34.70036 462
34.72047 537
34.74059 528
34.7607 535
34.78082 520
34.80093 569
34.82104 565
34.84116 592
34.86127 592
34.88138 594
34.9015 590
34.92161 543
34.94173 601
34.96184 569
34.98195 580
35.00207 567
35.02218 599
35.04229 560
35.06241 554
35.08252 559
35.10264 541
35.12275 528
35.14286 614
35.16298 585
35.18309 581
35.2032 540
35.22332 550
35.24343 615
35.26354 565
35.28366 584
35.30377 578
35.32389 583
35.344 581
35.36411 592
35.38423 598
35.40434 604
35.42445 634
35.44457 610
35.46468 631
35.4848 675
35.50491 636
35.52502 708
35.54514 692
35.56525 665
35.58536 687
35.60548 699
35.62559 725
35.64571 659
35.66582 639
35.68593 708
35.70605 642
35.72616 663
35.74627 648
35.76639 685
35.7865 671
35.80661 671
35.82673 635
35.84684 661
35.86696 661
35.88707 638
35.90718 552
35.9273 636
35.94741 605
35.96752 584
35.98764 553
36.00775 560
36.02787 549
36.04798 517
36.06809 515
36.08821 513
36.10832 482
36.12843 490
36.14855 559
36.16866 519
36.18878 499
36.20889 501
36.229 533
36.24912 598
36.26923 596
36.28934 664
36.30946 730
36.32957 754
36.34968 853
36.3698 944
36.38991 1010
36.41003 1124
36.43014 1202
36.45025 1221
36.47037 1202
36.49048 1154
36.51059 1169
36.53071 997
36.55082 888
36.57094 788
36.59105 730
36.61116 676
36.63128 527
36.65139 555
36.6715 501
36.69162 466
36.71173 459
36.73184 435
36.75196 480
36.77207 453
36.79219 449
36.8123 439
36.83241 473
36.85253 456
36.87264 431
36.89275 441
36.91287 449
36.93298 452
36.9531 495
36.97321 484
36.99332 411
37.01344 450
37.03355 436
37.05366 460
37.07378 448
37.09389 434
37.11401 431
37.13412 484
37.15423 481
37.17435 447
37.19446 464
37.21457 427
37.23469 411
37.2548 405
37.27491 410
37.29503 438
37.31514 457
37.33526 434
37.35537 448
37.37548 432
37.3956 447
37.41571 470
37.43582 433
37.45594 457
37.47605 473
37.49617 493
37.51628 452
37.53639 516
37.55651 474
37.57662 485
37.59673 477
37.61685 471
37.63696 472
37.65708 462
37.67719 490
37.6973 449
37.71742 477
37.73753 516
37.75764 480
37.77776 509
37.79787 525
37.81798 433
37.8381 484
37.85821 461
37.87833 504
37.89844 489
37.91855 482
37.93867 498
37.95878 483
37.97889 492
37.99901 497
38.01912 526
38.03924 527
38.05935 527
38.07946 543
38.09958 575
38.11969 523
38.1398 603
38.15992 552
38.18003 597
38.20015 567
38.22026 582
38.24037 617
38.26049 584
38.2806 660
38.30071 623
38.32083 641
38.34094 661
38.36105 601
38.38117 613
38.40128 628
38.4214 595
38.44151 587
38.46162 626
38.48174 539
38.50185 589
38.52196 555
38.54208 553
38.56219 462
38.58231 552
38.60242 551
38.62253 514
38.64265 491
38.66276 516
38.68287 520
38.70299 452
38.7231 506
38.74321 478
38.76333 491
38.78344 499
38.80356 487
38.82367 490
38.84378 504
38.8639 475
38.88401 496
38.90412 504
38.92424 483
38.94435 537
38.96447 480
38.98458 554
39.00469 534
39.02481 594
39.04492 551
39.06503 557
39.08515 559
39.10526 578
39.12538 643
39.14549 624
39.1656 589
39.18572 640
39.20583 638
39.22594 766
39.24606 740
39.26617 832
39.28628 916
39.3064 926
39.32651 1066
39.34663 1160
39.36674 1187
39.38685 1209
39.40697 1129
39.42708 1037
39.44719 1003
39.46731 895
39.48742 785
39.50754 734
39.52765 693
39.54776 575
39.56788 533
39.58799 505
39.6081 450
39.62822 413
39.64833 388
39.66845 430
39.68856 432
39.70867 416
39.72879 394
39.7489 399
39.76901 430
39.78913 433
39.80924 387
39.82935 432
39.84947 404
39.86958 410
39.8897 429
39.90981 422
39.92992 409
39.95004 442
39.97015 438
39.99026 478
40.01038 474
40.03049 479
40.05061 506
40.07072 554
40.09083 609
40.11095 610
40.13106 707
40.15117 705
40.17129 716
40.1914 699
40.21152 729
40.23163 722
40.25174 665
40.27186 688
40.29197 610
40.31208 612
40.3322 571
40.35231 560
40.37242 520
40.39254 467
40.41265 450
40.43277 442
40.45288 444
40.47299 437
40.49311 414
40.51322 438
40.53333 394
40.55345 448
40.57356 407
40.59368 428
40.61379 407
40.6339 368
40.65402 418
40.67413 456
40.69424 416
40.71436 394
40.73447 451
40.75458 429
40.7747 453
40.79481 460
40.81493 428
40.83504 432
40.85515 425
40.87527 430
40.89538 387
40.91549 405
40.93561 431
40.95572 444
40.97584 404
40.99595 426
41.01606 406
41.03618 420
41.05629 425
41.0764 408
41.09652 364
41.11663 381
41.13675 390
41.15686 403
41.17697 379
41.19709 383
41.2172 380
41.23731 376
41.25743 373
41.27754 403
41.29765 345
41.31777 402
41.33788 383
41.358 360
41.37811 363
41.39822 335
41.41834 371
41.43845 390
41.45856 382
41.47868 383
41.49879 355
41.51891 339
41.53902 354
41.55913 378
41.57925 390
41.59936 377
41.61947 399
41.63959 371
41.6597 362
41.67982 401
41.69993 360
41.72004 365
41.74016 362
41.76027 387
41.78038 378
41.8005 346
41.82061 355
41.84072 362
41.86084 383
41.88095 379
41.90107 334
41.92118 338
41.94129 393
41.96141 360
41.98152 360
42.00163 361
42.02175 364
42.04186 395
42.06198 375
42.08209 392
42.1022 393
42.12232 428
42.14243 435
42.16254 452
42.18266 471
42.20277 483
42.22289 486
42.243 647
42.26311 620
42.28323 717
42.30334 711
42.32345 870
42.34357 865
42.36368 824
42.38379 794
42.40391 787
42.42402 738
42.44414 678
42.46425 628
42.48436 586
42.50448 509
42.52459 510
42.5447 423
42.56482 461
42.58493 354
42.60505 337
42.62516 350
42.64527 347
42.66539 335
42.6855 304
42.70561 347
42.72573 326
42.74584 318
42.76595 325
42.78607 336
42.80618 328
42.8263 316
42.84641 320
42.86652 313
42.88664 324
42.90675 327
42.92686 335
42.94698 325
42.96709 321
42.98721 329
43.00732 323
43.02743 328
43.04755 318
43.06766 317
43.08777 349
43.10789 296
43.128 324
43.14812 348
43.16823 317
43.18834 332
43.20846 312
43.22857 332
43.24868 330
43.2688 323
43.28891 326
43.30902 339
43.32914 352
43.34925 289
43.36937 325
43.38948 307
43.40959 317
43.42971 311
43.44982 351
43.46993 344
43.49005 343
43.51016 366
43.53028 322
43.55039 310
43.5705 334
43.59062 311
43.61073 306
43.63084 330
43.65096 339
43.67107 341
43.69119 304
43.7113 336
43.73141 290
43.75153 321
43.77164 336
43.79175 339
43.81187 318
43.83198 338
43.85209 300
43.87221 332
43.89232 322
43.91244 326
43.93255 338
43.95266 340
43.97278 367
43.99289 301
44.013 349
44.03312 329
44.05323 322
44.07335 310
44.09346 327
44.11357 311
44.13369 335
44.1538 317
44.17391 316
44.19403 344
44.21414 313
44.23426 315
44.25437 343
44.27448 325
44.2946 334
44.31471 330
44.33482 314
44.35494 291
44.37505 327
44.39516 304
44.41528 297
44.43539 337
44.45551 310
44.47562 323
44.49573 301
44.51585 280
44.53596 342
44.55607 300
44.57619 302
44.5963 316
44.61642 309
44.63653 381
44.65664 342
44.67676 307
44.69687 306
44.71698 334
44.7371 319
44.75721 348
44.77732 318
44.79744 325
44.81755 342
44.83767 339
44.85778 349
44.87789 362
44.89801 334
44.91812 325
44.93823 360
44.95835 348
44.97846 365
44.99858 346
45.01869 348
45.0388 372
45.05892 343
45.07903 376
45.09914 340
45.11926 379
45.13937 340
45.15949 398
45.1796 389
45.19971 393
45.21983 404
45.23994 389
45.26005 404
45.28017 411
45.30028 403
45.32039 385
45.34051 395
45.36062 386
45.38074 412
45.40085 449
45.42096 441
45.44108 473
45.46119 469
45.4813 471
45.50142 504
45.52153 475
45.54165 502
45.56176 558
45.58187 516
45.60199 557
45.6221 605
45.64221 654
45.66233 639
45.68244 705
45.70256 671
45.72267 723
45.74278 697
45.7629 640
45.78301 584
45.80312 618
45.82324 567
45.84335 505
45.86346 505
45.88358 378
45.90369 430
45.92381 390
45.94392 362
45.96403 376
45.98415 381
46.00426 381
46.02437 315
46.04449 321
46.0646 395
46.08472 379
46.10483 383
46.12494 361
46.14506 351
46.16517 306
46.18528 392
46.2054 345
46.22551 337
46.24563 365
46.26574 356
46.28585 350
46.30597 339
46.32608 343
46.34619 351
46.36631 329
46.38642 349
46.40653 309
46.42665 349
46.44676 376
46.46688 319
46.48699 320
46.5071 323
46.52722 353
46.54733 315
46.56744 321
46.58756 363
46.60767 364
46.62779 348
46.6479 345
46.66801 352
46.68813 310
46.70824 362
46.72835 373
46.74847 357
46.76858 348
46.78869 344
46.80881 341
46.82892 338
46.84904 353
46.86915 329
46.88926 343
46.90938 352
46.92949 346
46.9496 344
46.96972 373
46.98983 381
47.00995 365
47.03006 340
47.05017 328
47.07029 356
47.0904 385
47.11051 354
47.13063 337
47.15074 388
47.17086 365
47.19097 377
47.21108 362
47.2312 352
47.25131 389
47.27142 349
47.29154 322
47.31165 372
47.33176 350
47.35188 360
47.37199 358
47.39211 348
47.41222 313
47.43233 357
47.45245 381
47.47256 341
47.49267 320
47.51279 355
47.5329 326
47.55302 345
47.57313 381
47.59324 361
47.61336 371
47.63347 368
47.65358 339
47.6737 385
47.69381 365
47.71393 366
47.73404 371
47.75415 373
47.77427 360
47.79438 376
47.81449 380
47.83461 352
47.85472 373
47.87483 361
47.89495 368
47.91506 404
47.93518 333
47.95529 329
47.9754 363
47.99552 360
48.01563 356
48.03574 361
48.05586 369
48.07597 379
48.09609 347
48.1162 336
48.13631 322
48.15643 338
48.17654 345
48.19665 355
48.21677 374
48.23688 319
48.257 334
48.27711 338
48.29722 310
48.31734 354
48.33745 314
48.35756 329
48.37768 343
48.39779 339
48.4179 340
48.43802 384
48.45813 317
48.47825 352
48.49836 361
48.51847 350
48.53859 359
48.5587 363
48.57881 364
48.59893 354
48.61904 354
48.63916 377
48.65927 343
48.67938 327
48.6995 342
48.71961 319
48.73972 367
48.75984 364
48.77995 360
48.80006 368
48.82018 354
48.84029 354
48.86041 370
48.88052 345
48.90063 376
48.92075 356
48.94086 373
48.96097 377
48.98109 354
49.0012 330
49.02132 394
49.04143 365
49.06154 383
49.08166 336
49.10177 385
49.12188 366
49.142 368
49.16211 381
49.18223 385
49.20234 383
49.22245 360
49.24257 387
49.26268 393
49.28279 423
49.30291 418
49.32302 394
49.34313 394
49.36325 383
49.38336 359
49.40348 403
49.42359 395
49.4437 408
49.46382 399
49.48393 380
49.50404 420
49.52416 400
49.54427 409
49.56439 421
49.5845 409
49.60461 412
49.62473 383
49.64484 427
49.66495 435
49.68507 441
49.70518 437
49.7253 493
49.74541 487
49.76552 527
49.78564 537
49.80575 582
49.82586 594
49.84598 655
49.86609 730
49.8862 802
49.90632 862
49.92643 980
49.94655 1132
49.96666 1335
49.98677 1295
50.00689 1479
50.027 1536
50.04711 1602
50.06723 1512
50.08734 1462
50.10746 1339
50.12757 1177
50.14768 1115
50.1678 1036
50.18791 946
50.20802 837
50.22814 746
50.24825 652
50.26837 548
50.28848 507
50.30859 414
50.32871 424
50.34882 411
50.36893 437
50.38905 417
50.40916 388
50.42927 387
50.44939 415
50.4695 394
50.48962 414
50.50973 359
50.52984 388
50.54996 347
50.57007 366
50.59018 408
50.6103 369
50.63041 378
50.65053 397
50.67064 393
50.69075 389
50.71087 383
50.73098 343
50.75109 401
50.77121 334
50.79132 349
50.81143 349
50.83155 372
50.85166 359
50.87178 333
50.89189 345
50.912 335
50.93212 372
50.95223 318
50.97234 351
50.99246 336
51.01257 332
51.03269 370
51.0528 315
51.07291 333
51.09303 276
51.11314 333
51.13325 356
51.15337 325
51.17348 344
51.1936 321
51.21371 298
51.23382 349
51.25394 338
51.27405 331
51.29416 311
51.31428 328
51.33439 359
51.3545 327
51.37462 322
51.39473 301
51.41485 301
51.43496 341
51.45507 318
51.47519 304
51.4953 304
51.51541 298
51.53553 315
51.55564 318
51.57576 299
51.59587 301
51.61598 271
51.6361 307
51.65621 313
51.67632 319
51.69644 315
51.71655 302
51.73667 327
51.75678 355
51.77689 308
51.79701 295
51.81712 329
51.83723 336
51.85735 313
51.87746 315
51.89757 313
51.91769 323
51.9378 321
51.95792 337
51.97803 331
51.99814 298
52.01826 326
52.03837 323
52.05848 315
52.0786 319
52.09871 329
52.11883 313
52.13894 318
52.15905 303
52.17917 287
52.19928 325
52.21939 329
52.23951 265
52.25962 349
52.27974 287
52.29985 310
52.31996 331
52.34008 316
52.36019 320
52.3803 290
52.40042 322
52.42053 283
52.44064 335
52.46076 313
52.48087 325
52.50099 306
52.5211 300
52.54121 319
52.56133 300
52.58144 333
52.60155 321
52.62167 306
52.64178 336
52.6619 344
52.68201 319
52.70212 308
52.72224 333
52.74235 329
52.76246 331
52.78258 311
52.80269 315
52.8228 353
52.84292 330
52.86303 322
52.88315 295
52.90326 341
52.92337 336
52.94349 341
52.9636 342
52.98371 347
53.00383 308
53.02394 352
53.04406 354
53.06417 351
53.08428 340
53.1044 342
53.12451 363
53.14462 331
53.16474 354
53.18485 345
53.20497 333
53.22508 359
53.24519 370
53.26531 381
53.28542 346
53.30553 363
53.32565 367
53.34576 397
53.36587 394
53.38599 387
53.4061 378
53.42622 364
53.44633 371
53.46644 380
53.48656 387
53.50667 402
53.52678 381
53.5469 361
53.56701 371
53.58713 391
53.60724 393
53.62735 396
53.64747 370
53.66758 391
53.68769 391
53.70781 406
53.72792 411
53.74804 415
53.76815 391
53.78826 427
53.80838 412
53.82849 456
53.8486 467
53.86872 446
53.88883 477
53.90894 471
53.92906 410
53.94917 453
53.96929 453
53.9894 441
54.00951 457
54.02963 460
54.04974 442
54.06985 501
54.08997 444
54.11008 463
54.1302 453
54.15031 453
54.17042 501
54.19054 438
54.21065 462
54.23076 490
54.25088 482
54.27099 460
54.29111 512
54.31122 427
54.33133 525
54.35145 463
54.37156 476
54.39167 486
54.41179 473
54.4319 464
54.45201 493
54.47213 485
54.49224 501
54.51236 492
54.53247 533
54.55258 529
54.5727 530
54.59281 589
54.61292 591
54.63304 541
54.65315 626
54.67327 654
54.69338 653
54.71349 757
54.73361 736
54.75372 767
54.77383 811
54.79395 745
54.81406 765
54.83417 724
54.85429 696
54.8744 703
54.89452 697
54.91463 607
54.93474 627
54.95486 626
54.97497 661
54.99508 588
55.0152 540
55.03531 547
55.05543 540
55.07554 512
55.09565 547
55.11577 522
55.13588 566
55.15599 552
55.17611 603
55.19622 587
55.21634 545
55.23645 529
55.25656 605
55.27668 571
55.29679 571
55.3169 523
55.33702 529
55.35713 526
55.37724 481
55.39736 495
55.41747 468
55.43759 468
55.4577 438
55.47781 414
55.49793 408
55.51804 473
55.53815 420
55.55827 401
55.57838 398
55.5985 450
55.61861 429
55.63872 410
55.65884 376
55.67895 376
55.69906 381
55.71918 381
55.73929 370
55.75941 381
55.77952 390
55.79963 391
55.81975 367
55.83986 405
55.85997 348
55.88009 384
55.9002 373
55.92031 367
55.94043 355
55.96054 356
55.98066 398
56.00077 401
56.02088 344
56.041 342
56.06111 394
56.08122 386
56.10134 351
56.12145 399
56.14157 341
56.16168 338
56.18179 362
56.20191 335
56.22202 397
56.24213 348
56.26225 356
56.28236 385
56.30248 351
56.32259 355
56.3427 368
56.36282 388
56.38293 396
56.40304 384
56.42316 373
56.44327 370
56.46338 316
56.4835 319
56.50361 385
56.52373 390
56.54384 361
56.56395 382
56.58407 374
56.60418 399
56.62429 365
56.64441 352
56.66452 362
56.68464 372
56.70475 397
56.72486 349
56.74498 362
56.76509 332
56.7852 350
56.80532 336
56.82543 338
56.84554 361
56.86566 339
56.88577 330
56.90589 387
56.926 316
56.94611 337
56.96623 346
56.98634 374
57.00645 353
57.02657 383
57.04668 354
57.0668 327
57.08691 375
57.10702 345
57.12714 371
57.14725 354
57.16736 364
57.18748 330
57.20759 329
57.22771 368
57.24782 361
57.26793 353
57.28805 344
57.30816 402
57.32827 355
57.34839 357
57.3685 364
57.38861 345
57.40873 341
57.42884 374
57.44896 343
57.46907 356
57.48918 366
57.5093 367
57.52941 318
57.54952 350
57.56964 367
57.58975 393
57.60987 334
57.62998 347
57.65009 340
57.67021 348
57.69032 323
57.71043 342
57.73055 349
57.75066 335
57.77078 352
57.79089 317
57.811 328
57.83112 347
57.85123 316
57.87134 329
57.89146 309
57.91157 346
57.93168 344
57.9518 335
57.97191 319
57.99203 389
58.01214 322
58.03225 320
58.05237 337
58.07248 349
58.09259 318
58.11271 339
58.13282 329
58.15294 341
58.17305 327
58.19316 365
58.21328 375
58.23339 348
58.2535 353
58.27362 348
58.29373 352
58.31385 341
58.33396 328
58.35407 331
58.37419 311
58.3943 371
58.41441 313
58.43453 327
58.45464 327
58.47475 299
58.49487 336
58.51498 332
58.5351 310
58.55521 346
58.57532 356
58.59544 320
58.61555 318
58.63566 331
58.65578 341
58.67589 331
58.69601 328
58.71612 324
58.73623 334
58.75635 354
58.77646 342
58.79657 326
58.81669 322
58.8368 310
58.85691 306
58.87703 324
58.89714 302
58.91726 343
58.93737 326
58.95748 328
58.9776 361
58.99771 336
59.01782 320
59.03794 317
59.05805 335
59.07817 327
59.09828 349
59.11839 301
59.13851 334
59.15862 329
59.17873 346
59.19885 367
59.21896 335
59.23908 385
59.25919 338
59.2793 333
59.29942 356
59.31953 355
59.33964 350
59.35976 358
59.37987 361
59.39998 387
59.4201 446
59.44021 363
59.46033 392
59.48044 378
59.50055 377
59.52067 461
59.54078 444
59.56089 465
59.58101 468
59.60112 528
59.62124 542
59.64135 559
59.66146 604
59.68158 611
59.70169 666
59.7218 763
59.74192 762
59.76203 872
59.78215 995
59.80226 1032
59.82237 1051
59.84249 1169
59.8626 1136
59.88271 1108
59.90283 1117
59.92294 996
59.94305 917
59.96317 807
59.98328 833
60.0034 804
60.02351 701
60.04362 708
60.06374 653
60.08385 586
60.10396 531
60.12408 532
60.14419 434
60.16431 380
60.18442 395
60.20453 392
60.22465 333
60.24476 338
60.26487 353
60.28499 359
60.3051 379
60.32522 369
60.34533 346
60.36544 329
60.38556 332
60.40567 362
60.42578 306
60.4459 339
60.46601 344
60.48612 350
60.50624 307
60.52635 364
60.54647 340
60.56658 328
60.58669 360
60.60681 304
60.62692 332
60.64703 334
60.66715 331
60.68726 330
60.70738 322
60.72749 341
60.7476 340
60.76772 322
60.78783 339
60.80794 307
60.82806 314
60.84817 358
60.86828 327
60.8884 328
60.90851 334
60.92863 347
60.94874 347
60.96885 323
60.98897 330
61.00908 333
61.02919 321
61.04931 328
61.06942 323
61.08954 327
61.10965 333
61.12976 325
61.14988 366
61.16999 335
61.1901 355
61.21022 325
61.23033 337
61.25045 357
61.27056 313
61.29067 312
61.31079 346
61.3309 330
61.35101 331
61.37113 361
61.39124 349
61.41135 345
61.43147 316
61.45158 375
61.4717 345
61.49181 370
61.51192 333
61.53204 317
61.55215 330
61.57226 378
61.59238 356
61.61249 354
61.63261 344
61.65272 359
61.67283 368
61.69295 363
61.71306 365
61.73317 377
61.75329 362
61.7734 406
61.79352 398
61.81363 415
61.83374 408
61.85386 394
61.87397 426
61.89408 418
61.9142 438
61.93431 427
61.95442 431
61.97454 467
61.99465 474
62.01477 443
62.03488 500
62.05499 520
62.07511 534
62.09522 544
62.11533 575
62.13545 562
62.15556 537
62.17568 549
62.19579 564
62.2159 552
62.23602 586
62.25613 540
62.27624 560
62.29636 537
62.31647 522
62.33659 520
62.3567 509
62.37681 490
62.39693 478
62.41704 458
62.43715 492
62.45727 508
62.47738 441
62.49749 444
62.51761 427
62.53772 445
62.55784 407
62.57795 392
62.59806 396
62.61818 410
62.63829 396
62.6584 403
62.67852 412
62.69863 391
62.71875 367
62.73886 384
62.75897 397
62.77909 382
62.7992 372
62.81931 368
62.83943 368
62.85954 404
62.87965 361
62.89977 371
62.91988 377
62.94 371
62.96011 317
62.98022 351
63.00034 349
63.02045 352
63.04056 356
63.06068 344
63.08079 358
63.10091 361
63.12102 324
63.14113 355
63.16125 330
63.18136 333
63.20147 343
63.22159 355
63.2417 346
63.26182 393
63.28193 371
63.30204 349
63.32216 324
63.34227 356
63.36238 380
63.3825 345
63.40261 370
63.42272 373
63.44284 348
63.46295 372
63.48307 413
63.50318 351
63.52329 426
63.54341 406
63.56352 382
63.58363 373
63.60375 410
63.62386 396
63.64398 419
63.66409 364
63.6842 386
63.70432 405
63.72443 449
63.74454 431
63.76466 488
63.78477 441
63.80489 452
63.825 506
63.84511 506
63.86523 484
63.88534 524
63.90545 515
63.92557 550
63.94568 514
63.96579 507
63.98591 534
64.00602 523
64.02614 519
64.04625 486
64.06636 440
64.08648 482
64.10659 428
64.1267 474
64.14682 417
64.16693 422
64.18705 395
64.20716 382
64.22727 412
64.24739 371
64.2675 371
64.28761 357
64.30773 344
64.32784 356
64.34796 372
64.36807 379
64.38818 382
64.4083 340
64.42841 366
64.44852 370
64.46864 327
64.48875 330
64.50886 327
64.52898 325
64.54909 312
64.56921 339
64.58932 334
64.60943 325
64.62955 345
64.64966 316
64.66977 317
64.68989 323
64.71 303
64.73012 322
64.75023 357
64.77034 333
64.79046 317
64.81057 343
64.83068 337
64.8508 333
64.87091 342
64.89102 336
64.91114 334
64.93125 346
64.95137 310
64.97148 301
64.99159 339
65.01171 340
65.03182 294
65.05193 310
65.07205 311
65.09216 342
65.11228 350
65.13239 336
65.1525 350
65.17262 309
65.19273 365
65.21284 349
65.23296 328
65.25307 299
65.27319 325
65.2933 329
65.31341 296
65.33353 335
65.35364 341
65.37375 342
65.39387 289
65.41398 329
65.43409 311
65.45421 308
65.47432 341
65.49444 313
65.51455 363
65.53466 313
65.55478 363
65.57489 366
65.595 355
65.61512 340
65.63523 353
65.65535 330
65.67546 381
65.69557 353
65.71569 350
65.7358 348
65.75591 330
65.77603 331
65.79614 336
65.81626 352
65.83637 302
65.85648 299
65.8766 328
65.89671 337
65.91682 330
65.93694 324
65.95705 349
65.97716 298
65.99728 308
66.01739 336
66.03751 319
66.05762 309
66.07773 348
66.09785 333
66.11796 323
66.13807 320
66.15819 334
66.1783 309
66.19842 298
66.21853 303
66.23864 292
66.25876 318
66.27887 329
66.29898 292
66.3191 307
66.33921 333
66.35933 312
66.37944 320
66.39955 326
66.41967 314
66.43978 295
66.45989 314
66.48001 329
66.50012 339
66.52023 319
66.54035 333
66.56046 333
66.58058 326
66.60069 343
66.6208 312
66.64092 288
66.66103 349
66.68114 335
66.70126 318
66.72137 307
66.74149 310
66.7616 341
66.78171 312
66.80183 324
66.82194 338
66.84205 310
66.86217 334
66.88228 332
66.90239 334
66.92251 333
66.94262 316
66.96274 315
66.98285 349
67.00296 324
67.02308 345
67.04319 325
67.0633 311
67.08342 321
67.10353 335
67.12365 336
67.14376 359
67.16387 364
67.18399 339
67.2041 345
67.22421 361
67.24433 350
67.26444 372
67.28456 358
67.30467 395
67.32478 419
67.3449 410
67.36501 424
67.38512 462
67.40524 467
67.42535 456
67.44546 496
67.46558 506
67.48569 538
67.50581 543
67.52592 609
67.54603 642
67.56615 714
67.58626 758
67.60637 795
67.62649 799
67.6466 845
67.66672 822
67.68683 829
67.70694 806
67.72706 675
67.74717 660
67.76728 682
67.7874 695
67.80751 710
67.82763 733
67.84774 735
67.86785 780
67.88797 777
67.90808 779
67.92819 788
67.94831 821
67.96842 862
67.98853 914
68.00865 913
68.02876 1023
68.04888 1041
68.06899 1115
68.0891 986
68.10922 990
68.12933 942
68.14944 1017
68.16956 937
68.18967 1002
68.20979 961
68.2299 937
68.25001 890
68.27013 815
68.29024 736
68.31035 685
68.33047 588
68.35058 602
68.3707 554
68.39081 520
68.41092 524
68.43104 473
68.45115 446
68.47126 425
68.49138 398
68.51149 396
68.5316 344
68.55172 369
68.57183 379
68.59195 371
68.61206 356
68.63217 348
68.65229 355
68.6724 354
68.69251 365
68.71263 322
68.73274 369
68.75286 339
68.77297 345
68.79308 359
68.8132 320
68.83331 329
68.85342 326
68.87354 340
68.89365 348
68.91376 337
68.93388 315
68.95399 292
68.97411 293
68.99422 332
69.01433 313
69.03445 327
69.05456 323
69.07467 285
69.09479 317
69.1149 310
69.13502 310
69.15513 317
69.17524 311
69.19536 295
69.21547 338
69.23558 297
69.2557 343
69.27581 317
69.29593 303
69.31604 294
69.33615 300
69.35627 336
69.37638 331
69.39649 335
69.41661 338
69.43672 319
69.45683 297
69.47695 334
69.49706 310
69.51718 285
69.53729 313
69.5574 341
69.57752 337
69.59763 342
69.61774 326
69.63786 292
69.65797 308
69.67809 333
69.6982 289
69.71831 341
69.73843 313
69.75854 343
69.77865 310
69.79877 332
69.81888 312
69.839 321
69.85911 309
69.87922 332
69.89934 326
69.91945 337
69.93956 319
69.95968 364
69.97979 322
69.9999 344
70.02002 331
70.04013 321
70.06025 354
70.08036 292
70.10047 338
70.12059 306
70.1407 341
70.16081 312
70.18093 331
70.20104 310
70.22116 349
70.24127 311
70.26138 328
70.2815 309
70.30161 309
70.32172 280
70.34184 301
70.36195 321
70.38207 319
70.40218 289
70.42229 331
70.44241 303
70.46252 337
70.48263 312
70.50275 319
70.52286 342
70.54297 352
70.56309 285
70.5832 314
70.60332 326
70.62343 311
70.64354 311
70.66366 280
70.68377 291
70.70388 331
70.724 302
70.74411 312
70.76423 308
70.78434 291
70.80445 279
70.82457 317
70.84468 296
70.86479 324
70.88491 299
70.90502 285
70.92513 319
70.94525 321
70.96536 293
70.98548 283
71.00559 284
71.0257 320
71.04582 324
71.06593 295
71.08604 315
71.10616 303
71.12627 315
71.14639 294
71.1665 317
71.18661 327
71.20673 284
71.22684 319
71.24695 298
71.26707 304
71.28718 291
71.3073 294
71.32741 312
71.34752 320
71.36764 321
71.38775 310
71.40786 300
71.42798 318
71.44809 317
71.4682 270
71.48832 314
71.50843 321
71.52855 310
71.54866 320
71.56877 323
71.58889 324
71.609 352
71.62911 353
71.64923 299
71.66934 333
71.68946 348
71.70957 350
71.72968 304
71.7498 351
71.76991 350
71.79002 340
71.81014 340
71.83025 330
71.85037 364
71.87048 349
71.89059 329
71.91071 309
71.93082 307
71.95093 326
71.97105 328
71.99116 347
72.01127 338
72.03139 373
72.0515 361
72.07162 337
72.09173 301
72.11184 322
72.13196 317
72.15207 320
72.17218 352
72.1923 341
72.21241 348
72.23253 331
72.25264 327
72.27275 335
72.29287 320
72.31298 317
72.33309 317
72.35321 318
72.37332 333
72.39344 319
72.41355 336
72.43366 319
72.45378 302
72.47389 314
72.494 291
72.51412 323
72.53423 337
72.55434 324
72.57446 312
72.59457 316
72.61469 310
72.6348 304
72.65491 315
72.67503 316
72.69514 294
72.71525 311
72.73537 317
72.75548 334
72.7756 309
72.79571 302
72.81582 323
72.83594 333
72.85605 299
72.87616 367
72.89628 324
72.91639 330
72.9365 319
72.95662 315
72.97673 344
72.99685 365
73.01696 374
73.03707 345
73.05719 369
73.0773 358
73.09741 332
73.11753 344
73.13764 388
73.15776 369
73.17787 394
73.19798 391
73.2181 426
73.23821 428
73.25832 432
73.27844 510
73.29855 471
73.31867 521
73.33878 491
73.35889 538
73.37901 519
73.39912 528
73.41923 448
73.43935 489
73.45946 428
73.47957 469
73.49969 445
73.5198 434
73.53992 399
73.56003 468
73.58014 417
73.60026 419
73.62037 404
73.64048 390
73.6606 353
73.68071 389
73.70083 366
73.72094 343
73.74105 323
73.76117 309
73.78128 316
73.80139 360
73.82151 306
73.84162 344
73.86174 351
73.88185 319
73.90196 349
73.92208 327
73.94219 305
73.9623 354
73.98242 353
74.00253 298
74.02264 330
74.04276 335
74.06287 343
74.08299 289
74.1031 302
74.12321 315
74.14333 304
74.16344 323
74.18355 315
74.20367 295
74.22378 285
74.2439 333
74.26401 322
74.28412 267
74.30424 302
74.32435 314
74.34446 294
74.36458 305
74.38469 283
74.40481 336
74.42492 281
74.44503 298
74.46515 319
74.48526 317
74.50537 321
74.52549 324
74.5456 331
74.56571 312
74.58583 293
74.60594 318
74.62606 359
74.64617 293
74.66628 330
74.6864 313
74.70651 323
74.72662 315
74.74674 351
74.76685 318
74.78697 331
74.80708 351
74.82719 317
74.84731 340
74.86742 321
74.88753 352
74.90765 343
74.92776 340
74.94787 325
74.96799 327
74.9881 334
75.00822 357
