3.00117 21439
3.02128 21416
3.0414 20451
3.06151 20122
3.08162 19436
3.10174 18590
3.12185 18609
3.14197 17846
3.16208 17328
3.18219 16817
3.20231 16298
3.22242 16092
3.24253 15069
3.26265 15058
3.28276 14222
3.30288 14105
3.32299 13840
3.3431 12882
3.36322 12675
3.38333 12196
3.40344 11625
3.42356 11474
3.44367 10939
3.46379 10996
3.4839 10469
3.50401 10171
3.52413 9717
3.54424 9122
3.56435 9046
3.58447 8261
3.60458 8191
3.62469 8103
3.64481 7683
3.66492 7403
3.68504 7025
3.70515 6699
3.72526 6502
3.74538 6262
3.76549 5999
3.7856 5635
3.80572 5340
3.82583 5473
3.84595 5010
3.86606 4960
3.88617 4694
3.90629 4374
3.9264 4454
3.94651 3987
3.96663 4082
3.98674 3675
4.00686 3534
4.02697 3496
4.04708 3200
4.0672 3286
4.08731 2955
4.10742 2858
4.12754 2718
4.14765 2571
4.16776 2597
4.18788 2286
4.20799 2303
4.22811 2238
4.24822 2178
4.26833 2094
4.28845 1850
4.30856 1888
4.32867 1875
4.34879 1785
4.3689 1728
4.38902 1632
4.40913 1616
4.42924 1600
4.44936 1567
4.46947 1571
4.48958 1378
4.5097 1466
4.52981 1404
4.54992 1382
4.57004 1284
4.59015 1286
4.61027 1215
4.63038 1247
4.65049 1269
4.67061 1169
4.69072 1083
4.71083 1090
4.73095 1162
4.75106 1116
4.77118 1047
4.79129 1014
4.8114 1007
4.83152 973
4.85163 1021
4.87174 953
4.89186 852
4.91197 816
4.93209 874
4.9522 841
4.97231 812
4.99243 838
5.01254 796
5.03265 721
5.05277 790
5.07288 705
5.09299 694
5.11311 677
5.13322 730
5.15334 647
5.17345 634
5.19356 675
5.21368 609
5.23379 624
5.2539 594
5.27402 555
5.29413 544
5.31425 551
5.33436 491
5.35447 564
5.37459 482
5.3947 542
5.41481 522
5.43493 461
5.45504 460
5.47516 430
5.49527 441
5.51538 425
5.5355 465
5.55561 456
5.57572 413
5.59584 364
5.61595 426
5.63606 397
5.65618 369
5.67629 349
5.69641 375
5.71652 371
5.73663 365
5.75675 314
5.77686 336
5.79697 337
5.81709 318
5.8372 316
5.85732 319
5.87743 313
5.89754 297
5.91766 343
5.93777 301
5.95788 281
5.978 316
5.99811 294
6.01823 300
6.03834 315
6.05845 299
6.07857 341
6.09868 271
6.11879 267
6.13891 264
6.15902 283
6.17913 275
6.19925 258
6.21936 267
6.23948 283
6.25959 257
6.2797 250
6.29982 260
6.31993 251
6.34004 257
6.36016 261
6.38027 220
6.40039 219
6.4205 244
6.44061 265
6.46073 253
6.48084 257
6.50095 239
6.52107 252
6.54118 235
6.56129 251
6.58141 237
6.60152 257
6.62164 249
6.64175 244
6.66186 255
6.68198 256
6.70209 230
6.7222 252
6.74232 214
6.76243 229
6.78255 233
6.80266 269
6.82277 234
6.84289 245
6.863 249
6.88311 234
6.90323 252
6.92334 209
6.94346 235
6.96357 235
6.98368 211
7.0038 214
7.02391 235
7.04402 219
7.06414 260
7.08425 230
7.10436 220
7.12448 249
7.14459 239
7.16471 246
7.18482 235
7.20493 225
7.22505 235
7.24516 225
7.26527 238
7.28539 220
7.3055 207
7.32562 240
7.34573 226
7.36584 253
7.38596 257
7.40607 267
7.42618 231
7.4463 233
7.46641 223
7.48653 213
7.50664 271
7.52675 257
7.54687 246
7.56698 252
7.58709 212
7.60721 231
7.62732 223
7.64743 244
7.66755 255
7.68766 260
7.70778 236
7.72789 255
7.748 268
7.76812 243
7.78823 254
7.80834 257
7.82846 269
7.84857 248
7.86869 270
7.8888 259
7.90891 255
7.92903 229
7.94914 253
7.96925 256
7.98937 280
8.00948 288
8.0296 251
8.04971 250
8.06982 237
8.08994 258
8.11005 267
8.13016 278
8.15028 253
8.17039 240
8.1905 239
8.21062 292
8.23073 267
8.25085 259
8.27096 262
8.29107 247
8.31119 273
8.3313 271
8.35141 268
8.37153 282
8.39164 264
8.41176 269
8.43187 270
8.45198 257
8.4721 288
8.49221 271
8.51232 341
8.53244 299
8.55255 244
8.57266 280
8.59278 231
8.61289 246
8.63301 259
8.65312 310
8.67323 262
8.69335 274
8.71346 357
8.73357 307
8.75369 296
8.7738 330
8.79392 326
8.81403 350
8.83414 372
8.85426 334
8.87437 316
8.89448 315
8.9146 269
8.93471 342
8.95483 273
8.97494 276
8.99505 272
9.01517 265
9.03528 259
9.05539 257
9.07551 255
9.09562 261
9.11573 248
9.13585 253
9.15596 276
9.17608 282
9.19619 229
9.2163 244
9.23642 246
9.25653 235
9.27664 247
9.29676 250
9.31687 257
9.33699 243
9.3571 229
9.37721 259
9.39733 246
9.41744 241
9.43755 245
9.45767 248
9.47778 260
9.4979 251
9.51801 276
9.53812 238
9.55824 241
9.57835 263
9.59846 249
9.61858 276
9.63869 240
9.6588 218
9.67892 221
9.69903 243
9.71915 250
9.73926 242
9.75937 242
9.77949 224
9.7996 272
9.81971 260
9.83983 239
9.85994 261
9.88006 241
9.90017 248
9.92028 220
9.9404 237
9.96051 240
9.98062 253
10.00074 242
10.02085 226
10.04097 266
10.06108 274
10.08119 246
10.10131 230
10.12142 258
10.14153 261
10.16165 258
10.18176 245
10.20187 262
10.22199 216
10.2421 225
10.26222 281
10.28233 241
10.30244 258
10.32256 250
10.34267 205
10.36278 213
10.3829 244
10.40301 222
10.42313 231
10.44324 245
10.46335 252
10.48347 223
10.50358 218
10.52369 218
10.54381 242
10.56392 246
10.58403 258
10.60415 258
10.62426 235
10.64438 233
10.66449 271
10.6846 248
10.70472 265
10.72483 236
10.74494 215
10.76506 217
10.78517 248
10.80529 227
10.8254 246
10.84551 212
10.86563 237
10.88574 230
10.90585 237
10.92597 234
10.94608 192
10.9662 241
10.98631 229
11.00642 235
11.02654 235
11.04665 247
11.06676 217
11.08688 240
11.10699 242
11.1271 256
11.14722 271
11.16733 224
11.18745 264
11.20756 228
11.22767 257
11.24779 262
11.2679 276
11.28801 251
11.30813 257
11.32824 218
11.34836 245
11.36847 252
11.38858 228
11.4087 267
11.42881 240
11.44892 228
11.46904 233
11.48915 208
11.50927 263
11.52938 276
11.54949 231
11.56961 225
11.58972 240
11.60983 239
11.62995 269
11.65006 261
11.67017 235
11.69029 261
11.7104 229
11.73052 232
11.75063 223
11.77074 258
11.79086 263
11.81097 245
11.83108 246
11.8512 265
11.87131 223
11.89143 270
11.91154 274
11.93165 249
11.95177 277
11.97188 244
11.99199 285
12.01211 285
12.03222 279
12.05234 279
12.07245 253
12.09256 268
12.11268 293
12.13279 272
12.1529 290
12.17302 259
12.19313 291
12.21324 267
12.23336 287
12.25347 267
12.27359 296
12.2937 293
12.31381 339
12.33393 309
12.35404 289
12.37415 292
12.39427 301
12.41438 268
12.4345 270
12.45461 266
12.47472 258
12.49484 274
12.51495 274
12.53506 260
12.55518 251
12.57529 230
12.5954 263
12.61552 263
12.63563 230
12.65575 254
12.67586 254
12.69597 260
12.71609 245
12.7362 240
12.75631 262
12.77643 247
12.79654 221
12.81666 227
12.83677 223
12.85688 199
12.877 214
12.89711 244
12.91722 214
12.93734 225
12.95745 246
12.97757 218
12.99768 244
13.01779 242
13.03791 225
13.05802 213
13.07813 225
13.09825 236
13.11836 208
13.13847 220
13.15859 219
13.1787 225
13.19882 207
13.21893 217
13.23904 200
13.25916 202
13.27927 203
13.29938 226
13.3195 204
13.33961 233
13.35973 234
13.37984 239
13.39995 218
13.42007 247
13.44018 230
13.46029 205
13.48041 210
13.50052 217
13.52064 202
13.54075 222
13.56086 224
13.58098 215
13.60109 219
13.6212 228
13.64132 225
13.66143 205
13.68154 212
13.70166 217
13.72177 201
13.74189 228
13.762 186
13.78211 210
13.80223 208
13.82234 206
13.84245 209
13.86257 210
13.88268 202
13.9028 219
13.92291 211
13.94302 212
13.96314 210
13.98325 201
14.00336 205
14.02348 211
14.04359 212
14.06371 179
14.08382 222
14.10393 200
14.12405 231
14.14416 193
14.16427 223
14.18439 188
14.2045 185
14.22461 192
14.24473 200
14.26484 210
14.28496 194
14.30507 205
14.32518 194
14.3453 238
14.36541 204
14.38552 225
14.40564 230
14.42575 207
14.44587 211
14.46598 216
14.48609 184
14.50621 166
14.52632 172
14.54643 189
14.56655 172
14.58666 203
14.60677 205
14.62689 166
14.647 198
14.66712 199
14.68723 191
14.70734 217
14.72746 184
14.74757 192
14.76768 236
14.7878 186
14.80791 203
14.82803 175
14.84814 170
14.86825 193
14.88837 211
14.90848 199
14.92859 221
14.94871 202
14.96882 219
14.98894 224
15.00905 207
15.02916 173
15.04928 161
15.06939 229
15.0895 211
15.10962 223
15.12973 191
15.14984 206
15.16996 209
15.19007 183
15.21019 207
15.2303 203
15.25041 175
15.27053 187
15.29064 178
15.31075 189
15.33087 211
15.35098 225
15.3711 190
15.39121 203
15.41132 176
15.43144 190
15.45155 189
15.47166 207
15.49178 190
15.51189 171
15.53201 192
15.55212 208
15.57223 202
15.59235 173
15.61246 198
15.63257 183
15.65269 186
15.6728 222
15.69291 212
15.71303 206
15.73314 209
15.75326 173
15.77337 203
15.79348 190
15.8136 179
15.83371 199
15.85382 187
15.87394 185
15.89405 192
15.91417 184
15.93428 194
15.95439 192
15.97451 173
15.99462 179
16.01473 197
16.03485 183
16.05496 220
16.07508 203
16.09519 208
16.1153 192
16.13542 160
16.15553 204
16.17564 157
16.19576 172
16.21587 183
16.23598 200
16.2561 215
16.27621 184
16.29633 189
16.31644 184
16.33655 188
16.35667 191
16.37678 197
16.39689 200
16.41701 206
16.43712 187
16.45724 200
16.47735 173
16.49746 180
16.51758 197
16.53769 177
16.5578 189
16.57792 181
16.59803 191
16.61814 208
16.63826 165
16.65837 209
16.67849 191
16.6986 209
16.71871 188
16.73883 177
16.75894 174
16.77905 185
16.79917 191
16.81928 194
16.8394 191
16.85951 187
16.87962 197
16.89974 194
16.91985 169
16.93996 174
16.96008 224
16.98019 208
17.00031 176
17.02042 173
17.04053 193
17.06065 208
17.08076 179
17.10087 191
17.12099 215
17.1411 173
17.16121 207
17.18133 185
17.20144 187
17.22156 206
17.24167 217
17.26178 190
17.2819 179
17.30201 189
17.32212 207
17.34224 196
17.36235 201
17.38247 215
17.40258 201
17.42269 194
17.44281 215
17.46292 176
17.48303 155
17.50315 211
17.52326 182
17.54338 205
17.56349 213
17.5836 203
17.60372 202
17.62383 223
17.64394 230
17.66406 208
17.68417 228
17.70428 224
17.7244 195
17.74451 229
17.76463 219
17.78474 215
17.80485 221
17.82497 223
17.84508 220
17.86519 208
17.88531 200
17.90542 197
17.92554 227
17.94565 189
17.96576 201
17.98588 181
18.00599 198
18.0261 205
18.04622 172
18.06633 207
18.08645 168
18.10656 197
18.12667 183
18.14679 207
18.1669 200
18.18701 181
18.20713 169
18.22724 184
18.24735 196
18.26747 187
18.28758 193
18.3077 188
18.32781 176
18.34792 206
18.36804 221
18.38815 205
18.40826 231
18.42838 183
18.44849 163
18.46861 201
18.48872 191
18.50883 214
18.52895 200
18.54906 196
18.56917 210
18.58929 217
18.6094 189
18.62951 213
18.64963 182
18.66974 197
18.68986 212
18.70997 207
18.73008 219
18.7502 228
18.77031 211
18.79042 239
18.81054 233
18.83065 192
18.85077 215
18.87088 221
18.89099 202
18.91111 187
18.93122 182
18.95133 202
18.97145 189
18.99156 205
19.01168 167
19.03179 186
19.0519 186
19.07202 164
19.09213 203
19.11224 202
19.13236 192
19.15247 200
19.17258 199
19.1927 196
19.21281 223
19.23293 193
19.25304 163
19.27315 198
19.29327 201
19.31338 204
19.33349 223
19.35361 223
19.37372 213
19.39384 180
19.41395 216
19.43406 218
19.45418 236
19.47429 225
19.4944 241
19.51452 266
19.53463 250
19.55475 288
19.57486 298
19.59497 337
19.61509 368
19.6352 380
19.65531 427
19.67543 426
19.69554 417
19.71565 437
19.73577 465
19.75588 513
19.776 480
19.79611 473
19.81622 426
19.83634 438
19.85645 450
19.87656 430
19.89668 412
19.91679 401
19.93691 402
19.95702 342
19.97713 342
19.99725 348
20.01736 372
20.03747 323
20.05759 362
20.0777 361
20.09782 359
20.11793 385
20.13804 376
20.15816 384
20.17827 379
20.19838 374
20.2185 377
20.23861 383
20.25872 363
20.27884 388
20.29895 365
20.31907 369
20.33918 369
20.35929 373
20.37941 383
20.39952 418
20.41963 414
20.43975 424
20.45986 445
20.47998 469
20.50009 492
20.5202 495
20.54032 488
20.56043 567
20.58054 569
20.60066 667
20.62077 743
20.64088 901
20.661 1271
20.68111 1569
20.70123 2033
20.72134 2669
20.74145 3701
20.76157 4654
20.78168 5820
20.80179 6708
20.82191 7048
20.84202 7225
20.86214 6257
20.88225 4760
20.90236 3404
20.92248 2321
20.94259 1368
20.9627 933
20.98282 675
21.00293 605
21.02305 540
21.04316 547
21.06327 453
21.08339 468
21.1035 418
21.12361 399
21.14373 411
21.16384 389
21.18395 341
21.20407 357
21.22418 327
21.2443 349
21.26441 329
21.28452 345
21.30464 367
21.32475 299
21.34486 303
21.36498 327
21.38509 362
21.40521 293
21.42532 313
21.44543 313
21.46555 319
21.48566 302
21.50577 282
21.52589 286
21.546 306
21.56612 288
21.58623 310
21.60634 284
21.62646 279
21.64657 282
21.66668 304
21.6868 284
21.70691 291
21.72702 281
21.74714 284
21.76725 279
21.78737 280
21.80748 275
21.82759 257
21.84771 275
21.86782 302
21.88793 248
21.90805 286
21.92816 275
21.94828 234
21.96839 271
21.9885 264
22.00862 287
22.02873 271
22.04884 270
22.06896 264
22.08907 247
22.10919 255
22.1293 245
22.14941 254
22.16953 254
22.18964 261
22.20975 247
22.22987 264
22.24998 228
22.27009 265
22.29021 264
22.31032 275
22.33044 273
22.35055 266
22.37066 272
22.39078 261
22.41089 250
22.431 253
22.45112 253
22.47123 272
22.49135 243
22.51146 288
22.53157 260
22.55169 282
22.5718 252
22.59191 269
22.61203 268
22.63214 261
22.65225 289
22.67237 271
22.69248 269
22.7126 245
22.73271 272
22.75282 273
22.77294 254
22.79305 254
22.81316 281
22.83328 287
22.85339 269
22.87351 263
22.89362 274
22.91373 274
22.93385 280
22.95396 275
22.97407 244
22.99419 234
23.0143 249
23.03442 285
23.05453 266
23.07464 250
23.09476 245
23.11487 277
23.13498 264
23.1551 258
23.17521 236
23.19532 255
23.21544 238
23.23555 268
23.25567 257
23.27578 242
23.29589 245
23.31601 245
23.33612 268
23.35623 232
23.37635 242
23.39646 268
23.41658 235
23.43669 245
23.4568 224
23.47692 231
23.49703 248
23.51714 255
23.53726 250
23.55737 268
23.57749 252
23.5976 259
23.61771 277
23.63783 269
23.65794 272
23.67805 277
23.69817 281
23.71828 322
23.73839 278
23.75851 271
23.77862 309
23.79874 296
23.81885 295
23.83896 297
23.85908 317
23.87919 299
23.8993 300
23.91942 325
23.93953 317
23.95965 304
23.97976 343
23.99987 299
24.01999 345
24.0401 313
24.06021 287
24.08033 286
24.10044 264
24.12056 251
24.14067 271
24.16078 285
24.1809 290
24.20101 276
24.22112 302
24.24124 290
24.26135 282
24.28146 287
24.30158 272
24.32169 297
24.34181 275
24.36192 270
24.38203 287
24.40215 261
24.42226 236
24.44237 284
24.46249 271
24.4826 274
24.50272 279
24.52283 273
24.54294 284
24.56306 268
24.58317 286
24.60328 277
24.6234 278
24.64351 292
24.66362 276
24.68374 284
24.70385 283
24.72397 307
24.74408 271
24.76419 314
24.78431 300
24.80442 326
24.82453 255
24.84465 293
24.86476 279
24.88488 275
24.90499 290
24.9251 272
24.94522 297
24.96533 316
24.98544 283
25.00556 268
25.02567 308
25.04579 285
25.0659 300
25.08601 298
25.10613 293
25.12624 298
25.14635 342
25.16647 319
25.18658 314
25.20669 321
25.22681 304
25.24692 310
25.26704 341
25.28715 342
25.30726 293
25.32738 340
25.34749 283
25.3676 325
25.38772 318
25.40783 389
25.42795 333
25.44806 331
25.46817 330
25.48829 314
25.5084 311
25.52851 305
25.54863 307
25.56874 315
25.58886 323
25.60897 346
25.62908 365
25.6492 397
25.66931 396
25.68942 406
25.70954 461
25.72965 473
25.74976 469
25.76988 453
25.78999 492
25.81011 502
25.83022 472
25.85033 453
25.87045 470
25.89056 509
25.91067 517
25.93079 550
25.9509 547
25.97102 561
25.99113 566
26.01124 560
26.03136 592
26.05147 619
26.07158 655
26.0917 691
26.11181 717
26.13193 796
26.15204 802
26.17215 875
26.19227 888
26.21238 1070
26.23249 1040
26.25261 1191
26.27272 1254
26.29283 1450
26.31295 1652
26.33306 1927
26.35318 2203
26.37329 2596
26.3934 3262
26.41352 4164
26.43363 5524
26.45374 7290
26.47386 9532
26.49397 12862
26.51409 17126
26.5342 21339
26.55431 26346
26.57443 30421
26.59454 32940
26.61465 32352
26.63477 28540
26.65488 23302
26.67499 17544
26.69511 12655
26.71522 8418
26.73534 5290
26.75545 3359
26.77556 2295
26.79568 1896
26.81579 1626
26.8359 1490
26.85602 1318
26.87613 1203
26.89625 1158
26.91636 974
26.93647 891
26.95659 808
26.9767 735
26.99681 741
27.01693 648
27.03704 612
27.05716 578
27.07727 564
27.09738 524
27.1175 551
27.13761 520
27.15772 504
27.17784 427
27.19795 458
27.21806 459
27.23818 415
27.25829 412
27.27841 387
27.29852 431
27.31863 420
27.33875 404
27.35886 427
27.37897 383
27.39909 404
27.4192 400
27.43932 401
27.45943 395
27.47954 396
27.49966 396
27.51977 374
27.53988 355
27.56 364
27.58011 351
27.60023 368
27.62034 372
27.64045 357
27.66057 371
27.68068 335
27.70079 401
27.72091 389
27.74102 378
27.76113 342
27.78125 348
27.80136 333
27.82148 353
27.84159 373
27.8617 354
27.88182 359
27.90193 357
27.92204 322
27.94216 340
27.96227 321
27.98239 341
28.0025 359
28.02261 286
28.04273 311
28.06284 325
28.08295 326
28.10307 312
28.12318 295
28.1433 324
28.16341 292
28.18352 282
28.20364 297
28.22375 280
28.24386 302
28.26398 300
28.28409 310
28.3042 270
28.32432 294
28.34443 300
28.36455 282
28.38466 255
28.40477 286
28.42489 285
28.445 256
28.46511 286
28.48523 290
28.50534 257
28.52546 292
28.54557 295
28.56568 306
28.5858 266
28.60591 280
28.62602 271
28.64614 278
28.66625 284
28.68636 274
28.70648 275
28.72659 295
28.74671 260
28.76682 282
28.78693 326
28.80705 305
28.82716 271
28.84727 276
28.86739 287
28.8875 273
28.90762 285
28.92773 303
28.94784 286
28.96796 263
28.98807 285
29.00818 262
29.0283 272
29.04841 270
29.06853 291
29.08864 265
29.10875 289
29.12887 300
29.14898 254
29.16909 254
29.18921 256
29.20932 256
29.22943 282
29.24955 272
29.26966 285
29.28978 265
29.30989 278
29.33 264
29.35012 280
29.37023 284
29.39034 250
29.41046 259
29.43057 268
29.45069 280
29.4708 298
29.49091 256
29.51103 254
29.53114 286
29.55125 276
29.57137 238
29.59148 266
29.6116 263
29.63171 214
29.65182 230
29.67194 253
29.69205 256
29.71216 259
29.73228 276
29.75239 275
29.7725 235
29.79262 267
29.81273 278
29.83285 273
29.85296 268
29.87307 245
29.89319 294
29.9133 269
29.93341 255
29.95353 264
29.97364 238
29.99376 233
30.01387 240
30.03398 222
30.0541 248
30.07421 245
30.09432 245
30.11444 224
30.13455 232
30.15467 231
30.17478 229
30.19489 231
30.21501 242
30.23512 255
30.25523 214
30.27535 249
30.29546 254
30.31557 219
30.33569 276
30.3558 259
30.37592 237
30.39603 238
30.41614 229
30.43626 276
30.45637 227
30.47648 263
30.4966 209
30.51671 260
30.53683 234
30.55694 228
30.57705 248
30.59717 229
30.61728 238
30.63739 243
30.65751 251
30.67762 240
30.69773 253
30.71785 229
30.73796 235
30.75808 206
30.77819 247
30.7983 225
30.81842 238
30.83853 219
30.85864 214
30.87876 226
30.89887 245
30.91899 221
30.9391 243
30.95921 239
30.97933 223
30.99944 220
31.01955 219
31.03967 227
31.05978 232
31.0799 252
31.10001 232
31.12012 238
31.14024 221
31.16035 255
31.18046 218
31.20058 218
31.22069 241
31.2408 196
31.26092 234
31.28103 207
31.30115 226
31.32126 211
31.34137 198
31.36149 259
31.3816 252
31.40171 211
31.42183 230
31.44194 222
31.46206 235
31.48217 258
31.50228 197
31.5224 202
31.54251 211
31.56262 188
31.58274 212
31.60285 212
31.62297 191
31.64308 206
31.66319 215
31.68331 211
31.70342 210
31.72353 198
31.74365 227
31.76376 211
31.78387 198
31.80399 212
31.8241 198
31.84422 218
31.86433 192
31.88444 211
31.90456 212
31.92467 193
31.94478 185
31.9649 204
31.98501 216
32.00513 233
32.02524 238
32.04535 206
32.06547 217
32.08558 215
32.10569 213
32.12581 218
32.14592 190
32.16604 190
32.18615 193
32.20626 199
32.22638 164
32.24649 223
32.2666 197
32.28672 169
32.30683 203
32.32694 177
32.34706 213
32.36717 184
32.38729 178
32.4074 158
32.42751 178
32.44763 185
32.46774 175
32.48785 163
32.50797 183
32.52808 175
32.5482 170
32.56831 199
32.58842 181
32.60854 210
32.62865 191
32.64876 189
32.66888 185
32.68899 201
32.7091 198
32.72922 190
32.74933 188
32.76945 196
32.78956 192
32.80967 179
32.82979 207
32.8499 179
32.87001 204
32.89013 219
32.91024 209
32.93036 214
32.95047 202
32.97058 204
32.9907 222
33.01081 216
33.03092 211
33.05104 211
33.07115 218
33.09127 228
33.11138 223
33.13149 229
33.15161 196
33.17172 229
33.19183 220
33.21195 210
33.23206 201
33.25217 200
33.27229 212
33.2924 203
33.31252 201
33.33263 180
33.35274 198
33.37286 195
33.39297 222
33.41308 203
33.4332 184
33.45331 186
33.47343 205
33.49354 188
33.51365 213
33.53377 214
33.55388 194
33.57399 204
33.59411 170
33.61422 156
33.63434 175
33.65445 194
33.67456 203
33.69468 194
33.71479 188
33.7349 205
33.75502 191
33.77513 178
33.79524 200
33.81536 179
33.83547 172
33.85559 171
33.8757 194
33.89581 187
33.91593 186
33.93604 186
33.95615 185
33.97627 190
33.99638 163
34.0165 166
34.03661 203
34.05672 194
34.07684 191
34.09695 181
34.11706 185
34.13718 229
34.15729 200
34.17741 195
34.19752 188
34.21763 212
34.23775 192
34.25786 211
34.27797 231
34.29809 223
34.3182 217
34.33831 225
34.35843 258
34.37854 258
34.39866 231
34.41877 309
34.43888 247
34.459 282
34.47911 300
34.49922 294
34.51934 294
34.53945 315
34.55957 303
34.57968 313
34.59979 295
34.61991 325
34.64002 307
34.66013 312
34.68025 371
34.70036 323
34.72047 337
34.74059 325
34.7607 336
34.78082 364
34.80093 381
34.82104 385
34.84116 424
34.86127 430
34.88138 419
34.9015 366
34.92161 373
34.94173 379
34.96184 338
34.98195 354
35.00207 291
35.02218 299
35.04229 293
35.06241 287
35.08252 273
35.10264 265
35.12275 213
35.14286 240
35.16298 266
35.18309 258
35.2032 229
35.22332 262
35.24343 243
35.26354 235
35.28366 250
35.30377 249
35.32389 266
35.344 240
35.36411 252
35.38423 240
35.40434 264
35.42445 237
35.44457 264
35.46468 230
35.4848 263
35.50491 232
35.52502 250
35.54514 241
35.56525 260
35.58536 300
35.60548 269
35.62559 255
35.64571 260
35.66582 278
35.68593 258
35.70605 261
35.72616 256
35.74627 248
35.76639 258
35.7865 253
35.80661 240
35.82673 264
35.84684 266
35.86696 242
35.88707 258
35.90718 244
35.9273 231
35.94741 252
35.96752 259
35.98764 245
36.00775 239
36.02787 276
36.04798 256
36.06809 263
36.08821 236
36.10832 268
36.12843 295
36.14855 268
36.16866 315
36.18878 323
36.20889 345
36.229 365
36.24912 415
36.26923 453
36.28934 532
36.30946 569
36.32957 689
36.34968 829
36.3698 915
36.38991 1225
36.41003 1446
36.43014 1625
36.45025 1973
36.47037 2100
36.49048 2105
36.51059 2137
36.53071 2037
36.55082 1752
36.57094 1483
36.59105 1305
36.61116 1092
36.63128 858
36.65139 607
36.6715 483
36.69162 375
36.71173 371
36.73184 316
36.75196 263
36.77207 285
36.79219 267
36.8123 276
36.83241 244
36.85253 231
36.87264 249
36.89275 251
36.91287 243
36.93298 232
36.9531 244
36.97321 238
36.99332 214
37.01344 249
37.03355 211
37.05366 222
37.07378 255
37.09389 259
37.11401 227
37.13412 231
37.15423 229
37.17435 240
37.19446 223
37.21457 214
37.23469 242
37.2548 215
37.27491 244
37.29503 230
37.31514 224
37.33526 228
37.35537 231
37.37548 239
37.3956 247
37.41571 229
37.43582 241
37.45594 280
37.47605 229
37.49617 240
37.51628 241
37.53639 233
37.55651 255
37.57662 249
37.59673 244
37.61685 244
37.63696 246
37.65708 245
37.67719 236
37.6973 238
37.71742 279
37.73753 256
37.75764 246
37.77776 238
37.79787 244
37.81798 216
37.8381 246
37.85821 217
37.87833 261
37.89844 250
37.91855 221
37.93867 215
37.95878 234
37.97889 247
37.99901 213
38.01912 236
38.03924 211
38.05935 229
38.07946 224
38.09958 210
38.11969 208
38.1398 239
38.15992 243
38.18003 214
38.20015 205
38.22026 246
38.24037 197
38.26049 251
38.2806 221
38.30071 206
38.32083 214
38.34094 197
38.36105 238
38.38117 222
38.40128 235
38.4214 228
38.44151 236
38.46162 187
38.48174 210
38.50185 205
38.52196 233
38.54208 227
38.56219 230
38.58231 211
38.60242 228
38.62253 236
38.64265 230
38.66276 217
38.68287 218
38.70299 236
38.7231 216
38.74321 199
38.76333 188
38.78344 218
38.80356 215
38.82367 190
38.84378 206
38.8639 233
38.88401 217
38.90412 222
38.92424 224
38.94435 229
38.96447 251
38.98458 233
39.00469 265
39.02481 276
39.04492 261
39.06503 248
39.08515 261
39.10526 303
39.12538 304
39.14549 392
39.1656 404
39.18572 397
39.20583 486
39.22594 573
39.24606 623
39.26617 728
39.28628 824
39.3064 1015
39.32651 1218
39.34663 1517
39.36674 1742
39.38685 1945
39.40697 2035
39.42708 2051
39.44719 1938
39.46731 1791
39.48742 1349
39.50754 1231
39.52765 1097
39.54776 938
39.56788 726
39.58799 577
39.6081 416
39.62822 349
39.64833 307
39.66845 287
39.68856 280
39.70867 280
39.72879 223
39.7489 256
39.76901 262
39.78913 272
39.80924 246
39.82935 265
39.84947 254
39.86958 291
39.8897 271
39.90981 259
39.92992 279
39.95004 290
39.97015 296
39.99026 330
40.01038 342
40.03049 369
40.05061 417
40.07072 413
40.09083 461
40.11095 545
40.13106 658
40.15117 783
40.17129 858
40.1914 959
40.21152 991
40.23163 1085
40.25174 1072
40.27186 1027
40.29197 917
40.31208 773
40.3322 682
40.35231 621
40.37242 527
40.39254 409
40.41265 380
40.43277 316
40.45288 268
40.47299 296
40.49311 240
40.51322 231
40.53333 263
40.55345 222
40.57356 202
40.59368 198
40.61379 217
40.6339 190
40.65402 223
40.67413 203
40.69424 239
40.71436 199
40.73447 202
40.75458 221
40.7747 205
40.79481 214
40.81493 227
40.83504 232
40.85515 232
40.87527 225
40.89538 224
40.91549 227
40.93561 241
40.95572 203
40.97584 206
40.99595 221
41.01606 190
41.03618 206
41.05629 213
41.0764 222
41.09652 215
41.11663 226
41.13675 228
41.15686 198
41.17697 219
41.19709 210
41.2172 201
41.23731 211
41.25743 200
41.27754 199
41.29765 199
41.31777 213
41.33788 237
41.358 208
41.37811 214
41.39822 196
41.41834 191
41.43845 215
41.45856 195
41.47868 204
41.49879 221
41.51891 173
41.53902 201
41.55913 221
41.57925 197
41.59936 195
41.61947 211
41.63959 190
41.6597 189
41.67982 229
41.69993 225
41.72004 207
41.74016 193
41.76027 218
41.78038 210
41.8005 234
41.82061 231
41.84072 237
41.86084 222
41.88095 211
41.90107 241
41.92118 203
41.94129 234
41.96141 241
41.98152 245
42.00163 242
42.02175 239
42.04186 223
42.06198 294
42.08209 289
42.1022 308
42.12232 330
42.14243 347
42.16254 386
42.18266 382
42.20277 489
42.22289 494
42.243 588
42.26311 664
42.28323 751
42.30334 937
42.32345 985
42.34357 1261
42.36368 1420
42.38379 1454
42.40391 1515
42.42402 1390
42.44414 1309
42.46425 1123
42.48436 936
42.50448 808
42.52459 798
42.5447 665
42.56482 524
42.58493 405
42.60505 305
42.62516 262
42.64527 247
42.66539 240
42.6855 241
42.70561 242
42.72573 239
42.74584 222
42.76595 208
42.78607 234
42.80618 239
42.8263 187
42.84641 206
42.86652 185
42.88664 194
42.90675 208
42.92686 196
42.94698 208
42.96709 189
42.98721 205
43.00732 195
43.02743 203
43.04755 185
43.06766 209
43.08777 185
43.10789 185
43.128 185
43.14812 179
43.16823 200
43.18834 187
43.20846 201
43.22857 183
43.24868 184
43.2688 203
43.28891 191
43.30902 197
43.32914 187
43.34925 153
43.36937 191
43.38948 182
43.40959 183
43.42971 179
43.44982 166
43.46993 186
43.49005 193
43.51016 200
43.53028 192
43.55039 184
43.5705 175
43.59062 184
43.61073 179
43.63084 187
43.65096 180
43.67107 195
43.69119 175
43.7113 205
43.73141 180
43.75153 167
43.77164 162
43.79175 171
43.81187 168
43.83198 176
43.85209 201
43.87221 182
43.89232 198
43.91244 199
43.93255 175
43.95266 191
43.97278 166
43.99289 182
44.013 178
44.03312 174
44.05323 156
44.07335 177
44.09346 183
44.11357 165
44.13369 151
44.1538 178
44.17391 176
44.19403 176
44.21414 181
44.23426 179
44.25437 197
44.27448 185
44.2946 170
44.31471 176
44.33482 185
44.35494 188
44.37505 178
44.39516 192
44.41528 178
44.43539 173
44.45551 191
44.47562 183
44.49573 171
44.51585 164
44.53596 199
44.55607 158
44.57619 185
44.5963 175
44.61642 190
44.63653 189
44.65664 187
44.67676 170
44.69687 176
44.71698 195
44.7371 173
44.75721 178
44.77732 186
44.79744 191
44.81755 191
44.83767 147
44.85778 182
44.87789 180
44.89801 184
44.91812 193
44.93823 215
44.95835 169
44.97846 203
44.99858 203
45.01869 191
45.0388 200
45.05892 199
45.07903 197
45.09914 183
45.11926 209
45.13937 187
45.15949 196
45.1796 213
45.19971 218
45.21983 218
45.23994 217
45.26005 181
45.28017 210
45.30028 210
45.32039 199
45.34051 227
45.36062 272
45.38074 215
45.40085 233
45.42096 252
45.44108 265
45.46119 264
45.4813 278
45.50142 303
45.52153 368
45.54165 386
45.56176 363
45.58187 430
45.60199 558
45.6221 574
45.64221 630
45.66233 789
45.68244 871
45.70256 1011
45.72267 986
45.74278 987
45.7629 990
45.78301 946
45.80312 796
45.82324 704
45.84335 668
45.86346 580
45.88358 528
45.90369 462
45.92381 360
45.94392 278
45.96403 256
45.98415 271
46.00426 223
46.02437 228
46.04449 230
46.0646 198
46.08472 215
46.10483 219
46.12494 217
46.14506 207
46.16517 193
46.18528 190
46.2054 183
46.22551 207
46.24563 202
46.26574 170
46.28585 185
46.30597 168
46.32608 169
46.34619 183
46.36631 194
46.38642 194
46.40653 173
46.42665 169
46.44676 167
46.46688 163
46.48699 174
46.5071 147
46.52722 162
46.54733 174
46.56744 190
46.58756 184
46.60767 161
46.62779 181
46.6479 153
46.66801 170
46.68813 171
46.70824 163
46.72835 160
46.74847 197
46.76858 152
46.78869 146
46.80881 143
46.82892 155
46.84904 178
46.86915 176
46.88926 157
46.90938 191
46.92949 164
46.9496 158
46.96972 150
46.98983 159
47.00995 165
47.03006 172
47.05017 146
47.07029 152
47.0904 168
47.11051 150
47.13063 172
47.15074 150
47.17086 152
47.19097 149
47.21108 173
47.2312 150
47.25131 164
47.27142 151
47.29154 174
47.31165 178
47.33176 158
47.35188 174
47.37199 155
47.39211 147
47.41222 176
47.43233 167
47.45245 149
47.47256 166
47.49267 174
47.51279 178
47.5329 176
47.55302 158
47.57313 162
47.59324 156
47.61336 148
47.63347 157
47.65358 172
47.6737 169
47.69381 156
47.71393 175
47.73404 167
47.75415 150
47.77427 168
47.79438 149
47.81449 181
47.83461 187
47.85472 144
47.87483 170
47.89495 153
47.91506 170
47.93518 179
47.95529 198
47.9754 174
47.99552 165
48.01563 163
48.03574 138
48.05586 176
48.07597 152
48.09609 151
48.1162 160
48.13631 182
48.15643 158
48.17654 156
48.19665 164
48.21677 177
48.23688 155
48.257 177
48.27711 181
48.29722 188
48.31734 154
48.33745 170
48.35756 171
48.37768 171
48.39779 193
48.4179 157
48.43802 174
48.45813 177
48.47825 184
48.49836 191
48.51847 172
48.53859 195
48.5587 168
48.57881 181
48.59893 158
48.61904 179
48.63916 168
48.65927 169
48.67938 154
48.6995 193
48.71961 163
48.73972 175
48.75984 167
48.77995 163
48.80006 148
48.82018 184
48.84029 161
48.86041 176
48.88052 171
48.90063 176
48.92075 176
48.94086 179
48.96097 174
48.98109 197
49.0012 165
49.02132 165
49.04143 180
49.06154 174
49.08166 163
49.10177 159
49.12188 214
49.142 184
49.16211 189
49.18223 208
49.20234 202
49.22245 181
49.24257 179
49.26268 184
49.28279 184
49.30291 182
49.32302 181
49.34313 176
49.36325 194
49.38336 187
49.40348 213
49.42359 183
49.4437 221
49.46382 208
49.48393 223
49.50404 211
49.52416 213
49.54427 232
49.56439 244
49.5845 241
49.60461 250
49.62473 252
49.64484 254
49.66495 296
49.68507 289
49.70518 327
49.7253 358
49.74541 395
49.76552 394
49.78564 456
49.80575 509
49.82586 552
49.84598 630
49.86609 721
49.8862 819
49.90632 1008
49.92643 1122
49.94655 1384
49.96666 1654
49.98677 2049
50.00689 2317
50.027 2630
50.04711 2959
50.06723 3153
50.08734 3239
50.10746 3138
50.12757 2721
50.14768 2291
50.1678 1991
50.18791 1888
50.20802 1680
50.22814 1552
50.24825 1322
50.26837 1039
50.28848 743
50.30859 557
50.32871 431
50.34882 388
50.36893 334
50.38905 302
50.40916 320
50.42927 291
50.44939 310
50.4695 271
50.48962 277
50.50973 299
50.52984 264
50.54996 283
50.57007 278
50.59018 265
50.6103 247
50.63041 250
50.65053 226
50.67064 255
50.69075 239
50.71087 208
50.73098 195
50.75109 210
50.77121 186
50.79132 181
50.81143 185
50.83155 176
50.85166 222
50.87178 163
50.89189 171
50.912 173
50.93212 168
50.95223 161
50.97234 169
50.99246 161
51.01257 181
51.03269 184
51.0528 157
51.07291 165
51.09303 166
51.11314 153
51.13325 168
51.15337 153
51.17348 162
51.1936 151
51.21371 146
51.23382 162
51.25394 171
51.27405 173
51.29416 142
51.31428 159
51.33439 182
51.3545 144
51.37462 151
51.39473 166
51.41485 152
51.43496 163
51.45507 175
51.47519 155
51.4953 167
51.51541 165
51.53553 167
51.55564 152
51.57576 153
51.59587 154
51.61598 159
51.6361 170
51.65621 135
51.67632 149
51.69644 165
51.71655 184
51.73667 165
51.75678 157
51.77689 156
51.79701 166
51.81712 156
51.83723 177
51.85735 137
51.87746 129
51.89757 137
51.91769 167
51.9378 154
51.95792 150
51.97803 135
51.99814 164
52.01826 146
52.03837 150
52.05848 174
52.0786 163
52.09871 158
52.11883 162
52.13894 173
52.15905 152
52.17917 159
52.19928 176
52.21939 151
52.23951 157
52.25962 144
52.27974 148
52.29985 164
52.31996 164
52.34008 132
52.36019 158
52.3803 159
52.40042 171
52.42053 155
52.44064 164
52.46076 152
52.48087 147
52.50099 174
52.5211 140
52.54121 136
52.56133 165
52.58144 159
52.60155 161
52.62167 154
52.64178 156
52.6619 176
52.68201 163
52.70212 150
52.72224 168
52.74235 159
52.76246 144
52.78258 165
52.80269 160
52.8228 185
52.84292 167
52.86303 143
52.88315 173
52.90326 169
52.92337 170
52.94349 159
52.9636 179
52.98371 173
53.00383 169
53.02394 155
53.04406 140
53.06417 177
53.08428 163
53.1044 165
53.12451 149
53.14462 160
53.16474 176
53.18485 156
53.20497 181
53.22508 155
53.24519 160
53.26531 173
53.28542 178
53.30553 199
53.32565 178
53.34576 166
53.36587 172
53.38599 150
53.4061 198
53.42622 178
53.44633 182
53.46644 175
53.48656 174
53.50667 208
53.52678 188
53.5469 189
53.56701 193
53.58713 181
53.60724 204
53.62735 203
53.64747 201
53.66758 196
53.68769 205
53.70781 196
53.72792 215
53.74804 207
53.76815 198
53.78826 206
53.80838 170
53.82849 212
53.8486 207
53.86872 210
53.88883 180
53.90894 193
53.92906 190
53.94917 213
53.96929 199
53.9894 202
54.00951 197
54.02963 191
54.04974 211
54.06985 200
54.08997 197
54.11008 207
54.1302 180
54.15031 198
54.17042 198
54.19054 212
54.21065 189
54.23076 209
54.25088 205
54.27099 201
54.29111 210
54.31122 205
54.33133 234
54.35145 210
54.37156 222
54.39167 213
54.41179 211
54.4319 233
54.45201 233
54.47213 285
54.49224 255
54.51236 258
54.53247 295
54.55258 303
54.5727 362
54.59281 360
54.61292 352
54.63304 437
54.65315 471
54.67327 561
54.69338 591
54.71349 645
54.73361 756
54.75372 839
54.77383 946
54.79395 978
54.81406 1006
54.83417 970
54.85429 923
54.8744 760
54.89452 762
54.91463 711
54.93474 658
54.95486 631
54.97497 618
54.99508 582
55.0152 492
55.03531 444
55.05543 390
55.07554 346
55.09565 348
55.11577 389
55.13588 362
55.15599 431
55.17611 442
55.19622 486
55.21634 481
55.23645 537
55.25656 562
55.27668 548
55.29679 531
55.3169 460
55.33702 463
55.35713 437
55.37724 356
55.39736 381
55.41747 408
55.43759 341
55.4577 311
55.47781 291
55.49793 245
55.51804 258
55.53815 241
55.55827 198
55.57838 218
55.5985 232
55.61861 212
55.63872 213
55.65884 190
55.67895 196
55.69906 206
55.71918 183
55.73929 198
55.75941 194
55.77952 171
55.79963 184
55.81975 186
55.83986 177
55.85997 186
55.88009 181
55.9002 168
55.92031 202
55.94043 193
55.96054 167
55.98066 178
56.00077 177
56.02088 190
56.041 177
56.06111 168
56.08122 187
56.10134 177
56.12145 196
56.14157 173
56.16168 184
56.18179 196
56.20191 177
56.22202 172
56.24213 167
56.26225 167
56.28236 196
56.30248 181
56.32259 172
56.3427 164
56.36282 179
56.38293 174
56.40304 162
56.42316 177
56.44327 162
56.46338 141
56.4835 170
56.50361 188
56.52373 181
56.54384 162
56.56395 155
56.58407 153
56.60418 199
56.62429 173
56.64441 155
56.66452 184
56.68464 169
56.70475 173
56.72486 180
56.74498 167
56.76509 175
56.7852 180
56.80532 186
56.82543 178
56.84554 170
56.86566 164
56.88577 163
56.90589 137
56.926 187
56.94611 171
56.96623 181
56.98634 169
57.00645 185
57.02657 170
57.04668 178
57.0668 178
57.08691 190
57.10702 209
57.12714 209
57.14725 203
57.16736 214
57.18748 210
57.20759 186
57.22771 189
57.24782 165
57.26793 217
57.28805 178
57.30816 182
57.32827 180
57.34839 186
57.3685 173
57.38861 196
57.40873 174
57.42884 155
57.44896 159
57.46907 163
57.48918 163
57.5093 177
57.52941 166
57.54952 157
57.56964 159
57.58975 180
57.60987 139
57.62998 145
57.65009 158
57.67021 167
57.69032 165
57.71043 184
57.73055 182
57.75066 154
57.77078 158
57.79089 151
57.811 159
57.83112 137
57.85123 147
57.87134 159
57.89146 144
57.91157 165
57.93168 169
57.9518 167
57.97191 124
57.99203 143
58.01214 172
58.03225 174
58.05237 168
58.07248 137
58.09259 158
58.11271 162
58.13282 144
58.15294 160
58.17305 171
58.19316 176
58.21328 182
58.23339 148
58.2535 140
58.27362 171
58.29373 158
58.31385 162
58.33396 149
58.35407 174
58.37419 167
58.3943 151
58.41441 167
58.43453 160
58.45464 159
58.47475 192
58.49487 202
58.51498 181
58.5351 180
58.55521 161
58.57532 168
58.59544 157
58.61555 179
58.63566 158
58.65578 166
58.67589 159
58.69601 151
58.71612 134
58.73623 197
58.75635 167
58.77646 152
58.79657 161
58.81669 135
58.8368 162
58.85691 179
58.87703 163
58.89714 166
58.91726 171
58.93737 167
58.95748 172
58.9776 178
58.99771 175
59.01782 160
59.03794 151
59.05805 154
59.07817 191
59.09828 187
59.11839 178
59.13851 209
59.15862 193
59.17873 187
59.19885 178
59.21896 164
59.23908 179
59.25919 210
59.2793 188
59.29942 190
59.31953 199
59.33964 220
59.35976 228
59.37987 185
59.39998 234
59.4201 248
59.44021 233
59.46033 223
59.48044 264
59.50055 270
59.52067 272
59.54078 302
59.56089 300
59.58101 377
59.60112 369
59.62124 427
59.64135 529
59.66146 576
59.68158 580
59.70169 680
59.7218 753
59.74192 856
59.76203 1064
59.78215 1220
59.80226 1430
59.82237 1579
59.84249 1702
59.8626 1870
59.88271 1856
59.90283 1893
59.92294 1768
59.94305 1588
59.96317 1317
59.98328 1263
60.0034 1123
60.02351 1080
60.04362 1089
60.06374 993
60.08385 874
60.10396 758
60.12408 586
60.14419 447
60.16431 403
60.18442 310
60.20453 265
60.22465 284
60.24476 235
60.26487 249
60.28499 237
60.3051 222
60.32522 196
60.34533 234
60.36544 206
60.38556 216
60.40567 185
60.42578 204
60.4459 182
60.46601 183
60.48612 173
60.50624 175
60.52635 180
60.54647 156
60.56658 164
60.58669 176
60.60681 182
60.62692 160
60.64703 198
60.66715 171
60.68726 171
60.70738 183
60.72749 170
60.7476 165
60.76772 171
60.78783 179
60.80794 159
60.82806 162
60.84817 150
60.86828 149
60.8884 179
60.90851 175
60.92863 160
60.94874 159
60.96885 173
60.98897 175
61.00908 147
61.02919 163
61.04931 180
61.06942 158
61.08954 139
61.10965 166
61.12976 170
61.14988 167
61.16999 168
61.1901 193
61.21022 165
61.23033 170
61.25045 166
61.27056 195
61.29067 217
61.31079 176
61.3309 184
61.35101 197
61.37113 186
61.39124 220
61.41135 198
61.43147 213
61.45158 238
61.4717 243
61.49181 233
61.51192 197
61.53204 213
61.55215 207
61.57226 257
61.59238 248
61.61249 218
61.63261 219
61.65272 227
61.67283 218
61.69295 208
61.71306 213
61.73317 228
61.75329 191
61.7734 196
61.79352 187
61.81363 192
61.83374 179
61.85386 225
61.87397 177
61.89408 187
61.9142 190
61.93431 209
61.95442 169
61.97454 197
61.99465 174
62.01477 190
62.03488 181
62.05499 186
62.07511 175
62.09522 191
62.11533 168
62.13545 206
62.15556 174
62.17568 193
62.19579 188
62.2159 188
62.23602 184
62.25613 196
62.27624 196
62.29636 208
62.31647 183
62.33659 169
62.3567 192
62.37681 149
62.39693 151
62.41704 194
62.43715 168
62.45727 181
62.47738 178
62.49749 182
62.51761 179
62.53772 166
62.55784 177
62.57795 151
62.59806 157
62.61818 175
62.63829 179
62.6584 165
62.67852 178
62.69863 149
62.71875 165
62.73886 162
62.75897 167
62.77909 167
62.7992 140
62.81931 161
62.83943 163
62.85954 130
62.87965 171
62.89977 175
62.91988 152
62.94 163
62.96011 163
62.98022 154
63.00034 143
63.02045 142
63.04056 151
63.06068 142
63.08079 156
63.10091 171
63.12102 158
63.14113 152
63.16125 143
63.18136 147
63.20147 146
63.22159 142
63.2417 172
63.26182 147
63.28193 144
63.30204 148
63.32216 183
63.34227 166
63.36238 155
63.3825 144
63.40261 152
63.42272 150
63.44284 179
63.46295 158
63.48307 156
63.50318 174
63.52329 164
63.54341 180
63.56352 194
63.58363 167
63.60375 174
63.62386 168
63.64398 158
63.66409 197
63.6842 205
63.70432 214
63.72443 219
63.74454 201
63.76466 216
63.78477 250
63.80489 256
63.825 296
63.84511 309
63.86523 337
63.88534 374
63.90545 366
63.92557 446
63.94568 450
63.96579 470
63.98591 463
64.00602 426
64.02614 398
64.04625 355
64.06636 319
64.08648 307
64.10659 289
64.1267 311
64.14682 305
64.16693 290
64.18705 297
64.20716 262
64.22727 204
64.24739 196
64.2675 165
64.28761 170
64.30773 167
64.32784 160
64.34796 182
64.36807 143
64.38818 174
64.4083 160
64.42841 155
64.44852 156
64.46864 157
64.48875 138
64.50886 152
64.52898 169
64.54909 154
64.56921 141
64.58932 128
64.60943 138
64.62955 164
64.64966 147
64.66977 142
64.68989 162
64.71 126
64.73012 126
64.75023 166
64.77034 137
64.79046 167
64.81057 159
64.83068 128
64.8508 134
64.87091 135
64.89102 145
64.91114 158
64.93125 162
64.95137 162
64.97148 127
64.99159 145
65.01171 152
65.03182 147
65.05193 155
65.07205 124
65.09216 160
65.11228 141
65.13239 144
65.1525 141
65.17262 173
65.19273 140
65.21284 139
65.23296 131
65.25307 147
65.27319 157
65.2933 163
65.31341 163
65.33353 173
65.35364 159
65.37375 165
65.39387 146
65.41398 171
65.43409 160
65.45421 158
65.47432 159
65.49444 174
65.51455 182
65.53466 185
65.55478 177
65.57489 201
65.595 183
65.61512 212
65.63523 195
65.65535 193
65.67546 237
65.69557 224
65.71569 227
65.7358 253
65.75591 227
65.77603 212
65.79614 195
65.81626 174
65.83637 175
65.85648 215
65.8766 191
65.89671 168
65.91682 180
65.93694 169
65.95705 158
65.97716 152
65.99728 157
66.01739 155
66.03751 143
66.05762 150
66.07773 138
66.09785 127
66.11796 152
66.13807 160
66.15819 174
66.1783 158
66.19842 136
66.21853 158
66.23864 169
66.25876 168
66.27887 172
66.29898 155
66.3191 168
66.33921 132
66.35933 139
66.37944 136
66.39955 170
66.41967 138
66.43978 166
66.45989 139
66.48001 140
66.50012 150
66.52023 158
66.54035 166
66.56046 140
66.58058 158
66.60069 141
66.6208 169
66.64092 167
66.66103 174
66.68114 140
66.70126 159
66.72137 165
66.74149 162
66.7616 158
66.78171 145
66.80183 143
66.82194 141
66.84205 170
66.86217 166
66.88228 156
66.90239 167
66.92251 150
66.94262 166
66.96274 175
66.98285 167
67.00296 195
67.02308 190
67.04319 164
67.0633 179
67.08342 184
67.10353 179
67.12365 191
67.14376 175
67.16387 195
67.18399 198
67.2041 195
67.22421 210
67.24433 199
67.26444 224
67.28456 238
67.30467 255
67.32478 257
67.3449 283
67.36501 304
67.38512 307
67.40524 362
67.42535 349
67.44546 407
67.46558 440
67.48569 520
67.50581 553
67.52592 621
67.54603 736
67.56615 769
67.58626 867
67.60637 943
67.62649 1049
67.6466 1159
67.66672 1171
67.68683 1221
67.70694 1036
67.72706 999
67.74717 948
67.76728 922
67.7874 891
67.80751 892
67.82763 879
67.84774 978
67.86785 997
67.88797 1039
67.90808 1070
67.92819 1004
67.94831 1073
67.96842 1106
67.98853 1221
68.00865 1341
68.02876 1422
68.04888 1581
68.06899 1628
68.0891 1629
68.10922 1589
68.12933 1483
68.14944 1449
68.16956 1369
68.18967 1396
68.20979 1323
68.2299 1394
68.25001 1341
68.27013 1312
68.29024 1191
68.31035 1055
68.33047 956
68.35058 803
68.3707 703
68.39081 627
68.41092 591
68.43104 548
68.45115 530
68.47126 509
68.49138 454
68.51149 372
68.5316 318
68.55172 275
68.57183 237
68.59195 237
68.61206 207
68.63217 205
68.65229 228
68.6724 201
68.69251 206
68.71263 179
68.73274 190
68.75286 176
68.77297 195
68.79308 181
68.8132 198
68.83331 171
68.85342 210
68.87354 173
68.89365 158
68.91376 152
68.93388 160
68.95399 167
68.97411 152
68.99422 165
69.01433 178
69.03445 190
69.05456 176
69.07467 162
69.09479 174
69.1149 169
69.13502 166
69.15513 144
69.17524 153
69.19536 158
69.21547 134
69.23558 144
69.2557 150
69.27581 170
69.29593 162
69.31604 159
69.33615 169
69.35627 135
69.37638 158
69.39649 135
69.41661 151
69.43672 159
69.45683 161
69.47695 145
69.49706 152
69.51718 160
69.53729 162
69.5574 146
69.57752 165
69.59763 147
69.61774 163
69.63786 157
69.65797 167
69.67809 128
69.6982 152
69.71831 147
69.73843 142
69.75854 149
69.77865 141
69.79877 123
69.81888 115
69.839 129
69.85911 168
69.87922 154
69.89934 122
69.91945 132
69.93956 151
69.95968 150
69.97979 171
69.9999 144
70.02002 163
70.04013 136
70.06025 152
70.08036 152
70.10047 170
70.12059 145
70.1407 157
70.16081 128
70.18093 141
70.20104 140
70.22116 149
70.24127 140
70.26138 159
70.2815 144
70.30161 132
70.32172 154
70.34184 150
70.36195 143
70.38207 132
70.40218 137
70.42229 136
70.44241 144
70.46252 145
70.48263 144
70.50275 152
70.52286 143
70.54297 145
70.56309 140
70.5832 138
70.60332 121
70.62343 158
70.64354 140
70.66366 136
70.68377 150
70.70388 140
70.724 146
70.74411 133
70.76423 141
70.78434 133
70.80445 146
70.82457 160
70.84468 135
70.86479 131
70.88491 145
70.90502 120
70.92513 153
70.94525 126
70.96536 151
70.98548 138
71.00559 136
71.0257 148
71.04582 152
71.06593 132
71.08604 130
71.10616 138
71.12627 140
71.14639 133
71.1665 127
71.18661 137
71.20673 133
71.22684 140
71.24695 144
71.26707 139
71.28718 130
71.3073 143
71.32741 144
71.34752 135
71.36764 142
71.38775 143
71.40786 146
71.42798 130
71.44809 135
71.4682 126
71.48832 152
71.50843 136
71.52855 127
71.54866 135
71.56877 135
71.58889 128
71.609 140
71.62911 144
71.64923 125
71.66934 132
71.68946 144
71.70957 131
71.72968 115
71.7498 143
71.76991 136
71.79002 115
71.81014 141
71.83025 149
71.85037 141
71.87048 129
71.89059 166
71.91071 136
71.93082 131
71.95093 157
71.97105 130
71.99116 132
72.01127 154
72.03139 143
72.0515 148
72.07162 152
72.09173 144
72.11184 130
72.13196 139
72.15207 139
72.17218 147
72.1923 118
72.21241 158
72.23253 153
72.25264 156
72.27275 143
72.29287 166
72.31298 110
72.33309 141
72.35321 149
72.37332 138
72.39344 157
72.41355 146
72.43366 140
72.45378 132
72.47389 157
72.494 135
72.51412 165
72.53423 163
72.55434 167
72.57446 175
72.59457 159
72.61469 163
72.6348 146
72.65491 153
72.67503 174
72.69514 142
72.71525 142
72.73537 147
72.75548 172
72.7756 163
72.79571 155
72.81582 158
72.83594 173
72.85605 162
72.87616 158
72.89628 152
72.91639 168
72.9365 170
72.95662 153
72.97673 153
72.99685 199
73.01696 188
73.03707 187
73.05719 194
73.0773 200
73.09741 200
73.11753 226
73.13764 222
73.15776 200
73.17787 261
73.19798 237
73.2181 268
73.23821 291
73.25832 303
73.27844 354
73.29855 348
73.31867 377
73.33878 449
73.35889 462
73.37901 480
73.39912 471
73.41923 469
73.43935 445
73.45946 384
73.47957 380
73.49969 330
73.5198 319
73.53992 286
73.56003 319
73.58014 301
73.60026 336
73.62037 298
73.64048 310
73.6606 250
73.68071 242
73.70083 210
73.72094 182
73.74105 188
73.76117 162
73.78128 142
73.80139 150
73.82151 160
73.84162 158
73.86174 142
73.88185 155
73.90196 142
73.92208 157
73.94219 131
73.9623 134
73.98242 142
74.00253 142
74.02264 142
74.04276 135
74.06287 151
74.08299 146
74.1031 157
74.12321 138
74.14333 141
74.16344 137
74.18355 135
74.20367 171
74.22378 140
74.2439 157
74.26401 142
74.28412 137
74.30424 135
74.32435 130
74.34446 137
74.36458 126
74.38469 147
74.40481 159
74.42492 148
74.44503 154
74.46515 144
74.48526 132
74.50537 152
74.52549 135
74.5456 135
74.56571 126
74.58583 130
74.60594 130
74.62606 131
74.64617 144
74.66628 127
74.6864 135
74.70651 133
74.72662 144
74.74674 118
74.76685 129
74.78697 126
74.80708 135
74.82719 159
74.84731 146
74.86742 151
74.88753 150
74.90765 142
74.92776 129
74.94787 139
74.96799 149
74.9881 138
75.00822 150
