3.00117 20867
3.02128 20054
3.0414 19506
3.06151 19109
3.08162 17981
3.10174 17909
3.12185 17138
3.14197 16504
3.16208 16597
3.18219 15640
3.20231 15623
3.22242 14996
3.24253 14366
3.26265 14255
3.28276 13330
3.30288 13177
3.32299 12829
3.3431 12287
3.36322 11932
3.38333 11395
3.40344 11313
3.42356 10397
3.44367 10250
3.46379 10080
3.4839 9551
3.50401 9367
3.52413 8993
3.54424 8756
3.56435 8419
3.58447 8003
3.60458 7894
3.62469 7301
3.64481 7148
3.66492 6815
3.68504 6579
3.70515 6498
3.72526 5943
3.74538 5656
3.76549 5675
3.7856 5243
3.80572 5118
3.82583 4735
3.84595 4566
3.86606 4570
3.88617 4259
3.90629 4118
3.9264 3889
3.94651 3875
3.96663 3688
3.98674 3391
4.00686 3280
4.02697 3073
4.04708 2849
4.0672 2915
4.08731 2748
4.10742 2709
4.12754 2323
4.14765 2337
4.16776 2213
4.18788 2059
4.20799 2124
4.22811 1905
4.24822 1846
4.26833 1883
4.28845 1855
4.30856 1759
4.32867 1558
4.34879 1586
4.3689 1597
4.38902 1610
4.40913 1474
4.42924 1411
4.44936 1394
4.46947 1290
4.48958 1362
4.5097 1348
4.52981 1277
4.54992 1163
4.57004 1224
4.59015 1174
4.61027 1197
4.63038 1104
4.65049 1071
4.67061 1135
4.69072 1015
4.71083 968
4.73095 956
4.75106 932
4.77118 925
4.79129 929
4.8114 818
4.83152 872
4.85163 760
4.87174 828
4.89186 771
4.91197 745
4.93209 770
4.9522 700
4.97231 708
4.99243 724
5.01254 661
5.03265 691
5.05277 615
5.07288 643
5.09299 595
5.11311 620
5.13322 596
5.15334 537
5.17345 594
5.19356 544
5.21368 519
5.23379 525
5.2539 489
5.27402 464
5.29413 485
5.31425 465
5.33436 452
5.35447 435
5.37459 493
5.3947 458
5.41481 408
5.43493 439
5.45504 410
5.47516 413
5.49527 428
5.51538 375
5.5355 341
5.55561 341
5.57572 347
5.59584 398
5.61595 329
5.63606 332
5.65618 309
5.67629 313
5.69641 303
5.71652 336
5.73663 329
5.75675 336
5.77686 286
5.79697 316
5.81709 278
5.8372 296
5.85732 276
5.87743 273
5.89754 291
5.91766 311
5.93777 276
5.95788 265
5.978 307
5.99811 255
6.01823 271
6.03834 251
6.05845 268
6.07857 259
6.09868 243
6.11879 264
6.13891 245
6.15902 247
6.17913 258
6.19925 247
6.21936 256
6.23948 242
6.25959 247
6.2797 242
6.29982 223
6.31993 209
6.34004 227
6.36016 227
6.38027 214
6.40039 250
6.4205 228
6.44061 243
6.46073 216
6.48084 213
6.50095 202
6.52107 229
6.54118 228
6.56129 241
6.58141 214
6.60152 218
6.62164 234
6.64175 194
6.66186 215
6.68198 211
6.70209 198
6.7222 236
6.74232 194
6.76243 209
6.78255 233
6.80266 187
6.82277 201
6.84289 208
6.863 199
6.88311 217
6.90323 221
6.92334 227
6.94346 204
6.96357 214
6.98368 203
7.0038 210
7.02391 204
7.04402 207
7.06414 263
7.08425 198
7.10436 229
7.12448 187
7.14459 205
7.16471 159
7.18482 201
7.20493 181
7.22505 215
7.24516 230
7.26527 230
7.28539 238
7.3055 220
7.32562 192
7.34573 235
7.36584 220
7.38596 208
7.40607 220
7.42618 233
7.4463 199
7.46641 200
7.48653 219
7.50664 250
7.52675 213
7.54687 214
7.56698 226
7.58709 225
7.60721 223
7.62732 213
7.64743 242
7.66755 210
7.68766 223
7.70778 191
7.72789 240
7.748 194
7.76812 231
7.78823 202
7.80834 221
7.82846 214
7.84857 229
7.86869 227
7.8888 209
7.90891 238
7.92903 220
7.94914 216
7.96925 215
7.98937 201
8.00948 223
8.0296 198
8.04971 205
8.06982 243
8.08994 209
8.11005 216
8.13016 243
8.15028 208
8.17039 257
8.1905 209
8.21062 231
8.23073 202
8.25085 247
8.27096 234
8.29107 225
8.31119 258
8.3313 207
8.35141 240
8.37153 221
8.39164 235
8.41176 249
8.43187 247
8.45198 209
8.4721 200
8.49221 248
8.51232 236
8.53244 237
8.55255 210
8.57266 235
8.59278 203
8.61289 213
8.63301 224
8.65312 242
8.67323 223
8.69335 228
8.71346 185
8.73357 222
8.75369 243
8.7738 246
8.79392 262
8.81403 216
8.83414 256
8.85426 195
8.87437 204
8.89448 239
8.9146 246
8.93471 206
8.95483 244
8.97494 249
8.99505 219
9.01517 233
9.03528 250
9.05539 235
9.07551 227
9.09562 215
9.11573 203
9.13585 231
9.15596 247
9.17608 246
9.19619 248
9.2163 222
9.23642 219
9.25653 222
9.27664 230
9.29676 216
9.31687 217
9.33699 262
9.3571 221
9.37721 227
9.39733 232
9.41744 221
9.43755 235
9.45767 244
9.47778 240
9.4979 249
9.51801 214
9.53812 246
9.55824 220
9.57835 256
9.59846 237
9.61858 232
9.63869 235
9.6588 229
9.67892 238
9.69903 246
9.71915 229
9.73926 213
9.75937 270
9.77949 232
9.7996 260
9.81971 204
9.83983 223
9.85994 204
9.88006 239
9.90017 225
9.92028 206
9.9404 232
9.96051 220
9.98062 215
10.00074 246
10.02085 250
10.04097 258
10.06108 237
10.08119 244
10.10131 236
10.12142 221
10.14153 244
10.16165 202
10.18176 206
10.20187 231
10.22199 239
10.2421 238
10.26222 235
10.28233 247
10.30244 242
10.32256 252
10.34267 220
10.36278 223
10.3829 263
10.40301 216
10.42313 236
10.44324 240
10.46335 253
10.48347 222
10.50358 218
10.52369 250
10.54381 225
10.56392 254
10.58403 244
10.60415 215
10.62426 220
10.64438 242
10.66449 242
10.6846 251
10.70472 254
10.72483 242
10.74494 226
10.76506 245
10.78517 227
10.80529 239
10.8254 243
10.84551 211
10.86563 209
10.88574 248
10.90585 239
10.92597 255
10.94608 222
10.9662 245
10.98631 261
11.00642 237
11.02654 255
11.04665 218
11.06676 209
11.08688 218
11.10699 226
11.1271 247
11.14722 236
11.16733 258
11.18745 227
11.20756 244
11.22767 252
11.24779 243
11.2679 246
11.28801 269
11.30813 226
11.32824 256
11.34836 246
11.36847 238
11.38858 257
11.4087 255
11.42881 252
11.44892 246
11.46904 236
11.48915 222
11.50927 231
11.52938 235
11.54949 246
11.56961 234
11.58972 234
11.60983 229
11.62995 251
11.65006 237
11.67017 243
11.69029 234
11.7104 238
11.73052 239
11.75063 271
11.77074 256
11.79086 250
11.81097 258
11.83108 248
11.8512 266
11.87131 239
11.89143 257
11.91154 240
11.93165 249
11.95177 248
11.97188 251
11.99199 251
12.01211 228
12.03222 250
12.05234 250
12.07245 243
12.09256 293
12.11268 249
12.13279 256
12.1529 268
12.17302 282
12.19313 281
12.21324 304
12.23336 287
12.25347 325
12.27359 308
12.2937 264
12.31381 269
12.33393 305
12.35404 284
12.37415 262
12.39427 266
12.41438 270
12.4345 242
12.45461 236
12.47472 276
12.49484 247
12.51495 271
12.53506 244
12.55518 280
12.57529 273
12.5954 228
12.61552 260
12.63563 256
12.65575 238
12.67586 250
12.69597 233
12.71609 219
12.7362 213
12.75631 244
12.77643 243
12.79654 200
12.81666 237
12.83677 216
12.85688 232
12.877 217
12.89711 220
12.91722 224
12.93734 218
12.95745 208
12.97757 208
12.99768 212
13.01779 195
13.03791 184
13.05802 231
13.07813 194
13.09825 215
13.11836 196
13.13847 205
13.15859 215
13.1787 222
13.19882 223
13.21893 248
13.23904 224
13.25916 214
13.27927 203
13.29938 202
13.3195 215
13.33961 180
13.35973 202
13.37984 206
13.39995 202
13.42007 213
13.44018 213
13.46029 226
13.48041 207
13.50052 227
13.52064 205
13.54075 206
13.56086 194
13.58098 205
13.60109 203
13.6212 188
13.64132 196
13.66143 210
13.68154 199
13.70166 243
13.72177 214
13.74189 187
13.762 189
13.78211 188
13.80223 193
13.82234 213
13.84245 228
13.86257 197
13.88268 232
13.9028 199
13.92291 176
13.94302 216
13.96314 217
13.98325 184
14.00336 209
14.02348 188
14.04359 208
14.06371 199
14.08382 213
14.10393 181
14.12405 205
14.14416 200
14.16427 205
14.18439 215
14.2045 201
14.22461 172
14.24473 207
14.26484 213
14.28496 187
14.30507 200
14.32518 208
14.3453 173
14.36541 191
14.38552 165
14.40564 212
14.42575 201
14.44587 207
14.46598 195
14.48609 190
14.50621 183
14.52632 208
14.54643 209
14.56655 192
14.58666 181
14.60677 195
14.62689 190
14.647 172
14.66712 197
14.68723 185
14.70734 206
14.72746 180
14.74757 177
14.76768 191
14.7878 160
14.80791 175
14.82803 188
14.84814 186
14.86825 177
14.88837 189
14.90848 200
14.92859 212
14.94871 199
14.96882 205
14.98894 194
15.00905 184
15.02916 179
15.04928 207
15.06939 175
15.0895 181
15.10962 190
15.12973 191
15.14984 188
15.16996 197
15.19007 188
15.21019 184
15.2303 198
15.25041 201
15.27053 177
15.29064 214
15.31075 178
15.33087 158
15.35098 190
15.3711 158
15.39121 168
15.41132 193
15.43144 177
15.45155 191
15.47166 190
15.49178 203
15.51189 184
15.53201 179
15.55212 149
15.57223 171
15.59235 147
15.61246 197
15.63257 174
15.65269 170
15.6728 181
15.69291 156
15.71303 180
15.73314 157
15.75326 176
15.77337 216
15.79348 182
15.8136 163
15.83371 195
15.85382 196
15.87394 151
15.89405 175
15.91417 153
15.93428 196
15.95439 170
15.97451 215
15.99462 179
16.01473 193
16.03485 179
16.05496 165
16.07508 172
16.09519 170
16.1153 210
16.13542 167
16.15553 178
16.17564 197
16.19576 178
16.21587 213
16.23598 179
16.2561 171
16.27621 189
16.29633 167
16.31644 189
16.33655 176
16.35667 196
16.37678 170
16.39689 179
16.41701 188
16.43712 180
16.45724 182
16.47735 141
16.49746 139
16.51758 167
16.53769 157
16.5578 169
16.57792 169
16.59803 169
16.61814 157
16.63826 186
16.65837 170
16.67849 167
16.6986 177
16.71871 172
16.73883 193
16.75894 166
16.77905 159
16.79917 148
16.81928 160
16.8394 146
16.85951 163
16.87962 174
16.89974 188
16.91985 171
16.93996 170
16.96008 145
16.98019 181
17.00031 173
17.02042 206
17.04053 172
17.06065 164
17.08076 176
17.10087 192
17.12099 163
17.1411 175
17.16121 182
17.18133 183
17.20144 193
17.22156 175
17.24167 170
17.26178 170
17.2819 136
17.30201 161
17.32212 173
17.34224 186
17.36235 178
17.38247 193
17.40258 166
17.42269 199
17.44281 152
17.46292 197
17.48303 178
17.50315 159
17.52326 196
17.54338 153
17.56349 177
17.5836 174
17.60372 174
17.62383 169
17.64394 175
17.66406 192
17.68417 158
17.70428 172
17.7244 160
17.74451 165
17.76463 170
17.78474 178
17.80485 172
17.82497 179
17.84508 184
17.86519 174
17.88531 157
17.90542 199
17.92554 171
17.94565 208
17.96576 201
17.98588 178
18.00599 206
18.0261 172
18.04622 173
18.06633 181
18.08645 171
18.10656 168
18.12667 160
18.14679 174
18.1669 185
18.18701 175
18.20713 177
18.22724 163
18.24735 174
18.26747 190
18.28758 201
18.3077 174
18.32781 173
18.34792 207
18.36804 181
18.38815 171
18.40826 172
18.42838 183
18.44849 183
18.46861 193
18.48872 162
18.50883 162
18.52895 185
18.54906 156
18.56917 161
18.58929 174
18.6094 193
18.62951 196
18.64963 150
18.66974 152
18.68986 160
18.70997 171
18.73008 193
18.7502 184
18.77031 186
18.79042 187
18.81054 202
18.83065 208
18.85077 198
18.87088 192
18.89099 174
18.91111 173
18.93122 191
18.95133 143
18.97145 163
18.99156 155
19.01168 151
19.03179 164
19.0519 194
19.07202 162
19.09213 164
19.11224 160
19.13236 159
19.15247 175
19.17258 164
19.1927 189
19.21281 164
19.23293 171
19.25304 171
19.27315 205
19.29327 208
19.31338 196
19.33349 156
19.35361 180
19.37372 167
19.39384 185
19.41395 152
19.43406 189
19.45418 161
19.47429 184
19.4944 168
19.51452 183
19.53463 157
19.55475 182
19.57486 179
19.59497 203
19.61509 214
19.6352 216
19.65531 220
19.67543 231
19.69554 224
19.71565 234
19.73577 281
19.75588 269
19.776 262
19.79611 280
19.81622 316
19.83634 261
19.85645 272
19.87656 318
19.89668 281
19.91679 321
19.93691 301
19.95702 285
19.97713 337
19.99725 328
20.01736 316
20.03747 273
20.05759 327
20.0777 302
20.09782 302
20.11793 324
20.13804 318
20.15816 300
20.17827 322
20.19838 325
20.2185 349
20.23861 333
20.25872 358
20.27884 354
20.29895 329
20.31907 350
20.33918 329
20.35929 364
20.37941 308
20.39952 358
20.41963 372
20.43975 366
20.45986 382
20.47998 406
20.50009 421
20.5202 439
20.54032 431
20.56043 415
20.58054 423
20.60066 452
20.62077 515
20.64088 556
20.661 668
20.68111 823
20.70123 939
20.72134 1353
20.74145 1807
20.76157 2598
20.78168 3780
20.80179 5430
20.82191 7211
20.84202 8820
20.86214 9648
20.88225 9023
20.90236 7442
20.92248 5271
20.94259 3460
20.9627 2024
20.98282 1180
21.00293 767
21.02305 594
21.04316 501
21.06327 497
21.08339 462
21.1035 442
21.12361 426
21.14373 395
21.16384 404
21.18395 323
21.20407 325
21.22418 354
21.2443 323
21.26441 295
21.28452 330
21.30464 283
21.32475 281
21.34486 308
21.36498 311
21.38509 310
21.40521 258
21.42532 281
21.44543 290
21.46555 283
21.48566 278
21.50577 311
21.52589 309
21.546 278
21.56612 243
21.58623 281
21.60634 272
21.62646 252
21.64657 247
21.66668 285
21.6868 239
21.70691 262
21.72702 229
21.74714 249
21.76725 256
21.78737 286
21.80748 264
21.82759 242
21.84771 246
21.86782 255
21.88793 246
21.90805 249
21.92816 252
21.94828 235
21.96839 263
21.9885 251
22.00862 229
22.02873 236
22.04884 267
22.06896 249
22.08907 232
22.10919 233
22.1293 210
22.14941 232
22.16953 244
22.18964 250
22.20975 236
22.22987 244
22.24998 221
22.27009 264
22.29021 235
22.31032 241
22.33044 256
22.35055 214
22.37066 265
22.39078 207
22.41089 237
22.431 232
22.45112 220
22.47123 234
22.49135 212
22.51146 220
22.53157 231
22.55169 239
22.5718 220
22.59191 207
22.61203 225
22.63214 238
22.65225 210
22.67237 218
22.69248 238
22.7126 200
22.73271 242
22.75282 232
22.77294 230
22.79305 222
22.81316 216
22.83328 212
22.85339 214
22.87351 210
22.89362 227
22.91373 196
22.93385 221
22.95396 230
22.97407 216
22.99419 206
23.0143 226
23.03442 233
23.05453 231
23.07464 191
23.09476 239
23.11487 192
23.13498 185
23.1551 222
23.17521 232
23.19532 211
23.21544 227
23.23555 234
23.25567 238
23.27578 226
23.29589 223
23.31601 224
23.33612 219
23.35623 228
23.37635 235
23.39646 215
23.41658 199
23.43669 224
23.4568 186
23.47692 229
23.49703 220
23.51714 209
23.53726 197
23.55737 197
23.57749 221
23.5976 204
23.61771 223
23.63783 203
23.65794 224
23.67805 206
23.69817 198
23.71828 210
23.73839 220
23.75851 179
23.77862 224
23.79874 226
23.81885 250
23.83896 195
23.85908 256
23.87919 240
23.8993 227
23.91942 230
23.93953 266
23.95965 248
23.97976 300
23.99987 316
24.01999 323
24.0401 283
24.06021 294
24.08033 230
24.10044 229
24.12056 236
24.14067 253
24.16078 208
24.1809 219
24.20101 205
24.22112 227
24.24124 233
24.26135 213
24.28146 239
24.30158 216
24.32169 196
24.34181 244
24.36192 231
24.38203 219
24.40215 217
24.42226 207
24.44237 223
24.46249 265
24.4826 214
24.50272 202
24.52283 217
24.54294 220
24.56306 245
24.58317 199
24.60328 215
24.6234 221
24.64351 231
24.66362 253
24.68374 238
24.70385 255
24.72397 229
24.74408 268
24.76419 235
24.78431 245
24.80442 226
24.82453 268
24.84465 257
24.86476 253
24.88488 259
24.90499 263
24.9251 224
24.94522 213
24.96533 242
24.98544 242
25.00556 245
25.02567 268
25.04579 281
25.0659 257
25.08601 259
25.10613 239
25.12624 233
25.14635 199
25.16647 248
25.18658 234
25.20669 244
25.22681 263
25.24692 299
25.26704 262
25.28715 262
25.30726 254
25.32738 268
25.34749 246
25.3676 271
25.38772 259
25.40783 208
25.42795 280
25.44806 242
25.46817 230
25.48829 260
25.5084 248
25.52851 241
25.54863 244
25.56874 255
25.58886 251
25.60897 275
25.62908 296
25.6492 353
25.66931 340
25.68942 363
25.70954 375
25.72965 416
25.74976 399
25.76988 428
25.78999 489
25.81011 430
25.83022 455
25.85033 477
25.87045 466
25.89056 431
25.91067 459
25.93079 428
25.9509 443
25.97102 482
25.99113 499
26.01124 504
26.03136 499
26.05147 469
26.07158 533
26.0917 569
26.11181 575
26.13193 610
26.15204 660
26.17215 688
26.19227 755
26.21238 786
26.23249 827
26.25261 963
26.27272 1014
26.29283 1062
26.31295 1153
26.33306 1238
26.35318 1315
26.37329 1480
26.3934 1771
26.41352 2048
26.43363 2650
26.45374 3512
26.47386 4513
26.49397 6327
26.51409 8755
26.5342 12111
26.55431 17171
26.57443 24009
26.59454 31879
26.61465 39106
26.63477 43399
26.65488 41050
26.67499 33601
26.69511 26057
26.71522 19316
26.73534 13480
26.75545 7608
26.77556 4035
26.79568 2603
26.81579 1943
26.8359 1602
26.85602 1441
26.87613 1409
26.89625 1321
26.91636 1186
26.93647 1147
26.95659 961
26.9767 1008
26.99681 1047
27.01693 796
27.03704 764
27.05716 781
27.07727 678
27.09738 621
27.1175 532
27.13761 468
27.15772 428
27.17784 472
27.19795 446
27.21806 444
27.23818 432
27.25829 435
27.27841 392
27.29852 417
27.31863 417
27.33875 379
27.35886 357
27.37897 385
27.39909 407
27.4192 416
27.43932 457
27.45943 434
27.47954 416
27.49966 414
27.51977 386
27.53988 408
27.56 361
27.58011 352
27.60023 365
27.62034 325
27.64045 316
27.66057 310
27.68068 302
27.70079 349
27.72091 332
27.74102 336
27.76113 311
27.78125 313
27.80136 295
27.82148 303
27.84159 313
27.8617 307
27.88182 279
27.90193 309
27.92204 284
27.94216 281
27.96227 280
27.98239 306
28.0025 337
28.02261 306
28.04273 257
28.06284 260
28.08295 293
28.10307 264
28.12318 273
28.1433 272
28.16341 240
28.18352 257
28.20364 255
28.22375 250
28.24386 277
28.26398 292
28.28409 286
28.3042 269
28.32432 285
28.34443 276
28.36455 276
28.38466 268
28.40477 250
28.42489 245
28.445 281
28.46511 238
28.48523 272
28.50534 245
28.52546 255
28.54557 253
28.56568 262
28.5858 283
28.60591 261
28.62602 255
28.64614 263
28.66625 228
28.68636 279
28.70648 250
28.72659 236
28.74671 227
28.76682 267
28.78693 214
28.80705 255
28.82716 227
28.84727 249
28.86739 245
28.8875 238
28.90762 245
28.92773 235
28.94784 217
28.96796 235
28.98807 239
29.00818 238
29.0283 247
29.04841 249
29.06853 241
29.08864 214
29.10875 267
29.12887 218
29.14898 234
29.16909 219
29.18921 244
29.20932 205
29.22943 224
29.24955 245
29.26966 245
29.28978 226
29.30989 201
29.33 224
29.35012 251
29.37023 223
29.39034 233
29.41046 225
29.43057 227
29.45069 219
29.4708 213
29.49091 219
29.51103 216
29.53114 214
29.55125 225
29.57137 221
29.59148 246
29.6116 245
29.63171 230
29.65182 205
29.67194 255
29.69205 202
29.71216 209
29.73228 228
29.75239 211
29.7725 198
29.79262 208
29.81273 193
29.83285 236
29.85296 193
29.87307 215
29.89319 198
29.9133 197
29.93341 194
29.95353 240
29.97364 217
29.99376 230
30.01387 234
30.03398 193
30.0541 210
30.07421 201
30.09432 217
30.11444 209
30.13455 207
30.15467 195
30.17478 213
30.19489 234
30.21501 216
30.23512 202
30.25523 187
30.27535 205
30.29546 205
30.31557 239
30.33569 169
30.3558 188
30.37592 216
30.39603 201
30.41614 186
30.43626 196
30.45637 203
30.47648 203
30.4966 223
30.51671 181
30.53683 193
30.55694 203
30.57705 202
30.59717 196
30.61728 189
30.63739 175
30.65751 198
30.67762 173
30.69773 193
30.71785 209
30.73796 218
30.75808 168
30.77819 203
30.7983 208
30.81842 203
30.83853 206
30.85864 220
30.87876 224
30.89887 207
30.91899 213
30.9391 212
30.95921 182
30.97933 200
30.99944 190
31.01955 188
31.03967 198
31.05978 206
31.0799 187
31.10001 177
31.12012 173
31.14024 187
31.16035 179
31.18046 192
31.20058 177
31.22069 184
31.2408 187
31.26092 160
31.28103 169
31.30115 187
31.32126 208
31.34137 192
31.36149 168
31.3816 179
31.40171 165
31.42183 192
31.44194 194
31.46206 199
31.48217 177
31.50228 176
31.5224 174
31.54251 174
31.56262 203
31.58274 182
31.60285 172
31.62297 168
31.64308 189
31.66319 175
31.68331 175
31.70342 190
31.72353 166
31.74365 167
31.76376 172
31.78387 168
31.80399 176
31.8241 193
31.84422 186
31.86433 207
31.88444 166
31.90456 194
31.92467 178
31.94478 164
31.9649 167
31.98501 162
32.00513 206
32.02524 151
32.04535 164
32.06547 167
32.08558 170
32.10569 158
32.12581 179
32.14592 192
32.16604 165
32.18615 163
32.20626 161
32.22638 163
32.24649 182
32.2666 159
32.28672 184
32.30683 178
32.32694 185
32.34706 192
32.36717 155
32.38729 179
32.4074 176
32.42751 197
32.44763 159
32.46774 141
32.48785 144
32.50797 144
32.52808 169
32.5482 166
32.56831 139
32.58842 164
32.60854 175
32.62865 176
32.64876 175
32.66888 191
32.68899 180
32.7091 179
32.72922 176
32.74933 155
32.76945 164
32.78956 174
32.80967 156
32.82979 142
32.8499 163
32.87001 193
32.89013 158
32.91024 178
32.93036 152
32.95047 144
32.97058 143
32.9907 175
33.01081 164
33.03092 151
33.05104 170
33.07115 155
33.09127 161
33.11138 154
33.13149 150
33.15161 151
33.17172 154
33.19183 160
33.21195 164
33.23206 166
33.25217 172
33.27229 160
33.2924 180
33.31252 162
33.33263 173
33.35274 161
33.37286 176
33.39297 172
33.41308 161
33.4332 168
33.45331 163
33.47343 190
33.49354 156
33.51365 166
33.53377 145
33.55388 152
33.57399 152
33.59411 156
33.61422 120
33.63434 153
33.65445 148
33.67456 147
33.69468 153
33.71479 166
33.7349 146
33.75502 171
33.77513 126
33.79524 174
33.81536 172
33.83547 156
33.85559 153
33.8757 155
33.89581 147
33.91593 154
33.93604 150
33.95615 153
33.97627 143
33.99638 144
34.0165 167
34.03661 141
34.05672 144
34.07684 141
34.09695 160
34.11706 153
34.13718 163
34.15729 151
34.17741 142
34.19752 163
34.21763 166
34.23775 153
34.25786 165
34.27797 160
34.29809 171
34.3182 149
34.33831 138
34.35843 149
34.37854 168
34.39866 152
34.41877 181
34.43888 210
34.459 165
34.47911 155
34.49922 188
34.51934 152
34.53945 193
34.55957 160
34.57968 164
34.59979 176
34.61991 187
34.64002 197
34.66013 173
34.68025 189
34.70036 191
34.72047 174
34.74059 170
34.7607 172
34.78082 185
34.80093 200
34.82104 190
34.84116 165
34.86127 200
34.88138 199
34.9015 200
34.92161 214
34.94173 182
34.96184 179
34.98195 209
35.00207 209
35.02218 201
35.04229 193
35.06241 207
35.08252 204
35.10264 201
35.12275 191
35.14286 200
35.16298 204
35.18309 176
35.2032 203
35.22332 170
35.24343 208
35.26354 185
35.28366 192
35.30377 188
35.32389 184
35.344 203
35.36411 184
35.38423 174
35.40434 235
35.42445 199
35.44457 190
35.46468 195
35.4848 189
35.50491 211
35.52502 203
35.54514 202
35.56525 200
35.58536 218
35.60548 215
35.62559 200
35.64571 223
35.66582 211
35.68593 214
35.70605 207
35.72616 187
35.74627 216
35.76639 182
35.7865 217
35.80661 228
35.82673 208
35.84684 181
35.86696 176
35.88707 200
35.90718 209
35.9273 232
35.94741 196
35.96752 200
35.98764 221
36.00775 214
36.02787 208
36.04798 233
36.06809 217
36.08821 237
36.10832 217
36.12843 259
36.14855 244
36.16866 239
36.18878 234
36.20889 271
36.229 267
36.24912 280
36.26923 291
36.28934 338
36.30946 370
36.32957 436
36.34968 488
36.3698 610
36.38991 701
36.41003 865
36.43014 1149
36.45025 1465
36.47037 1943
36.49048 2379
36.51059 2791
36.53071 2995
36.55082 2829
36.57094 2237
36.59105 1882
36.61116 1617
36.63128 1424
36.65139 1131
36.6715 799
36.69162 504
36.71173 358
36.73184 308
36.75196 275
36.77207 286
36.79219 250
36.8123 256
36.83241 220
36.85253 233
36.87264 204
36.89275 202
36.91287 220
36.93298 201
36.9531 207
36.97321 194
36.99332 193
37.01344 188
37.03355 193
37.05366 219
37.07378 200
37.09389 198
37.11401 164
37.13412 195
37.15423 181
37.17435 201
37.19446 187
37.21457 185
37.23469 176
37.2548 182
37.27491 215
37.29503 206
37.31514 175
37.33526 199
37.35537 183
37.37548 170
37.3956 164
37.41571 163
37.43582 177
37.45594 187
37.47605 175
37.49617 203
37.51628 188
37.53639 190
37.55651 196
37.57662 185
37.59673 213
37.61685 172
37.63696 172
37.65708 188
37.67719 196
37.6973 194
37.71742 221
37.73753 183
37.75764 193
37.77776 219
37.79787 197
37.81798 180
37.8381 204
37.85821 196
37.87833 187
37.89844 188
37.91855 200
37.93867 182
37.95878 206
37.97889 155
37.99901 191
38.01912 211
38.03924 176
38.05935 178
38.07946 205
38.09958 219
38.11969 207
38.1398 191
38.15992 208
38.18003 189
38.20015 203
38.22026 219
38.24037 172
38.26049 184
38.2806 213
38.30071 197
38.32083 213
38.34094 196
38.36105 188
38.38117 227
38.40128 199
38.4214 202
38.44151 213
38.46162 192
38.48174 192
38.50185 195
38.52196 210
38.54208 222
38.56219 205
38.58231 197
38.60242 201
38.62253 202
38.64265 196
38.66276 200
38.68287 222
38.70299 190
38.7231 186
38.74321 196
38.76333 197
38.78344 216
38.80356 193
38.82367 166
38.84378 201
38.8639 188
38.88401 193
38.90412 193
38.92424 202
38.94435 188
38.96447 220
38.98458 197
39.00469 239
39.02481 209
39.04492 279
39.06503 227
39.08515 242
39.10526 289
39.12538 245
39.14549 274
39.1656 273
39.18572 301
39.20583 318
39.22594 389
39.24606 425
39.26617 467
39.28628 563
39.3064 696
39.32651 796
39.34663 1024
39.36674 1311
39.38685 1674
39.40697 2064
39.42708 2478
39.44719 2705
39.46731 2639
39.48742 2275
39.50754 1739
39.52765 1492
39.54776 1446
39.56788 1259
39.58799 1023
39.6081 730
39.62822 452
39.64833 339
39.66845 281
39.68856 282
39.70867 266
39.72879 231
39.7489 240
39.76901 248
39.78913 216
39.80924 207
39.82935 198
39.84947 225
39.86958 201
39.8897 220
39.90981 230
39.92992 237
39.95004 230
39.97015 220
39.99026 261
40.01038 237
40.03049 248
40.05061 269
40.07072 309
40.09083 346
40.11095 372
40.13106 413
40.15117 543
40.17129 589
40.1914 753
40.21152 888
40.23163 1114
40.25174 1333
40.27186 1358
40.29197 1420
40.31208 1210
40.3322 891
40.35231 765
40.37242 761
40.39254 751
40.41265 592
40.43277 410
40.45288 306
40.47299 256
40.49311 236
40.51322 235
40.53333 216
40.55345 223
40.57356 200
40.59368 171
40.61379 191
40.6339 182
40.65402 175
40.67413 179
40.69424 158
40.71436 186
40.73447 172
40.75458 185
40.7747 150
40.79481 173
40.81493 176
40.83504 171
40.85515 174
40.87527 175
40.89538 161
40.91549 168
40.93561 180
40.95572 185
40.97584 175
40.99595 192
41.01606 166
41.03618 185
41.05629 193
41.0764 197
41.09652 169
41.11663 165
41.13675 159
41.15686 162
41.17697 175
41.19709 163
41.2172 190
41.23731 171
41.25743 181
41.27754 180
41.29765 184
41.31777 170
41.33788 147
41.358 174
41.37811 169
41.39822 170
41.41834 151
41.43845 161
41.45856 160
41.47868 181
41.49879 184
41.51891 171
41.53902 152
41.55913 157
41.57925 155
41.59936 168
41.61947 174
41.63959 191
41.6597 153
41.67982 162
41.69993 199
41.72004 163
41.74016 173
41.76027 162
41.78038 169
41.8005 204
41.82061 157
41.84072 190
41.86084 166
41.88095 148
41.90107 178
41.92118 179
41.94129 179
41.96141 193
41.98152 177
42.00163 171
42.02175 207
42.04186 197
42.06198 218
42.08209 213
42.1022 226
42.12232 211
42.14243 243
42.16254 262
42.18266 276
42.20277 300
42.22289 342
42.243 385
42.26311 441
42.28323 545
42.30334 598
42.32345 790
42.34357 931
42.36368 1230
42.38379 1352
42.40391 1740
42.42402 1997
42.44414 1965
42.46425 1694
42.48436 1326
42.50448 1129
42.52459 1053
42.5447 942
42.56482 931
42.58493 678
42.60505 453
42.62516 332
42.64527 264
42.66539 244
42.6855 197
42.70561 219
42.72573 191
42.74584 196
42.76595 201
42.78607 193
42.80618 177
42.8263 177
42.84641 169
42.86652 175
42.88664 169
42.90675 156
42.92686 168
42.94698 142
42.96709 185
42.98721 147
43.00732 161
43.02743 145
43.04755 168
43.06766 168
43.08777 168
43.10789 160
43.128 157
43.14812 147
43.16823 165
43.18834 139
43.20846 163
43.22857 175
43.24868 162
43.2688 169
43.28891 162
43.30902 156
43.32914 169
43.34925 166
43.36937 164
43.38948 155
43.40959 141
43.42971 155
43.44982 167
43.46993 160
43.49005 161
43.51016 162
43.53028 149
43.55039 158
43.5705 171
43.59062 157
43.61073 152
43.63084 151
43.65096 152
43.67107 183
43.69119 157
43.7113 163
43.73141 157
43.75153 161
43.77164 146
43.79175 147
43.81187 178
43.83198 176
43.85209 137
43.87221 159
43.89232 155
43.91244 161
43.93255 139
43.95266 167
43.97278 148
43.99289 144
44.013 161
44.03312 160
44.05323 146
44.07335 152
44.09346 148
44.11357 168
44.13369 131
44.1538 143
44.17391 126
44.19403 143
44.21414 164
44.23426 152
44.25437 139
44.27448 173
44.2946 145
44.31471 135
44.33482 152
44.35494 136
44.37505 179
44.39516 152
44.41528 187
44.43539 160
44.45551 155
44.47562 157
44.49573 136
44.51585 127
44.53596 154
44.55607 143
44.57619 169
44.5963 157
44.61642 165
44.63653 166
44.65664 138
44.67676 147
44.69687 125
44.71698 153
44.7371 162
44.75721 154
44.77732 153
44.79744 153
44.81755 151
44.83767 164
44.85778 155
44.87789 167
44.89801 163
44.91812 166
44.93823 150
44.95835 158
44.97846 163
44.99858 170
45.01869 149
45.0388 148
45.05892 156
45.07903 163
45.09914 150
45.11926 151
45.13937 152
45.15949 142
45.1796 162
45.19971 161
45.21983 157
45.23994 169
45.26005 165
45.28017 151
45.30028 168
45.32039 188
45.34051 174
45.36062 186
45.38074 160
45.40085 165
45.42096 181
45.44108 186
45.46119 186
45.4813 201
45.50142 220
45.52153 209
45.54165 253
45.56176 296
45.58187 285
45.60199 321
45.6221 400
45.64221 472
45.66233 568
45.68244 668
45.70256 813
45.72267 1031
45.74278 1134
45.7629 1294
45.78301 1314
45.80312 1166
45.82324 933
45.84335 786
45.86346 709
45.88358 694
45.90369 642
45.92381 606
45.94392 445
45.96403 303
45.98415 238
46.00426 200
46.02437 196
46.04449 180
46.0646 185
46.08472 180
46.10483 188
46.12494 187
46.14506 149
46.16517 159
46.18528 166
46.2054 158
46.22551 160
46.24563 134
46.26574 177
46.28585 148
46.30597 146
46.32608 145
46.34619 159
46.36631 167
46.38642 148
46.40653 169
46.42665 142
46.44676 145
46.46688 139
46.48699 146
46.5071 162
46.52722 138
46.54733 172
46.56744 138
46.58756 151
46.60767 119
46.62779 154
46.6479 148
46.66801 118
46.68813 145
46.70824 135
46.72835 149
46.74847 137
46.76858 138
46.78869 140
46.80881 132
46.82892 161
46.84904 142
46.86915 146
46.88926 139
46.90938 149
46.92949 125
46.9496 147
46.96972 141
46.98983 136
47.00995 153
47.03006 140
47.05017 121
47.07029 135
47.0904 159
47.11051 158
47.13063 141
47.15074 148
47.17086 153
47.19097 145
47.21108 138
47.2312 146
47.25131 151
47.27142 138
47.29154 148
47.31165 138
47.33176 147
47.35188 146
47.37199 135
47.39211 145
47.41222 155
47.43233 140
47.45245 165
47.47256 142
47.49267 138
47.51279 143
47.5329 144
47.55302 140
47.57313 133
47.59324 127
47.61336 126
47.63347 144
47.65358 143
47.6737 136
47.69381 153
47.71393 118
47.73404 148
47.75415 141
47.77427 130
47.79438 144
47.81449 149
47.83461 144
47.85472 151
47.87483 120
47.89495 177
47.91506 147
47.93518 143
47.95529 133
47.9754 127
47.99552 159
48.01563 134
48.03574 150
48.05586 157
48.07597 147
48.09609 157
48.1162 142
48.13631 137
48.15643 139
48.17654 147
48.19665 144
48.21677 169
48.23688 162
48.257 140
48.27711 132
48.29722 158
48.31734 141
48.33745 135
48.35756 160
48.37768 135
48.39779 144
48.4179 140
48.43802 164
48.45813 151
48.47825 170
48.49836 143
48.51847 135
48.53859 165
48.5587 143
48.57881 140
48.59893 151
48.61904 141
48.63916 157
48.65927 153
48.67938 148
48.6995 153
48.71961 138
48.73972 157
48.75984 150
48.77995 171
48.80006 159
48.82018 155
48.84029 155
48.86041 148
48.88052 140
48.90063 152
48.92075 164
48.94086 143
48.96097 163
48.98109 154
49.0012 151
49.02132 162
49.04143 153
49.06154 158
49.08166 172
49.10177 142
49.12188 163
49.142 147
49.16211 153
49.18223 157
49.20234 137
49.22245 149
49.24257 164
49.26268 165
49.28279 169
49.30291 177
49.32302 154
49.34313 173
49.36325 131
49.38336 170
49.40348 166
49.42359 154
49.4437 165
49.46382 175
49.48393 182
49.50404 171
49.52416 186
49.54427 192
49.56439 199
49.5845 177
49.60461 203
49.62473 204
49.64484 203
49.66495 233
49.68507 250
49.70518 262
49.7253 270
49.74541 262
49.76552 263
49.78564 328
49.80575 334
49.82586 384
49.84598 454
49.86609 473
49.8862 523
49.90632 608
49.92643 729
49.94655 911
49.96666 1104
49.98677 1302
50.00689 1610
50.027 2037
50.04711 2581
50.06723 3195
50.08734 3802
50.10746 4181
50.12757 4217
50.14768 3811
50.1678 3024
50.18791 2360
50.20802 2102
50.22814 2108
50.24825 2119
50.26837 2020
50.28848 1531
50.30859 1004
50.32871 665
50.34882 474
50.36893 375
50.38905 333
50.40916 280
50.42927 310
50.44939 302
50.4695 301
50.48962 257
50.50973 265
50.52984 263
50.54996 233
50.57007 281
50.59018 298
50.6103 283
50.63041 243
50.65053 216
50.67064 234
50.69075 229
50.71087 207
50.73098 202
50.75109 218
50.77121 204
50.79132 196
50.81143 186
50.83155 183
50.85166 145
50.87178 143
50.89189 142
50.912 161
50.93212 143
50.95223 137
50.97234 165
50.99246 138
51.01257 158
51.03269 177
51.0528 141
51.07291 154
51.09303 156
51.11314 165
51.13325 165
51.15337 146
51.17348 141
51.1936 120
51.21371 149
51.23382 157
51.25394 149
51.27405 138
51.29416 153
51.31428 157
51.33439 150
51.3545 140
51.37462 152
51.39473 125
51.41485 128
51.43496 146
51.45507 138
51.47519 128
51.4953 147
51.51541 124
51.53553 146
51.55564 123
51.57576 130
51.59587 127
51.61598 130
51.6361 124
51.65621 140
51.67632 118
51.69644 127
51.71655 127
51.73667 137
51.75678 120
51.77689 136
51.79701 136
51.81712 164
51.83723 140
51.85735 143
51.87746 144
51.89757 139
51.91769 143
51.9378 135
51.95792 144
51.97803 164
51.99814 134
52.01826 145
52.03837 116
52.05848 145
52.0786 152
52.09871 130
52.11883 150
52.13894 135
52.15905 130
52.17917 143
52.19928 117
52.21939 136
52.23951 143
52.25962 141
52.27974 123
52.29985 138
52.31996 122
52.34008 148
52.36019 149
52.3803 139
52.40042 136
52.42053 139
52.44064 125
52.46076 114
52.48087 117
52.50099 147
52.5211 127
52.54121 137
52.56133 145
52.58144 143
52.60155 122
52.62167 136
52.64178 133
52.6619 128
52.68201 134
52.70212 134
52.72224 109
52.74235 138
52.76246 153
52.78258 135
52.80269 125
52.8228 125
52.84292 126
52.86303 143
52.88315 121
52.90326 138
52.92337 133
52.94349 142
52.9636 145
52.98371 147
53.00383 126
53.02394 152
53.04406 152
53.06417 130
53.08428 113
53.1044 140
53.12451 123
53.14462 157
53.16474 141
53.18485 161
53.20497 150
53.22508 160
53.24519 143
53.26531 130
53.28542 129
53.30553 166
53.32565 140
53.34576 154
53.36587 153
53.38599 150
53.4061 155
53.42622 179
53.44633 151
53.46644 147
53.48656 143
53.50667 149
53.52678 155
53.5469 150
53.56701 161
53.58713 160
53.60724 130
53.62735 128
53.64747 164
53.66758 174
53.68769 147
53.70781 163
53.72792 140
53.74804 149
53.76815 152
53.78826 180
53.80838 175
53.82849 178
53.8486 153
53.86872 185
53.88883 156
53.90894 159
53.92906 137
53.94917 146
53.96929 142
53.9894 171
54.00951 128
54.02963 174
54.04974 178
54.06985 151
54.08997 149
54.11008 169
54.1302 165
54.15031 162
54.17042 174
54.19054 149
54.21065 160
54.23076 172
54.25088 160
54.27099 163
54.29111 191
54.31122 182
54.33133 175
54.35145 181
54.37156 181
54.39167 190
54.41179 198
54.4319 169
54.45201 202
54.47213 207
54.49224 185
54.51236 210
54.53247 230
54.55258 237
54.5727 256
54.59281 250
54.61292 277
54.63304 304
54.65315 329
54.67327 400
54.69338 427
54.71349 517
54.73361 601
54.75372 704
54.77383 866
54.79395 1029
54.81406 1180
54.83417 1277
54.85429 1346
54.8744 1254
54.89452 1016
54.91463 868
54.93474 705
54.95486 661
54.97497 692
54.99508 753
55.0152 699
55.03531 658
55.05543 474
55.07554 374
55.09565 336
55.11577 303
55.13588 309
55.15599 332
55.17611 349
55.19622 411
55.21634 435
55.23645 516
55.25656 584
55.27668 652
55.29679 659
55.3169 619
55.33702 578
55.35713 494
55.37724 406
55.39736 369
55.41747 384
55.43759 397
55.4577 394
55.47781 329
55.49793 274
55.51804 239
55.53815 234
55.55827 192
55.57838 195
55.5985 197
55.61861 198
55.63872 179
55.65884 188
55.67895 170
55.69906 203
55.71918 159
55.73929 172
55.75941 175
55.77952 161
55.79963 140
55.81975 164
55.83986 167
55.85997 149
55.88009 153
55.9002 144
55.92031 167
55.94043 151
55.96054 150
55.98066 124
56.00077 161
56.02088 133
56.041 137
56.06111 145
56.08122 143
56.10134 140
56.12145 134
56.14157 150
56.16168 132
56.18179 139
56.20191 146
56.22202 180
56.24213 138
56.26225 142
56.28236 142
56.30248 129
56.32259 151
56.3427 137
56.36282 120
56.38293 154
56.40304 160
56.42316 154
56.44327 145
56.46338 150
56.4835 136
56.50361 153
56.52373 128
56.54384 135
56.56395 155
56.58407 143
56.60418 123
56.62429 149
56.64441 151
56.66452 137
56.68464 138
56.70475 142
56.72486 141
56.74498 142
56.76509 134
56.7852 139
56.80532 138
56.82543 125
56.84554 127
56.86566 146
56.88577 139
56.90589 155
56.926 134
56.94611 155
56.96623 157
56.98634 135
57.00645 153
57.02657 138
57.04668 146
57.0668 143
57.08691 151
57.10702 184
57.12714 164
57.14725 175
57.16736 184
57.18748 197
57.20759 198
57.22771 226
57.24782 210
57.26793 154
57.28805 157
57.30816 178
57.32827 158
57.34839 173
57.3685 157
57.38861 160
57.40873 143
57.42884 136
57.44896 134
57.46907 142
57.48918 162
57.5093 145
57.52941 131
57.54952 129
57.56964 125
57.58975 127
57.60987 144
57.62998 146
57.65009 142
57.67021 135
57.69032 139
57.71043 145
57.73055 116
57.75066 156
57.77078 137
57.79089 140
57.811 153
57.83112 141
57.85123 144
57.87134 132
57.89146 139
57.91157 128
57.93168 140
57.9518 172
57.97191 136
57.99203 142
58.01214 137
58.03225 148
58.05237 131
58.07248 131
58.09259 144
58.11271 142
58.13282 148
58.15294 121
58.17305 135
58.19316 147
58.21328 149
58.23339 146
58.2535 146
58.27362 147
58.29373 113
58.31385 143
58.33396 127
58.35407 151
58.37419 129
58.3943 132
58.41441 140
58.43453 131
58.45464 128
58.47475 143
58.49487 125
58.51498 128
58.5351 115
58.55521 130
58.57532 143
58.59544 141
58.61555 162
58.63566 152
58.65578 137
58.67589 168
58.69601 133
58.71612 137
58.73623 144
58.75635 133
58.77646 157
58.79657 151
58.81669 146
58.8368 133
58.85691 145
58.87703 146
58.89714 149
58.91726 124
58.93737 135
58.95748 123
58.9776 108
58.99771 131
59.01782 152
59.03794 144
59.05805 167
59.07817 136
59.09828 134
59.11839 143
59.13851 140
59.15862 129
59.17873 136
59.19885 149
59.21896 155
59.23908 148
59.25919 145
59.2793 166
59.29942 165
59.31953 163
59.33964 156
59.35976 170
59.37987 153
59.39998 168
59.4201 183
59.44021 199
59.46033 188
59.48044 195
59.50055 226
59.52067 243
59.54078 228
59.56089 263
59.58101 260
59.60112 278
59.62124 325
59.64135 338
59.66146 400
59.68158 391
59.70169 500
59.7218 519
59.74192 681
59.76203 772
59.78215 897
59.80226 1082
59.82237 1343
59.84249 1484
59.8626 1918
59.88271 2224
59.90283 2542
59.92294 2703
59.94305 2589
59.96317 2443
59.98328 1921
60.0034 1443
60.02351 1316
60.04362 1324
60.06374 1345
60.08385 1444
60.10396 1384
60.12408 1187
60.14419 857
60.16431 620
60.18442 443
60.20453 347
60.22465 274
60.24476 269
60.26487 232
60.28499 215
60.3051 206
60.32522 196
60.34533 172
60.36544 186
60.38556 184
60.40567 184
60.42578 182
60.4459 187
60.46601 192
60.48612 179
60.50624 146
60.52635 168
60.54647 177
60.56658 168
60.58669 151
60.60681 156
60.62692 144
60.64703 119
60.66715 158
60.68726 128
60.70738 134
60.72749 143
60.7476 147
60.76772 161
60.78783 162
60.80794 154
60.82806 149
60.84817 156
60.86828 144
60.8884 156
60.90851 155
60.92863 127
60.94874 136
60.96885 150
60.98897 155
61.00908 144
61.02919 136
61.04931 145
61.06942 122
61.08954 146
61.10965 156
61.12976 137
61.14988 133
61.16999 114
61.1901 134
61.21022 132
61.23033 140
61.25045 160
61.27056 142
61.29067 135
61.31079 127
61.3309 127
61.35101 120
61.37113 125
61.39124 146
61.41135 160
61.43147 144
61.45158 161
61.4717 130
61.49181 127
61.51192 144
61.53204 130
61.55215 133
61.57226 132
61.59238 140
61.61249 168
61.63261 156
61.65272 138
61.67283 137
61.69295 143
61.71306 146
61.73317 147
61.75329 135
61.7734 139
61.79352 145
61.81363 155
61.83374 143
61.85386 137
61.87397 153
61.89408 141
61.9142 130
61.93431 149
61.95442 169
61.97454 169
61.99465 158
62.01477 151
62.03488 141
62.05499 158
62.07511 139
62.09522 163
62.11533 168
62.13545 166
62.15556 169
62.17568 181
62.19579 142
62.2159 160
62.23602 171
62.25613 174
62.27624 164
62.29636 156
62.31647 184
62.33659 182
62.3567 160
62.37681 153
62.39693 189
62.41704 175
62.43715 164
62.45727 164
62.47738 136
62.49749 153
62.51761 154
62.53772 152
62.55784 157
62.57795 139
62.59806 150
62.61818 133
62.63829 156
62.6584 139
62.67852 151
62.69863 150
62.71875 135
62.73886 146
62.75897 130
62.77909 126
62.7992 120
62.81931 158
62.83943 131
62.85954 141
62.87965 133
62.89977 139
62.91988 141
62.94 130
62.96011 131
62.98022 143
63.00034 124
63.02045 137
63.04056 131
63.06068 135
63.08079 132
63.10091 113
63.12102 125
63.14113 141
63.16125 141
63.18136 112
63.20147 139
63.22159 134
63.2417 129
63.26182 149
63.28193 161
63.30204 124
63.32216 134
63.34227 132
63.36238 121
63.3825 126
63.40261 134
63.42272 131
63.44284 127
63.46295 136
63.48307 122
63.50318 138
63.52329 149
63.54341 154
63.56352 146
63.58363 134
63.60375 145
63.62386 175
63.64398 155
63.66409 161
63.6842 163
63.70432 161
63.72443 174
63.74454 176
63.76466 199
63.78477 192
63.80489 198
63.825 236
63.84511 246
63.86523 256
63.88534 321
63.90545 339
63.92557 429
63.94568 463
63.96579 571
63.98591 560
64.00602 576
64.02614 532
64.04625 494
64.06636 402
64.08648 342
64.10659 316
64.1267 334
64.14682 312
64.16693 313
64.18705 348
64.20716 304
64.22727 302
64.24739 222
64.2675 177
64.28761 179
64.30773 153
64.32784 162
64.34796 145
64.36807 160
64.38818 145
64.4083 164
64.42841 140
64.44852 134
64.46864 133
64.48875 147
64.50886 133
64.52898 140
64.54909 146
64.56921 141
64.58932 122
64.60943 113
64.62955 126
64.64966 138
64.66977 140
64.68989 124
64.71 111
64.73012 129
64.75023 122
64.77034 126
64.79046 142
64.81057 150
64.83068 126
64.8508 128
64.87091 128
64.89102 122
64.91114 126
64.93125 127
64.95137 112
64.97148 117
64.99159 147
65.01171 134
65.03182 148
65.05193 127
65.07205 134
65.09216 123
65.11228 122
65.13239 142
65.1525 132
65.17262 146
65.19273 140
65.21284 131
65.23296 129
65.25307 127
65.27319 120
65.2933 119
65.31341 126
65.33353 111
65.35364 133
65.37375 138
65.39387 128
65.41398 138
65.43409 150
65.45421 152
65.47432 121
65.49444 156
65.51455 130
65.53466 154
65.55478 143
65.57489 162
65.595 180
65.61512 190
65.63523 167
65.65535 194
65.67546 216
65.69557 236
65.71569 244
65.7358 255
65.75591 269
65.77603 268
65.79614 232
65.81626 185
65.83637 185
65.85648 165
65.8766 182
65.89671 203
65.91682 199
65.93694 205
65.95705 181
65.97716 183
65.99728 156
66.01739 143
66.03751 161
66.05762 164
66.07773 135
66.09785 141
66.11796 135
66.13807 163
66.15819 148
66.1783 152
66.19842 171
66.21853 122
66.23864 141
66.25876 149
66.27887 132
66.29898 124
66.3191 144
66.33921 140
66.35933 124
66.37944 133
66.39955 145
66.41967 137
66.43978 137
66.45989 137
66.48001 150
66.50012 158
66.52023 132
66.54035 145
66.56046 133
66.58058 126
66.60069 147
66.6208 137
66.64092 149
66.66103 155
66.68114 152
66.70126 129
66.72137 159
66.74149 143
66.7616 142
66.78171 136
66.80183 147
66.82194 137
66.84205 138
66.86217 142
66.88228 140
66.90239 145
66.92251 166
66.94262 145
66.96274 157
66.98285 165
67.00296 152
67.02308 172
67.04319 145
67.0633 157
67.08342 158
67.10353 145
67.12365 148
67.14376 172
67.16387 156
67.18399 179
67.2041 176
67.22421 178
67.24433 188
67.26444 189
67.28456 233
67.30467 198
67.32478 221
67.3449 231
67.36501 248
67.38512 219
67.40524 287
67.42535 311
67.44546 321
67.46558 308
67.48569 355
67.50581 432
67.52592 500
67.54603 530
67.56615 651
67.58626 778
67.60637 892
67.62649 1062
67.6466 1219
67.66672 1365
67.68683 1546
67.70694 1594
67.72706 1615
67.74717 1430
67.76728 1156
67.7874 1015
67.80751 881
67.82763 920
67.84774 980
67.86785 1041
67.88797 1142
67.90808 1137
67.92819 1151
67.94831 1202
67.96842 1110
67.98853 1173
68.00865 1202
68.02876 1369
68.04888 1621
68.06899 1771
68.0891 2063
68.10922 2079
68.12933 2125
68.14944 2112
68.16956 1836
68.18967 1614
68.20979 1588
68.2299 1665
68.25001 1819
68.27013 2008
68.29024 1906
68.31035 1890
68.33047 1610
68.35058 1273
68.3707 984
68.39081 814
68.41092 760
68.43104 788
68.45115 753
68.47126 732
68.49138 671
68.51149 551
68.5316 458
68.55172 366
68.57183 284
68.59195 259
68.61206 235
68.63217 248
68.65229 184
68.6724 211
68.69251 201
68.71263 160
68.73274 168
68.75286 173
68.77297 180
68.79308 187
68.8132 152
68.83331 165
68.85342 171
68.87354 160
68.89365 160
68.91376 166
68.93388 152
68.95399 145
68.97411 147
68.99422 167
69.01433 166
69.03445 166
69.05456 152
69.07467 152
69.09479 168
69.1149 130
69.13502 143
69.15513 151
69.17524 139
69.19536 163
69.21547 128
69.23558 118
69.2557 154
69.27581 138
69.29593 150
69.31604 149
69.33615 152
69.35627 146
69.37638 129
69.39649 125
69.41661 119
69.43672 140
69.45683 138
69.47695 126
69.49706 121
69.51718 140
69.53729 137
69.5574 141
69.57752 110
69.59763 131
69.61774 122
69.63786 121
69.65797 148
69.67809 138
69.6982 145
69.71831 134
69.73843 140
69.75854 125
69.77865 120
69.79877 125
69.81888 128
69.839 118
69.85911 140
69.87922 132
69.89934 136
69.91945 126
69.93956 115
69.95968 138
69.97979 121
69.9999 127
70.02002 118
70.04013 123
70.06025 136
70.08036 123
70.10047 138
70.12059 129
70.1407 138
70.16081 140
70.18093 127
70.20104 136
70.22116 163
70.24127 142
70.26138 121
70.2815 128
70.30161 132
70.32172 122
70.34184 114
70.36195 144
70.38207 129
70.40218 119
70.42229 117
70.44241 146
70.46252 112
70.48263 147
70.50275 151
70.52286 121
70.54297 123
70.56309 110
70.5832 130
70.60332 137
70.62343 141
70.64354 127
70.66366 119
70.68377 124
70.70388 142
70.724 134
70.74411 137
70.76423 138
70.78434 140
70.80445 109
70.82457 123
70.84468 137
70.86479 149
70.88491 126
70.90502 118
70.92513 104
70.94525 131
70.96536 128
70.98548 113
71.00559 136
71.0257 129
71.04582 128
71.06593 109
71.08604 104
71.10616 126
71.12627 135
71.14639 113
71.1665 114
71.18661 119
71.20673 132
71.22684 135
71.24695 129
71.26707 126
71.28718 107
71.3073 115
71.32741 142
71.34752 117
71.36764 117
71.38775 122
71.40786 122
71.42798 131
71.44809 114
71.4682 115
71.48832 120
71.50843 128
71.52855 118
71.54866 132
71.56877 114
71.58889 128
71.609 97
71.62911 133
71.64923 133
71.66934 108
71.68946 126
71.70957 114
71.72968 123
71.7498 119
71.76991 129
71.79002 119
71.81014 133
71.83025 133
71.85037 104
71.87048 121
71.89059 137
71.91071 119
71.93082 118
71.95093 120
71.97105 128
71.99116 130
72.01127 120
72.03139 142
72.0515 114
72.07162 122
72.09173 140
72.11184 123
72.13196 151
72.15207 133
72.17218 138
72.1923 123
72.21241 135
72.23253 127
72.25264 131
72.27275 147
72.29287 129
72.31298 119
72.33309 132
72.35321 135
72.37332 111
72.39344 109
72.41355 118
72.43366 115
72.45378 110
72.47389 130
72.494 108
72.51412 121
72.53423 123
72.55434 105
72.57446 119
72.59457 106
72.61469 133
72.6348 117
72.65491 129
72.67503 140
72.69514 132
72.71525 112
72.73537 144
72.75548 125
72.7756 131
72.79571 135
72.81582 139
72.83594 127
72.85605 130
72.87616 133
72.89628 150
72.91639 138
72.9365 133
72.95662 157
72.97673 136
72.99685 151
73.01696 154
73.03707 165
73.05719 146
73.0773 165
73.09741 148
73.11753 170
73.13764 188
73.15776 201
73.17787 201
73.19798 210
73.2181 209
73.23821 249
73.25832 280
73.27844 297
73.29855 291
73.31867 356
73.33878 402
73.35889 427
73.37901 493
73.39912 577
73.41923 604
73.43935 624
73.45946 563
73.47957 524
73.49969 427
73.5198 373
73.53992 324
73.56003 340
73.58014 302
73.60026 374
73.62037 365
73.64048 412
73.6606 350
73.68071 341
73.70083 278
73.72094 252
73.74105 193
73.76117 176
73.78128 166
73.80139 139
73.82151 150
73.84162 142
73.86174 164
73.88185 133
73.90196 143
73.92208 145
73.94219 135
73.9623 124
73.98242 129
74.00253 118
74.02264 139
74.04276 143
74.06287 128
74.08299 123
74.1031 109
74.12321 121
74.14333 121
74.16344 143
74.18355 116
74.20367 134
74.22378 128
74.2439 126
74.26401 126
74.28412 119
74.30424 136
74.32435 111
74.34446 120
74.36458 129
74.38469 105
74.40481 114
74.42492 135
74.44503 113
74.46515 119
74.48526 129
74.50537 126
74.52549 144
74.5456 109
74.56571 104
74.58583 121
74.60594 112
74.62606 136
74.64617 144
74.66628 128
74.6864 124
74.70651 125
74.72662 121
74.74674 128
74.76685 141
74.78697 124
74.80708 130
74.82719 129
74.84731 139
74.86742 146
74.88753 130
74.90765 145
74.92776 131
74.94787 121
74.96799 135
74.9881 127
75.00822 128
