3.00117 15978
3.02128 15716
3.0414 15230
3.06151 14653
3.08162 14668
3.10174 13848
3.12185 13430
3.14197 13174
3.16208 12441
3.18219 12368
3.20231 12045
3.22242 11516
3.24253 11033
3.26265 10466
3.28276 10430
3.30288 9943
3.32299 9541
3.3431 9649
3.36322 8908
3.38333 8808
3.40344 8369
3.42356 7987
3.44367 7829
3.46379 7354
3.4839 7160
3.50401 7113
3.52413 6710
3.54424 6503
3.56435 5986
3.58447 6137
3.60458 5627
3.62469 5300
3.64481 5349
3.66492 4928
3.68504 4907
3.70515 4456
3.72526 4388
3.74538 4206
3.76549 4009
3.7856 3933
3.80572 3623
3.82583 3514
3.84595 3353
3.86606 3119
3.88617 3170
3.90629 2944
3.9264 2748
3.94651 2747
3.96663 2517
3.98674 2504
4.00686 2397
4.02697 2194
4.04708 2181
4.0672 2080
4.08731 1929
4.10742 2032
4.12754 1798
4.14765 1717
4.16776 1725
4.18788 1734
4.20799 1734
4.22811 1530
4.24822 1593
4.26833 1433
4.28845 1511
4.30856 1433
4.32867 1349
4.34879 1352
4.3689 1335
4.38902 1312
4.40913 1386
4.42924 1172
4.44936 1188
4.46947 1108
4.48958 1213
4.5097 1234
4.52981 1045
4.54992 1137
4.57004 1052
4.59015 1093
4.61027 1047
4.63038 960
4.65049 1024
4.67061 963
4.69072 953
4.71083 920
4.73095 809
4.75106 893
4.77118 845
4.79129 869
4.8114 804
4.83152 779
4.85163 809
4.87174 761
4.89186 736
4.91197 726
4.93209 685
4.9522 716
4.97231 726
4.99243 666
5.01254 644
5.03265 619
5.05277 655
5.07288 601
5.09299 575
5.11311 557
5.13322 594
5.15334 535
5.17345 525
5.19356 497
5.21368 549
5.23379 459
5.2539 450
5.27402 514
5.29413 472
5.31425 522
5.33436 480
5.35447 415
5.37459 506
5.3947 424
5.41481 401
5.43493 408
5.45504 399
5.47516 405
5.49527 428
5.51538 382
5.5355 380
5.55561 366
5.57572 424
5.59584 376
5.61595 385
5.63606 381
5.65618 339
5.67629 366
5.69641 377
5.71652 379
5.73663 334
5.75675 344
5.77686 374
5.79697 364
5.81709 331
5.8372 306
5.85732 346
5.87743 342
5.89754 323
5.91766 327
5.93777 332
5.95788 336
5.978 292
5.99811 268
6.01823 335
6.03834 298
6.05845 263
6.07857 334
6.09868 317
6.11879 329
6.13891 289
6.15902 336
6.17913 311
6.19925 311
6.21936 308
6.23948 318
6.25959 300
6.2797 299
6.29982 299
6.31993 326
6.34004 305
6.36016 304
6.38027 270
6.40039 277
6.4205 288
6.44061 308
6.46073 276
6.48084 267
6.50095 309
6.52107 303
6.54118 310
6.56129 328
6.58141 309
6.60152 291
6.62164 295
6.64175 295
6.66186 290
6.68198 265
6.70209 297
6.7222 292
6.74232 302
6.76243 284
6.78255 285
6.80266 280
6.82277 299
6.84289 270
6.863 250
6.88311 272
6.90323 287
6.92334 280
6.94346 288
6.96357 290
6.98368 292
7.0038 273
7.02391 280
7.04402 279
7.06414 276
7.08425 277
7.10436 260
7.12448 253
7.14459 238
7.16471 285
7.18482 270
7.20493 273
7.22505 283
7.24516 275
7.26527 278
7.28539 293
7.3055 265
7.32562 290
7.34573 264
7.36584 277
7.38596 296
7.40607 303
7.42618 267
7.4463 289
7.46641 291
7.48653 285
7.50664 310
7.52675 250
7.54687 269
7.56698 289
7.58709 247
7.60721 273
7.62732 287
7.64743 317
7.66755 321
7.68766 310
7.70778 309
7.72789 281
7.748 290
7.76812 298
7.78823 295
7.80834 297
7.82846 255
7.84857 300
7.86869 290
7.8888 309
7.90891 296
7.92903 287
7.94914 308
7.96925 354
7.98937 313
8.00948 310
8.0296 317
8.04971 332
8.06982 319
8.08994 301
8.11005 322
8.13016 332
8.15028 362
8.17039 282
8.1905 343
8.21062 315
8.23073 331
8.25085 370
8.27096 307
8.29107 337
8.31119 355
8.3313 438
8.35141 349
8.37153 400
8.39164 401
8.41176 394
8.43187 448
8.45198 401
8.4721 437
8.49221 441
8.51232 438
8.53244 466
8.55255 467
8.57266 490
8.59278 518
8.61289 526
8.63301 564
8.65312 596
8.67323 621
8.69335 620
8.71346 641
8.73357 710
8.75369 711
8.7738 758
8.79392 702
8.81403 677
8.83414 717
8.85426 651
8.87437 716
8.89448 685
8.9146 586
8.93471 519
8.95483 514
8.97494 433
8.99505 394
9.01517 363
9.03528 367
9.05539 373
9.07551 387
9.09562 345
9.11573 305
9.13585 354
9.15596 334
9.17608 296
9.19619 332
9.2163 334
9.23642 317
9.25653 306
9.27664 289
9.29676 340
9.31687 296
9.33699 341
9.3571 314
9.37721 322
9.39733 307
9.41744 294
9.43755 283
9.45767 302
9.47778 287
9.4979 315
9.51801 333
9.53812 306
9.55824 340
9.57835 306
9.59846 279
9.61858 299
9.63869 296
9.6588 302
9.67892 326
9.69903 281
9.71915 296
9.73926 298
9.75937 315
9.77949 317
9.7996 332
9.81971 327
9.83983 272
9.85994 358
9.88006 266
9.90017 280
9.92028 302
9.9404 300
9.96051 294
9.98062 294
10.00074 309
10.02085 304
10.04097 291
10.06108 258
10.08119 272
10.10131 284
10.12142 272
10.14153 298
10.16165 253
10.18176 290
10.20187 305
10.22199 310
10.2421 297
10.26222 285
10.28233 279
10.30244 296
10.32256 310
10.34267 284
10.36278 281
10.3829 282
10.40301 315
10.42313 357
10.44324 326
10.46335 355
10.48347 351
10.50358 300
10.52369 316
10.54381 335
10.56392 299
10.58403 303
10.60415 289
10.62426 273
10.64438 284
10.66449 239
10.6846 263
10.70472 298
10.72483 303
10.74494 273
10.76506 290
10.78517 283
10.80529 280
10.8254 297
10.84551 310
10.86563 253
10.88574 328
10.90585 275
10.92597 287
10.94608 289
10.9662 339
10.98631 336
11.00642 309
11.02654 327
11.04665 274
11.06676 267
11.08688 274
11.10699 276
11.1271 308
11.14722 276
11.16733 312
11.18745 257
11.20756 252
11.22767 290
11.24779 262
11.2679 291
11.28801 305
11.30813 269
11.32824 284
11.34836 300
11.36847 284
11.38858 292
11.4087 287
11.42881 273
11.44892 306
11.46904 295
11.48915 260
11.50927 320
11.52938 257
11.54949 283
11.56961 300
11.58972 293
11.60983 270
11.62995 299
11.65006 273
11.67017 263
11.69029 266
11.7104 301
11.73052 283
11.75063 277
11.77074 289
11.79086 304
11.81097 265
11.83108 341
11.8512 288
11.87131 257
11.89143 316
11.91154 290
11.93165 303
11.95177 295
11.97188 318
11.99199 332
12.01211 300
12.03222 324
12.05234 331
12.07245 344
12.09256 303
12.11268 353
12.13279 280
12.1529 325
12.17302 341
12.19313 327
12.21324 338
12.23336 360
12.25347 317
12.27359 364
12.2937 325
12.31381 321
12.33393 349
12.35404 332
12.37415 345
12.39427 319
12.41438 350
12.4345 294
12.45461 305
12.47472 321
12.49484 285
12.51495 286
12.53506 305
12.55518 315
12.57529 273
12.5954 302
12.61552 266
12.63563 262
12.65575 275
12.67586 282
12.69597 304
12.71609 263
12.7362 301
12.75631 287
12.77643 278
12.79654 295
12.81666 293
12.83677 264
12.85688 262
12.877 286
12.89711 269
12.91722 291
12.93734 285
12.95745 265
12.97757 267
12.99768 272
13.01779 272
13.03791 299
13.05802 270
13.07813 273
13.09825 263
13.11836 269
13.13847 327
13.15859 265
13.1787 290
13.19882 286
13.21893 251
13.23904 290
13.25916 262
13.27927 271
13.29938 278
13.3195 294
13.33961 289
13.35973 297
13.37984 279
13.39995 285
13.42007 296
13.44018 256
13.46029 271
13.48041 292
13.50052 254
13.52064 268
13.54075 281
13.56086 316
13.58098 276
13.60109 306
13.6212 274
13.64132 286
13.66143 249
13.68154 279
13.70166 303
13.72177 313
13.74189 333
13.762 361
13.78211 394
13.80223 427
13.82234 437
13.84245 475
13.86257 521
13.88268 476
13.9028 495
13.92291 442
13.94302 378
13.96314 324
13.98325 331
14.00336 307
14.02348 323
14.04359 292
14.06371 302
14.08382 294
14.10393 316
14.12405 299
14.14416 266
14.16427 266
14.18439 232
14.2045 271
14.22461 276
14.24473 230
14.26484 239
14.28496 268
14.30507 285
14.32518 275
14.3453 260
14.36541 242
14.38552 280
14.40564 234
14.42575 264
14.44587 249
14.46598 223
14.48609 252
14.50621 236
14.52632 269
14.54643 260
14.56655 280
14.58666 303
14.60677 249
14.62689 225
14.647 276
14.66712 266
14.68723 243
14.70734 244
14.72746 261
14.74757 270
14.76768 286
14.7878 250
14.80791 273
14.82803 273
14.84814 265
14.86825 306
14.88837 288
14.90848 294
14.92859 312
14.94871 331
14.96882 335
14.98894 352
15.00905 303
15.02916 324
15.04928 258
15.06939 296
15.0895 281
15.10962 256
15.12973 296
15.14984 278
15.16996 254
15.19007 252
15.21019 284
15.2303 287
15.25041 282
15.27053 268
15.29064 263
15.31075 244
15.33087 278
15.35098 266
15.3711 281
15.39121 280
15.41132 295
15.43144 259
15.45155 257
15.47166 269
15.49178 234
15.51189 241
15.53201 299
15.55212 248
15.57223 248
15.59235 255
15.61246 289
15.63257 267
15.65269 242
15.6728 262
15.69291 230
15.71303 313
15.73314 254
15.75326 284
15.77337 286
15.79348 302
15.8136 315
15.83371 324
15.85382 274
15.87394 287
15.89405 284
15.91417 280
15.93428 281
15.95439 271
15.97451 272
15.99462 251
16.01473 242
16.03485 242
16.05496 269
16.07508 251
16.09519 284
16.1153 277
16.13542 272
16.15553 256
16.17564 282
16.19576 209
16.21587 256
16.23598 246
16.2561 235
16.27621 253
16.29633 243
16.31644 252
16.33655 272
16.35667 278
16.37678 271
16.39689 242
16.41701 255
16.43712 252
16.45724 229
16.47735 235
16.49746 253
16.51758 272
16.53769 245
16.5578 236
16.57792 247
16.59803 275
16.61814 214
16.63826 225
16.65837 237
16.67849 283
16.6986 257
16.71871 279
16.73883 254
16.75894 236
16.77905 237
16.79917 313
16.81928 239
16.8394 253
16.85951 270
16.87962 248
16.89974 267
16.91985 234
16.93996 265
16.96008 280
16.98019 244
17.00031 260
17.02042 268
17.04053 261
17.06065 247
17.08076 269
17.10087 257
17.12099 255
17.1411 250
17.16121 249
17.18133 226
17.20144 225
17.22156 260
17.24167 265
17.26178 286
17.2819 246
17.30201 214
17.32212 265
17.34224 284
17.36235 251
17.38247 286
17.40258 269
17.42269 274
17.44281 271
17.46292 283
17.48303 300
17.50315 301
17.52326 296
17.54338 324
17.56349 336
17.5836 397
17.60372 407
17.62383 429
17.64394 419
17.66406 430
17.68417 415
17.70428 326
17.7244 354
17.74451 322
17.76463 314
17.78474 267
17.80485 313
17.82497 283
17.84508 296
17.86519 241
17.88531 269
17.90542 265
17.92554 311
17.94565 231
17.96576 272
17.98588 249
18.00599 235
18.0261 255
18.04622 239
18.06633 254
18.08645 252
18.10656 280
18.12667 285
18.14679 292
18.1669 264
18.18701 256
18.20713 253
18.22724 273
18.24735 263
18.26747 279
18.28758 257
18.3077 269
18.32781 260
18.34792 240
18.36804 270
18.38815 270
18.40826 259
18.42838 290
18.44849 258
18.46861 280
18.48872 269
18.50883 282
18.52895 269
18.54906 274
18.56917 227
18.58929 265
18.6094 265
18.62951 243
18.64963 269
18.66974 240
18.68986 254
18.70997 231
18.73008 266
18.7502 303
18.77031 249
18.79042 246
18.81054 258
18.83065 272
18.85077 259
18.87088 277
18.89099 259
18.91111 247
18.93122 275
18.95133 263
18.97145 251
18.99156 266
19.01168 298
19.03179 269
19.0519 266
19.07202 254
19.09213 310
19.11224 271
19.13236 264
19.15247 348
19.17258 319
19.1927 325
19.21281 348
19.23293 355
19.25304 369
19.27315 377
19.29327 396
19.31338 369
19.33349 370
19.35361 352
19.37372 359
19.39384 343
19.41395 360
19.43406 351
19.45418 326
19.47429 357
19.4944 323
19.51452 360
19.53463 344
19.55475 397
19.57486 383
19.59497 371
19.61509 374
19.6352 339
19.65531 374
19.67543 388
19.69554 386
19.71565 400
19.73577 399
19.75588 427
19.776 470
19.79611 428
19.81622 455
19.83634 434
19.85645 462
19.87656 422
19.89668 455
19.91679 365
19.93691 372
19.95702 415
19.97713 387
19.99725 371
20.01736 385
20.03747 327
20.05759 394
20.0777 338
20.09782 356
20.11793 357
20.13804 384
20.15816 353
20.17827 365
20.19838 366
20.2185 355
20.23861 350
20.25872 351
20.27884 349
20.29895 352
20.31907 381
20.33918 367
20.35929 356
20.37941 351
20.39952 368
20.41963 339
20.43975 395
20.45986 365
20.47998 354
20.50009 377
20.5202 332
20.54032 359
20.56043 398
20.58054 378
20.60066 480
20.62077 431
20.64088 441
20.661 500
20.68111 574
20.70123 653
20.72134 763
20.74145 949
20.76157 1249
20.78168 1608
20.80179 1870
20.82191 2148
20.84202 2242
20.86214 2185
20.88225 1883
20.90236 1405
20.92248 1003
20.94259 750
20.9627 624
20.98282 568
21.00293 527
21.02305 503
21.04316 441
21.06327 422
21.08339 390
21.1035 381
21.12361 394
21.14373 377
21.16384 359
21.18395 345
21.20407 346
21.22418 347
21.2443 355
21.26441 324
21.28452 307
21.30464 344
21.32475 351
21.34486 333
21.36498 340
21.38509 354
21.40521 315
21.42532 299
21.44543 367
21.46555 359
21.48566 332
21.50577 356
21.52589 347
21.546 363
21.56612 317
21.58623 353
21.60634 360
21.62646 307
21.64657 358
21.66668 344
21.6868 347
21.70691 340
21.72702 366
21.74714 334
21.76725 364
21.78737 353
21.80748 396
21.82759 450
21.84771 448
21.86782 491
21.88793 598
21.90805 672
21.92816 782
21.94828 999
21.96839 1219
21.9885 1421
22.00862 1463
22.02873 1459
22.04884 1479
22.06896 1239
22.08907 994
22.10919 876
22.1293 711
22.14941 590
22.16953 508
22.18964 475
22.20975 464
22.22987 490
22.24998 495
22.27009 519
22.29021 473
22.31032 434
22.33044 441
22.35055 390
22.37066 372
22.39078 411
22.41089 350
22.431 321
22.45112 325
22.47123 344
22.49135 303
22.51146 365
22.53157 328
22.55169 351
22.5718 358
22.59191 319
22.61203 342
22.63214 306
22.65225 360
22.67237 327
22.69248 359
22.7126 350
22.73271 366
22.75282 348
22.77294 363
22.79305 394
22.81316 373
22.83328 434
22.85339 377
22.87351 427
22.89362 408
22.91373 437
22.93385 493
22.95396 475
22.97407 532
22.99419 467
23.0143 494
23.03442 520
23.05453 493
23.07464 514
23.09476 472
23.11487 406
23.13498 407
23.1551 410
23.17521 385
23.19532 388
23.21544 386
23.23555 399
23.25567 359
23.27578 348
23.29589 360
23.31601 343
23.33612 382
23.35623 401
23.37635 462
23.39646 436
23.41658 493
23.43669 599
23.4568 663
23.47692 763
23.49703 817
23.51714 864
23.53726 885
23.55737 856
23.57749 753
23.5976 660
23.61771 593
23.63783 538
23.65794 503
23.67805 405
23.69817 437
23.71828 421
23.73839 406
23.75851 450
23.77862 414
23.79874 431
23.81885 442
23.83896 387
23.85908 448
23.87919 437
23.8993 426
23.91942 481
23.93953 489
23.95965 439
23.97976 464
23.99987 503
24.01999 526
24.0401 555
24.06021 600
24.08033 660
24.10044 640
24.12056 800
24.14067 836
24.16078 859
24.1809 992
24.20101 990
24.22112 1016
24.24124 1066
24.26135 1128
24.28146 992
24.30158 969
24.32169 857
24.34181 663
24.36192 652
24.38203 551
24.40215 469
24.42226 426
24.44237 387
24.46249 350
24.4826 365
24.50272 377
24.52283 354
24.54294 391
24.56306 363
24.58317 353
24.60328 359
24.6234 384
24.64351 362
24.66362 357
24.68374 351
24.70385 369
24.72397 371
24.74408 358
24.76419 382
24.78431 379
24.80442 405
24.82453 380
24.84465 408
24.86476 413
24.88488 385
24.90499 396
24.9251 411
24.94522 410
24.96533 421
24.98544 357
25.00556 349
25.02567 342
25.04579 396
25.0659 373
25.08601 379
25.10613 358
25.12624 386
25.14635 365
25.16647 408
25.18658 415
25.20669 403
25.22681 395
25.24692 365
25.26704 437
25.28715 442
25.30726 516
25.32738 555
25.34749 545
25.3676 627
25.38772 641
25.40783 657
25.42795 684
25.44806 714
25.46817 682
25.48829 690
25.5084 701
25.52851 666
25.54863 625
25.56874 636
25.58886 561
25.60897 527
25.62908 512
25.6492 464
25.66931 474
25.68942 406
25.70954 444
25.72965 411
25.74976 412
25.76988 454
25.78999 397
25.81011 388
25.83022 378
25.85033 395
25.87045 438
25.89056 455
25.91067 426
25.93079 415
25.9509 416
25.97102 398
25.99113 469
26.01124 435
26.03136 487
26.05147 513
26.07158 510
26.0917 529
26.11181 573
26.13193 581
26.15204 590
26.17215 556
26.19227 605
26.21238 633
26.23249 664
26.25261 751
26.27272 780
26.29283 812
26.31295 845
26.33306 1025
26.35318 1030
26.37329 1149
26.3934 1290
26.41352 1481
26.43363 1682
26.45374 1935
26.47386 2377
26.49397 3057
26.51409 3883
26.5342 5025
26.55431 6523
26.57443 7948
26.59454 9154
26.61465 9573
26.63477 8973
26.65488 7432
26.67499 5794
26.69511 4597
26.71522 3287
26.73534 2098
26.75545 1340
26.77556 1031
26.79568 938
26.81579 890
26.8359 819
26.85602 780
26.87613 726
26.89625 647
26.91636 625
26.93647 573
26.95659 583
26.9767 594
26.99681 539
27.01693 526
27.03704 534
27.05716 542
27.07727 559
27.09738 474
27.1175 499
27.13761 513
27.15772 445
27.17784 459
27.19795 440
27.21806 448
27.23818 436
27.25829 459
27.27841 515
27.29852 489
27.31863 514
27.33875 534
27.35886 553
27.37897 576
27.39909 644
27.4192 627
27.43932 619
27.45943 639
27.47954 672
27.49966 670
27.51977 635
27.53988 669
27.56 629
27.58011 725
27.60023 780
27.62034 900
27.64045 1046
27.66057 1260
27.68068 1444
27.70079 1528
27.72091 1530
27.74102 1551
27.76113 1674
27.78125 1505
27.80136 1719
27.82148 1850
27.84159 1901
27.8617 2197
27.88182 2455
27.90193 2600
27.92204 2443
27.94216 2234
27.96227 1993
27.98239 1731
28.0025 1398
28.02261 1267
28.04273 1116
28.06284 1008
28.08295 1010
28.10307 973
28.12318 1023
28.1433 970
28.16341 941
28.18352 865
28.20364 839
28.22375 858
28.24386 870
28.26398 856
28.28409 767
28.3042 793
28.32432 722
28.34443 622
28.36455 578
28.38466 487
28.40477 510
28.42489 464
28.445 426
28.46511 426
28.48523 419
28.50534 357
28.52546 402
28.54557 379
28.56568 425
28.5858 391
28.60591 391
28.62602 392
28.64614 387
28.66625 333
28.68636 345
28.70648 339
28.72659 329
28.74671 351
28.76682 285
28.78693 342
28.80705 314
28.82716 326
28.84727 333
28.86739 317
28.8875 323
28.90762 335
28.92773 349
28.94784 308
28.96796 315
28.98807 306
29.00818 323
29.0283 294
29.04841 337
29.06853 305
29.08864 350
29.10875 307
29.12887 300
29.14898 345
29.16909 350
29.18921 339
29.20932 374
29.22943 320
29.24955 307
29.26966 315
29.28978 315
29.30989 294
29.33 287
29.35012 310
29.37023 361
29.39034 310
29.41046 341
29.43057 314
29.45069 318
29.4708 361
29.49091 353
29.51103 361
29.53114 304
29.55125 311
29.57137 301
29.59148 340
29.6116 345
29.63171 322
29.65182 350
29.67194 372
29.69205 323
29.71216 355
29.73228 381
29.75239 421
29.7725 425
29.79262 433
29.81273 409
29.83285 449
29.85296 470
29.87307 439
29.89319 408
29.9133 424
29.93341 460
29.95353 457
29.97364 504
29.99376 484
30.01387 527
30.03398 555
30.0541 607
30.07421 652
30.09432 626
30.11444 619
30.13455 598
30.15467 619
30.17478 566
30.19489 559
30.21501 609
30.23512 510
30.25523 543
30.27535 504
30.29546 540
30.31557 554
30.33569 547
30.3558 577
30.37592 620
30.39603 679
30.41614 663
30.43626 736
30.45637 759
30.47648 750
30.4966 795
30.51671 678
30.53683 618
30.55694 655
30.57705 612
30.59717 546
30.61728 529
30.63739 512
30.65751 524
30.67762 621
30.69773 628
30.71785 705
30.73796 743
30.75808 755
30.77819 857
30.7983 857
30.81842 863
30.83853 811
30.85864 745
30.87876 683
30.89887 559
30.91899 545
30.9391 444
30.95921 406
30.97933 411
30.99944 399
31.01955 372
31.03967 340
31.05978 345
31.0799 384
31.10001 425
31.12012 411
31.14024 443
31.16035 470
31.18046 456
31.20058 495
31.22069 509
31.2408 451
31.26092 464
31.28103 456
31.30115 440
31.32126 408
31.34137 369
31.36149 398
31.3816 333
31.40171 335
31.42183 357
31.44194 355
31.46206 366
31.48217 334
31.50228 368
31.5224 301
31.54251 321
31.56262 341
31.58274 353
31.60285 361
31.62297 353
31.64308 358
31.66319 396
31.68331 406
31.70342 393
31.72353 438
31.74365 467
31.76376 439
31.78387 467
31.80399 479
31.8241 437
31.84422 437
31.86433 460
31.88444 376
31.90456 382
31.92467 365
31.94478 359
31.9649 384
31.98501 368
32.00513 363
32.02524 372
32.04535 379
32.06547 354
32.08558 355
32.10569 410
32.12581 337
32.14592 402
32.16604 309
32.18615 308
32.20626 324
32.22638 339
32.24649 293
32.2666 334
32.28672 291
32.30683 324
32.32694 314
32.34706 299
32.36717 323
32.38729 312
32.4074 323
32.42751 306
32.44763 311
32.46774 311
32.48785 299
32.50797 309
32.52808 301
32.5482 278
32.56831 317
32.58842 282
32.60854 276
32.62865 337
32.64876 261
32.66888 291
32.68899 329
32.7091 297
32.72922 322
32.74933 270
32.76945 290
32.78956 282
32.80967 330
32.82979 324
32.8499 308
32.87001 283
32.89013 326
32.91024 368
32.93036 310
32.95047 372
32.97058 379
32.9907 345
33.01081 350
33.03092 350
33.05104 358
33.07115 367
33.09127 354
33.11138 360
33.13149 358
33.15161 360
33.17172 378
33.19183 335
33.21195 434
33.23206 418
33.25217 432
33.27229 440
33.2924 468
33.31252 450
33.33263 450
33.35274 461
33.37286 442
33.39297 433
33.41308 433
33.4332 366
33.45331 367
33.47343 406
33.49354 349
33.51365 333
33.53377 339
33.55388 328
33.57399 340
33.59411 358
33.61422 355
33.63434 375
33.65445 417
33.67456 403
33.69468 411
33.71479 398
33.7349 411
33.75502 423
33.77513 450
33.79524 437
33.81536 462
33.83547 404
33.85559 493
33.8757 470
33.89581 463
33.91593 486
33.93604 436
33.95615 440
33.97627 432
33.99638 433
34.0165 448
34.03661 430
34.05672 449
34.07684 454
34.09695 463
34.11706 500
34.13718 536
34.15729 546
34.17741 553
34.19752 584
34.21763 595
34.23775 651
34.25786 593
34.27797 590
34.29809 614
34.3182 605
34.33831 577
34.35843 580
34.37854 573
34.39866 609
34.41877 633
34.43888 583
34.459 606
34.47911 651
34.49922 561
34.51934 555
34.53945 564
34.55957 509
34.57968 466
34.59979 442
34.61991 401
34.64002 404
34.66013 393
34.68025 407
34.70036 420
34.72047 406
34.74059 398
34.7607 399
34.78082 442
34.80093 448
34.82104 479
34.84116 503
34.86127 506
34.88138 552
34.9015 540
34.92161 539
34.94173 569
34.96184 579
34.98195 588
35.00207 602
35.02218 565
35.04229 491
35.06241 526
35.08252 462
35.10264 467
35.12275 434
35.14286 415
35.16298 389
35.18309 398
35.2032 403
35.22332 384
35.24343 404
35.26354 433
35.28366 415
35.30377 391
35.32389 434
35.344 424
35.36411 439
35.38423 449
35.40434 479
35.42445 485
35.44457 412
35.46468 416
35.4848 378
35.50491 351
35.52502 402
35.54514 395
35.56525 393
35.58536 375
35.60548 402
35.62559 360
35.64571 390
35.66582 405
35.68593 401
35.70605 354
35.72616 392
35.74627 425
35.76639 338
35.7865 370
35.80661 375
35.82673 338
35.84684 372
35.86696 375
35.88707 343
35.90718 343
35.9273 330
35.94741 363
35.96752 305
35.98764 328
36.00775 352
36.02787 336
36.04798 334
36.06809 349
36.08821 340
36.10832 356
36.12843 363
36.14855 324
36.16866 345
36.18878 381
36.20889 348
36.229 348
36.24912 342
36.26923 352
36.28934 411
36.30946 393
36.32957 425
36.34968 427
36.3698 464
36.38991 545
36.41003 581
36.43014 675
36.45025 779
36.47037 860
36.49048 977
36.51059 979
36.53071 944
36.55082 908
36.57094 795
36.59105 740
36.61116 704
36.63128 663
36.65139 598
36.6715 574
36.69162 537
36.71173 524
36.73184 526
36.75196 474
36.77207 516
36.79219 502
36.8123 491
36.83241 453
36.85253 455
36.87264 436
36.89275 453
36.91287 486
36.93298 484
36.9531 522
36.97321 456
36.99332 430
37.01344 410
37.03355 431
37.05366 401
37.07378 378
37.09389 411
37.11401 363
37.13412 364
37.15423 405
37.17435 393
37.19446 414
37.21457 391
37.23469 423
37.2548 419
37.27491 468
37.29503 509
37.31514 497
37.33526 530
37.35537 599
37.37548 575
37.3956 550
37.41571 564
37.43582 543
37.45594 543
37.47605 473
37.49617 452
37.51628 488
37.53639 475
37.55651 465
37.57662 432
37.59673 438
37.61685 457
37.63696 436
37.65708 409
37.67719 450
37.6973 403
37.71742 345
37.73753 373
37.75764 390
37.77776 349
37.79787 382
37.81798 352
37.8381 340
37.85821 327
37.87833 327
37.89844 293
37.91855 315
37.93867 294
37.95878 318
37.97889 302
37.99901 312
38.01912 292
38.03924 289
38.05935 271
38.07946 298
38.09958 264
38.11969 286
38.1398 279
38.15992 300
38.18003 272
38.20015 288
38.22026 294
38.24037 289
38.26049 263
38.2806 302
38.30071 302
38.32083 319
38.34094 302
38.36105 311
38.38117 312
38.40128 286
38.4214 309
38.44151 309
38.46162 309
38.48174 307
38.50185 312
38.52196 342
38.54208 290
38.56219 295
38.58231 329
38.60242 300
38.62253 337
38.64265 316
38.66276 358
38.68287 347
38.70299 348
38.7231 337
38.74321 388
38.76333 373
38.78344 354
38.80356 377
38.82367 371
38.84378 396
38.8639 390
38.88401 375
38.90412 332
38.92424 319
38.94435 351
38.96447 331
38.98458 336
39.00469 356
39.02481 360
39.04492 365
39.06503 390
39.08515 406
39.10526 402
39.12538 387
39.14549 375
39.1656 392
39.18572 452
39.20583 447
39.22594 417
39.24606 469
39.26617 423
39.28628 508
39.3064 514
39.32651 571
39.34663 606
39.36674 707
39.38685 715
39.40697 778
39.42708 827
39.44719 827
39.46731 761
39.48742 678
39.50754 605
39.52765 588
39.54776 581
39.56788 460
39.58799 417
39.6081 374
39.62822 310
39.64833 341
39.66845 324
39.68856 323
39.70867 281
39.72879 349
39.7489 313
39.76901 323
39.78913 338
39.80924 344
39.82935 300
39.84947 314
39.86958 333
39.8897 298
39.90981 318
39.92992 337
39.95004 330
39.97015 306
39.99026 337
40.01038 347
40.03049 315
40.05061 346
40.07072 339
40.09083 381
40.11095 360
40.13106 335
40.15117 387
40.17129 439
40.1914 469
40.21152 490
40.23163 485
40.25174 537
40.27186 512
40.29197 501
40.31208 454
40.3322 411
40.35231 420
40.37242 407
40.39254 367
40.41265 345
40.43277 291
40.45288 298
40.47299 296
40.49311 281
40.51322 301
40.53333 275
40.55345 263
40.57356 291
40.59368 278
40.61379 295
40.6339 314
40.65402 299
40.67413 299
40.69424 286
40.71436 285
40.73447 265
40.75458 264
40.7747 258
40.79481 317
40.81493 291
40.83504 286
40.85515 277
40.87527 300
40.89538 307
40.91549 303
40.93561 296
40.95572 270
40.97584 268
40.99595 285
41.01606 308
41.03618 324
41.05629 347
41.0764 307
41.09652 340
41.11663 342
41.13675 327
41.15686 373
41.17697 391
41.19709 350
41.2172 354
41.23731 346
41.25743 380
41.27754 363
41.29765 350
41.31777 340
41.33788 331
41.358 367
41.37811 353
41.39822 339
41.41834 357
41.43845 360
41.45856 359
41.47868 364
41.49879 338
41.51891 377
41.53902 368
41.55913 394
41.57925 391
41.59936 438
41.61947 412
41.63959 461
41.6597 434
41.67982 439
41.69993 427
41.72004 412
41.74016 396
41.76027 411
41.78038 394
41.8005 370
41.82061 365
41.84072 372
41.86084 353
41.88095 366
41.90107 351
41.92118 334
41.94129 312
41.96141 317
41.98152 316
42.00163 325
42.02175 321
42.04186 311
42.06198 325
42.08209 305
42.1022 309
42.12232 335
42.14243 344
42.16254 337
42.18266 354
42.20277 382
42.22289 364
42.243 376
42.26311 435
42.28323 483
42.30334 472
42.32345 578
42.34357 631
42.36368 613
42.38379 658
42.40391 750
42.42402 811
42.44414 727
42.46425 664
42.48436 608
42.50448 567
42.52459 535
42.5447 534
42.56482 468
42.58493 449
42.60505 409
42.62516 418
42.64527 415
42.66539 409
42.6855 399
42.70561 444
42.72573 426
42.74584 389
42.76595 352
42.78607 347
42.80618 387
42.8263 372
42.84641 361
42.86652 367
42.88664 352
42.90675 331
42.92686 349
42.94698 340
42.96709 303
42.98721 305
43.00732 334
43.02743 276
43.04755 285
43.06766 306
43.08777 267
43.10789 280
43.128 289
43.14812 297
43.16823 272
43.18834 277
43.20846 278
43.22857 280
43.24868 284
43.2688 260
43.28891 294
43.30902 280
43.32914 259
43.34925 279
43.36937 272
43.38948 279
43.40959 332
43.42971 304
43.44982 291
43.46993 326
43.49005 320
43.51016 365
43.53028 321
43.55039 315
43.5705 296
43.59062 336
43.61073 331
43.63084 345
43.65096 343
43.67107 296
43.69119 274
43.7113 317
43.73141 318
43.75153 288
43.77164 281
43.79175 289
43.81187 291
43.83198 243
43.85209 271
43.87221 287
43.89232 264
43.91244 262
43.93255 286
43.95266 273
43.97278 285
43.99289 273
44.013 253
44.03312 283
44.05323 244
44.07335 275
44.09346 272
44.11357 274
44.13369 273
44.1538 295
44.17391 277
44.19403 281
44.21414 265
44.23426 285
44.25437 268
44.27448 290
44.2946 279
44.31471 281
44.33482 250
44.35494 250
44.37505 256
44.39516 264
44.41528 250
44.43539 249
44.45551 245
44.47562 282
44.49573 254
44.51585 265
44.53596 278
44.55607 255
44.57619 276
44.5963 279
44.61642 311
44.63653 272
44.65664 299
44.67676 264
44.69687 276
44.71698 283
44.7371 274
44.75721 286
44.77732 305
44.79744 277
44.81755 262
44.83767 264
44.85778 278
44.87789 314
44.89801 281
44.91812 274
44.93823 297
44.95835 303
44.97846 313
44.99858 298
45.01869 332
45.0388 295
45.05892 334
45.07903 321
45.09914 333
45.11926 340
45.13937 380
45.15949 290
45.1796 325
45.19971 341
45.21983 352
45.23994 320
45.26005 335
45.28017 351
45.30028 332
45.32039 349
45.34051 317
45.36062 354
45.38074 362
45.40085 359
45.42096 337
45.44108 367
45.46119 374
45.4813 374
45.50142 374
45.52153 343
45.54165 369
45.56176 377
45.58187 399
45.60199 413
45.6221 419
45.64221 414
45.66233 461
45.68244 482
45.70256 526
45.72267 533
45.74278 529
45.7629 542
45.78301 513
45.80312 488
45.82324 434
45.84335 412
45.86346 388
45.88358 418
45.90369 405
45.92381 339
45.94392 335
45.96403 303
45.98415 306
46.00426 303
46.02437 293
46.04449 246
46.0646 307
46.08472 265
46.10483 300
46.12494 304
46.14506 277
46.16517 225
46.18528 274
46.2054 272
46.22551 280
46.24563 257
46.26574 296
46.28585 259
46.30597 259
46.32608 264
46.34619 262
46.36631 248
46.38642 260
46.40653 221
46.42665 250
46.44676 275
46.46688 276
46.48699 239
46.5071 216
46.52722 220
46.54733 264
46.56744 266
46.58756 231
46.60767 236
46.62779 251
46.6479 264
46.66801 241
46.68813 235
46.70824 238
46.72835 227
46.74847 256
46.76858 266
46.78869 262
46.80881 265
46.82892 230
46.84904 255
46.86915 233
46.88926 257
46.90938 232
46.92949 248
46.9496 251
46.96972 244
46.98983 247
47.00995 298
47.03006 269
47.05017 264
47.07029 257
47.0904 259
47.11051 286
47.13063 296
47.15074 265
47.17086 269
47.19097 278
47.21108 266
47.2312 260
47.25131 279
47.27142 236
47.29154 236
47.31165 254
47.33176 281
47.35188 271
47.37199 282
47.39211 257
47.41222 247
47.43233 271
47.45245 249
47.47256 242
47.49267 266
47.51279 272
47.5329 258
47.55302 265
47.57313 249
47.59324 303
47.61336 265
47.63347 291
47.65358 267
47.6737 251
47.69381 277
47.71393 265
47.73404 290
47.75415 279
47.77427 268
47.79438 275
47.81449 311
47.83461 302
47.85472 330
47.87483 333
47.89495 350
47.91506 354
47.93518 331
47.95529 336
47.9754 358
47.99552 359
48.01563 335
48.03574 350
48.05586 350
48.07597 334
48.09609 378
48.1162 372
48.13631 352
48.15643 353
48.17654 368
48.19665 312
48.21677 323
48.23688 350
48.257 340
48.27711 336
48.29722 312
48.31734 348
48.33745 351
48.35756 313
48.37768 340
48.39779 338
48.4179 318
48.43802 332
48.45813 301
48.47825 345
48.49836 356
48.51847 364
48.53859 372
48.5587 333
48.57881 371
48.59893 328
48.61904 317
48.63916 312
48.65927 304
48.67938 305
48.6995 304
48.71961 317
48.73972 267
48.75984 318
48.77995 275
48.80006 280
48.82018 284
48.84029 302
48.86041 301
48.88052 292
48.90063 236
48.92075 286
48.94086 287
48.96097 284
48.98109 278
49.0012 256
49.02132 270
49.04143 305
49.06154 346
49.08166 333
49.10177 315
49.12188 339
49.142 351
49.16211 347
49.18223 355
49.20234 365
49.22245 337
49.24257 338
49.26268 314
49.28279 332
49.30291 311
49.32302 295
49.34313 310
49.36325 301
49.38336 287
49.40348 258
49.42359 331
49.4437 282
49.46382 304
49.48393 274
49.50404 294
49.52416 282
49.54427 302
49.56439 337
49.5845 300
49.60461 321
49.62473 339
49.64484 372
49.66495 353
49.68507 370
49.70518 367
49.7253 399
49.74541 413
49.76552 412
49.78564 452
49.80575 449
49.82586 488
49.84598 486
49.86609 529
49.8862 520
49.90632 579
49.92643 585
49.94655 654
49.96666 702
49.98677 811
50.00689 865
50.027 926
50.04711 1076
50.06723 1100
50.08734 1198
50.10746 1170
50.12757 1059
50.14768 914
50.1678 851
50.18791 703
50.20802 722
50.22814 683
50.24825 637
50.26837 570
50.28848 462
50.30859 372
50.32871 339
50.34882 305
50.36893 328
50.38905 304
50.40916 341
50.42927 357
50.44939 357
50.4695 349
50.48962 338
50.50973 362
50.52984 408
50.54996 412
50.57007 366
50.59018 332
50.6103 341
50.63041 344
50.65053 341
50.67064 291
50.69075 344
50.71087 325
50.73098 286
50.75109 294
50.77121 263
50.79132 280
50.81143 271
50.83155 267
50.85166 265
50.87178 258
50.89189 268
50.912 265
50.93212 277
50.95223 303
50.97234 309
50.99246 270
51.01257 337
51.03269 332
51.0528 365
51.07291 370
51.09303 438
51.11314 419
51.13325 432
51.15337 397
51.17348 345
51.1936 353
51.21371 402
51.23382 320
51.25394 358
51.27405 303
51.29416 291
51.31428 290
51.33439 282
51.3545 290
51.37462 284
51.39473 240
51.41485 289
51.43496 272
51.45507 274
51.47519 269
51.4953 288
51.51541 257
51.53553 258
51.55564 271
51.57576 261
51.59587 249
51.61598 226
51.6361 266
51.65621 272
51.67632 251
51.69644 248
51.71655 246
51.73667 245
51.75678 239
51.77689 243
51.79701 238
51.81712 262
51.83723 267
51.85735 231
51.87746 249
51.89757 261
51.91769 260
51.9378 236
51.95792 283
51.97803 264
51.99814 270
52.01826 282
52.03837 266
52.05848 295
52.0786 278
52.09871 283
52.11883 296
52.13894 281
52.15905 269
52.17917 303
52.19928 260
52.21939 313
52.23951 293
52.25962 269
52.27974 295
52.29985 297
52.31996 282
52.34008 275
52.36019 300
52.3803 285
52.40042 310
52.42053 272
52.44064 285
52.46076 266
52.48087 333
52.50099 258
52.5211 298
52.54121 316
52.56133 290
52.58144 257
52.60155 288
52.62167 250
52.64178 252
52.6619 294
52.68201 309
52.70212 272
52.72224 271
52.74235 293
52.76246 262
52.78258 250
52.80269 269
52.8228 272
52.84292 290
52.86303 276
52.88315 265
52.90326 283
52.92337 261
52.94349 252
52.9636 250
52.98371 263
53.00383 295
53.02394 299
53.04406 309
53.06417 290
53.08428 307
53.1044 298
53.12451 305
53.14462 335
53.16474 339
53.18485 337
53.20497 310
53.22508 301
53.24519 298
53.26531 308
53.28542 283
53.30553 304
53.32565 286
53.34576 309
53.36587 290
53.38599 285
53.4061 297
53.42622 264
53.44633 269
53.46644 241
53.48656 271
53.50667 258
53.52678 240
53.5469 265
53.56701 269
53.58713 258
53.60724 296
53.62735 245
53.64747 276
53.66758 275
53.68769 260
53.70781 279
53.72792 280
53.74804 277
53.76815 261
53.78826 278
53.80838 276
53.82849 260
53.8486 242
53.86872 273
53.88883 279
53.90894 269
53.92906 298
53.94917 302
53.96929 268
53.9894 276
54.00951 287
54.02963 281
54.04974 287
54.06985 285
54.08997 280
54.11008 258
54.1302 283
54.15031 308
54.17042 298
54.19054 296
54.21065 301
54.23076 298
54.25088 304
54.27099 330
54.29111 321
54.31122 329
54.33133 291
54.35145 318
54.37156 319
54.39167 287
54.41179 315
54.4319 326
54.45201 331
54.47213 313
54.49224 331
54.51236 313
54.53247 325
54.55258 295
54.5727 347
54.59281 354
54.61292 346
54.63304 371
54.65315 336
54.67327 430
54.69338 455
54.71349 445
54.73361 490
54.75372 489
54.77383 499
54.79395 519
54.81406 562
54.83417 529
54.85429 539
54.8744 469
54.89452 469
54.91463 405
54.93474 435
54.95486 501
54.97497 456
54.99508 416
55.0152 412
55.03531 405
55.05543 375
55.07554 339
55.09565 322
55.11577 347
55.13588 349
55.15599 336
55.17611 351
55.19622 394
55.21634 351
55.23645 398
55.25656 376
55.27668 383
55.29679 422
55.3169 373
55.33702 350
55.35713 334
55.37724 325
55.39736 327
55.41747 352
55.43759 295
55.4577 311
55.47781 277
55.49793 296
55.51804 280
55.53815 303
55.55827 286
55.57838 302
55.5985 274
55.61861 316
55.63872 278
55.65884 311
55.67895 296
55.69906 291
55.71918 289
55.73929 313
55.75941 322
55.77952 293
55.79963 289
55.81975 318
55.83986 311
55.85997 324
55.88009 331
55.9002 349
55.92031 337
55.94043 332
55.96054 365
55.98066 357
56.00077 370
56.02088 355
56.041 387
56.06111 337
56.08122 364
56.10134 349
56.12145 340
56.14157 335
56.16168 357
56.18179 300
56.20191 300
56.22202 320
56.24213 329
56.26225 315
56.28236 317
56.30248 289
56.32259 289
56.3427 294
56.36282 276
56.38293 290
56.40304 311
56.42316 322
56.44327 306
56.46338 315
56.4835 315
56.50361 293
56.52373 278
56.54384 297
56.56395 304
56.58407 301
56.60418 294
56.62429 297
56.64441 292
56.66452 296
56.68464 312
56.70475 273
56.72486 310
56.74498 292
56.76509 268
56.7852 288
56.80532 252
56.82543 263
56.84554 265
56.86566 273
56.88577 247
56.90589 254
56.926 278
56.94611 257
56.96623 238
56.98634 231
57.00645 270
57.02657 273
57.04668 264
57.0668 270
57.08691 249
57.10702 243
57.12714 255
57.14725 258
57.16736 272
57.18748 278
57.20759 249
57.22771 285
57.24782 252
57.26793 264
57.28805 229
57.30816 252
57.32827 247
57.34839 249
57.3685 272
57.38861 271
57.40873 251
57.42884 247
57.44896 233
57.46907 270
57.48918 268
57.5093 274
57.52941 269
57.54952 256
57.56964 265
57.58975 289
57.60987 252
57.62998 258
57.65009 281
57.67021 252
57.69032 265
57.71043 260
57.73055 283
57.75066 273
57.77078 283
57.79089 277
57.811 292
57.83112 304
57.85123 276
57.87134 284
57.89146 291
57.91157 289
57.93168 312
57.9518 281
57.97191 298
57.99203 303
58.01214 325
58.03225 287
58.05237 296
58.07248 333
58.09259 297
58.11271 278
58.13282 297
58.15294 298
58.17305 302
58.19316 290
58.21328 297
58.23339 319
58.2535 283
58.27362 299
58.29373 286
58.31385 292
58.33396 285
58.35407 262
58.37419 291
58.3943 321
58.41441 325
58.43453 314
58.45464 312
58.47475 276
58.49487 303
58.51498 321
58.5351 288
58.55521 308
58.57532 304
58.59544 291
58.61555 288
58.63566 322
58.65578 283
58.67589 265
58.69601 291
58.71612 275
58.73623 291
58.75635 267
58.77646 283
58.79657 261
58.81669 253
58.8368 235
58.85691 229
58.87703 275
58.89714 236
58.91726 256
58.93737 265
58.95748 252
58.9776 251
58.99771 238
59.01782 268
59.03794 268
59.05805 282
59.07817 242
59.09828 284
59.11839 267
59.13851 265
59.15862 281
59.17873 249
59.19885 258
59.21896 274
59.23908 260
59.25919 245
59.2793 254
59.29942 273
59.31953 293
59.33964 277
59.35976 256
59.37987 264
59.39998 273
59.4201 273
59.44021 256
59.46033 277
59.48044 291
59.50055 285
59.52067 269
59.54078 245
59.56089 268
59.58101 286
59.60112 264
59.62124 286
59.64135 326
59.66146 337
59.68158 367
59.70169 341
59.7218 427
59.74192 424
59.76203 507
59.78215 517
59.80226 550
59.82237 635
59.84249 655
59.8626 758
59.88271 719
59.90283 787
59.92294 777
59.94305 712
59.96317 624
59.98328 537
60.0034 534
60.02351 563
60.04362 504
60.06374 553
60.08385 535
60.10396 527
60.12408 433
60.14419 472
60.16431 406
60.18442 384
60.20453 375
60.22465 386
60.24476 381
60.26487 360
60.28499 368
60.3051 375
60.32522 391
60.34533 380
60.36544 375
60.38556 329
60.40567 359
60.42578 344
60.4459 285
60.46601 298
60.48612 306
60.50624 297
60.52635 282
60.54647 311
60.56658 290
60.58669 307
60.60681 302
60.62692 283
60.64703 279
60.66715 254
60.68726 264
60.70738 246
60.72749 230
60.7476 264
60.76772 262
60.78783 246
60.80794 258
60.82806 294
60.84817 281
60.86828 292
60.8884 277
60.90851 266
60.92863 281
60.94874 257
60.96885 269
60.98897 271
61.00908 285
61.02919 251
61.04931 255
61.06942 261
61.08954 256
61.10965 297
61.12976 262
61.14988 256
61.16999 251
61.1901 299
61.21022 263
61.23033 287
61.25045 291
61.27056 279
61.29067 260
61.31079 328
61.3309 272
61.35101 304
61.37113 307
61.39124 329
61.41135 319
61.43147 329
61.45158 302
61.4717 275
61.49181 322
61.51192 305
61.53204 288
61.55215 308
61.57226 312
61.59238 309
61.61249 290
61.63261 312
61.65272 267
61.67283 279
61.69295 298
61.71306 328
61.73317 264
61.75329 265
61.7734 266
61.79352 277
61.81363 277
61.83374 240
61.85386 277
61.87397 244
61.89408 244
61.9142 251
61.93431 244
61.95442 229
61.97454 274
61.99465 251
62.01477 265
62.03488 234
62.05499 223
62.07511 261
62.09522 249
62.11533 279
62.13545 282
62.15556 242
62.17568 241
62.19579 236
62.2159 265
62.23602 264
62.25613 269
62.27624 235
62.29636 252
62.31647 232
62.33659 250
62.3567 268
62.37681 303
62.39693 236
62.41704 243
62.43715 259
62.45727 238
62.47738 241
62.49749 257
62.51761 251
62.53772 252
62.55784 238
62.57795 259
62.59806 215
62.61818 250
62.63829 238
62.6584 226
62.67852 222
62.69863 224
62.71875 206
62.73886 256
62.75897 240
62.77909 236
62.7992 231
62.81931 254
62.83943 233
62.85954 250
62.87965 224
62.89977 247
62.91988 264
62.94 227
62.96011 257
62.98022 260
63.00034 267
63.02045 256
63.04056 249
63.06068 250
63.08079 248
63.10091 237
63.12102 248
63.14113 270
63.16125 250
63.18136 245
63.20147 264
63.22159 264
63.2417 220
63.26182 262
63.28193 297
63.30204 281
63.32216 295
63.34227 278
63.36238 291
63.3825 288
63.40261 285
63.42272 318
63.44284 295
63.46295 282
63.48307 302
63.50318 309
63.52329 316
63.54341 314
63.56352 321
63.58363 307
63.60375 318
63.62386 334
63.64398 319
63.66409 326
63.6842 337
63.70432 340
63.72443 343
63.74454 354
63.76466 361
63.78477 353
63.80489 337
63.825 348
63.84511 368
63.86523 362
63.88534 335
63.90545 329
63.92557 374
63.94568 369
63.96579 391
63.98591 373
64.00602 368
64.02614 379
64.04625 356
64.06636 325
64.08648 306
64.10659 288
64.1267 304
64.14682 332
64.16693 295
64.18705 292
64.20716 294
64.22727 257
64.24739 254
64.2675 242
64.28761 239
64.30773 244
64.32784 243
64.34796 253
64.36807 224
64.38818 237
64.4083 236
64.42841 242
64.44852 227
64.46864 248
64.48875 254
64.50886 255
64.52898 235
64.54909 257
64.56921 298
64.58932 255
64.60943 255
64.62955 264
64.64966 263
64.66977 271
64.68989 287
64.71 282
64.73012 295
64.75023 285
64.77034 285
64.79046 247
64.81057 286
64.83068 273
64.8508 241
64.87091 236
64.89102 267
64.91114 270
64.93125 238
64.95137 282
64.97148 271
64.99159 286
65.01171 276
65.03182 256
65.05193 274
65.07205 256
65.09216 301
65.11228 280
65.13239 285
65.1525 297
65.17262 289
65.19273 279
65.21284 287
65.23296 257
65.25307 286
65.27319 267
65.2933 269
65.31341 270
65.33353 278
65.35364 241
65.37375 289
65.39387 263
65.41398 246
65.43409 230
65.45421 276
65.47432 277
65.49444 237
65.51455 262
65.53466 241
65.55478 238
65.57489 234
65.595 254
65.61512 267
65.63523 253
65.65535 271
65.67546 247
65.69557 246
65.71569 273
65.7358 255
65.75591 256
65.77603 264
65.79614 243
65.81626 254
65.83637 255
65.85648 235
65.8766 244
65.89671 269
65.91682 234
65.93694 236
65.95705 240
65.97716 240
65.99728 257
66.01739 226
66.03751 282
66.05762 243
66.07773 265
66.09785 259
66.11796 274
66.13807 222
66.15819 252
66.1783 236
66.19842 229
66.21853 259
66.23864 286
66.25876 272
66.27887 277
66.29898 251
66.3191 256
66.33921 278
66.35933 271
66.37944 307
66.39955 266
66.41967 310
66.43978 296
66.45989 291
66.48001 289
66.50012 278
66.52023 245
66.54035 250
66.56046 272
66.58058 266
66.60069 230
66.6208 265
66.64092 258
66.66103 265
66.68114 266
66.70126 239
66.72137 285
66.74149 269
66.7616 251
66.78171 252
66.80183 268
66.82194 240
66.84205 275
66.86217 275
66.88228 237
66.90239 269
66.92251 277
66.94262 247
66.96274 270
66.98285 287
67.00296 271
67.02308 276
67.04319 321
67.0633 290
67.08342 302
67.10353 280
67.12365 324
67.14376 299
67.16387 265
67.18399 313
67.2041 307
67.22421 280
67.24433 277
67.26444 314
67.28456 264
67.30467 263
67.32478 292
67.3449 270
67.36501 268
67.38512 274
67.40524 273
67.42535 267
67.44546 285
67.46558 281
67.48569 312
67.50581 318
67.52592 377
67.54603 377
67.56615 397
67.58626 400
67.60637 446
67.62649 453
67.6466 514
67.66672 538
67.68683 510
67.70694 546
67.72706 535
67.74717 458
67.76728 409
67.7874 413
67.80751 419
67.82763 443
67.84774 424
67.86785 476
67.88797 478
67.90808 473
67.92819 435
67.94831 481
67.96842 500
67.98853 526
68.00865 554
68.02876 591
68.04888 600
68.06899 623
68.0891 587
68.10922 602
68.12933 638
68.14944 589
68.16956 554
68.18967 562
68.20979 589
68.2299 576
68.25001 649
68.27013 604
68.29024 595
68.31035 525
68.33047 497
68.35058 437
68.3707 375
68.39081 367
68.41092 357
68.43104 377
68.45115 363
68.47126 342
68.49138 362
68.51149 312
68.5316 314
68.55172 287
68.57183 284
68.59195 266
68.61206 261
68.63217 245
68.65229 269
68.6724 278
68.69251 232
68.71263 267
68.73274 259
68.75286 277
68.77297 274
68.79308 262
68.8132 299
68.83331 242
68.85342 265
68.87354 270
68.89365 267
68.91376 259
68.93388 238
68.95399 248
68.97411 260
68.99422 264
69.01433 282
69.03445 251
69.05456 260
69.07467 245
69.09479 242
69.1149 247
69.13502 253
69.15513 269
69.17524 227
69.19536 264
69.21547 250
69.23558 272
69.2557 272
69.27581 301
69.29593 262
69.31604 292
69.33615 304
69.35627 300
69.37638 332
69.39649 329
69.41661 319
69.43672 320
69.45683 275
69.47695 289
69.49706 308
69.51718 287
69.53729 293
69.5574 266
69.57752 284
69.59763 296
69.61774 294
69.63786 261
69.65797 255
69.67809 250
69.6982 268
69.71831 250
69.73843 251
69.75854 279
69.77865 269
69.79877 275
69.81888 295
69.839 289
69.85911 296
69.87922 270
69.89934 300
69.91945 266
69.93956 248
69.95968 252
69.97979 227
69.9999 245
70.02002 250
70.04013 243
70.06025 224
70.08036 240
70.10047 259
70.12059 205
70.1407 231
70.16081 239
70.18093 238
70.20104 246
70.22116 215
70.24127 221
70.26138 225
70.2815 216
70.30161 213
70.32172 215
70.34184 231
70.36195 203
70.38207 204
70.40218 196
70.42229 202
70.44241 227
70.46252 207
70.48263 231
70.50275 221
70.52286 230
70.54297 229
70.56309 224
70.5832 210
70.60332 219
70.62343 247
70.64354 242
70.66366 227
70.68377 271
70.70388 240
70.724 233
70.74411 235
70.76423 257
70.78434 260
70.80445 219
70.82457 265
70.84468 265
70.86479 214
70.88491 233
70.90502 283
70.92513 201
70.94525 258
70.96536 208
70.98548 234
71.00559 245
71.0257 262
71.04582 227
71.06593 267
71.08604 277
71.10616 268
71.12627 266
71.14639 235
71.1665 238
71.18661 242
71.20673 260
71.22684 249
71.24695 240
71.26707 222
71.28718 252
71.3073 214
71.32741 242
71.34752 224
71.36764 257
71.38775 232
71.40786 239
71.42798 222
71.44809 231
71.4682 277
71.48832 248
71.50843 240
71.52855 228
71.54866 244
71.56877 218
71.58889 217
71.609 225
71.62911 226
71.64923 239
71.66934 241
71.68946 238
71.70957 229
71.72968 231
71.7498 199
71.76991 246
71.79002 226
71.81014 214
71.83025 217
71.85037 225
71.87048 224
71.89059 218
71.91071 235
71.93082 222
71.95093 259
71.97105 226
71.99116 232
72.01127 223
72.03139 211
72.0515 212
72.07162 245
72.09173 194
72.11184 259
72.13196 237
72.15207 210
72.17218 230
72.1923 228
72.21241 225
72.23253 221
72.25264 248
72.27275 220
72.29287 202
72.31298 236
72.33309 246
72.35321 243
72.37332 233
72.39344 240
72.41355 224
72.43366 210
72.45378 233
72.47389 205
72.494 237
72.51412 206
72.53423 257
72.55434 219
72.57446 235
72.59457 239
72.61469 217
72.6348 220
72.65491 242
72.67503 201
72.69514 222
72.71525 235
72.73537 233
72.75548 227
72.7756 240
72.79571 246
72.81582 248
72.83594 229
72.85605 248
72.87616 239
72.89628 272
72.91639 266
72.9365 237
72.95662 222
72.97673 258
72.99685 254
73.01696 224
73.03707 247
73.05719 235
73.0773 238
73.09741 253
73.11753 258
73.13764 238
73.15776 242
73.17787 271
73.19798 247
73.2181 231
73.23821 262
73.25832 244
73.27844 278
73.29855 266
73.31867 289
73.33878 304
73.35889 300
73.37901 257
73.39912 310
73.41923 302
73.43935 305
73.45946 288
73.47957 268
73.49969 264
73.5198 300
73.53992 273
73.56003 267
73.58014 280
73.60026 271
73.62037 266
73.64048 243
73.6606 277
73.68071 261
73.70083 229
73.72094 244
73.74105 224
73.76117 265
73.78128 247
73.80139 242
73.82151 248
73.84162 240
73.86174 223
73.88185 249
73.90196 249
73.92208 228
73.94219 229
73.9623 229
73.98242 254
74.00253 229
74.02264 234
74.04276 216
74.06287 230
74.08299 256
74.1031 255
74.12321 234
74.14333 205
74.16344 232
74.18355 214
74.20367 238
74.22378 233
74.2439 231
74.26401 245
74.28412 248
74.30424 224
74.32435 227
74.34446 225
74.36458 247
74.38469 224
74.40481 227
74.42492 231
74.44503 230
74.46515 226
74.48526 267
74.50537 251
74.52549 223
74.5456 250
74.56571 234
74.58583 260
74.60594 245
74.62606 276
74.64617 245
74.66628 281
74.6864 270
74.70651 280
74.72662 254
74.74674 272
74.76685 266
74.78697 266
74.80708 256
74.82719 254
74.84731 248
74.86742 240
74.88753 226
74.90765 249
74.92776 264
74.94787 233
74.96799 256
74.9881 225
75.00822 229
