3.00117 21003
3.02128 19933
3.0414 19745
3.06151 19100
3.08162 18225
3.10174 18498
3.12185 17616
3.14197 16739
3.16208 16580
3.18219 15915
3.20231 15792
3.22242 15150
3.24253 14662
3.26265 14377
3.28276 13541
3.30288 13156
3.32299 12819
3.3431 12547
3.36322 12049
3.38333 11448
3.40344 11352
3.42356 10871
3.44367 10514
3.46379 10379
3.4839 9580
3.50401 9556
3.52413 9237
3.54424 8818
3.56435 8716
3.58447 8076
3.60458 7951
3.62469 7658
3.64481 7403
3.66492 7116
3.68504 6575
3.70515 6468
3.72526 6212
3.74538 5851
3.76549 6040
3.7856 5508
3.80572 5563
3.82583 5154
3.84595 4705
3.86606 4642
3.88617 4511
3.90629 4361
3.9264 4020
3.94651 3987
3.96663 3613
3.98674 3404
4.00686 3615
4.02697 3307
4.04708 3222
4.0672 3034
4.08731 2842
4.10742 2768
4.12754 2780
4.14765 2469
4.16776 2370
4.18788 2287
4.20799 2258
4.22811 2287
4.24822 2060
4.26833 1970
4.28845 1888
4.30856 1856
4.32867 1894
4.34879 1675
4.3689 1712
4.38902 1660
4.40913 1560
4.42924 1641
4.44936 1504
4.46947 1381
4.48958 1431
4.5097 1459
4.52981 1401
4.54992 1329
4.57004 1346
4.59015 1240
4.61027 1254
4.63038 1207
4.65049 1098
4.67061 1135
4.69072 1112
4.71083 1144
4.73095 1149
4.75106 1005
4.77118 1041
4.79129 1042
4.8114 935
4.83152 1009
4.85163 896
4.87174 915
4.89186 830
4.91197 844
4.93209 883
4.9522 748
4.97231 826
4.99243 796
5.01254 743
5.03265 812
5.05277 696
5.07288 750
5.09299 674
5.11311 673
5.13322 664
5.15334 647
5.17345 620
5.19356 668
5.21368 610
5.23379 568
5.2539 569
5.27402 538
5.29413 615
5.31425 525
5.33436 504
5.35447 498
5.37459 530
5.3947 527
5.41481 537
5.43493 484
5.45504 489
5.47516 473
5.49527 425
5.51538 406
5.5355 383
5.55561 441
5.57572 407
5.59584 437
5.61595 376
5.63606 323
5.65618 369
5.67629 353
5.69641 327
5.71652 356
5.73663 375
5.75675 344
5.77686 325
5.79697 333
5.81709 331
5.8372 341
5.85732 314
5.87743 300
5.89754 310
5.91766 298
5.93777 326
5.95788 325
5.978 277
5.99811 273
6.01823 309
6.03834 263
6.05845 295
6.07857 318
6.09868 270
6.11879 257
6.13891 282
6.15902 242
6.17913 265
6.19925 277
6.21936 261
6.23948 293
6.25959 246
6.2797 283
6.29982 293
6.31993 260
6.34004 277
6.36016 262
6.38027 261
6.40039 276
6.4205 284
6.44061 274
6.46073 212
6.48084 286
6.50095 263
6.52107 251
6.54118 232
6.56129 254
6.58141 244
6.60152 238
6.62164 276
6.64175 254
6.66186 242
6.68198 262
6.70209 250
6.7222 265
6.74232 261
6.76243 238
6.78255 235
6.80266 259
6.82277 264
6.84289 255
6.863 226
6.88311 248
6.90323 249
6.92334 246
6.94346 250
6.96357 247
6.98368 250
7.0038 240
7.02391 228
7.04402 282
7.06414 242
7.08425 247
7.10436 246
7.12448 270
7.14459 234
7.16471 222
7.18482 250
7.20493 228
7.22505 275
7.24516 262
7.26527 260
7.28539 305
7.3055 253
7.32562 247
7.34573 262
7.36584 250
7.38596 285
7.40607 260
7.42618 287
7.4463 257
7.46641 255
7.48653 258
7.50664 257
7.52675 251
7.54687 250
7.56698 217
7.58709 248
7.60721 267
7.62732 263
7.64743 242
7.66755 265
7.68766 243
7.70778 261
7.72789 274
7.748 242
7.76812 230
7.78823 261
7.80834 264
7.82846 261
7.84857 262
7.86869 242
7.8888 264
7.90891 282
7.92903 267
7.94914 249
7.96925 266
7.98937 236
8.00948 293
8.0296 263
8.04971 262
8.06982 278
8.08994 284
8.11005 300
8.13016 270
8.15028 294
8.17039 271
8.1905 267
8.21062 253
8.23073 277
8.25085 292
8.27096 278
8.29107 247
8.31119 248
8.3313 308
8.35141 290
8.37153 275
8.39164 274
8.41176 310
8.43187 277
8.45198 295
8.4721 294
8.49221 275
8.51232 309
8.53244 314
8.55255 304
8.57266 323
8.59278 329
8.61289 325
8.63301 361
8.65312 310
8.67323 389
8.69335 337
8.71346 362
8.73357 330
8.75369 369
8.7738 343
8.79392 373
8.81403 353
8.83414 331
8.85426 328
8.87437 334
8.89448 302
8.9146 344
8.93471 302
8.95483 333
8.97494 286
8.99505 291
9.01517 280
9.03528 279
9.05539 278
9.07551 309
9.09562 322
9.11573 275
9.13585 276
9.15596 272
9.17608 257
9.19619 261
9.2163 265
9.23642 250
9.25653 227
9.27664 251
9.29676 267
9.31687 278
9.33699 254
9.3571 259
9.37721 245
9.39733 293
9.41744 247
9.43755 257
9.45767 234
9.47778 258
9.4979 242
9.51801 261
9.53812 269
9.55824 287
9.57835 267
9.59846 283
9.61858 253
9.63869 237
9.6588 226
9.67892 259
9.69903 259
9.71915 271
9.73926 263
9.75937 284
9.77949 242
9.7996 242
9.81971 262
9.83983 264
9.85994 234
9.88006 254
9.90017 253
9.92028 244
9.9404 272
9.96051 269
9.98062 244
10.00074 235
10.02085 243
10.04097 271
10.06108 257
10.08119 244
10.10131 248
10.12142 277
10.14153 241
10.16165 257
10.18176 242
10.20187 219
10.22199 272
10.2421 249
10.26222 264
10.28233 220
10.30244 234
10.32256 260
10.34267 263
10.36278 270
10.3829 267
10.40301 235
10.42313 265
10.44324 281
10.46335 237
10.48347 229
10.50358 254
10.52369 262
10.54381 258
10.56392 255
10.58403 241
10.60415 259
10.62426 279
10.64438 268
10.66449 262
10.6846 257
10.70472 222
10.72483 220
10.74494 259
10.76506 250
10.78517 250
10.80529 248
10.8254 237
10.84551 263
10.86563 229
10.88574 248
10.90585 256
10.92597 243
10.94608 234
10.9662 229
10.98631 243
11.00642 256
11.02654 265
11.04665 243
11.06676 243
11.08688 229
11.10699 239
11.1271 231
11.14722 236
11.16733 264
11.18745 238
11.20756 261
11.22767 231
11.24779 272
11.2679 247
11.28801 281
11.30813 264
11.32824 234
11.34836 249
11.36847 231
11.38858 228
11.4087 249
11.42881 243
11.44892 281
11.46904 269
11.48915 259
11.50927 267
11.52938 262
11.54949 271
11.56961 271
11.58972 279
11.60983 262
11.62995 256
11.65006 273
11.67017 243
11.69029 274
11.7104 295
11.73052 288
11.75063 297
11.77074 281
11.79086 272
11.81097 254
11.83108 271
11.8512 290
11.87131 292
11.89143 328
11.91154 289
11.93165 304
11.95177 307
11.97188 307
11.99199 295
12.01211 295
12.03222 300
12.05234 318
12.07245 323
12.09256 362
12.11268 313
12.13279 298
12.1529 338
12.17302 348
12.19313 354
12.21324 320
12.23336 341
12.25347 333
12.27359 330
12.2937 347
12.31381 334
12.33393 363
12.35404 348
12.37415 342
12.39427 316
12.41438 301
12.4345 313
12.45461 294
12.47472 307
12.49484 300
12.51495 291
12.53506 269
12.55518 288
12.57529 262
12.5954 268
12.61552 274
12.63563 277
12.65575 254
12.67586 268
12.69597 278
12.71609 225
12.7362 241
12.75631 247
12.77643 228
12.79654 224
12.81666 228
12.83677 242
12.85688 232
12.877 256
12.89711 242
12.91722 244
12.93734 226
12.95745 242
12.97757 241
12.99768 225
13.01779 216
13.03791 225
13.05802 237
13.07813 225
13.09825 218
13.11836 204
13.13847 224
13.15859 226
13.1787 223
13.19882 206
13.21893 203
13.23904 223
13.25916 230
13.27927 225
13.29938 241
13.3195 222
13.33961 237
13.35973 220
13.37984 221
13.39995 206
13.42007 255
13.44018 208
13.46029 214
13.48041 198
13.50052 219
13.52064 207
13.54075 220
13.56086 217
13.58098 240
13.60109 235
13.6212 205
13.64132 186
13.66143 222
13.68154 218
13.70166 204
13.72177 237
13.74189 206
13.762 193
13.78211 190
13.80223 210
13.82234 205
13.84245 213
13.86257 227
13.88268 201
13.9028 214
13.92291 218
13.94302 178
13.96314 248
13.98325 200
14.00336 229
14.02348 224
14.04359 214
14.06371 206
14.08382 208
14.10393 194
14.12405 205
14.14416 224
14.16427 195
14.18439 204
14.2045 198
14.22461 197
14.24473 197
14.26484 200
14.28496 199
14.30507 190
14.32518 221
14.3453 204
14.36541 202
14.38552 207
14.40564 195
14.42575 193
14.44587 212
14.46598 219
14.48609 199
14.50621 213
14.52632 185
14.54643 231
14.56655 217
14.58666 187
14.60677 228
14.62689 177
14.647 224
14.66712 204
14.68723 189
14.70734 208
14.72746 182
14.74757 204
14.76768 212
14.7878 199
14.80791 211
14.82803 178
14.84814 203
14.86825 202
14.88837 205
14.90848 202
14.92859 207
14.94871 191
14.96882 182
14.98894 185
15.00905 181
15.02916 187
15.04928 196
15.06939 194
15.0895 189
15.10962 220
15.12973 242
15.14984 206
15.16996 205
15.19007 183
15.21019 173
15.2303 169
15.25041 184
15.27053 187
15.29064 179
15.31075 205
15.33087 199
15.35098 186
15.3711 183
15.39121 198
15.41132 213
15.43144 206
15.45155 205
15.47166 190
15.49178 191
15.51189 197
15.53201 207
15.55212 167
15.57223 198
15.59235 191
15.61246 223
15.63257 183
15.65269 205
15.6728 171
15.69291 199
15.71303 190
15.73314 174
15.75326 183
15.77337 190
15.79348 178
15.8136 167
15.83371 208
15.85382 180
15.87394 191
15.89405 200
15.91417 220
15.93428 163
15.95439 205
15.97451 204
15.99462 138
16.01473 221
16.03485 193
16.05496 184
16.07508 186
16.09519 229
16.1153 168
16.13542 208
16.15553 213
16.17564 198
16.19576 192
16.21587 200
16.23598 185
16.2561 211
16.27621 184
16.29633 189
16.31644 190
16.33655 181
16.35667 177
16.37678 170
16.39689 177
16.41701 191
16.43712 198
16.45724 215
16.47735 163
16.49746 208
16.51758 163
16.53769 200
16.5578 188
16.57792 180
16.59803 187
16.61814 165
16.63826 180
16.65837 183
16.67849 184
16.6986 163
16.71871 210
16.73883 209
16.75894 207
16.77905 192
16.79917 220
16.81928 185
16.8394 199
16.85951 182
16.87962 187
16.89974 196
16.91985 193
16.93996 198
16.96008 195
16.98019 224
17.00031 196
17.02042 200
17.04053 193
17.06065 192
17.08076 179
17.10087 203
17.12099 148
17.1411 183
17.16121 187
17.18133 220
17.20144 206
17.22156 193
17.24167 191
17.26178 192
17.2819 211
17.30201 181
17.32212 174
17.34224 194
17.36235 208
17.38247 199
17.40258 184
17.42269 169
17.44281 188
17.46292 191
17.48303 191
17.50315 176
17.52326 201
17.54338 207
17.56349 224
17.5836 183
17.60372 229
17.62383 194
17.64394 201
17.66406 247
17.68417 194
17.70428 199
17.7244 235
17.74451 223
17.76463 212
17.78474 256
17.80485 192
17.82497 208
17.84508 225
17.86519 200
17.88531 179
17.90542 200
17.92554 180
17.94565 205
17.96576 205
17.98588 193
18.00599 219
18.0261 210
18.04622 182
18.06633 182
18.08645 195
18.10656 226
18.12667 204
18.14679 210
18.1669 189
18.18701 189
18.20713 200
18.22724 182
18.24735 205
18.26747 240
18.28758 191
18.3077 159
18.32781 197
18.34792 175
18.36804 195
18.38815 200
18.40826 186
18.42838 188
18.44849 177
18.46861 194
18.48872 202
18.50883 185
18.52895 232
18.54906 182
18.56917 182
18.58929 173
18.6094 190
18.62951 184
18.64963 205
18.66974 171
18.68986 205
18.70997 207
18.73008 201
18.7502 181
18.77031 195
18.79042 237
18.81054 216
18.83065 190
18.85077 180
18.87088 179
18.89099 196
18.91111 207
18.93122 180
18.95133 196
18.97145 214
18.99156 191
19.01168 218
19.03179 198
19.0519 203
19.07202 190
19.09213 188
19.11224 192
19.13236 222
19.15247 219
19.17258 181
19.1927 191
19.21281 183
19.23293 194
19.25304 200
19.27315 194
19.29327 202
19.31338 215
19.33349 213
19.35361 218
19.37372 221
19.39384 233
19.41395 229
19.43406 273
19.45418 259
19.47429 286
19.4944 326
19.51452 325
19.53463 386
19.55475 397
19.57486 408
19.59497 467
19.61509 475
19.6352 474
19.65531 543
19.67543 537
19.69554 605
19.71565 575
19.73577 610
19.75588 587
19.776 591
19.79611 535
19.81622 557
19.83634 510
19.85645 533
19.87656 451
19.89668 431
19.91679 459
19.93691 481
19.95702 416
19.97713 458
19.99725 422
20.01736 422
20.03747 431
20.05759 424
20.0777 352
20.09782 396
20.11793 396
20.13804 384
20.15816 416
20.17827 455
20.19838 448
20.2185 439
20.23861 402
20.25872 444
20.27884 422
20.29895 403
20.31907 483
20.33918 445
20.35929 448
20.37941 477
20.39952 474
20.41963 496
20.43975 515
20.45986 498
20.47998 570
20.50009 558
20.5202 613
20.54032 644
20.56043 782
20.58054 892
20.60066 1108
20.62077 1366
20.64088 1634
20.661 2094
20.68111 2598
20.70123 3312
20.72134 3734
20.74145 4493
20.76157 5042
20.78168 5266
20.80179 5255
20.82191 4736
20.84202 4129
20.86214 3259
20.88225 2374
20.90236 1774
20.92248 1275
20.94259 928
20.9627 714
20.98282 650
21.00293 492
21.02305 498
21.04316 480
21.06327 447
21.08339 428
21.1035 404
21.12361 387
21.14373 386
21.16384 371
21.18395 413
21.20407 391
21.22418 355
21.2443 349
21.26441 345
21.28452 306
21.30464 339
21.32475 331
21.34486 316
21.36498 305
21.38509 369
21.40521 325
21.42532 384
21.44543 315
21.46555 334
21.48566 328
21.50577 347
21.52589 342
21.546 327
21.56612 352
21.58623 279
21.60634 303
21.62646 289
21.64657 309
21.66668 273
21.6868 307
21.70691 294
21.72702 285
21.74714 317
21.76725 287
21.78737 289
21.80748 299
21.82759 301
21.84771 300
21.86782 293
21.88793 292
21.90805 288
21.92816 300
21.94828 289
21.96839 302
21.9885 254
22.00862 279
22.02873 262
22.04884 272
22.06896 301
22.08907 252
22.10919 283
22.1293 272
22.14941 262
22.16953 285
22.18964 258
22.20975 265
22.22987 285
22.24998 254
22.27009 270
22.29021 260
22.31032 301
22.33044 277
22.35055 263
22.37066 278
22.39078 297
22.41089 251
22.431 280
22.45112 276
22.47123 281
22.49135 321
22.51146 271
22.53157 281
22.55169 274
22.5718 273
22.59191 302
22.61203 254
22.63214 259
22.65225 274
22.67237 319
22.69248 300
22.7126 321
22.73271 289
22.75282 258
22.77294 307
22.79305 300
22.81316 327
22.83328 296
22.85339 313
22.87351 300
22.89362 276
22.91373 264
22.93385 270
22.95396 314
22.97407 294
22.99419 278
23.0143 300
23.03442 282
23.05453 257
23.07464 268
23.09476 284
23.11487 283
23.13498 270
23.1551 300
23.17521 278
23.19532 295
23.21544 280
23.23555 271
23.25567 288
23.27578 250
23.29589 257
23.31601 275
23.33612 283
23.35623 250
23.37635 282
23.39646 287
23.41658 278
23.43669 267
23.4568 297
23.47692 286
23.49703 268
23.51714 274
23.53726 281
23.55737 282
23.57749 287
23.5976 267
23.61771 295
23.63783 278
23.65794 307
23.67805 300
23.69817 305
23.71828 295
23.73839 323
23.75851 323
23.77862 304
23.79874 282
23.81885 331
23.83896 360
23.85908 315
23.87919 331
23.8993 326
23.91942 349
23.93953 345
23.95965 311
23.97976 351
23.99987 326
24.01999 338
24.0401 294
24.06021 305
24.08033 309
24.10044 324
24.12056 318
24.14067 298
24.16078 305
24.1809 306
24.20101 309
24.22112 321
24.24124 298
24.26135 312
24.28146 280
24.30158 313
24.32169 317
24.34181 301
24.36192 308
24.38203 315
24.40215 319
24.42226 306
24.44237 320
24.46249 282
24.4826 331
24.50272 338
24.52283 317
24.54294 328
24.56306 329
24.58317 360
24.60328 365
24.6234 289
24.64351 333
24.66362 333
24.68374 342
24.70385 369
24.72397 339
24.74408 341
24.76419 356
24.78431 336
24.80442 344
24.82453 347
24.84465 337
24.86476 349
24.88488 336
24.90499 330
24.9251 363
24.94522 343
24.96533 330
24.98544 319
25.00556 334
25.02567 347
25.04579 309
25.0659 355
25.08601 334
25.10613 327
25.12624 335
25.14635 352
25.16647 318
25.18658 371
25.20669 332
25.22681 353
25.24692 367
25.26704 354
25.28715 359
25.30726 399
25.32738 367
25.34749 379
25.3676 356
25.38772 383
25.40783 319
25.42795 355
25.44806 347
25.46817 368
25.48829 339
25.5084 405
25.52851 399
25.54863 371
25.56874 386
25.58886 400
25.60897 376
25.62908 425
25.6492 451
25.66931 490
25.68942 453
25.70954 475
25.72965 460
25.74976 463
25.76988 513
25.78999 516
25.81011 491
25.83022 515
25.85033 494
25.87045 462
25.89056 488
25.91067 526
25.93079 545
25.9509 548
25.97102 609
25.99113 596
26.01124 592
26.03136 661
26.05147 710
26.07158 733
26.0917 832
26.11181 829
26.13193 862
26.15204 924
26.17215 1113
26.19227 1204
26.21238 1249
26.23249 1473
26.25261 1600
26.27272 1726
26.29283 2193
26.31295 2550
26.33306 3125
26.35318 3866
26.37329 4961
26.3934 6316
26.41352 8000
26.43363 10149
26.45374 12650
26.47386 15499
26.49397 18551
26.51409 21213
26.5342 23228
26.55431 24244
26.57443 23966
26.59454 22384
26.61465 19096
26.63477 15841
26.65488 12144
26.67499 8916
26.69511 6420
26.71522 4383
26.73534 2985
26.75545 2203
26.77556 1757
26.79568 1460
26.81579 1266
26.8359 1234
26.85602 1103
26.87613 980
26.89625 868
26.91636 793
26.93647 785
26.95659 669
26.9767 648
26.99681 633
27.01693 617
27.03704 524
27.05716 553
27.07727 536
27.09738 510
27.1175 464
27.13761 487
27.15772 472
27.17784 444
27.19795 460
27.21806 438
27.23818 436
27.25829 381
27.27841 414
27.29852 414
27.31863 436
27.33875 439
27.35886 437
27.37897 401
27.39909 397
27.4192 383
27.43932 365
27.45943 375
27.47954 395
27.49966 406
27.51977 410
27.53988 359
27.56 360
27.58011 398
27.60023 351
27.62034 376
27.64045 350
27.66057 388
27.68068 398
27.70079 365
27.72091 369
27.74102 358
27.76113 361
27.78125 372
27.80136 373
27.82148 361
27.84159 392
27.8617 347
27.88182 331
27.90193 359
27.92204 313
27.94216 329
27.96227 340
27.98239 336
28.0025 318
28.02261 282
28.04273 312
28.06284 346
28.08295 331
28.10307 327
28.12318 279
28.1433 309
28.16341 306
28.18352 316
28.20364 289
28.22375 287
28.24386 306
28.26398 286
28.28409 321
28.3042 305
28.32432 268
28.34443 266
28.36455 321
28.38466 322
28.40477 292
28.42489 255
28.445 292
28.46511 271
28.48523 294
28.50534 289
28.52546 294
28.54557 302
28.56568 316
28.5858 265
28.60591 272
28.62602 291
28.64614 296
28.66625 276
28.68636 264
28.70648 278
28.72659 287
28.74671 279
28.76682 268
28.78693 241
28.80705 291
28.82716 247
28.84727 293
28.86739 312
28.8875 295
28.90762 285
28.92773 294
28.94784 278
28.96796 249
28.98807 323
29.00818 296
29.0283 298
29.04841 274
29.06853 247
29.08864 276
29.10875 303
29.12887 286
29.14898 256
29.16909 261
29.18921 246
29.20932 254
29.22943 257
29.24955 264
29.26966 263
29.28978 261
29.30989 269
29.33 287
29.35012 244
29.37023 265
29.39034 251
29.41046 297
29.43057 262
29.45069 275
29.4708 282
29.49091 270
29.51103 268
29.53114 274
29.55125 250
29.57137 277
29.59148 272
29.6116 276
29.63171 254
29.65182 293
29.67194 226
29.69205 260
29.71216 294
29.73228 287
29.75239 260
29.7725 291
29.79262 301
29.81273 287
29.83285 304
29.85296 275
29.87307 278
29.89319 274
29.9133 262
29.93341 269
29.95353 271
29.97364 260
29.99376 245
30.01387 238
30.03398 277
30.0541 257
30.07421 277
30.09432 264
30.11444 266
30.13455 251
30.15467 246
30.17478 235
30.19489 245
30.21501 221
30.23512 290
30.25523 223
30.27535 271
30.29546 230
30.31557 247
30.33569 274
30.3558 255
30.37592 233
30.39603 258
30.41614 231
30.43626 275
30.45637 244
30.47648 260
30.4966 250
30.51671 249
30.53683 246
30.55694 239
30.57705 234
30.59717 232
30.61728 268
30.63739 258
30.65751 239
30.67762 225
30.69773 239
30.71785 216
30.73796 263
30.75808 233
30.77819 266
30.7983 269
30.81842 243
30.83853 239
30.85864 215
30.87876 260
30.89887 236
30.91899 246
30.9391 277
30.95921 250
30.97933 253
30.99944 272
31.01955 231
31.03967 250
31.05978 261
31.0799 253
31.10001 237
31.12012 251
31.14024 244
31.16035 222
31.18046 219
31.20058 222
31.22069 227
31.2408 214
31.26092 246
31.28103 257
31.30115 252
31.32126 238
31.34137 266
31.36149 219
31.3816 215
31.40171 244
31.42183 230
31.44194 229
31.46206 225
31.48217 213
31.50228 227
31.5224 244
31.54251 216
31.56262 232
31.58274 235
31.60285 197
31.62297 185
31.64308 220
31.66319 221
31.68331 225
31.70342 201
31.72353 218
31.74365 198
31.76376 221
31.78387 229
31.80399 192
31.8241 205
31.84422 277
31.86433 224
31.88444 224
31.90456 223
31.92467 222
31.94478 250
31.9649 207
31.98501 213
32.00513 204
32.02524 199
32.04535 211
32.06547 214
32.08558 209
32.10569 200
32.12581 208
32.14592 219
32.16604 210
32.18615 184
32.20626 193
32.22638 220
32.24649 207
32.2666 193
32.28672 199
32.30683 182
32.32694 224
32.34706 196
32.36717 204
32.38729 174
32.4074 193
32.42751 218
32.44763 191
32.46774 186
32.48785 199
32.50797 216
32.52808 196
32.5482 192
32.56831 232
32.58842 199
32.60854 165
32.62865 187
32.64876 175
32.66888 192
32.68899 200
32.7091 194
32.72922 203
32.74933 196
32.76945 176
32.78956 204
32.80967 209
32.82979 187
32.8499 192
32.87001 207
32.89013 231
32.91024 177
32.93036 186
32.95047 198
32.97058 208
32.9907 217
33.01081 196
33.03092 192
33.05104 204
33.07115 230
33.09127 200
33.11138 223
33.13149 190
33.15161 228
33.17172 207
33.19183 213
33.21195 193
33.23206 187
33.25217 196
33.27229 183
33.2924 229
33.31252 184
33.33263 184
33.35274 186
33.37286 192
33.39297 202
33.41308 198
33.4332 193
33.45331 184
33.47343 186
33.49354 201
33.51365 179
33.53377 208
33.55388 191
33.57399 166
33.59411 208
33.61422 210
33.63434 194
33.65445 198
33.67456 186
33.69468 177
33.71479 198
33.7349 183
33.75502 217
33.77513 183
33.79524 191
33.81536 177
33.83547 183
33.85559 170
33.8757 197
33.89581 210
33.91593 210
33.93604 172
33.95615 193
33.97627 222
33.99638 207
34.0165 206
34.03661 181
34.05672 182
34.07684 216
34.09695 205
34.11706 208
34.13718 204
34.15729 195
34.17741 200
34.19752 223
34.21763 211
34.23775 223
34.25786 234
34.27797 260
34.29809 245
34.3182 273
34.33831 310
34.35843 333
34.37854 358
34.39866 356
34.41877 353
34.43888 369
34.459 376
34.47911 356
34.49922 321
34.51934 366
34.53945 374
34.55957 353
34.57968 400
34.59979 396
34.61991 408
34.64002 401
34.66013 444
34.68025 398
34.70036 421
34.72047 485
34.74059 457
34.7607 460
34.78082 487
34.80093 476
34.82104 465
34.84116 479
34.86127 486
34.88138 460
34.9015 428
34.92161 437
34.94173 406
34.96184 369
34.98195 352
35.00207 346
35.02218 298
35.04229 358
35.06241 303
35.08252 330
35.10264 273
35.12275 284
35.14286 294
35.16298 270
35.18309 270
35.2032 249
35.22332 224
35.24343 252
35.26354 274
35.28366 285
35.30377 278
35.32389 288
35.344 249
35.36411 257
35.38423 269
35.40434 280
35.42445 277
35.44457 296
35.46468 286
35.4848 281
35.50491 279
35.52502 245
35.54514 260
35.56525 273
35.58536 249
35.60548 278
35.62559 251
35.64571 308
35.66582 230
35.68593 256
35.70605 272
35.72616 269
35.74627 278
35.76639 274
35.7865 275
35.80661 268
35.82673 269
35.84684 262
35.86696 274
35.88707 274
35.90718 309
35.9273 283
35.94741 270
35.96752 283
35.98764 300
36.00775 269
36.02787 258
36.04798 297
36.06809 309
36.08821 309
36.10832 330
36.12843 364
36.14855 381
36.16866 383
36.18878 446
36.20889 474
36.229 492
36.24912 606
36.26923 619
36.28934 725
36.30946 834
36.32957 960
36.34968 1103
36.3698 1283
36.38991 1382
36.41003 1581
36.43014 1692
36.45025 1754
36.47037 1670
36.49048 1619
36.51059 1506
36.53071 1343
36.55082 1147
36.57094 960
36.59105 796
36.61116 660
36.63128 538
36.65139 438
36.6715 393
36.69162 337
36.71173 363
36.73184 325
36.75196 304
36.77207 275
36.79219 262
36.8123 274
36.83241 235
36.85253 238
36.87264 254
36.89275 241
36.91287 243
36.93298 238
36.9531 247
36.97321 245
36.99332 275
37.01344 250
37.03355 262
37.05366 255
37.07378 243
37.09389 225
37.11401 225
37.13412 231
37.15423 242
37.17435 254
37.19446 266
37.21457 249
37.23469 254
37.2548 266
37.27491 256
37.29503 267
37.31514 276
37.33526 259
37.35537 255
37.37548 254
37.3956 297
37.41571 249
37.43582 286
37.45594 264
37.47605 289
37.49617 289
37.51628 291
37.53639 266
37.55651 279
37.57662 261
37.59673 302
37.61685 262
37.63696 298
37.65708 286
37.67719 287
37.6973 286
37.71742 287
37.73753 261
37.75764 284
37.77776 254
37.79787 264
37.81798 250
37.8381 257
37.85821 248
37.87833 239
37.89844 259
37.91855 249
37.93867 244
37.95878 297
37.97889 237
37.99901 247
38.01912 266
38.03924 282
38.05935 262
38.07946 253
38.09958 249
38.11969 250
38.1398 285
38.15992 241
38.18003 213
38.20015 275
38.22026 297
38.24037 238
38.26049 276
38.2806 273
38.30071 272
38.32083 282
38.34094 243
38.36105 288
38.38117 257
38.40128 241
38.4214 277
38.44151 271
38.46162 246
38.48174 252
38.50185 249
38.52196 273
38.54208 239
38.56219 230
38.58231 263
38.60242 229
38.62253 221
38.64265 234
38.66276 231
38.68287 248
38.70299 240
38.7231 225
38.74321 229
38.76333 234
38.78344 237
38.80356 263
38.82367 257
38.84378 240
38.8639 268
38.88401 258
38.90412 248
38.92424 271
38.94435 269
38.96447 252
38.98458 278
39.00469 297
39.02481 298
39.04492 294
39.06503 348
39.08515 343
39.10526 411
39.12538 406
39.14549 417
39.1656 540
39.18572 605
39.20583 711
39.22594 779
39.24606 935
39.26617 1067
39.28628 1132
39.3064 1294
39.32651 1408
39.34663 1487
39.36674 1635
39.38685 1636
39.40697 1547
39.42708 1481
39.44719 1290
39.46731 1158
39.48742 966
39.50754 881
39.52765 712
39.54776 557
39.56788 472
39.58799 427
39.6081 337
39.62822 316
39.64833 309
39.66845 275
39.68856 299
39.70867 277
39.72879 272
39.7489 280
39.76901 293
39.78913 276
39.80924 290
39.82935 298
39.84947 319
39.86958 298
39.8897 305
39.90981 306
39.92992 348
39.95004 381
39.97015 359
39.99026 379
40.01038 436
40.03049 467
40.05061 527
40.07072 580
40.09083 635
40.11095 644
40.13106 698
40.15117 768
40.17129 820
40.1914 842
40.21152 882
40.23163 813
40.25174 769
40.27186 675
40.29197 561
40.31208 574
40.3322 520
40.35231 417
40.37242 386
40.39254 341
40.41265 281
40.43277 304
40.45288 242
40.47299 245
40.49311 250
40.51322 235
40.53333 235
40.55345 233
40.57356 219
40.59368 229
40.61379 234
40.6339 232
40.65402 246
40.67413 233
40.69424 241
40.71436 233
40.73447 265
40.75458 224
40.7747 199
40.79481 210
40.81493 225
40.83504 211
40.85515 197
40.87527 229
40.89538 234
40.91549 226
40.93561 235
40.95572 202
40.97584 217
40.99595 248
41.01606 222
41.03618 249
41.05629 218
41.0764 211
41.09652 216
41.11663 242
41.13675 206
41.15686 207
41.17697 219
41.19709 216
41.2172 203
41.23731 200
41.25743 228
41.27754 207
41.29765 222
41.31777 210
41.33788 196
41.358 237
41.37811 193
41.39822 221
41.41834 193
41.43845 248
41.45856 175
41.47868 206
41.49879 221
41.51891 201
41.53902 182
41.55913 193
41.57925 219
41.59936 196
41.61947 237
41.63959 232
41.6597 243
41.67982 204
41.69993 231
41.72004 230
41.74016 242
41.76027 238
41.78038 258
41.8005 266
41.82061 224
41.84072 278
41.86084 255
41.88095 224
41.90107 275
41.92118 275
41.94129 279
41.96141 271
41.98152 278
42.00163 301
42.02175 318
42.04186 316
42.06198 345
42.08209 340
42.1022 403
42.12232 407
42.14243 481
42.16254 521
42.18266 532
42.20277 644
42.22289 651
42.243 788
42.26311 842
42.28323 1000
42.30334 1075
42.32345 1070
42.34357 1139
42.36368 1139
42.38379 1092
42.40391 1085
42.42402 949
42.44414 854
42.46425 772
42.48436 636
42.50448 534
42.52459 518
42.5447 406
42.56482 361
42.58493 292
42.60505 262
42.62516 266
42.64527 227
42.66539 247
42.6855 232
42.70561 224
42.72573 220
42.74584 234
42.76595 226
42.78607 218
42.80618 224
42.8263 216
42.84641 214
42.86652 202
42.88664 193
42.90675 196
42.92686 205
42.94698 209
42.96709 200
42.98721 178
43.00732 190
43.02743 205
43.04755 182
43.06766 207
43.08777 196
43.10789 179
43.128 207
43.14812 180
43.16823 184
43.18834 200
43.20846 204
43.22857 177
43.24868 168
43.2688 205
43.28891 203
43.30902 186
43.32914 220
43.34925 187
43.36937 184
43.38948 180
43.40959 190
43.42971 182
43.44982 176
43.46993 203
43.49005 191
43.51016 187
43.53028 206
43.55039 186
43.5705 191
43.59062 188
43.61073 179
43.63084 193
43.65096 182
43.67107 189
43.69119 205
43.7113 205
43.73141 206
43.75153 195
43.77164 194
43.79175 193
43.81187 181
43.83198 191
43.85209 193
43.87221 175
43.89232 186
43.91244 186
43.93255 179
43.95266 172
43.97278 179
43.99289 195
44.013 197
44.03312 195
44.05323 189
44.07335 175
44.09346 184
44.11357 196
44.13369 211
44.1538 205
44.17391 206
44.19403 179
44.21414 174
44.23426 196
44.25437 188
44.27448 187
44.2946 183
44.31471 187
44.33482 192
44.35494 183
44.37505 194
44.39516 176
44.41528 215
44.43539 180
44.45551 173
44.47562 187
44.49573 190
44.51585 174
44.53596 207
44.55607 191
44.57619 202
44.5963 184
44.61642 169
44.63653 179
44.65664 178
44.67676 193
44.69687 205
44.71698 208
44.7371 209
44.75721 194
44.77732 185
44.79744 189
44.81755 221
44.83767 166
44.85778 230
44.87789 188
44.89801 221
44.91812 203
44.93823 185
44.95835 179
44.97846 231
44.99858 191
45.01869 198
45.0388 203
45.05892 217
45.07903 202
45.09914 216
45.11926 217
45.13937 254
45.15949 221
45.1796 220
45.19971 234
45.21983 242
45.23994 252
45.26005 241
45.28017 230
45.30028 230
45.32039 277
45.34051 265
45.36062 324
45.38074 306
45.40085 291
45.42096 309
45.44108 305
45.46119 326
45.4813 328
45.50142 401
45.52153 454
45.54165 471
45.56176 522
45.58187 574
45.60199 662
45.6221 759
45.64221 751
45.66233 767
45.68244 824
45.70256 803
45.72267 797
45.74278 787
45.7629 709
45.78301 599
45.80312 577
45.82324 519
45.84335 441
45.86346 400
45.88358 361
45.90369 334
45.92381 284
45.94392 263
45.96403 237
45.98415 208
46.00426 250
46.02437 215
46.04449 189
46.0646 205
46.08472 199
46.10483 204
46.12494 188
46.14506 196
46.16517 176
46.18528 197
46.2054 178
46.22551 178
46.24563 177
46.26574 204
46.28585 187
46.30597 188
46.32608 173
46.34619 177
46.36631 201
46.38642 174
46.40653 196
46.42665 183
46.44676 200
46.46688 186
46.48699 177
46.5071 201
46.52722 186
46.54733 175
46.56744 181
46.58756 172
46.60767 174
46.62779 174
46.6479 174
46.66801 186
46.68813 176
46.70824 156
46.72835 178
46.74847 165
46.76858 176
46.78869 177
46.80881 172
46.82892 175
46.84904 172
46.86915 164
46.88926 166
46.90938 172
46.92949 160
46.9496 149
46.96972 151
46.98983 150
47.00995 171
47.03006 177
47.05017 169
47.07029 162
47.0904 157
47.11051 171
47.13063 173
47.15074 167
47.17086 169
47.19097 172
47.21108 162
47.2312 160
47.25131 181
47.27142 167
47.29154 188
47.31165 187
47.33176 177
47.35188 157
47.37199 179
47.39211 163
47.41222 171
47.43233 174
47.45245 153
47.47256 165
47.49267 160
47.51279 175
47.5329 173
47.55302 179
47.57313 190
47.59324 164
47.61336 170
47.63347 177
47.65358 182
47.6737 171
47.69381 176
47.71393 195
47.73404 158
47.75415 178
47.77427 179
47.79438 184
47.81449 185
47.83461 178
47.85472 167
47.87483 176
47.89495 159
47.91506 177
47.93518 175
47.95529 191
47.9754 172
47.99552 183
48.01563 180
48.03574 149
48.05586 184
48.07597 165
48.09609 176
48.1162 164
48.13631 178
48.15643 170
48.17654 182
48.19665 170
48.21677 171
48.23688 182
48.257 193
48.27711 186
48.29722 145
48.31734 158
48.33745 180
48.35756 182
48.37768 177
48.39779 199
48.4179 185
48.43802 176
48.45813 162
48.47825 194
48.49836 181
48.51847 182
48.53859 158
48.5587 164
48.57881 172
48.59893 167
48.61904 182
48.63916 149
48.65927 157
48.67938 168
48.6995 187
48.71961 186
48.73972 187
48.75984 161
48.77995 189
48.80006 176
48.82018 193
48.84029 189
48.86041 183
48.88052 189
48.90063 199
48.92075 164
48.94086 178
48.96097 206
48.98109 171
49.0012 207
49.02132 188
49.04143 200
49.06154 186
49.08166 200
49.10177 194
49.12188 186
49.142 198
49.16211 212
49.18223 195
49.20234 196
49.22245 184
49.24257 189
49.26268 192
49.28279 167
49.30291 187
49.32302 176
49.34313 216
49.36325 198
49.38336 189
49.40348 211
49.42359 210
49.4437 204
49.46382 234
49.48393 223
49.50404 234
49.52416 278
49.54427 232
49.56439 260
49.5845 271
49.60461 278
49.62473 310
49.64484 280
49.66495 394
49.68507 385
49.70518 403
49.7253 476
49.74541 504
49.76552 570
49.78564 648
49.80575 728
49.82586 830
49.84598 969
49.86609 1107
49.8862 1267
49.90632 1344
49.92643 1609
49.94655 1796
49.96666 1992
49.98677 2170
50.00689 2352
50.027 2417
50.04711 2542
50.06723 2377
50.08734 2150
50.10746 1947
50.12757 1733
50.14768 1546
50.1678 1392
50.18791 1239
50.20802 1006
50.22814 884
50.24825 683
50.26837 563
50.28848 464
50.30859 410
50.32871 360
50.34882 328
50.36893 271
50.38905 306
50.40916 268
50.42927 263
50.44939 293
50.4695 275
50.48962 256
50.50973 251
50.52984 259
50.54996 231
50.57007 235
50.59018 249
50.6103 214
50.63041 219
50.65053 235
50.67064 218
50.69075 198
50.71087 193
50.73098 196
50.75109 184
50.77121 213
50.79132 206
50.81143 186
50.83155 177
50.85166 142
50.87178 219
50.89189 176
50.912 177
50.93212 211
50.95223 194
50.97234 170
50.99246 157
51.01257 165
51.03269 167
51.0528 163
51.07291 184
51.09303 161
51.11314 128
51.13325 156
51.15337 187
51.17348 162
51.1936 158
51.21371 164
51.23382 135
51.25394 175
51.27405 171
51.29416 156
51.31428 148
51.33439 164
51.3545 177
51.37462 188
51.39473 163
51.41485 147
51.43496 162
51.45507 153
51.47519 156
51.4953 153
51.51541 141
51.53553 150
51.55564 154
51.57576 162
51.59587 145
51.61598 155
51.6361 143
51.65621 135
51.67632 169
51.69644 172
51.71655 167
51.73667 178
51.75678 159
51.77689 175
51.79701 165
51.81712 163
51.83723 149
51.85735 147
51.87746 163
51.89757 162
51.91769 144
51.9378 152
51.95792 137
51.97803 153
51.99814 162
52.01826 173
52.03837 177
52.05848 167
52.0786 165
52.09871 155
52.11883 160
52.13894 171
52.15905 173
52.17917 161
52.19928 154
52.21939 178
52.23951 161
52.25962 157
52.27974 157
52.29985 153
52.31996 172
52.34008 179
52.36019 175
52.3803 159
52.40042 156
52.42053 134
52.44064 177
52.46076 138
52.48087 157
52.50099 165
52.5211 149
52.54121 171
52.56133 168
52.58144 167
52.60155 173
52.62167 165
52.64178 163
52.6619 171
52.68201 161
52.70212 171
52.72224 164
52.74235 151
52.76246 167
52.78258 167
52.80269 192
52.8228 171
52.84292 167
52.86303 161
52.88315 184
52.90326 174
52.92337 182
52.94349 163
52.9636 174
52.98371 181
53.00383 168
53.02394 163
53.04406 139
53.06417 189
53.08428 177
53.1044 182
53.12451 167
53.14462 167
53.16474 152
53.18485 194
53.20497 168
53.22508 171
53.24519 176
53.26531 196
53.28542 189
53.30553 178
53.32565 168
53.34576 182
53.36587 170
53.38599 191
53.4061 196
53.42622 173
53.44633 200
53.46644 178
53.48656 200
53.50667 218
53.52678 193
53.5469 197
53.56701 209
53.58713 196
53.60724 176
53.62735 188
53.64747 187
53.66758 180
53.68769 179
53.70781 196
53.72792 193
53.74804 198
53.76815 157
53.78826 226
53.80838 197
53.82849 198
53.8486 209
53.86872 201
53.88883 206
53.90894 197
53.92906 184
53.94917 212
53.96929 216
53.9894 202
54.00951 184
54.02963 211
54.04974 209
54.06985 208
54.08997 224
54.11008 204
54.1302 195
54.15031 208
54.17042 211
54.19054 212
54.21065 231
54.23076 207
54.25088 213
54.27099 251
54.29111 216
54.31122 221
54.33133 247
54.35145 230
54.37156 247
54.39167 231
54.41179 267
54.4319 242
54.45201 272
54.47213 317
54.49224 274
54.51236 310
54.53247 349
54.55258 397
54.5727 435
54.59281 456
54.61292 506
54.63304 573
54.65315 590
54.67327 647
54.69338 742
54.71349 810
54.73361 821
54.75372 895
54.77383 872
54.79395 837
54.81406 828
54.83417 745
54.85429 719
54.8744 638
54.89452 600
54.91463 612
54.93474 558
54.95486 524
54.97497 491
54.99508 465
55.0152 405
55.03531 404
55.05543 394
55.07554 435
55.09565 436
55.11577 466
55.13588 471
55.15599 478
55.17611 449
55.19622 511
55.21634 506
55.23645 509
55.25656 480
55.27668 486
55.29679 463
55.3169 418
55.33702 402
55.35713 365
55.37724 356
55.39736 392
55.41747 347
55.43759 313
55.4577 254
55.47781 291
55.49793 255
55.51804 266
55.53815 266
55.55827 254
55.57838 229
55.5985 222
55.61861 222
55.63872 218
55.65884 240
55.67895 205
55.69906 223
55.71918 213
55.73929 257
55.75941 231
55.77952 246
55.79963 226
55.81975 199
55.83986 223
55.85997 197
55.88009 197
55.9002 233
55.92031 189
55.94043 213
55.96054 208
55.98066 203
56.00077 200
56.02088 230
56.041 212
56.06111 203
56.08122 207
56.10134 196
56.12145 187
56.14157 208
56.16168 187
56.18179 197
56.20191 200
56.22202 185
56.24213 192
56.26225 161
56.28236 194
56.30248 198
56.32259 228
56.3427 193
56.36282 191
56.38293 199
56.40304 208
56.42316 206
56.44327 219
56.46338 177
56.4835 175
56.50361 177
56.52373 172
56.54384 168
56.56395 196
56.58407 211
56.60418 177
56.62429 204
56.64441 170
56.66452 181
56.68464 185
56.70475 203
56.72486 167
56.74498 198
56.76509 186
56.7852 194
56.80532 184
56.82543 178
56.84554 202
56.86566 197
56.88577 191
56.90589 176
56.926 212
56.94611 194
56.96623 197
56.98634 205
57.00645 207
57.02657 192
57.04668 201
57.0668 202
57.08691 214
57.10702 226
57.12714 194
57.14725 203
57.16736 195
57.18748 212
57.20759 196
57.22771 172
57.24782 200
57.26793 193
57.28805 201
57.30816 196
57.32827 187
57.34839 174
57.3685 167
57.38861 177
57.40873 182
57.42884 175
57.44896 174
57.46907 195
57.48918 153
57.5093 177
57.52941 177
57.54952 191
57.56964 187
57.58975 200
57.60987 189
57.62998 169
57.65009 178
57.67021 201
57.69032 185
57.71043 178
57.73055 156
57.75066 171
57.77078 169
57.79089 182
57.811 165
57.83112 179
57.85123 186
57.87134 188
57.89146 168
57.91157 180
57.93168 150
57.9518 172
57.97191 156
57.99203 168
58.01214 142
58.03225 173
58.05237 151
58.07248 160
58.09259 170
58.11271 174
58.13282 173
58.15294 176
58.17305 181
58.19316 135
58.21328 165
58.23339 178
58.2535 194
58.27362 170
58.29373 167
58.31385 175
58.33396 171
58.35407 156
58.37419 186
58.3943 176
58.41441 175
58.43453 191
58.45464 194
58.47475 150
58.49487 181
58.51498 185
58.5351 174
58.55521 174
58.57532 159
58.59544 159
58.61555 189
58.63566 188
58.65578 178
58.67589 167
58.69601 156
58.71612 175
58.73623 169
58.75635 174
58.77646 180
58.79657 179
58.81669 172
58.8368 188
58.85691 160
58.87703 171
58.89714 176
58.91726 159
58.93737 159
58.95748 165
58.9776 177
58.99771 188
59.01782 188
59.03794 172
59.05805 172
59.07817 186
59.09828 206
59.11839 203
59.13851 185
59.15862 209
59.17873 186
59.19885 201
59.21896 166
59.23908 209
59.25919 210
59.2793 245
59.29942 243
59.31953 230
59.33964 257
59.35976 222
59.37987 253
59.39998 279
59.4201 273
59.44021 309
59.46033 325
59.48044 300
59.50055 371
59.52067 368
59.54078 395
59.56089 440
59.58101 467
59.60112 506
59.62124 605
59.64135 673
59.66146 709
59.68158 842
59.70169 884
59.7218 1023
59.74192 1142
59.76203 1245
59.78215 1398
59.80226 1484
59.82237 1524
59.84249 1567
59.8626 1500
59.88271 1588
59.90283 1370
59.92294 1265
59.94305 1195
59.96317 1025
59.98328 953
60.0034 940
60.02351 848
60.04362 727
60.06374 689
60.08385 584
60.10396 503
60.12408 413
60.14419 334
60.16431 302
60.18442 300
60.20453 216
60.22465 244
60.24476 246
60.26487 216
60.28499 197
60.3051 234
60.32522 206
60.34533 212
60.36544 200
60.38556 220
60.40567 202
60.42578 199
60.4459 195
60.46601 186
60.48612 181
60.50624 206
60.52635 197
60.54647 194
60.56658 200
60.58669 180
60.60681 204
60.62692 173
60.64703 199
60.66715 174
60.68726 183
60.70738 183
60.72749 161
60.7476 181
60.76772 214
60.78783 187
60.80794 184
60.82806 168
60.84817 201
60.86828 186
60.8884 189
60.90851 188
60.92863 177
60.94874 178
60.96885 182
60.98897 171
61.00908 169
61.02919 185
61.04931 165
61.06942 194
61.08954 172
61.10965 193
61.12976 183
61.14988 182
61.16999 212
61.1901 179
61.21022 216
61.23033 197
61.25045 185
61.27056 214
61.29067 207
61.31079 225
61.3309 243
61.35101 219
61.37113 241
61.39124 238
61.41135 251
61.43147 234
61.45158 278
61.4717 272
61.49181 277
61.51192 267
61.53204 248
61.55215 261
61.57226 266
61.59238 270
61.61249 258
61.63261 247
61.65272 254
61.67283 236
61.69295 242
61.71306 224
61.73317 247
61.75329 208
61.7734 217
61.79352 263
61.81363 218
61.83374 198
61.85386 208
61.87397 210
61.89408 227
61.9142 228
61.93431 203
61.95442 217
61.97454 198
61.99465 211
62.01477 210
62.03488 216
62.05499 213
62.07511 214
62.09522 212
62.11533 242
62.13545 196
62.15556 220
62.17568 211
62.19579 242
62.2159 216
62.23602 240
62.25613 219
62.27624 222
62.29636 204
62.31647 235
62.33659 209
62.3567 199
62.37681 220
62.39693 192
62.41704 170
62.43715 177
62.45727 193
62.47738 183
62.49749 180
62.51761 183
62.53772 184
62.55784 178
62.57795 160
62.59806 197
62.61818 187
62.63829 168
62.6584 170
62.67852 188
62.69863 151
62.71875 201
62.73886 179
62.75897 193
62.77909 156
62.7992 161
62.81931 175
62.83943 151
62.85954 180
62.87965 166
62.89977 164
62.91988 181
62.94 165
62.96011 164
62.98022 170
63.00034 152
63.02045 162
63.04056 153
63.06068 159
63.08079 152
63.10091 169
63.12102 175
63.14113 161
63.16125 163
63.18136 154
63.20147 156
63.22159 165
63.2417 140
63.26182 164
63.28193 174
63.30204 165
63.32216 178
63.34227 161
63.36238 160
63.3825 168
63.40261 157
63.42272 186
63.44284 171
63.46295 178
63.48307 196
63.50318 170
63.52329 214
63.54341 194
63.56352 171
63.58363 191
63.60375 205
63.62386 187
63.64398 208
63.66409 190
63.6842 234
63.70432 226
63.72443 269
63.74454 250
63.76466 321
63.78477 312
63.80489 336
63.825 349
63.84511 358
63.86523 394
63.88534 403
63.90545 385
63.92557 434
63.94568 395
63.96579 436
63.98591 374
64.00602 329
64.02614 344
64.04625 313
64.06636 293
64.08648 256
64.10659 290
64.1267 236
64.14682 268
64.16693 238
64.18705 232
64.20716 220
64.22727 194
64.24739 189
64.2675 189
64.28761 179
64.30773 172
64.32784 177
64.34796 157
64.36807 150
64.38818 167
64.4083 169
64.42841 143
64.44852 146
64.46864 137
64.48875 170
64.50886 136
64.52898 151
64.54909 150
64.56921 154
64.58932 161
64.60943 170
64.62955 163
64.64966 162
64.66977 175
64.68989 158
64.71 128
64.73012 166
64.75023 157
64.77034 165
64.79046 139
64.81057 150
64.83068 167
64.8508 145
64.87091 147
64.89102 151
64.91114 161
64.93125 142
64.95137 158
64.97148 151
64.99159 140
65.01171 140
65.03182 163
65.05193 163
65.07205 139
65.09216 150
65.11228 171
65.13239 158
65.1525 157
65.17262 170
65.19273 160
65.21284 178
65.23296 168
65.25307 157
65.27319 164
65.2933 139
65.31341 152
65.33353 167
65.35364 149
65.37375 171
65.39387 178
65.41398 175
65.43409 185
65.45421 142
65.47432 175
65.49444 175
65.51455 175
65.53466 184
65.55478 187
65.57489 198
65.595 200
65.61512 212
65.63523 245
65.65535 204
65.67546 240
65.69557 212
65.71569 196
65.7358 189
65.75591 213
65.77603 185
65.79614 180
65.81626 186
65.83637 208
65.85648 210
65.8766 191
65.89671 169
65.91682 181
65.93694 176
65.95705 170
65.97716 177
65.99728 168
66.01739 164
66.03751 161
66.05762 155
66.07773 162
66.09785 169
66.11796 181
66.13807 152
66.15819 158
66.1783 150
66.19842 141
66.21853 151
66.23864 163
66.25876 166
66.27887 147
66.29898 169
66.3191 167
66.33921 165
66.35933 155
66.37944 166
66.39955 145
66.41967 193
66.43978 175
66.45989 157
66.48001 159
66.50012 163
66.52023 149
66.54035 171
66.56046 152
66.58058 150
66.60069 168
66.6208 160
66.64092 191
66.66103 180
66.68114 158
66.70126 168
66.72137 148
66.74149 150
66.7616 175
66.78171 153
66.80183 152
66.82194 170
66.84205 187
66.86217 194
66.88228 163
66.90239 160
66.92251 150
66.94262 173
66.96274 178
66.98285 187
67.00296 207
67.02308 185
67.04319 175
67.0633 199
67.08342 186
67.10353 191
67.12365 230
67.14376 205
67.16387 215
67.18399 219
67.2041 248
67.22421 267
67.24433 276
67.26444 298
67.28456 272
67.30467 324
67.32478 288
67.3449 322
67.36501 333
67.38512 411
67.40524 392
67.42535 496
67.44546 508
67.46558 592
67.48569 627
67.50581 700
67.52592 758
67.54603 829
67.56615 879
67.58626 945
67.60637 1020
67.62649 1057
67.6466 987
67.66672 1014
67.68683 963
67.70694 925
67.72706 867
67.74717 901
67.76728 870
67.7874 898
67.80751 877
67.82763 907
67.84774 997
67.86785 973
67.88797 1015
67.90808 1066
67.92819 1162
67.94831 1256
67.96842 1305
67.98853 1340
68.00865 1398
68.02876 1440
68.04888 1451
68.06899 1424
68.0891 1418
68.10922 1370
68.12933 1321
68.14944 1283
68.16956 1277
68.18967 1196
68.20979 1216
68.2299 1172
68.25001 1056
68.27013 966
68.29024 861
68.31035 804
68.33047 694
68.35058 617
68.3707 598
68.39081 503
68.41092 503
68.43104 457
68.45115 407
68.47126 364
68.49138 315
68.51149 299
68.5316 279
68.55172 262
68.57183 246
68.59195 220
68.61206 210
68.63217 214
68.65229 242
68.6724 182
68.69251 205
68.71263 213
68.73274 191
68.75286 188
68.77297 191
68.79308 205
68.8132 200
68.83331 179
68.85342 195
68.87354 183
68.89365 206
68.91376 180
68.93388 163
68.95399 190
68.97411 171
68.99422 189
69.01433 185
69.03445 182
69.05456 157
69.07467 163
69.09479 165
69.1149 202
69.13502 164
69.15513 153
69.17524 172
69.19536 181
69.21547 179
69.23558 155
69.2557 171
69.27581 189
69.29593 179
69.31604 178
69.33615 180
69.35627 173
69.37638 160
69.39649 160
69.41661 162
69.43672 167
69.45683 155
69.47695 166
69.49706 187
69.51718 172
69.53729 149
69.5574 159
69.57752 164
69.59763 171
69.61774 152
69.63786 167
69.65797 171
69.67809 172
69.6982 162
69.71831 162
69.73843 153
69.75854 162
69.77865 164
69.79877 161
69.81888 168
69.839 140
69.85911 172
69.87922 176
69.89934 167
69.91945 180
69.93956 183
69.95968 160
69.97979 164
69.9999 167
70.02002 154
70.04013 166
70.06025 162
70.08036 166
70.10047 154
70.12059 171
70.1407 157
70.16081 163
70.18093 177
70.20104 165
70.22116 149
70.24127 146
70.26138 157
70.2815 157
70.30161 134
70.32172 155
70.34184 151
70.36195 162
70.38207 194
70.40218 147
70.42229 163
70.44241 127
70.46252 146
70.48263 160
70.50275 137
70.52286 151
70.54297 155
70.56309 135
70.5832 158
70.60332 137
70.62343 164
70.64354 162
70.66366 138
70.68377 159
70.70388 159
70.724 151
70.74411 137
70.76423 135
70.78434 140
70.80445 133
70.82457 155
70.84468 183
70.86479 136
70.88491 145
70.90502 143
70.92513 173
70.94525 156
70.96536 164
70.98548 142
71.00559 143
71.0257 163
71.04582 151
71.06593 167
71.08604 163
71.10616 177
71.12627 158
71.14639 149
71.1665 140
71.18661 152
71.20673 138
71.22684 140
71.24695 154
71.26707 141
71.28718 130
71.3073 142
71.32741 146
71.34752 151
71.36764 162
71.38775 134
71.40786 165
71.42798 138
71.44809 131
71.4682 159
71.48832 145
71.50843 161
71.52855 132
71.54866 175
71.56877 157
71.58889 137
71.609 158
71.62911 136
71.64923 136
71.66934 154
71.68946 166
71.70957 156
71.72968 137
71.7498 150
71.76991 145
71.79002 154
71.81014 149
71.83025 153
71.85037 157
71.87048 153
71.89059 149
71.91071 138
71.93082 167
71.95093 165
71.97105 161
71.99116 159
72.01127 151
72.03139 154
72.0515 138
72.07162 163
72.09173 168
72.11184 151
72.13196 152
72.15207 146
72.17218 166
72.1923 180
72.21241 169
72.23253 184
72.25264 155
72.27275 149
72.29287 141
72.31298 178
72.33309 172
72.35321 164
72.37332 167
72.39344 155
72.41355 185
72.43366 214
72.45378 195
72.47389 163
72.494 162
72.51412 179
72.53423 179
72.55434 190
72.57446 174
72.59457 173
72.61469 182
72.6348 193
72.65491 180
72.67503 205
72.69514 187
72.71525 179
72.73537 193
72.75548 193
72.7756 195
72.79571 184
72.81582 188
72.83594 190
72.85605 180
72.87616 200
72.89628 201
72.91639 198
72.9365 206
72.95662 195
72.97673 186
72.99685 198
73.01696 206
73.03707 224
73.05719 225
73.0773 222
73.09741 219
73.11753 246
73.13764 237
73.15776 270
73.17787 297
73.19798 324
73.2181 352
73.23821 330
73.25832 386
73.27844 388
73.29855 404
73.31867 449
73.33878 447
73.35889 414
73.37901 403
73.39912 432
73.41923 404
73.43935 342
73.45946 372
73.47957 328
73.49969 297
73.5198 302
73.53992 318
73.56003 311
73.58014 324
73.60026 253
73.62037 241
73.64048 259
73.6606 224
73.68071 224
73.70083 182
73.72094 222
73.74105 178
73.76117 198
73.78128 172
73.80139 170
73.82151 183
73.84162 147
73.86174 182
73.88185 177
73.90196 162
73.92208 169
73.94219 175
73.9623 171
73.98242 153
74.00253 133
74.02264 163
74.04276 152
74.06287 152
74.08299 164
74.1031 156
74.12321 162
74.14333 145
74.16344 136
74.18355 159
74.20367 163
74.22378 149
74.2439 157
74.26401 174
74.28412 180
74.30424 163
74.32435 158
74.34446 165
74.36458 163
74.38469 141
74.40481 157
74.42492 138
74.44503 151
74.46515 148
74.48526 143
74.50537 162
74.52549 151
74.5456 180
74.56571 160
74.58583 150
74.60594 155
74.62606 155
74.64617 150
74.66628 171
74.6864 159
74.70651 168
74.72662 151
74.74674 149
74.76685 144
74.78697 179
74.80708 138
74.82719 171
74.84731 155
74.86742 160
74.88753 173
74.90765 167
74.92776 154
74.94787 165
74.96799 149
74.9881 169
75.00822 145
