3.00117 19926
3.02128 19891
3.0414 19091
3.06151 18569
3.08162 18164
3.10174 17585
3.12185 17173
3.14197 16640
3.16208 16084
3.18219 15736
3.20231 14882
3.22242 14828
3.24253 14129
3.26265 14072
3.28276 13408
3.30288 13041
3.32299 12630
3.3431 11887
3.36322 11806
3.38333 11362
3.40344 10805
3.42356 10956
3.44367 10147
3.46379 9775
3.4839 9614
3.50401 9023
3.52413 8980
3.54424 8770
3.56435 8295
3.58447 7977
3.60458 7541
3.62469 7445
3.64481 7017
3.66492 6747
3.68504 6594
3.70515 6126
3.72526 6192
3.74538 5863
3.76549 5573
3.7856 5346
3.80572 4939
3.82583 4934
3.84595 4729
3.86606 4501
3.88617 4285
3.90629 3968
3.9264 3890
3.94651 3679
3.96663 3541
3.98674 3395
4.00686 3169
4.02697 3202
4.04708 3007
4.0672 2749
4.08731 2786
4.10742 2588
4.12754 2417
4.14765 2339
4.16776 2194
4.18788 2120
4.20799 1981
4.22811 2032
4.24822 1949
4.26833 1822
4.28845 1795
4.30856 1749
4.32867 1640
4.34879 1669
4.3689 1515
4.38902 1507
4.40913 1389
4.42924 1417
4.44936 1406
4.46947 1253
4.48958 1336
4.5097 1288
4.52981 1204
4.54992 1287
4.57004 1148
4.59015 1129
4.61027 1027
4.63038 1117
4.65049 1119
4.67061 989
4.69072 1023
4.71083 996
4.73095 1000
4.75106 929
4.77118 892
4.79129 932
4.8114 859
4.83152 794
4.85163 783
4.87174 748
4.89186 771
4.91197 757
4.93209 743
4.9522 754
4.97231 723
4.99243 687
5.01254 642
5.03265 634
5.05277 642
5.07288 600
5.09299 625
5.11311 571
5.13322 623
5.15334 576
5.17345 479
5.19356 512
5.21368 500
5.23379 470
5.2539 481
5.27402 454
5.29413 448
5.31425 428
5.33436 490
5.35447 458
5.37459 452
5.3947 424
5.41481 451
5.43493 390
5.45504 376
5.47516 379
5.49527 347
5.51538 401
5.5355 372
5.55561 388
5.57572 327
5.59584 339
5.61595 318
5.63606 316
5.65618 318
5.67629 309
5.69641 313
5.71652 303
5.73663 297
5.75675 268
5.77686 292
5.79697 248
5.81709 282
5.8372 293
5.85732 277
5.87743 239
5.89754 212
5.91766 211
5.93777 240
5.95788 230
5.978 258
5.99811 222
6.01823 222
6.03834 217
6.05845 228
6.07857 198
6.09868 231
6.11879 222
6.13891 234
6.15902 226
6.17913 193
6.19925 190
6.21936 198
6.23948 202
6.25959 217
6.2797 199
6.29982 207
6.31993 206
6.34004 215
6.36016 184
6.38027 197
6.40039 225
6.4205 212
6.44061 189
6.46073 203
6.48084 174
6.50095 221
6.52107 180
6.54118 200
6.56129 170
6.58141 192
6.60152 192
6.62164 184
6.64175 184
6.66186 197
6.68198 191
6.70209 181
6.7222 184
6.74232 178
6.76243 205
6.78255 175
6.80266 183
6.82277 175
6.84289 161
6.863 196
6.88311 200
6.90323 185
6.92334 166
6.94346 176
6.96357 195
6.98368 164
7.0038 180
7.02391 162
7.04402 155
7.06414 181
7.08425 174
7.10436 176
7.12448 166
7.14459 197
7.16471 205
7.18482 188
7.20493 181
7.22505 202
7.24516 144
7.26527 178
7.28539 185
7.3055 189
7.32562 186
7.34573 171
7.36584 198
7.38596 183
7.40607 194
7.42618 194
7.4463 190
7.46641 203
7.48653 208
7.50664 191
7.52675 173
7.54687 197
7.56698 203
7.58709 159
7.60721 192
7.62732 188
7.64743 183
7.66755 222
7.68766 239
7.70778 195
7.72789 190
7.748 213
7.76812 150
7.78823 207
7.80834 196
7.82846 157
7.84857 227
7.86869 222
7.8888 230
7.90891 192
7.92903 207
7.94914 186
7.96925 196
7.98937 228
8.00948 184
8.0296 184
8.04971 217
8.06982 144
8.08994 209
8.11005 198
8.13016 180
8.15028 173
8.17039 199
8.1905 203
8.21062 195
8.23073 225
8.25085 193
8.27096 201
8.29107 203
8.31119 196
8.3313 195
8.35141 221
8.37153 199
8.39164 215
8.41176 179
8.43187 175
8.45198 197
8.4721 205
8.49221 236
8.51232 237
8.53244 211
8.55255 242
8.57266 209
8.59278 232
8.61289 183
8.63301 198
8.65312 224
8.67323 221
8.69335 192
8.71346 208
8.73357 218
8.75369 204
8.7738 233
8.79392 234
8.81403 228
8.83414 219
8.85426 221
8.87437 205
8.89448 212
8.9146 195
8.93471 232
8.95483 234
8.97494 179
8.99505 235
9.01517 227
9.03528 204
9.05539 198
9.07551 234
9.09562 216
9.11573 218
9.13585 229
9.15596 225
9.17608 233
9.19619 218
9.2163 185
9.23642 196
9.25653 201
9.27664 220
9.29676 215
9.31687 201
9.33699 235
9.3571 223
9.37721 233
9.39733 235
9.41744 226
9.43755 199
9.45767 231
9.47778 270
9.4979 237
9.51801 216
9.53812 218
9.55824 221
9.57835 216
9.59846 215
9.61858 186
9.63869 223
9.6588 231
9.67892 228
9.69903 213
9.71915 229
9.73926 202
9.75937 219
9.77949 191
9.7996 213
9.81971 216
9.83983 218
9.85994 231
9.88006 230
9.90017 217
9.92028 241
9.9404 246
9.96051 225
9.98062 225
10.00074 228
10.02085 208
10.04097 249
10.06108 215
10.08119 214
10.10131 217
10.12142 226
10.14153 208
10.16165 245
10.18176 199
10.20187 218
10.22199 244
10.2421 234
10.26222 238
10.28233 243
10.30244 229
10.32256 200
10.34267 215
10.36278 226
10.3829 230
10.40301 242
10.42313 243
10.44324 231
10.46335 217
10.48347 213
10.50358 216
10.52369 207
10.54381 213
10.56392 193
10.58403 216
10.60415 227
10.62426 229
10.64438 243
10.66449 234
10.6846 190
10.70472 261
10.72483 202
10.74494 183
10.76506 202
10.78517 194
10.80529 214
10.8254 240
10.84551 224
10.86563 257
10.88574 218
10.90585 216
10.92597 206
10.94608 202
10.9662 204
10.98631 243
11.00642 215
11.02654 220
11.04665 226
11.06676 216
11.08688 206
11.10699 241
11.1271 217
11.14722 197
11.16733 224
11.18745 201
11.20756 227
11.22767 232
11.24779 208
11.2679 205
11.28801 212
11.30813 202
11.32824 231
11.34836 227
11.36847 246
11.38858 244
11.4087 213
11.42881 207
11.44892 227
11.46904 235
11.48915 228
11.50927 200
11.52938 217
11.54949 234
11.56961 230
11.58972 216
11.60983 200
11.62995 254
11.65006 202
11.67017 229
11.69029 226
11.7104 214
11.73052 224
11.75063 215
11.77074 235
11.79086 209
11.81097 228
11.83108 213
11.8512 221
11.87131 226
11.89143 232
11.91154 230
11.93165 226
11.95177 266
11.97188 228
11.99199 268
12.01211 232
12.03222 251
12.05234 261
12.07245 289
12.09256 284
12.11268 277
12.13279 262
12.1529 270
12.17302 289
12.19313 281
12.21324 303
12.23336 299
12.25347 309
12.27359 336
12.2937 323
12.31381 303
12.33393 273
12.35404 340
12.37415 299
12.39427 305
12.41438 294
12.4345 259
12.45461 274
12.47472 273
12.49484 252
12.51495 235
12.53506 243
12.55518 251
12.57529 227
12.5954 224
12.61552 223
12.63563 238
12.65575 229
12.67586 233
12.69597 216
12.71609 228
12.7362 218
12.75631 235
12.77643 231
12.79654 206
12.81666 247
12.83677 184
12.85688 210
12.877 214
12.89711 231
12.91722 220
12.93734 198
12.95745 189
12.97757 205
12.99768 221
13.01779 197
13.03791 195
13.05802 210
13.07813 212
13.09825 203
13.11836 205
13.13847 230
13.15859 190
13.1787 198
13.19882 184
13.21893 189
13.23904 202
13.25916 209
13.27927 186
13.29938 220
13.3195 210
13.33961 216
13.35973 231
13.37984 210
13.39995 196
13.42007 212
13.44018 193
13.46029 187
13.48041 198
13.50052 188
13.52064 187
13.54075 208
13.56086 225
13.58098 184
13.60109 193
13.6212 192
13.64132 152
13.66143 211
13.68154 206
13.70166 216
13.72177 190
13.74189 170
13.762 176
13.78211 178
13.80223 191
13.82234 196
13.84245 210
13.86257 210
13.88268 204
13.9028 188
13.92291 187
13.94302 200
13.96314 171
13.98325 193
14.00336 182
14.02348 187
14.04359 194
14.06371 188
14.08382 176
14.10393 177
14.12405 211
14.14416 168
14.16427 220
14.18439 184
14.2045 209
14.22461 174
14.24473 184
14.26484 196
14.28496 188
14.30507 186
14.32518 199
14.3453 215
14.36541 198
14.38552 166
14.40564 152
14.42575 194
14.44587 186
14.46598 198
14.48609 185
14.50621 180
14.52632 170
14.54643 179
14.56655 186
14.58666 196
14.60677 181
14.62689 178
14.647 194
14.66712 187
14.68723 186
14.70734 181
14.72746 158
14.74757 178
14.76768 190
14.7878 182
14.80791 193
14.82803 183
14.84814 199
14.86825 180
14.88837 174
14.90848 171
14.92859 189
14.94871 178
14.96882 202
14.98894 187
15.00905 178
15.02916 189
15.04928 197
15.06939 166
15.0895 191
15.10962 180
15.12973 187
15.14984 172
15.16996 175
15.19007 171
15.21019 157
15.2303 151
15.25041 177
15.27053 157
15.29064 199
15.31075 188
15.33087 189
15.35098 205
15.3711 190
15.39121 182
15.41132 184
15.43144 192
15.45155 219
15.47166 178
15.49178 174
15.51189 177
15.53201 176
15.55212 172
15.57223 156
15.59235 198
15.61246 175
15.63257 198
15.65269 188
15.6728 181
15.69291 197
15.71303 190
15.73314 165
15.75326 193
15.77337 168
15.79348 182
15.8136 147
15.83371 174
15.85382 173
15.87394 176
15.89405 190
15.91417 170
15.93428 191
15.95439 182
15.97451 195
15.99462 190
16.01473 187
16.03485 177
16.05496 164
16.07508 179
16.09519 171
16.1153 172
16.13542 193
16.15553 184
16.17564 160
16.19576 145
16.21587 165
16.23598 181
16.2561 170
16.27621 208
16.29633 185
16.31644 170
16.33655 178
16.35667 156
16.37678 169
16.39689 157
16.41701 165
16.43712 147
16.45724 158
16.47735 167
16.49746 182
16.51758 153
16.53769 193
16.5578 182
16.57792 173
16.59803 135
16.61814 170
16.63826 182
16.65837 172
16.67849 175
16.6986 166
16.71871 169
16.73883 154
16.75894 166
16.77905 168
16.79917 175
16.81928 191
16.8394 192
16.85951 165
16.87962 176
16.89974 169
16.91985 175
16.93996 160
16.96008 186
16.98019 152
17.00031 179
17.02042 158
17.04053 172
17.06065 163
17.08076 150
17.10087 155
17.12099 179
17.1411 179
17.16121 184
17.18133 167
17.20144 171
17.22156 173
17.24167 172
17.26178 153
17.2819 164
17.30201 186
17.32212 165
17.34224 163
17.36235 166
17.38247 166
17.40258 175
17.42269 158
17.44281 145
17.46292 157
17.48303 163
17.50315 159
17.52326 167
17.54338 182
17.56349 200
17.5836 183
17.60372 164
17.62383 195
17.64394 169
17.66406 182
17.68417 161
17.70428 168
17.7244 193
17.74451 169
17.76463 160
17.78474 174
17.80485 196
17.82497 180
17.84508 191
17.86519 149
17.88531 155
17.90542 169
17.92554 169
17.94565 181
17.96576 173
17.98588 165
18.00599 158
18.0261 155
18.04622 165
18.06633 160
18.08645 167
18.10656 171
18.12667 139
18.14679 150
18.1669 164
18.18701 181
18.20713 173
18.22724 177
18.24735 182
18.26747 178
18.28758 160
18.3077 146
18.32781 173
18.34792 172
18.36804 179
18.38815 163
18.40826 179
18.42838 150
18.44849 169
18.46861 147
18.48872 161
18.50883 163
18.52895 154
18.54906 150
18.56917 179
18.58929 159
18.6094 172
18.62951 177
18.64963 190
18.66974 158
18.68986 164
18.70997 171
18.73008 135
18.7502 198
18.77031 179
18.79042 186
18.81054 171
18.83065 188
18.85077 172
18.87088 171
18.89099 171
18.91111 171
18.93122 175
18.95133 179
18.97145 149
18.99156 145
19.01168 175
19.03179 158
19.0519 197
19.07202 145
19.09213 170
19.11224 173
19.13236 180
19.15247 153
19.17258 163
19.1927 176
19.21281 146
19.23293 147
19.25304 170
19.27315 183
19.29327 180
19.31338 164
19.33349 170
19.35361 154
19.37372 178
19.39384 176
19.41395 190
19.43406 186
19.45418 170
19.47429 166
19.4944 173
19.51452 176
19.53463 188
19.55475 186
19.57486 186
19.59497 174
19.61509 198
19.6352 204
19.65531 205
19.67543 196
19.69554 216
19.71565 211
19.73577 209
19.75588 239
19.776 236
19.79611 263
19.81622 229
19.83634 283
19.85645 227
19.87656 234
19.89668 259
19.91679 269
19.93691 286
19.95702 265
19.97713 286
19.99725 276
20.01736 251
20.03747 265
20.05759 273
20.0777 246
20.09782 282
20.11793 298
20.13804 295
20.15816 320
20.17827 281
20.19838 270
20.2185 312
20.23861 314
20.25872 311
20.27884 292
20.29895 309
20.31907 297
20.33918 352
20.35929 350
20.37941 331
20.39952 372
20.41963 351
20.43975 417
20.45986 352
20.47998 398
20.50009 395
20.5202 438
20.54032 488
20.56043 469
20.58054 517
20.60066 579
20.62077 697
20.64088 733
20.661 998
20.68111 1272
20.70123 1662
20.72134 2398
20.74145 3082
20.76157 4348
20.78168 5590
20.80179 6986
20.82191 7955
20.84202 8267
20.86214 7646
20.88225 6310
20.90236 4562
20.92248 3019
20.94259 1933
20.9627 1175
20.98282 810
21.00293 641
21.02305 541
21.04316 513
21.06327 486
21.08339 447
21.1035 435
21.12361 376
21.14373 369
21.16384 361
21.18395 356
21.20407 304
21.22418 333
21.2443 293
21.26441 304
21.28452 283
21.30464 320
21.32475 307
21.34486 264
21.36498 282
21.38509 297
21.40521 283
21.42532 270
21.44543 244
21.46555 245
21.48566 234
21.50577 277
21.52589 246
21.546 277
21.56612 262
21.58623 254
21.60634 281
21.62646 254
21.64657 237
21.66668 248
21.6868 231
21.70691 231
21.72702 226
21.74714 256
21.76725 216
21.78737 229
21.80748 233
21.82759 232
21.84771 243
21.86782 195
21.88793 238
21.90805 240
21.92816 226
21.94828 213
21.96839 262
21.9885 220
22.00862 250
22.02873 262
22.04884 185
22.06896 208
22.08907 208
22.10919 240
22.1293 214
22.14941 206
22.16953 212
22.18964 216
22.20975 247
22.22987 242
22.24998 228
22.27009 229
22.29021 236
22.31032 217
22.33044 249
22.35055 222
22.37066 211
22.39078 216
22.41089 188
22.431 207
22.45112 190
22.47123 217
22.49135 210
22.51146 196
22.53157 205
22.55169 209
22.5718 201
22.59191 229
22.61203 201
22.63214 216
22.65225 217
22.67237 190
22.69248 218
22.7126 201
22.73271 194
22.75282 219
22.77294 200
22.79305 219
22.81316 201
22.83328 224
22.85339 246
22.87351 194
22.89362 196
22.91373 192
22.93385 204
22.95396 224
22.97407 196
22.99419 217
23.0143 199
23.03442 194
23.05453 185
23.07464 193
23.09476 218
23.11487 186
23.13498 210
23.1551 185
23.17521 187
23.19532 195
23.21544 191
23.23555 214
23.25567 186
23.27578 185
23.29589 165
23.31601 175
23.33612 190
23.35623 204
23.37635 196
23.39646 215
23.41658 212
23.43669 206
23.4568 183
23.47692 205
23.49703 213
23.51714 162
23.53726 200
23.55737 182
23.57749 197
23.5976 193
23.61771 203
23.63783 199
23.65794 176
23.67805 194
23.69817 172
23.71828 194
23.73839 234
23.75851 248
23.77862 219
23.79874 209
23.81885 225
23.83896 252
23.85908 240
23.87919 233
23.8993 255
23.91942 249
23.93953 264
23.95965 284
23.97976 261
23.99987 314
24.01999 265
24.0401 251
24.06021 213
24.08033 221
24.10044 201
24.12056 208
24.14067 225
24.16078 202
24.1809 198
24.20101 214
24.22112 210
24.24124 208
24.26135 211
24.28146 209
24.30158 206
24.32169 199
24.34181 200
24.36192 209
24.38203 185
24.40215 219
24.42226 243
24.44237 219
24.46249 250
24.4826 216
24.50272 221
24.52283 219
24.54294 198
24.56306 243
24.58317 201
24.60328 252
24.6234 240
24.64351 246
24.66362 257
24.68374 250
24.70385 258
24.72397 236
24.74408 285
24.76419 275
24.78431 290
24.80442 287
24.82453 289
24.84465 291
24.86476 290
24.88488 249
24.90499 250
24.9251 248
24.94522 253
24.96533 228
24.98544 261
25.00556 251
25.02567 200
25.04579 257
25.0659 238
25.08601 217
25.10613 255
25.12624 252
25.14635 221
25.16647 225
25.18658 242
25.20669 239
25.22681 254
25.24692 270
25.26704 240
25.28715 253
25.30726 246
25.32738 222
25.34749 248
25.3676 234
25.38772 253
25.40783 220
25.42795 238
25.44806 267
25.46817 267
25.48829 258
25.5084 265
25.52851 277
25.54863 252
25.56874 248
25.58886 263
25.60897 273
25.62908 312
25.6492 300
25.66931 383
25.68942 400
25.70954 383
25.72965 439
25.74976 452
25.76988 470
25.78999 461
25.81011 431
25.83022 437
25.85033 494
25.87045 501
25.89056 501
25.91067 472
25.93079 549
25.9509 522
25.97102 531
25.99113 571
26.01124 551
26.03136 600
26.05147 571
26.07158 631
26.0917 644
26.11181 758
26.13193 791
26.15204 818
26.17215 882
26.19227 938
26.21238 996
26.23249 1043
26.25261 1094
26.27272 1246
26.29283 1386
26.31295 1494
26.33306 1648
26.35318 2065
26.37329 2270
26.3934 2826
26.41352 3689
26.43363 4565
26.45374 6078
26.47386 8264
26.49397 11064
26.51409 14988
26.5342 19808
26.55431 25518
26.57443 30922
26.59454 35571
26.61465 36971
26.63477 34618
26.65488 29377
26.67499 22678
26.69511 17074
26.71522 11605
26.73534 7664
26.75545 4324
26.77556 2861
26.79568 2068
26.81579 1831
26.8359 1579
26.85602 1430
26.87613 1346
26.89625 1144
26.91636 1088
26.93647 968
26.95659 815
26.9767 855
26.99681 764
27.01693 699
27.03704 636
27.05716 594
27.07727 562
27.09738 498
27.1175 559
27.13761 502
27.15772 481
27.17784 447
27.19795 442
27.21806 430
27.23818 459
27.25829 438
27.27841 440
27.29852 382
27.31863 436
27.33875 389
27.35886 394
27.37897 397
27.39909 393
27.4192 406
27.43932 394
27.45943 349
27.47954 369
27.49966 353
27.51977 397
27.53988 344
27.56 366
27.58011 314
27.60023 344
27.62034 317
27.64045 352
27.66057 321
27.68068 305
27.70079 294
27.72091 287
27.74102 281
27.76113 303
27.78125 323
27.80136 339
27.82148 328
27.84159 306
27.8617 290
27.88182 312
27.90193 301
27.92204 290
27.94216 308
27.96227 286
27.98239 258
28.0025 266
28.02261 292
28.04273 245
28.06284 269
28.08295 252
28.10307 295
28.12318 299
28.1433 253
28.16341 241
28.18352 254
28.20364 263
28.22375 263
28.24386 291
28.26398 239
28.28409 253
28.3042 276
28.32432 248
28.34443 267
28.36455 249
28.38466 266
28.40477 259
28.42489 234
28.445 287
28.46511 241
28.48523 247
28.50534 263
28.52546 229
28.54557 226
28.56568 236
28.5858 252
28.60591 221
28.62602 243
28.64614 240
28.66625 226
28.68636 226
28.70648 218
28.72659 238
28.74671 219
28.76682 217
28.78693 203
28.80705 222
28.82716 234
28.84727 217
28.86739 213
28.8875 230
28.90762 212
28.92773 227
28.94784 262
28.96796 206
28.98807 229
29.00818 219
29.0283 220
29.04841 203
29.06853 231
29.08864 205
29.10875 240
29.12887 256
29.14898 226
29.16909 226
29.18921 230
29.20932 206
29.22943 233
29.24955 246
29.26966 226
29.28978 210
29.30989 205
29.33 207
29.35012 208
29.37023 207
29.39034 227
29.41046 223
29.43057 200
29.45069 221
29.4708 224
29.49091 217
29.51103 196
29.53114 226
29.55125 216
29.57137 212
29.59148 222
29.6116 209
29.63171 218
29.65182 207
29.67194 199
29.69205 222
29.71216 211
29.73228 205
29.75239 202
29.7725 205
29.79262 184
29.81273 205
29.83285 211
29.85296 216
29.87307 206
29.89319 203
29.9133 191
29.93341 190
29.95353 194
29.97364 209
29.99376 233
30.01387 185
30.03398 205
30.0541 213
30.07421 222
30.09432 184
30.11444 195
30.13455 206
30.15467 211
30.17478 209
30.19489 194
30.21501 232
30.23512 201
30.25523 167
30.27535 181
30.29546 183
30.31557 202
30.33569 213
30.3558 196
30.37592 195
30.39603 171
30.41614 199
30.43626 212
30.45637 193
30.47648 178
30.4966 215
30.51671 199
30.53683 187
30.55694 196
30.57705 199
30.59717 176
30.61728 193
30.63739 182
30.65751 202
30.67762 155
30.69773 168
30.71785 186
30.73796 181
30.75808 181
30.77819 196
30.7983 213
30.81842 186
30.83853 217
30.85864 203
30.87876 187
30.89887 203
30.91899 197
30.9391 176
30.95921 190
30.97933 153
30.99944 185
31.01955 192
31.03967 166
31.05978 165
31.0799 163
31.10001 144
31.12012 187
31.14024 197
31.16035 184
31.18046 191
31.20058 183
31.22069 166
31.2408 157
31.26092 172
31.28103 190
31.30115 184
31.32126 205
31.34137 174
31.36149 188
31.3816 188
31.40171 168
31.42183 200
31.44194 165
31.46206 186
31.48217 168
31.50228 161
31.5224 165
31.54251 179
31.56262 208
31.58274 193
31.60285 181
31.62297 163
31.64308 179
31.66319 175
31.68331 174
31.70342 170
31.72353 166
31.74365 147
31.76376 193
31.78387 168
31.80399 159
31.8241 143
31.84422 162
31.86433 143
31.88444 175
31.90456 183
31.92467 177
31.94478 153
31.9649 170
31.98501 136
32.00513 170
32.02524 196
32.04535 164
32.06547 178
32.08558 169
32.10569 163
32.12581 182
32.14592 163
32.16604 157
32.18615 174
32.20626 161
32.22638 166
32.24649 171
32.2666 169
32.28672 187
32.30683 160
32.32694 149
32.34706 191
32.36717 180
32.38729 155
32.4074 169
32.42751 186
32.44763 152
32.46774 170
32.48785 174
32.50797 200
32.52808 200
32.5482 178
32.56831 200
32.58842 180
32.60854 193
32.62865 195
32.64876 201
32.66888 172
32.68899 165
32.7091 157
32.72922 169
32.74933 176
32.76945 171
32.78956 189
32.80967 152
32.82979 180
32.8499 184
32.87001 183
32.89013 160
32.91024 163
32.93036 166
32.95047 153
32.97058 171
32.9907 152
33.01081 161
33.03092 161
33.05104 159
33.07115 171
33.09127 152
33.11138 144
33.13149 165
33.15161 158
33.17172 143
33.19183 150
33.21195 149
33.23206 166
33.25217 151
33.27229 147
33.2924 161
33.31252 159
33.33263 173
33.35274 159
33.37286 156
33.39297 151
33.41308 146
33.4332 156
33.45331 164
33.47343 159
33.49354 158
33.51365 168
33.53377 152
33.55388 160
33.57399 172
33.59411 156
33.61422 139
33.63434 133
33.65445 171
33.67456 150
33.69468 173
33.71479 144
33.7349 151
33.75502 138
33.77513 136
33.79524 141
33.81536 129
33.83547 161
33.85559 155
33.8757 148
33.89581 134
33.91593 138
33.93604 159
33.95615 138
33.97627 144
33.99638 136
34.0165 144
34.03661 128
34.05672 151
34.07684 146
34.09695 148
34.11706 140
34.13718 137
34.15729 143
34.17741 164
34.19752 134
34.21763 153
34.23775 151
34.25786 149
34.27797 131
34.29809 148
34.3182 153
34.33831 151
34.35843 149
34.37854 144
34.39866 121
34.41877 128
34.43888 162
34.459 138
34.47911 146
34.49922 155
34.51934 139
34.53945 162
34.55957 153
34.57968 168
34.59979 155
34.61991 150
34.64002 164
34.66013 172
34.68025 146
34.70036 142
34.72047 156
34.74059 164
34.7607 165
34.78082 143
34.80093 160
34.82104 160
34.84116 165
34.86127 195
34.88138 175
34.9015 198
34.92161 186
34.94173 173
34.96184 156
34.98195 189
35.00207 164
35.02218 186
35.04229 182
35.06241 181
35.08252 163
35.10264 153
35.12275 158
35.14286 204
35.16298 172
35.18309 168
35.2032 175
35.22332 154
35.24343 192
35.26354 162
35.28366 188
35.30377 201
35.32389 203
35.344 189
35.36411 174
35.38423 172
35.40434 204
35.42445 172
35.44457 216
35.46468 205
35.4848 189
35.50491 181
35.52502 183
35.54514 222
35.56525 186
35.58536 194
35.60548 191
35.62559 196
35.64571 185
35.66582 200
35.68593 190
35.70605 206
35.72616 219
35.74627 214
35.76639 179
35.7865 225
35.80661 181
35.82673 199
35.84684 195
35.86696 227
35.88707 204
35.90718 217
35.9273 207
35.94741 201
35.96752 220
35.98764 237
36.00775 240
36.02787 264
36.04798 243
36.06809 243
36.08821 236
36.10832 239
36.12843 234
36.14855 222
36.16866 243
36.18878 281
36.20889 263
36.229 332
36.24912 362
36.26923 369
36.28934 420
36.30946 506
36.32957 616
36.34968 729
36.3698 856
36.38991 1094
36.41003 1327
36.43014 1583
36.45025 1923
36.47037 2244
36.49048 2442
36.51059 2373
36.53071 2343
36.55082 2001
36.57094 1711
36.59105 1433
36.61116 1151
36.63128 1047
36.65139 721
36.6715 506
36.69162 403
36.71173 312
36.73184 265
36.75196 277
36.77207 259
36.79219 216
36.8123 255
36.83241 219
36.85253 214
36.87264 215
36.89275 221
36.91287 183
36.93298 217
36.9531 175
36.97321 189
36.99332 192
37.01344 160
37.03355 179
37.05366 165
37.07378 179
37.09389 181
37.11401 183
37.13412 161
37.15423 193
37.17435 166
37.19446 174
37.21457 180
37.23469 173
37.2548 154
37.27491 160
37.29503 159
37.31514 175
37.33526 179
37.35537 184
37.37548 172
37.3956 152
37.41571 174
37.43582 167
37.45594 163
37.47605 164
37.49617 159
37.51628 166
37.53639 164
37.55651 182
37.57662 178
37.59673 174
37.61685 172
37.63696 186
37.65708 192
37.67719 161
37.6973 152
37.71742 172
37.73753 159
37.75764 158
37.77776 171
37.79787 198
37.81798 172
37.8381 164
37.85821 171
37.87833 175
37.89844 157
37.91855 196
37.93867 160
37.95878 156
37.97889 155
37.99901 188
38.01912 173
38.03924 204
38.05935 168
38.07946 159
38.09958 170
38.11969 178
38.1398 167
38.15992 186
38.18003 167
38.20015 180
38.22026 164
38.24037 178
38.26049 155
38.2806 192
38.30071 179
38.32083 200
38.34094 175
38.36105 196
38.38117 164
38.40128 182
38.4214 178
38.44151 177
38.46162 170
38.48174 187
38.50185 204
38.52196 176
38.54208 190
38.56219 179
38.58231 188
38.60242 159
38.62253 172
38.64265 179
38.66276 149
38.68287 183
38.70299 173
38.7231 199
38.74321 192
38.76333 214
38.78344 196
38.80356 185
38.82367 171
38.84378 199
38.8639 186
38.88401 193
38.90412 196
38.92424 212
38.94435 220
38.96447 211
38.98458 217
39.00469 210
39.02481 205
39.04492 210
39.06503 271
39.08515 246
39.10526 250
39.12538 287
39.14549 290
39.1656 322
39.18572 360
39.20583 416
39.22594 431
39.24606 516
39.26617 638
39.28628 749
39.3064 958
39.32651 1156
39.34663 1419
39.36674 1752
39.38685 2026
39.40697 2156
39.42708 2320
39.44719 2152
39.46731 1904
39.48742 1686
39.50754 1372
39.52765 1200
39.54776 1082
39.56788 890
39.58799 615
39.6081 450
39.62822 342
39.64833 291
39.66845 235
39.68856 240
39.70867 250
39.72879 223
39.7489 228
39.76901 236
39.78913 243
39.80924 208
39.82935 215
39.84947 227
39.86958 208
39.8897 214
39.90981 207
39.92992 245
39.95004 256
39.97015 242
39.99026 257
40.01038 282
40.03049 291
40.05061 316
40.07072 391
40.09083 446
40.11095 477
40.13106 562
40.15117 605
40.17129 799
40.1914 928
40.21152 1039
40.23163 1107
40.25174 1187
40.27186 1178
40.29197 999
40.31208 904
40.3322 701
40.35231 675
40.37242 590
40.39254 492
40.41265 406
40.43277 334
40.45288 224
40.47299 230
40.49311 229
40.51322 219
40.53333 182
40.55345 182
40.57356 178
40.59368 207
40.61379 193
40.6339 180
40.65402 181
40.67413 198
40.69424 185
40.71436 175
40.73447 165
40.75458 158
40.7747 164
40.79481 171
40.81493 151
40.83504 156
40.85515 179
40.87527 174
40.89538 163
40.91549 172
40.93561 158
40.95572 175
40.97584 160
40.99595 153
41.01606 159
41.03618 186
41.05629 164
41.0764 172
41.09652 187
41.11663 177
41.13675 197
41.15686 193
41.17697 190
41.19709 166
41.2172 189
41.23731 172
41.25743 168
41.27754 167
41.29765 163
41.31777 152
41.33788 208
41.358 163
41.37811 181
41.39822 163
41.41834 166
41.43845 163
41.45856 171
41.47868 171
41.49879 171
41.51891 170
41.53902 187
41.55913 168
41.57925 173
41.59936 165
41.61947 168
41.63959 175
41.6597 180
41.67982 174
41.69993 178
41.72004 184
41.74016 173
41.76027 173
41.78038 158
41.8005 168
41.82061 200
41.84072 185
41.86084 181
41.88095 179
41.90107 175
41.92118 173
41.94129 181
41.96141 190
41.98152 172
42.00163 209
42.02175 207
42.04186 214
42.06198 207
42.08209 227
42.1022 230
42.12232 254
42.14243 268
42.16254 298
42.18266 323
42.20277 376
42.22289 416
42.243 528
42.26311 590
42.28323 731
42.30334 853
42.32345 1027
42.34357 1239
42.36368 1466
42.38379 1578
42.40391 1741
42.42402 1736
42.44414 1507
42.46425 1298
42.48436 1053
42.50448 973
42.52459 948
42.5447 781
42.56482 625
42.58493 433
42.60505 340
42.62516 278
42.64527 256
42.66539 227
42.6855 208
42.70561 208
42.72573 213
42.74584 177
42.76595 161
42.78607 168
42.80618 172
42.8263 139
42.84641 129
42.86652 190
42.88664 168
42.90675 167
42.92686 166
42.94698 171
42.96709 140
42.98721 122
43.00732 152
43.02743 153
43.04755 158
43.06766 163
43.08777 172
43.10789 167
43.128 156
43.14812 159
43.16823 159
43.18834 152
43.20846 163
43.22857 176
43.24868 151
43.2688 147
43.28891 145
43.30902 157
43.32914 159
43.34925 131
43.36937 149
43.38948 152
43.40959 153
43.42971 145
43.44982 152
43.46993 142
43.49005 163
43.51016 144
43.53028 160
43.55039 135
43.5705 121
43.59062 144
43.61073 147
43.63084 135
43.65096 160
43.67107 156
43.69119 140
43.7113 143
43.73141 162
43.75153 140
43.77164 156
43.79175 155
43.81187 147
43.83198 133
43.85209 139
43.87221 138
43.89232 145
43.91244 143
43.93255 138
43.95266 141
43.97278 160
43.99289 153
44.013 144
44.03312 145
44.05323 129
44.07335 143
44.09346 154
44.11357 109
44.13369 157
44.1538 138
44.17391 151
44.19403 136
44.21414 137
44.23426 122
44.25437 139
44.27448 119
44.2946 142
44.31471 139
44.33482 129
44.35494 154
44.37505 134
44.39516 139
44.41528 150
44.43539 141
44.45551 116
44.47562 143
44.49573 139
44.51585 146
44.53596 124
44.55607 139
44.57619 146
44.5963 182
44.61642 150
44.63653 154
44.65664 137
44.67676 147
44.69687 156
44.71698 161
44.7371 161
44.75721 136
44.77732 149
44.79744 147
44.81755 147
44.83767 160
44.85778 149
44.87789 144
44.89801 137
44.91812 148
44.93823 135
44.95835 166
44.97846 150
44.99858 152
45.01869 154
45.0388 155
45.05892 175
45.07903 162
45.09914 147
45.11926 165
45.13937 141
45.15949 146
45.1796 138
45.19971 153
45.21983 159
45.23994 158
45.26005 161
45.28017 167
45.30028 168
45.32039 155
45.34051 163
45.36062 175
45.38074 192
45.40085 153
45.42096 180
45.44108 207
45.46119 201
45.4813 235
45.50142 254
45.52153 260
45.54165 322
45.56176 335
45.58187 362
45.60199 459
45.6221 520
45.64221 600
45.66233 714
45.68244 847
45.70256 949
45.72267 1023
45.74278 1099
45.7629 1059
45.78301 910
45.80312 837
45.82324 736
45.84335 653
45.86346 586
45.88358 551
45.90369 480
45.92381 404
45.94392 297
45.96403 199
45.98415 206
46.00426 192
46.02437 166
46.04449 165
46.0646 205
46.08472 148
46.10483 171
46.12494 134
46.14506 134
46.16517 145
46.18528 152
46.2054 153
46.22551 149
46.24563 155
46.26574 147
46.28585 133
46.30597 129
46.32608 147
46.34619 158
46.36631 146
46.38642 131
46.40653 140
46.42665 140
46.44676 143
46.46688 133
46.48699 138
46.5071 122
46.52722 149
46.54733 126
46.56744 139
46.58756 150
46.60767 145
46.62779 144
46.6479 148
46.66801 144
46.68813 135
46.70824 139
46.72835 142
46.74847 139
46.76858 144
46.78869 140
46.80881 134
46.82892 129
46.84904 144
46.86915 157
46.88926 142
46.90938 132
46.92949 122
46.9496 125
46.96972 143
46.98983 125
47.00995 127
47.03006 138
47.05017 143
47.07029 137
47.0904 150
47.11051 146
47.13063 150
47.15074 155
47.17086 137
47.19097 121
47.21108 145
47.2312 155
47.25131 143
47.27142 127
47.29154 146
47.31165 129
47.33176 118
47.35188 136
47.37199 143
47.39211 127
47.41222 133
47.43233 129
47.45245 130
47.47256 149
47.49267 119
47.51279 137
47.5329 142
47.55302 140
47.57313 136
47.59324 127
47.61336 126
47.63347 124
47.65358 137
47.6737 128
47.69381 141
47.71393 125
47.73404 154
47.75415 130
47.77427 129
47.79438 131
47.81449 115
47.83461 138
47.85472 141
47.87483 136
47.89495 139
47.91506 133
47.93518 133
47.95529 128
47.9754 136
47.99552 145
48.01563 125
48.03574 124
48.05586 115
48.07597 117
48.09609 144
48.1162 123
48.13631 132
48.15643 112
48.17654 142
48.19665 146
48.21677 146
48.23688 122
48.257 154
48.27711 122
48.29722 143
48.31734 151
48.33745 131
48.35756 132
48.37768 139
48.39779 131
48.4179 135
48.43802 157
48.45813 139
48.47825 139
48.49836 125
48.51847 133
48.53859 159
48.5587 138
48.57881 142
48.59893 134
48.61904 157
48.63916 136
48.65927 146
48.67938 150
48.6995 154
48.71961 151
48.73972 152
48.75984 146
48.77995 138
48.80006 141
48.82018 138
48.84029 141
48.86041 150
48.88052 135
48.90063 159
48.92075 150
48.94086 161
48.96097 158
48.98109 146
49.0012 177
49.02132 154
49.04143 168
49.06154 171
49.08166 144
49.10177 148
49.12188 150
49.142 159
49.16211 166
49.18223 155
49.20234 150
49.22245 156
49.24257 143
49.26268 169
49.28279 152
49.30291 158
49.32302 172
49.34313 146
49.36325 146
49.38336 163
49.40348 144
49.42359 151
49.4437 193
49.46382 184
49.48393 167
49.50404 175
49.52416 195
49.54427 179
49.56439 195
49.5845 191
49.60461 213
49.62473 215
49.64484 226
49.66495 277
49.68507 267
49.70518 293
49.7253 328
49.74541 331
49.76552 370
49.78564 373
49.80575 457
49.82586 504
49.84598 597
49.86609 653
49.8862 734
49.90632 891
49.92643 1055
49.94655 1287
49.96666 1595
49.98677 1821
50.00689 2161
50.027 2673
50.04711 3094
50.06723 3346
50.08734 3655
50.10746 3355
50.12757 3094
50.14768 2574
50.1678 2221
50.18791 1939
50.20802 1843
50.22814 1766
50.24825 1640
50.26837 1278
50.28848 916
50.30859 671
50.32871 455
50.34882 414
50.36893 311
50.38905 314
50.40916 290
50.42927 276
50.44939 277
50.4695 274
50.48962 249
50.50973 292
50.52984 242
50.54996 288
50.57007 250
50.59018 258
50.6103 226
50.63041 236
50.65053 230
50.67064 211
50.69075 212
50.71087 204
50.73098 192
50.75109 201
50.77121 175
50.79132 169
50.81143 201
50.83155 182
50.85166 160
50.87178 170
50.89189 178
50.912 167
50.93212 170
50.95223 150
50.97234 138
50.99246 150
51.01257 156
51.03269 118
51.0528 149
51.07291 135
51.09303 176
51.11314 135
51.13325 141
51.15337 123
51.17348 139
51.1936 127
51.21371 130
51.23382 137
51.25394 135
51.27405 151
51.29416 137
51.31428 126
51.33439 141
51.3545 149
51.37462 123
51.39473 146
51.41485 143
51.43496 173
51.45507 123
51.47519 129
51.4953 129
51.51541 123
51.53553 126
51.55564 135
51.57576 115
51.59587 111
51.61598 117
51.6361 150
51.65621 132
51.67632 129
51.69644 130
51.71655 138
51.73667 150
51.75678 110
51.77689 123
51.79701 160
51.81712 118
51.83723 134
51.85735 129
51.87746 133
51.89757 125
51.91769 125
51.9378 114
51.95792 129
51.97803 113
51.99814 139
52.01826 142
52.03837 148
52.05848 135
52.0786 122
52.09871 124
52.11883 133
52.13894 146
52.15905 123
52.17917 118
52.19928 131
52.21939 121
52.23951 130
52.25962 119
52.27974 137
52.29985 133
52.31996 136
52.34008 118
52.36019 119
52.3803 136
52.40042 129
52.42053 106
52.44064 137
52.46076 135
52.48087 104
52.50099 132
52.5211 125
52.54121 109
52.56133 123
52.58144 130
52.60155 105
52.62167 124
52.64178 118
52.6619 119
52.68201 105
52.70212 111
52.72224 139
52.74235 110
52.76246 110
52.78258 120
52.80269 121
52.8228 113
52.84292 114
52.86303 131
52.88315 135
52.90326 155
52.92337 139
52.94349 144
52.9636 128
52.98371 150
53.00383 116
53.02394 148
53.04406 133
53.06417 164
53.08428 140
53.1044 150
53.12451 159
53.14462 138
53.16474 153
53.18485 121
53.20497 139
53.22508 140
53.24519 141
53.26531 125
53.28542 123
53.30553 133
53.32565 141
53.34576 122
53.36587 141
53.38599 168
53.4061 146
53.42622 127
53.44633 147
53.46644 131
53.48656 159
53.50667 136
53.52678 128
53.5469 171
53.56701 152
53.58713 157
53.60724 134
53.62735 136
53.64747 168
53.66758 131
53.68769 144
53.70781 146
53.72792 140
53.74804 145
53.76815 129
53.78826 149
53.80838 118
53.82849 148
53.8486 122
53.86872 130
53.88883 150
53.90894 139
53.92906 128
53.94917 149
53.96929 152
53.9894 168
54.00951 137
54.02963 171
54.04974 123
54.06985 170
54.08997 155
54.11008 166
54.1302 152
54.15031 155
54.17042 179
54.19054 133
54.21065 147
54.23076 161
54.25088 163
54.27099 174
54.29111 151
54.31122 175
54.33133 162
54.35145 186
54.37156 172
54.39167 163
54.41179 185
54.4319 199
54.45201 204
54.47213 198
54.49224 197
54.51236 208
54.53247 202
54.55258 250
54.5727 262
54.59281 329
54.61292 356
54.63304 379
54.65315 424
54.67327 439
54.69338 524
54.71349 644
54.73361 711
54.75372 825
54.77383 880
54.79395 1043
54.81406 1033
54.83417 1126
54.85429 1026
54.8744 837
54.89452 772
54.91463 683
54.93474 689
54.95486 645
54.97497 597
54.99508 544
55.0152 535
55.03531 424
55.05543 338
55.07554 311
55.09565 309
55.11577 273
55.13588 306
55.15599 364
55.17611 416
55.19622 434
55.21634 446
55.23645 524
55.25656 529
55.27668 535
55.29679 519
55.3169 485
55.33702 400
55.35713 387
55.37724 353
55.39736 351
55.41747 334
55.43759 326
55.4577 340
55.47781 238
55.49793 231
55.51804 192
55.53815 184
55.55827 183
55.57838 170
55.5985 160
55.61861 159
55.63872 150
55.65884 156
55.67895 129
55.69906 150
55.71918 148
55.73929 160
55.75941 132
55.77952 127
55.79963 137
55.81975 139
55.83986 136
55.85997 132
55.88009 130
55.9002 136
55.92031 139
55.94043 126
55.96054 116
55.98066 135
56.00077 115
56.02088 125
56.041 131
56.06111 109
56.08122 139
56.10134 149
56.12145 133
56.14157 144
56.16168 162
56.18179 129
56.20191 105
56.22202 148
56.24213 136
56.26225 138
56.28236 139
56.30248 102
56.32259 125
56.3427 125
56.36282 136
56.38293 120
56.40304 105
56.42316 131
56.44327 134
56.46338 132
56.4835 122
56.50361 113
56.52373 128
56.54384 129
56.56395 131
56.58407 136
56.60418 127
56.62429 127
56.64441 131
56.66452 118
56.68464 120
56.70475 126
56.72486 139
56.74498 118
56.76509 121
56.7852 129
56.80532 123
56.82543 127
56.84554 136
56.86566 125
56.88577 137
56.90589 133
56.926 117
56.94611 120
56.96623 132
56.98634 148
57.00645 137
57.02657 127
57.04668 159
57.0668 132
57.08691 170
57.10702 141
57.12714 184
57.14725 143
57.16736 150
57.18748 173
57.20759 174
57.22771 159
57.24782 165
57.26793 148
57.28805 163
57.30816 145
57.32827 145
57.34839 149
57.3685 161
57.38861 126
57.40873 126
57.42884 120
57.44896 127
57.46907 118
57.48918 114
57.5093 128
57.52941 125
57.54952 125
57.56964 122
57.58975 146
57.60987 135
57.62998 127
57.65009 125
57.67021 134
57.69032 110
57.71043 130
57.73055 121
57.75066 137
57.77078 133
57.79089 110
57.811 127
57.83112 143
57.85123 110
57.87134 128
57.89146 122
57.91157 103
57.93168 116
57.9518 122
57.97191 132
57.99203 151
58.01214 116
58.03225 127
58.05237 126
58.07248 118
58.09259 148
58.11271 115
58.13282 138
58.15294 118
58.17305 122
58.19316 134
58.21328 136
58.23339 110
58.2535 105
58.27362 132
58.29373 136
58.31385 105
58.33396 105
58.35407 113
58.37419 105
58.3943 113
58.41441 119
58.43453 122
58.45464 107
58.47475 134
58.49487 137
58.51498 118
58.5351 125
58.55521 119
58.57532 117
58.59544 144
58.61555 117
58.63566 106
58.65578 126
58.67589 143
58.69601 132
58.71612 142
58.73623 149
58.75635 135
58.77646 108
58.79657 159
58.81669 138
58.8368 153
58.85691 149
58.87703 114
58.89714 124
58.91726 146
58.93737 122
58.95748 144
58.9776 148
58.99771 146
59.01782 130
59.03794 137
59.05805 141
59.07817 149
59.09828 135
59.11839 147
59.13851 149
59.15862 157
59.17873 144
59.19885 166
59.21896 145
59.23908 149
59.25919 163
59.2793 151
59.29942 167
59.31953 165
59.33964 167
59.35976 166
59.37987 174
59.39998 183
59.4201 197
59.44021 199
59.46033 208
59.48044 212
59.50055 199
59.52067 274
59.54078 264
59.56089 280
59.58101 303
59.60112 344
59.62124 333
59.64135 400
59.66146 449
59.68158 526
59.70169 595
59.7218 700
59.74192 848
59.76203 900
59.78215 1126
59.80226 1357
59.82237 1524
59.84249 1808
59.8626 2014
59.88271 2074
59.90283 2176
59.92294 2037
59.94305 1772
59.96317 1513
59.98328 1347
60.0034 1225
60.02351 1152
60.04362 1137
60.06374 1058
60.08385 994
60.10396 838
60.12408 736
60.14419 537
60.16431 421
60.18442 284
60.20453 266
60.22465 215
60.24476 209
60.26487 200
60.28499 186
60.3051 188
60.32522 155
60.34533 197
60.36544 169
60.38556 170
60.40567 149
60.42578 152
60.4459 164
60.46601 158
60.48612 149
60.50624 143
60.52635 153
60.54647 151
60.56658 147
60.58669 140
60.60681 140
60.62692 127
60.64703 136
60.66715 132
60.68726 149
60.70738 142
60.72749 162
60.7476 112
60.76772 126
60.78783 142
60.80794 129
60.82806 129
60.84817 129
60.86828 136
60.8884 150
60.90851 130
60.92863 126
60.94874 113
60.96885 117
60.98897 107
61.00908 115
61.02919 124
61.04931 111
61.06942 113
61.08954 110
61.10965 117
61.12976 107
61.14988 119
61.16999 121
61.1901 135
61.21022 120
61.23033 119
61.25045 130
61.27056 129
61.29067 116
61.31079 123
61.3309 124
61.35101 111
61.37113 124
61.39124 121
61.41135 120
61.43147 128
61.45158 106
61.4717 147
61.49181 133
61.51192 97
61.53204 124
61.55215 112
61.57226 126
61.59238 125
61.61249 95
61.63261 108
61.65272 98
61.67283 105
61.69295 122
61.71306 142
61.73317 123
61.75329 126
61.7734 112
61.79352 120
61.81363 112
61.83374 121
61.85386 133
61.87397 118
61.89408 126
61.9142 106
61.93431 119
61.95442 152
61.97454 125
61.99465 143
62.01477 149
62.03488 164
62.05499 130
62.07511 130
62.09522 133
62.11533 133
62.13545 148
62.15556 173
62.17568 143
62.19579 134
62.2159 169
62.23602 151
62.25613 143
62.27624 158
62.29636 133
62.31647 145
62.33659 148
62.3567 140
62.37681 139
62.39693 152
62.41704 160
62.43715 132
62.45727 140
62.47738 146
62.49749 130
62.51761 126
62.53772 124
62.55784 138
62.57795 138
62.59806 119
62.61818 111
62.63829 132
62.6584 126
62.67852 125
62.69863 96
62.71875 135
62.73886 129
62.75897 116
62.77909 101
62.7992 120
62.81931 109
62.83943 110
62.85954 121
62.87965 124
62.89977 121
62.91988 131
62.94 110
62.96011 121
62.98022 121
63.00034 116
63.02045 114
63.04056 130
63.06068 110
63.08079 125
63.10091 116
63.12102 134
63.14113 108
63.16125 132
63.18136 124
63.20147 121
63.22159 109
63.2417 136
63.26182 137
63.28193 135
63.30204 130
63.32216 123
63.34227 122
63.36238 124
63.3825 117
63.40261 126
63.42272 136
63.44284 118
63.46295 126
63.48307 117
63.50318 115
63.52329 128
63.54341 118
63.56352 138
63.58363 149
63.60375 141
63.62386 138
63.64398 151
63.66409 174
63.6842 151
63.70432 186
63.72443 159
63.74454 180
63.76466 191
63.78477 207
63.80489 242
63.825 237
63.84511 247
63.86523 324
63.88534 329
63.90545 397
63.92557 403
63.94568 454
63.96579 455
63.98591 499
64.00602 461
64.02614 436
64.04625 375
64.06636 315
64.08648 307
64.10659 286
64.1267 291
64.14682 277
64.16693 257
64.18705 278
64.20716 222
64.22727 226
64.24739 168
64.2675 146
64.28761 133
64.30773 156
64.32784 148
64.34796 148
64.36807 125
64.38818 132
64.4083 135
64.42841 146
64.44852 117
64.46864 127
64.48875 117
64.50886 116
64.52898 136
64.54909 128
64.56921 127
64.58932 124
64.60943 121
64.62955 114
64.64966 114
64.66977 131
64.68989 106
64.71 111
64.73012 122
64.75023 113
64.77034 98
64.79046 124
64.81057 123
64.83068 110
64.8508 117
64.87091 114
64.89102 138
64.91114 123
64.93125 120
64.95137 134
64.97148 134
64.99159 127
65.01171 126
65.03182 123
65.05193 97
65.07205 128
65.09216 106
65.11228 139
65.13239 133
65.1525 107
65.17262 120
65.19273 121
65.21284 127
65.23296 121
65.25307 120
65.27319 105
65.2933 125
65.31341 124
65.33353 122
65.35364 130
65.37375 103
65.39387 131
65.41398 136
65.43409 125
65.45421 137
65.47432 147
65.49444 125
65.51455 160
65.53466 133
65.55478 153
65.57489 166
65.595 178
65.61512 167
65.63523 185
65.65535 193
65.67546 182
65.69557 210
65.71569 225
65.7358 224
65.75591 198
65.77603 192
65.79614 187
65.81626 194
65.83637 188
65.85648 146
65.8766 169
65.89671 167
65.91682 167
65.93694 168
65.95705 136
65.97716 134
65.99728 142
66.01739 136
66.03751 112
66.05762 159
66.07773 143
66.09785 121
66.11796 115
66.13807 112
66.15819 135
66.1783 123
66.19842 146
66.21853 127
66.23864 114
66.25876 121
66.27887 131
66.29898 133
66.3191 122
66.33921 108
66.35933 129
66.37944 117
66.39955 125
66.41967 110
66.43978 128
66.45989 127
66.48001 127
66.50012 135
66.52023 115
66.54035 136
66.56046 152
66.58058 123
66.60069 124
66.6208 151
66.64092 150
66.66103 129
66.68114 161
66.70126 135
66.72137 139
66.74149 116
66.7616 144
66.78171 138
66.80183 117
66.82194 124
66.84205 132
66.86217 141
66.88228 143
66.90239 152
66.92251 145
66.94262 161
66.96274 139
66.98285 138
67.00296 149
67.02308 171
67.04319 143
67.0633 161
67.08342 162
67.10353 166
67.12365 167
67.14376 174
67.16387 155
67.18399 202
67.2041 180
67.22421 196
67.24433 222
67.26444 204
67.28456 202
67.30467 215
67.32478 266
67.3449 236
67.36501 268
67.38512 250
67.40524 289
67.42535 323
67.44546 375
67.46558 409
67.48569 405
67.50581 503
67.52592 575
67.54603 679
67.56615 735
67.58626 878
67.60637 944
67.62649 1043
67.6466 1165
67.66672 1295
67.68683 1272
67.70694 1137
67.72706 1107
67.74717 1034
67.76728 879
67.7874 879
67.80751 873
67.82763 865
67.84774 984
67.86785 947
67.88797 966
67.90808 1027
67.92819 1059
67.94831 1075
67.96842 1097
67.98853 1141
68.00865 1310
68.02876 1400
68.04888 1530
68.06899 1728
68.0891 1669
68.10922 1733
68.12933 1588
68.14944 1534
68.16956 1372
68.18967 1403
68.20979 1448
68.2299 1467
68.25001 1509
68.27013 1531
68.29024 1379
68.31035 1185
68.33047 1044
68.35058 827
68.3707 740
68.39081 658
68.41092 646
68.43104 597
68.45115 610
68.47126 539
68.49138 467
68.51149 366
68.5316 326
68.55172 272
68.57183 220
68.59195 239
68.61206 224
68.63217 190
68.65229 184
68.6724 187
68.69251 167
68.71263 178
68.73274 181
68.75286 153
68.77297 153
68.79308 151
68.8132 141
68.83331 141
68.85342 156
68.87354 142
68.89365 158
68.91376 118
68.93388 136
68.95399 129
68.97411 145
68.99422 145
69.01433 132
69.03445 142
69.05456 135
69.07467 117
69.09479 129
69.1149 122
69.13502 124
69.15513 124
69.17524 128
69.19536 115
69.21547 147
69.23558 127
69.2557 141
69.27581 114
69.29593 104
69.31604 126
69.33615 114
69.35627 133
69.37638 120
69.39649 122
69.41661 124
69.43672 115
69.45683 127
69.47695 116
69.49706 128
69.51718 148
69.53729 116
69.5574 113
69.57752 117
69.59763 124
69.61774 117
69.63786 127
69.65797 106
69.67809 104
69.6982 108
69.71831 135
69.73843 120
69.75854 101
69.77865 117
69.79877 97
69.81888 138
69.839 112
69.85911 110
69.87922 97
69.89934 115
69.91945 93
69.93956 114
69.95968 106
69.97979 123
69.9999 96
70.02002 114
70.04013 111
70.06025 104
70.08036 125
70.10047 119
70.12059 116
70.1407 112
70.16081 97
70.18093 106
70.20104 118
70.22116 104
70.24127 98
70.26138 106
70.2815 116
70.30161 130
70.32172 116
70.34184 129
70.36195 115
70.38207 123
70.40218 112
70.42229 99
70.44241 129
70.46252 128
70.48263 129
70.50275 116
70.52286 96
70.54297 111
70.56309 118
70.5832 118
70.60332 115
70.62343 116
70.64354 113
70.66366 106
70.68377 96
70.70388 114
70.724 112
70.74411 108
70.76423 112
70.78434 100
70.80445 125
70.82457 100
70.84468 114
70.86479 122
70.88491 105
70.90502 109
70.92513 95
70.94525 109
70.96536 112
70.98548 125
71.00559 120
71.0257 118
71.04582 112
71.06593 113
71.08604 111
71.10616 100
71.12627 120
71.14639 88
71.1665 121
71.18661 96
71.20673 120
71.22684 106
71.24695 116
71.26707 110
71.28718 133
71.3073 102
71.32741 101
71.34752 111
71.36764 123
71.38775 101
71.40786 110
71.42798 82
71.44809 94
71.4682 111
71.48832 117
71.50843 98
71.52855 126
71.54866 107
71.56877 108
71.58889 121
71.609 99
71.62911 110
71.64923 96
71.66934 106
71.68946 118
71.70957 113
71.72968 100
71.7498 115
71.76991 105
71.79002 100
71.81014 104
71.83025 108
71.85037 95
71.87048 103
71.89059 128
71.91071 108
71.93082 93
71.95093 112
71.97105 112
71.99116 96
72.01127 121
72.03139 84
72.0515 95
72.07162 94
72.09173 100
72.11184 109
72.13196 107
72.15207 101
72.17218 90
72.1923 107
72.21241 110
72.23253 100
72.25264 121
72.27275 93
72.29287 108
72.31298 97
72.33309 115
72.35321 124
72.37332 110
72.39344 122
72.41355 100
72.43366 103
72.45378 92
72.47389 101
72.494 100
72.51412 110
72.53423 109
72.55434 99
72.57446 108
72.59457 87
72.61469 95
72.6348 118
72.65491 113
72.67503 125
72.69514 120
72.71525 119
72.73537 119
72.75548 104
72.7756 116
72.79571 100
72.81582 103
72.83594 119
72.85605 103
72.87616 118
72.89628 119
72.91639 129
72.9365 135
72.95662 133
72.97673 131
72.99685 98
73.01696 131
73.03707 128
73.05719 139
73.0773 140
73.09741 149
73.11753 151
73.13764 171
73.15776 168
73.17787 203
73.19798 204
73.2181 248
73.23821 249
73.25832 304
73.27844 282
73.29855 350
73.31867 344
73.33878 381
73.35889 412
73.37901 446
73.39912 464
73.41923 466
73.43935 467
73.45946 394
73.47957 333
73.49969 298
73.5198 270
73.53992 307
73.56003 283
73.58014 292
73.60026 269
73.62037 310
73.64048 284
73.6606 261
73.68071 249
73.70083 198
73.72094 179
73.74105 147
73.76117 149
73.78128 127
73.80139 131
73.82151 125
73.84162 136
73.86174 136
73.88185 107
73.90196 122
73.92208 130
73.94219 117
73.9623 89
73.98242 109
74.00253 110
74.02264 88
74.04276 100
74.06287 113
74.08299 99
74.1031 114
74.12321 111
74.14333 115
74.16344 101
74.18355 95
74.20367 114
74.22378 99
74.2439 122
74.26401 119
74.28412 116
74.30424 102
74.32435 112
74.34446 105
74.36458 91
74.38469 106
74.40481 102
74.42492 131
74.44503 97
74.46515 102
74.48526 92
74.50537 95
74.52549 112
74.5456 121
74.56571 100
74.58583 128
74.60594 106
74.62606 112
74.64617 106
74.66628 115
74.6864 111
74.70651 111
74.72662 91
74.74674 120
74.76685 131
74.78697 102
74.80708 95
74.82719 115
74.84731 139
74.86742 132
74.88753 127
74.90765 117
74.92776 104
74.94787 129
74.96799 132
74.9881 118
75.00822 118
