3.00117 17840
3.02128 17547
3.0414 16658
3.06151 16564
3.08162 16041
3.10174 15399
3.12185 15500
3.14197 14834
3.16208 14644
3.18219 14282
3.20231 13739
3.22242 13626
3.24253 12949
3.26265 12613
3.28276 12393
3.30288 11934
3.32299 11790
3.3431 10871
3.36322 11130
3.38333 10670
3.40344 10378
3.42356 10140
3.44367 9686
3.46379 9451
3.4839 8805
3.50401 8620
3.52413 8425
3.54424 7981
3.56435 7975
3.58447 7562
3.60458 7275
3.62469 7108
3.64481 6616
3.66492 6644
3.68504 6209
3.70515 5967
3.72526 5814
3.74538 5493
3.76549 5240
3.7856 5158
3.80572 4795
3.82583 4861
3.84595 4260
3.86606 4271
3.88617 4056
3.90629 3946
3.9264 3847
3.94651 3555
3.96663 3518
3.98674 3313
4.00686 3250
4.02697 3223
4.04708 2786
4.0672 2806
4.08731 2645
4.10742 2546
4.12754 2583
4.14765 2197
4.16776 2223
4.18788 2102
4.20799 1977
4.22811 1979
4.24822 1830
4.26833 1825
4.28845 1688
4.30856 1632
4.32867 1671
4.34879 1463
4.3689 1505
4.38902 1500
4.40913 1477
4.42924 1516
4.44936 1278
4.46947 1257
4.48958 1299
4.5097 1268
4.52981 1256
4.54992 1127
4.57004 1132
4.59015 1183
4.61027 1049
4.63038 1033
4.65049 1021
4.67061 1002
4.69072 998
4.71083 951
4.73095 963
4.75106 906
4.77118 871
4.79129 935
4.8114 856
4.83152 841
4.85163 780
4.87174 745
4.89186 804
4.91197 750
4.93209 771
4.9522 690
4.97231 698
4.99243 697
5.01254 663
5.03265 665
5.05277 601
5.07288 593
5.09299 639
5.11311 594
5.13322 566
5.15334 594
5.17345 576
5.19356 571
5.21368 588
5.23379 450
5.2539 514
5.27402 509
5.29413 502
5.31425 544
5.33436 439
5.35447 433
5.37459 435
5.3947 439
5.41481 431
5.43493 402
5.45504 396
5.47516 390
5.49527 401
5.51538 388
5.5355 392
5.55561 362
5.57572 380
5.59584 397
5.61595 396
5.63606 352
5.65618 295
5.67629 310
5.69641 319
5.71652 326
5.73663 291
5.75675 321
5.77686 279
5.79697 287
5.81709 302
5.8372 311
5.85732 275
5.87743 308
5.89754 279
5.91766 267
5.93777 297
5.95788 285
5.978 244
5.99811 280
6.01823 298
6.03834 266
6.05845 270
6.07857 268
6.09868 236
6.11879 216
6.13891 265
6.15902 233
6.17913 245
6.19925 239
6.21936 266
6.23948 241
6.25959 251
6.2797 219
6.29982 248
6.31993 234
6.34004 232
6.36016 227
6.38027 239
6.40039 236
6.4205 228
6.44061 243
6.46073 223
6.48084 228
6.50095 216
6.52107 239
6.54118 219
6.56129 217
6.58141 205
6.60152 214
6.62164 203
6.64175 200
6.66186 209
6.68198 200
6.70209 207
6.7222 206
6.74232 235
6.76243 198
6.78255 190
6.80266 218
6.82277 219
6.84289 234
6.863 184
6.88311 246
6.90323 202
6.92334 211
6.94346 239
6.96357 204
6.98368 187
7.0038 206
7.02391 206
7.04402 208
7.06414 221
7.08425 203
7.10436 228
7.12448 205
7.14459 216
7.16471 222
7.18482 226
7.20493 208
7.22505 191
7.24516 212
7.26527 211
7.28539 187
7.3055 206
7.32562 232
7.34573 207
7.36584 210
7.38596 211
7.40607 222
7.42618 194
7.4463 229
7.46641 211
7.48653 221
7.50664 202
7.52675 249
7.54687 202
7.56698 253
7.58709 188
7.60721 225
7.62732 218
7.64743 213
7.66755 248
7.68766 219
7.70778 213
7.72789 220
7.748 214
7.76812 219
7.78823 221
7.80834 207
7.82846 250
7.84857 211
7.86869 202
7.8888 197
7.90891 222
7.92903 209
7.94914 216
7.96925 218
7.98937 230
8.00948 216
8.0296 211
8.04971 239
8.06982 206
8.08994 246
8.11005 245
8.13016 254
8.15028 229
8.17039 234
8.1905 220
8.21062 227
8.23073 224
8.25085 251
8.27096 245
8.29107 216
8.31119 248
8.3313 238
8.35141 276
8.37153 212
8.39164 204
8.41176 232
8.43187 217
8.45198 219
8.4721 234
8.49221 240
8.51232 231
8.53244 229
8.55255 235
8.57266 213
8.59278 228
8.61289 266
8.63301 224
8.65312 257
8.67323 248
8.69335 219
8.71346 252
8.73357 235
8.75369 230
8.7738 257
8.79392 234
8.81403 260
8.83414 264
8.85426 239
8.87437 247
8.89448 268
8.9146 254
8.93471 244
8.95483 249
8.97494 259
8.99505 231
9.01517 257
9.03528 248
9.05539 239
9.07551 237
9.09562 243
9.11573 239
9.13585 233
9.15596 221
9.17608 230
9.19619 218
9.2163 235
9.23642 231
9.25653 213
9.27664 244
9.29676 230
9.31687 237
9.33699 225
9.3571 213
9.37721 198
9.39733 267
9.41744 243
9.43755 219
9.45767 232
9.47778 225
9.4979 223
9.51801 208
9.53812 233
9.55824 199
9.57835 211
9.59846 220
9.61858 269
9.63869 215
9.6588 241
9.67892 250
9.69903 245
9.71915 256
9.73926 258
9.75937 261
9.77949 244
9.7996 245
9.81971 245
9.83983 238
9.85994 237
9.88006 245
9.90017 262
9.92028 232
9.9404 215
9.96051 241
9.98062 212
10.00074 219
10.02085 223
10.04097 243
10.06108 226
10.08119 241
10.10131 257
10.12142 241
10.14153 228
10.16165 239
10.18176 280
10.20187 231
10.22199 221
10.2421 225
10.26222 238
10.28233 220
10.30244 248
10.32256 266
10.34267 250
10.36278 233
10.3829 242
10.40301 267
10.42313 247
10.44324 263
10.46335 236
10.48347 244
10.50358 258
10.52369 250
10.54381 242
10.56392 259
10.58403 230
10.60415 272
10.62426 235
10.64438 244
10.66449 222
10.6846 275
10.70472 232
10.72483 248
10.74494 235
10.76506 235
10.78517 242
10.80529 209
10.8254 255
10.84551 216
10.86563 251
10.88574 290
10.90585 243
10.92597 224
10.94608 249
10.9662 233
10.98631 243
11.00642 234
11.02654 270
11.04665 223
11.06676 250
11.08688 257
11.10699 261
11.1271 257
11.14722 242
11.16733 243
11.18745 240
11.20756 251
11.22767 257
11.24779 251
11.2679 237
11.28801 246
11.30813 238
11.32824 250
11.34836 273
11.36847 263
11.38858 242
11.4087 237
11.42881 275
11.44892 253
11.46904 231
11.48915 235
11.50927 269
11.52938 252
11.54949 284
11.56961 248
11.58972 250
11.60983 262
11.62995 250
11.65006 267
11.67017 271
11.69029 258
11.7104 308
11.73052 279
11.75063 306
11.77074 251
11.79086 292
11.81097 257
11.83108 267
11.8512 273
11.87131 285
11.89143 284
11.91154 299
11.93165 315
11.95177 285
11.97188 306
11.99199 316
12.01211 305
12.03222 349
12.05234 354
12.07245 355
12.09256 365
12.11268 363
12.13279 383
12.1529 372
12.17302 389
12.19313 354
12.21324 382
12.23336 377
12.25347 385
12.27359 381
12.2937 421
12.31381 378
12.33393 377
12.35404 395
12.37415 387
12.39427 368
12.41438 367
12.4345 333
12.45461 321
12.47472 310
12.49484 358
12.51495 343
12.53506 353
12.55518 301
12.57529 319
12.5954 280
12.61552 309
12.63563 308
12.65575 310
12.67586 284
12.69597 298
12.71609 240
12.7362 259
12.75631 261
12.77643 265
12.79654 265
12.81666 248
12.83677 283
12.85688 257
12.877 247
12.89711 206
12.91722 239
12.93734 220
12.95745 269
12.97757 212
12.99768 240
13.01779 260
13.03791 248
13.05802 235
13.07813 234
13.09825 243
13.11836 287
13.13847 263
13.15859 280
13.1787 268
13.19882 278
13.21893 256
13.23904 265
13.25916 237
13.27927 248
13.29938 237
13.3195 240
13.33961 222
13.35973 220
13.37984 217
13.39995 210
13.42007 181
13.44018 247
13.46029 229
13.48041 247
13.50052 197
13.52064 233
13.54075 218
13.56086 237
13.58098 258
13.60109 278
13.6212 250
13.64132 305
13.66143 277
13.68154 281
13.70166 281
13.72177 267
13.74189 273
13.762 259
13.78211 250
13.80223 252
13.82234 232
13.84245 235
13.86257 235
13.88268 267
13.9028 226
13.92291 221
13.94302 247
13.96314 243
13.98325 227
14.00336 211
14.02348 193
14.04359 232
14.06371 222
14.08382 199
14.10393 225
14.12405 202
14.14416 198
14.16427 202
14.18439 213
14.2045 203
14.22461 216
14.24473 188
14.26484 209
14.28496 217
14.30507 176
14.32518 219
14.3453 206
14.36541 178
14.38552 214
14.40564 223
14.42575 216
14.44587 224
14.46598 206
14.48609 236
14.50621 221
14.52632 206
14.54643 214
14.56655 191
14.58666 252
14.60677 181
14.62689 181
14.647 220
14.66712 191
14.68723 189
14.70734 239
14.72746 217
14.74757 218
14.76768 224
14.7878 219
14.80791 225
14.82803 216
14.84814 248
14.86825 225
14.88837 246
14.90848 209
14.92859 263
14.94871 243
14.96882 244
14.98894 240
15.00905 238
15.02916 246
15.04928 227
15.06939 232
15.0895 219
15.10962 209
15.12973 207
15.14984 219
15.16996 245
15.19007 181
15.21019 227
15.2303 204
15.25041 214
15.27053 217
15.29064 217
15.31075 207
15.33087 228
15.35098 194
15.3711 204
15.39121 214
15.41132 210
15.43144 198
15.45155 193
15.47166 232
15.49178 195
15.51189 209
15.53201 186
15.55212 199
15.57223 189
15.59235 199
15.61246 187
15.63257 191
15.65269 201
15.6728 182
15.69291 198
15.71303 226
15.73314 204
15.75326 200
15.77337 191
15.79348 211
15.8136 201
15.83371 196
15.85382 176
15.87394 216
15.89405 190
15.91417 195
15.93428 195
15.95439 207
15.97451 189
15.99462 187
16.01473 205
16.03485 201
16.05496 203
16.07508 169
16.09519 175
16.1153 189
16.13542 176
16.15553 226
16.17564 184
16.19576 180
16.21587 191
16.23598 200
16.2561 193
16.27621 196
16.29633 191
16.31644 187
16.33655 199
16.35667 196
16.37678 185
16.39689 200
16.41701 185
16.43712 197
16.45724 180
16.47735 193
16.49746 202
16.51758 192
16.53769 193
16.5578 189
16.57792 193
16.59803 191
16.61814 167
16.63826 189
16.65837 195
16.67849 205
16.6986 196
16.71871 202
16.73883 170
16.75894 213
16.77905 174
16.79917 196
16.81928 175
16.8394 192
16.85951 167
16.87962 180
16.89974 181
16.91985 201
16.93996 176
16.96008 185
16.98019 203
17.00031 187
17.02042 170
17.04053 196
17.06065 211
17.08076 196
17.10087 176
17.12099 205
17.1411 185
17.16121 191
17.18133 181
17.20144 199
17.22156 183
17.24167 179
17.26178 193
17.2819 206
17.30201 214
17.32212 193
17.34224 176
17.36235 170
17.38247 178
17.40258 184
17.42269 202
17.44281 194
17.46292 178
17.48303 195
17.50315 176
17.52326 204
17.54338 178
17.56349 178
17.5836 190
17.60372 189
17.62383 182
17.64394 191
17.66406 175
17.68417 189
17.70428 195
17.7244 194
17.74451 204
17.76463 170
17.78474 197
17.80485 207
17.82497 183
17.84508 201
17.86519 190
17.88531 197
17.90542 174
17.92554 178
17.94565 183
17.96576 201
17.98588 170
18.00599 174
18.0261 190
18.04622 200
18.06633 205
18.08645 201
18.10656 201
18.12667 183
18.14679 178
18.1669 181
18.18701 185
18.20713 193
18.22724 209
18.24735 184
18.26747 188
18.28758 199
18.3077 179
18.32781 190
18.34792 193
18.36804 181
18.38815 185
18.40826 201
18.42838 203
18.44849 179
18.46861 178
18.48872 172
18.50883 193
18.52895 210
18.54906 204
18.56917 184
18.58929 172
18.6094 183
18.62951 204
18.64963 200
18.66974 201
18.68986 188
18.70997 184
18.73008 194
18.7502 206
18.77031 151
18.79042 216
18.81054 215
18.83065 197
18.85077 207
18.87088 196
18.89099 198
18.91111 205
18.93122 196
18.95133 200
18.97145 197
18.99156 221
19.01168 185
19.03179 202
19.0519 193
19.07202 170
19.09213 214
19.11224 191
19.13236 206
19.15247 195
19.17258 209
19.1927 220
19.21281 240
19.23293 245
19.25304 211
19.27315 251
19.29327 227
19.31338 266
19.33349 224
19.35361 249
19.37372 204
19.39384 219
19.41395 247
19.43406 221
19.45418 213
19.47429 215
19.4944 219
19.51452 213
19.53463 229
19.55475 253
19.57486 245
19.59497 204
19.61509 243
19.6352 273
19.65531 254
19.67543 271
19.69554 256
19.71565 277
19.73577 274
19.75588 322
19.776 318
19.79611 354
19.81622 337
19.83634 406
19.85645 404
19.87656 404
19.89668 403
19.91679 417
19.93691 418
19.95702 430
19.97713 413
19.99725 407
20.01736 411
20.03747 414
20.05759 403
20.0777 444
20.09782 420
20.11793 388
20.13804 428
20.15816 396
20.17827 399
20.19838 417
20.2185 395
20.23861 391
20.25872 355
20.27884 414
20.29895 406
20.31907 387
20.33918 422
20.35929 390
20.37941 406
20.39952 426
20.41963 417
20.43975 421
20.45986 438
20.47998 444
20.50009 462
20.5202 485
20.54032 433
20.56043 468
20.58054 467
20.60066 562
20.62077 502
20.64088 569
20.661 662
20.68111 749
20.70123 893
20.72134 1158
20.74145 1382
20.76157 1687
20.78168 2109
20.80179 2521
20.82191 3101
20.84202 3495
20.86214 3893
20.88225 3916
20.90236 3705
20.92248 3434
20.94259 2987
20.9627 2380
20.98282 1963
21.00293 1648
21.02305 1368
21.04316 1219
21.06327 1071
21.08339 932
21.1035 829
21.12361 807
21.14373 702
21.16384 615
21.18395 562
21.20407 488
21.22418 455
21.2443 420
21.26441 401
21.28452 391
21.30464 391
21.32475 417
21.34486 385
21.36498 359
21.38509 352
21.40521 351
21.42532 368
21.44543 314
21.46555 364
21.48566 365
21.50577 359
21.52589 366
21.546 318
21.56612 311
21.58623 326
21.60634 357
21.62646 324
21.64657 294
21.66668 335
21.6868 307
21.70691 291
21.72702 306
21.74714 320
21.76725 257
21.78737 304
21.80748 273
21.82759 326
21.84771 328
21.86782 350
21.88793 377
21.90805 339
21.92816 375
21.94828 367
21.96839 397
21.9885 379
22.00862 370
22.02873 348
22.04884 413
22.06896 346
22.08907 375
22.10919 355
22.1293 340
22.14941 341
22.16953 349
22.18964 326
22.20975 364
22.22987 349
22.24998 368
22.27009 390
22.29021 390
22.31032 407
22.33044 427
22.35055 404
22.37066 384
22.39078 357
22.41089 370
22.431 294
22.45112 344
22.47123 279
22.49135 339
22.51146 292
22.53157 323
22.55169 296
22.5718 317
22.59191 298
22.61203 318
22.63214 319
22.65225 325
22.67237 316
22.69248 357
22.7126 327
22.73271 325
22.75282 322
22.77294 295
22.79305 298
22.81316 306
22.83328 275
22.85339 315
22.87351 265
22.89362 328
22.91373 326
22.93385 323
22.95396 303
22.97407 298
22.99419 357
23.0143 331
23.03442 380
23.05453 390
23.07464 376
23.09476 441
23.11487 413
23.13498 482
23.1551 468
23.17521 460
23.19532 513
23.21544 554
23.23555 523
23.25567 470
23.27578 456
23.29589 408
23.31601 393
23.33612 378
23.35623 340
23.37635 323
23.39646 346
23.41658 309
23.43669 351
23.4568 331
23.47692 286
23.49703 327
23.51714 345
23.53726 348
23.55737 321
23.57749 323
23.5976 349
23.61771 358
23.63783 352
23.65794 364
23.67805 345
23.69817 350
23.71828 316
23.73839 328
23.75851 377
23.77862 356
23.79874 343
23.81885 383
23.83896 361
23.85908 369
23.87919 438
23.8993 474
23.91942 504
23.93953 581
23.95965 610
23.97976 604
23.99987 618
24.01999 563
24.0401 570
24.06021 576
24.08033 487
24.10044 502
24.12056 410
24.14067 414
24.16078 369
24.1809 330
24.20101 430
24.22112 396
24.24124 420
24.26135 425
24.28146 422
24.30158 377
24.32169 412
24.34181 442
24.36192 455
24.38203 413
24.40215 418
24.42226 388
24.44237 336
24.46249 356
24.4826 346
24.50272 358
24.52283 356
24.54294 309
24.56306 392
24.58317 385
24.60328 394
24.6234 388
24.64351 428
24.66362 413
24.68374 397
24.70385 459
24.72397 442
24.74408 425
24.76419 449
24.78431 481
24.80442 448
24.82453 410
24.84465 440
24.86476 440
24.88488 422
24.90499 415
24.9251 415
24.94522 391
24.96533 422
24.98544 401
25.00556 402
25.02567 435
25.04579 386
25.0659 375
25.08601 379
25.10613 345
25.12624 364
25.14635 359
25.16647 377
25.18658 388
25.20669 378
25.22681 389
25.24692 364
25.26704 381
25.28715 363
25.30726 356
25.32738 384
25.34749 389
25.3676 383
25.38772 411
25.40783 408
25.42795 443
25.44806 519
25.46817 522
25.48829 564
25.5084 586
25.52851 581
25.54863 677
25.56874 626
25.58886 672
25.60897 649
25.62908 655
25.6492 644
25.66931 603
25.68942 639
25.70954 606
25.72965 537
25.74976 507
25.76988 502
25.78999 488
25.81011 465
25.83022 441
25.85033 447
25.87045 411
25.89056 396
25.91067 448
25.93079 432
25.9509 429
25.97102 444
25.99113 451
26.01124 473
26.03136 452
26.05147 456
26.07158 489
26.0917 506
26.11181 530
26.13193 564
26.15204 639
26.17215 668
26.19227 656
26.21238 719
26.23249 776
26.25261 839
26.27272 933
26.29283 965
26.31295 1056
26.33306 1311
26.35318 1421
26.37329 1704
26.3934 1855
26.41352 2292
26.43363 2663
26.45374 3320
26.47386 4044
26.49397 5086
26.51409 6501
26.5342 7928
26.55431 9772
26.57443 11985
26.59454 13752
26.61465 15317
26.63477 16316
26.65488 16940
26.67499 15504
26.69511 13745
26.71522 11759
26.73534 9457
26.75545 7178
26.77556 5301
26.79568 3831
26.81579 2879
26.8359 2028
26.85602 1605
26.87613 1325
26.89625 1171
26.91636 1067
26.93647 1064
26.95659 987
26.9767 933
26.99681 955
27.01693 992
27.03704 975
27.05716 1032
27.07727 1042
27.09738 984
27.1175 894
27.13761 899
27.15772 838
27.17784 790
27.19795 714
27.21806 706
27.23818 736
27.25829 713
27.27841 794
27.29852 855
27.31863 914
27.33875 971
27.35886 1145
27.37897 1207
27.39909 1306
27.4192 1414
27.43932 1410
27.45943 1453
27.47954 1405
27.49966 1311
27.51977 1186
27.53988 1082
27.56 977
27.58011 872
27.60023 739
27.62034 714
27.64045 572
27.66057 555
27.68068 538
27.70079 561
27.72091 533
27.74102 510
27.76113 538
27.78125 542
27.80136 507
27.82148 534
27.84159 561
27.8617 562
27.88182 564
27.90193 513
27.92204 501
27.94216 526
27.96227 500
27.98239 469
28.0025 475
28.02261 475
28.04273 425
28.06284 392
28.08295 415
28.10307 364
28.12318 362
28.1433 297
28.16341 343
28.18352 288
28.20364 353
28.22375 365
28.24386 341
28.26398 302
28.28409 344
28.3042 321
28.32432 332
28.34443 317
28.36455 305
28.38466 333
28.40477 289
28.42489 299
28.445 282
28.46511 307
28.48523 277
28.50534 259
28.52546 280
28.54557 256
28.56568 315
28.5858 254
28.60591 252
28.62602 249
28.64614 276
28.66625 224
28.68636 238
28.70648 269
28.72659 268
28.74671 257
28.76682 243
28.78693 250
28.80705 257
28.82716 253
28.84727 270
28.86739 231
28.8875 255
28.90762 254
28.92773 213
28.94784 257
28.96796 238
28.98807 281
29.00818 262
29.0283 244
29.04841 254
29.06853 249
29.08864 273
29.10875 272
29.12887 272
29.14898 288
29.16909 248
29.18921 285
29.20932 270
29.22943 243
29.24955 279
29.26966 338
29.28978 349
29.30989 335
29.33 312
29.35012 352
29.37023 385
29.39034 339
29.41046 413
29.43057 389
29.45069 419
29.4708 387
29.49091 376
29.51103 423
29.53114 356
29.55125 334
29.57137 330
29.59148 332
29.6116 303
29.63171 277
29.65182 246
29.67194 288
29.69205 283
29.71216 276
29.73228 273
29.75239 293
29.7725 289
29.79262 300
29.81273 298
29.83285 301
29.85296 311
29.87307 336
29.89319 293
29.9133 339
29.93341 325
29.95353 288
29.97364 278
29.99376 339
30.01387 312
30.03398 326
30.0541 338
30.07421 373
30.09432 373
30.11444 401
30.13455 445
30.15467 464
30.17478 454
30.19489 430
30.21501 434
30.23512 483
30.25523 451
30.27535 423
30.29546 474
30.31557 389
30.33569 427
30.3558 367
30.37592 352
30.39603 354
30.41614 309
30.43626 308
30.45637 371
30.47648 340
30.4966 305
30.51671 297
30.53683 291
30.55694 311
30.57705 341
30.59717 324
30.61728 304
30.63739 375
30.65751 381
30.67762 378
30.69773 396
30.71785 414
30.73796 435
30.75808 425
30.77819 429
30.7983 454
30.81842 426
30.83853 412
30.85864 405
30.87876 376
30.89887 352
30.91899 314
30.9391 354
30.95921 306
30.97933 294
30.99944 269
31.01955 259
31.03967 223
31.05978 235
31.0799 196
31.10001 261
31.12012 213
31.14024 229
31.16035 218
31.18046 238
31.20058 238
31.22069 219
31.2408 204
31.26092 244
31.28103 236
31.30115 227
31.32126 216
31.34137 241
31.36149 214
31.3816 255
31.40171 257
31.42183 251
31.44194 236
31.46206 268
31.48217 222
31.50228 253
31.5224 219
31.54251 242
31.56262 235
31.58274 224
31.60285 212
31.62297 219
31.64308 228
31.66319 223
31.68331 226
31.70342 198
31.72353 225
31.74365 231
31.76376 223
31.78387 249
31.80399 234
31.8241 221
31.84422 264
31.86433 233
31.88444 216
31.90456 215
31.92467 214
31.94478 204
31.9649 219
31.98501 244
32.00513 267
32.02524 259
32.04535 301
32.06547 292
32.08558 274
32.10569 267
32.12581 287
32.14592 279
32.16604 253
32.18615 286
32.20626 270
32.22638 248
32.24649 266
32.2666 271
32.28672 270
32.30683 260
32.32694 285
32.34706 280
32.36717 278
32.38729 294
32.4074 314
32.42751 295
32.44763 288
32.46774 314
32.48785 308
32.50797 289
32.52808 242
32.5482 264
32.56831 285
32.58842 276
32.60854 253
32.62865 268
32.64876 236
32.66888 224
32.68899 255
32.7091 227
32.72922 190
32.74933 210
32.76945 211
32.78956 214
32.80967 216
32.82979 234
32.8499 201
32.87001 224
32.89013 254
32.91024 238
32.93036 233
32.95047 240
32.97058 237
32.9907 241
33.01081 236
33.03092 242
33.05104 230
33.07115 251
33.09127 240
33.11138 240
33.13149 241
33.15161 234
33.17172 210
33.19183 229
33.21195 208
33.23206 237
33.25217 244
33.27229 224
33.2924 245
33.31252 231
33.33263 195
33.35274 224
33.37286 237
33.39297 187
33.41308 201
33.4332 211
33.45331 222
33.47343 256
33.49354 242
33.51365 206
33.53377 245
33.55388 222
33.57399 175
33.59411 241
33.61422 219
33.63434 231
33.65445 221
33.67456 198
33.69468 192
33.71479 213
33.7349 211
33.75502 208
33.77513 219
33.79524 201
33.81536 226
33.83547 182
33.85559 211
33.8757 257
33.89581 237
33.91593 220
33.93604 190
33.95615 212
33.97627 221
33.99638 205
34.0165 255
34.03661 239
34.05672 280
34.07684 323
34.09695 312
34.11706 298
34.13718 333
34.15729 376
34.17741 352
34.19752 349
34.21763 373
34.23775 341
34.25786 355
34.27797 351
34.29809 317
34.3182 335
34.33831 307
34.35843 306
34.37854 258
34.39866 261
34.41877 257
34.43888 285
34.459 272
34.47911 298
34.49922 267
34.51934 277
34.53945 246
34.55957 265
34.57968 309
34.59979 315
34.61991 312
34.64002 323
34.66013 315
34.68025 289
34.70036 339
34.72047 298
34.74059 320
34.7607 355
34.78082 313
34.80093 340
34.82104 351
34.84116 356
34.86127 369
34.88138 327
34.9015 347
34.92161 350
34.94173 358
34.96184 354
34.98195 373
35.00207 328
35.02218 339
35.04229 341
35.06241 321
35.08252 341
35.10264 347
35.12275 348
35.14286 315
35.16298 311
35.18309 348
35.2032 339
35.22332 384
35.24343 346
35.26354 369
35.28366 338
35.30377 354
35.32389 363
35.344 381
35.36411 402
35.38423 358
35.40434 361
35.42445 370
35.44457 430
35.46468 407
35.4848 419
35.50491 440
35.52502 427
35.54514 473
35.56525 462
35.58536 459
35.60548 416
35.62559 440
35.64571 355
35.66582 379
35.68593 374
35.70605 367
35.72616 346
35.74627 390
35.76639 357
35.7865 330
35.80661 371
35.82673 376
35.84684 352
35.86696 342
35.88707 299
35.90718 333
35.9273 306
35.94741 325
35.96752 297
35.98764 303
36.00775 303
36.02787 297
36.04798 284
36.06809 271
36.08821 285
36.10832 342
36.12843 310
36.14855 296
36.16866 346
36.18878 343
36.20889 354
36.229 357
36.24912 343
36.26923 348
36.28934 364
36.30946 380
36.32957 464
36.34968 491
36.3698 589
36.38991 622
36.41003 744
36.43014 795
36.45025 931
36.47037 1035
36.49048 1144
36.51059 1273
36.53071 1282
36.55082 1301
36.57094 1261
36.59105 1088
36.61116 1050
36.63128 903
36.65139 834
36.6715 631
36.69162 597
36.71173 530
36.73184 394
36.75196 393
36.77207 373
36.79219 359
36.8123 367
36.83241 346
36.85253 357
36.87264 339
36.89275 331
36.91287 317
36.93298 343
36.9531 369
36.97321 372
36.99332 337
37.01344 330
37.03355 325
37.05366 363
37.07378 287
37.09389 300
37.11401 326
37.13412 301
37.15423 286
37.17435 251
37.19446 236
37.21457 258
37.23469 260
37.2548 273
37.27491 279
37.29503 255
37.31514 245
37.33526 256
37.35537 301
37.37548 234
37.3956 241
37.41571 245
37.43582 257
37.45594 266
37.47605 263
37.49617 251
37.51628 282
37.53639 259
37.55651 270
37.57662 276
37.59673 280
37.61685 276
37.63696 288
37.65708 282
37.67719 265
37.6973 253
37.71742 266
37.73753 247
37.75764 305
37.77776 265
37.79787 252
37.81798 288
37.8381 249
37.85821 270
37.87833 254
37.89844 244
37.91855 268
37.93867 259
37.95878 257
37.97889 240
37.99901 235
38.01912 251
38.03924 260
38.05935 252
38.07946 260
38.09958 237
38.11969 232
38.1398 290
38.15992 252
38.18003 251
38.20015 243
38.22026 265
38.24037 261
38.26049 285
38.2806 291
38.30071 276
38.32083 302
38.34094 274
38.36105 319
38.38117 349
38.40128 311
38.4214 338
38.44151 340
38.46162 303
38.48174 319
38.50185 338
38.52196 315
38.54208 289
38.56219 311
38.58231 355
38.60242 343
38.62253 292
38.64265 267
38.66276 276
38.68287 313
38.70299 289
38.7231 308
38.74321 307
38.76333 298
38.78344 256
38.80356 259
38.82367 273
38.84378 269
38.8639 260
38.88401 293
38.90412 273
38.92424 256
38.94435 272
38.96447 289
38.98458 274
39.00469 299
39.02481 312
39.04492 249
39.06503 322
39.08515 299
39.10526 283
39.12538 306
39.14549 300
39.1656 329
39.18572 370
39.20583 385
39.22594 365
39.24606 405
39.26617 494
39.28628 481
39.3064 660
39.32651 685
39.34663 756
39.36674 853
39.38685 1012
39.40697 1030
39.42708 1095
39.44719 1176
39.46731 1282
39.48742 1172
39.50754 1066
39.52765 962
39.54776 864
39.56788 749
39.58799 696
39.6081 577
39.62822 461
39.64833 377
39.66845 375
39.68856 313
39.70867 270
39.72879 275
39.7489 247
39.76901 267
39.78913 249
39.80924 254
39.82935 220
39.84947 264
39.86958 258
39.8897 260
39.90981 245
39.92992 280
39.95004 251
39.97015 275
39.99026 276
40.01038 291
40.03049 312
40.05061 330
40.07072 302
40.09083 330
40.11095 370
40.13106 388
40.15117 413
40.17129 483
40.1914 500
40.21152 579
40.23163 622
40.25174 641
40.27186 687
40.29197 672
40.31208 694
40.3322 612
40.35231 572
40.37242 537
40.39254 485
40.41265 452
40.43277 384
40.45288 343
40.47299 329
40.49311 326
40.51322 276
40.53333 290
40.55345 241
40.57356 270
40.59368 256
40.61379 252
40.6339 245
40.65402 255
40.67413 233
40.69424 252
40.71436 225
40.73447 230
40.75458 234
40.7747 225
40.79481 253
40.81493 198
40.83504 239
40.85515 222
40.87527 198
40.89538 206
40.91549 220
40.93561 235
40.95572 248
40.97584 217
40.99595 230
41.01606 252
41.03618 207
41.05629 223
41.0764 205
41.09652 217
41.11663 219
41.13675 205
41.15686 217
41.17697 207
41.19709 198
41.2172 219
41.23731 212
41.25743 236
41.27754 215
41.29765 224
41.31777 229
41.33788 223
41.358 233
41.37811 258
41.39822 215
41.41834 221
41.43845 243
41.45856 280
41.47868 259
41.49879 225
41.51891 244
41.53902 262
41.55913 279
41.57925 270
41.59936 287
41.61947 315
41.63959 292
41.6597 317
41.67982 327
41.69993 343
41.72004 387
41.74016 379
41.76027 437
41.78038 420
41.8005 430
41.82061 456
41.84072 415
41.86084 397
41.88095 377
41.90107 358
41.92118 333
41.94129 329
41.96141 300
41.98152 279
42.00163 257
42.02175 297
42.04186 243
42.06198 242
42.08209 281
42.1022 254
42.12232 267
42.14243 296
42.16254 279
42.18266 334
42.20277 324
42.22289 324
42.243 362
42.26311 411
42.28323 443
42.30334 543
42.32345 547
42.34357 638
42.36368 752
42.38379 826
42.40391 850
42.42402 910
42.44414 929
42.46425 885
42.48436 825
42.50448 772
42.52459 706
42.5447 583
42.56482 610
42.58493 472
42.60505 448
42.62516 372
42.64527 330
42.66539 314
42.6855 311
42.70561 297
42.72573 294
42.74584 281
42.76595 276
42.78607 290
42.80618 258
42.8263 274
42.84641 232
42.86652 238
42.88664 274
42.90675 224
42.92686 239
42.94698 204
42.96709 225
42.98721 208
43.00732 226
43.02743 214
43.04755 199
43.06766 245
43.08777 214
43.10789 231
43.128 206
43.14812 204
43.16823 213
43.18834 231
43.20846 226
43.22857 229
43.24868 225
43.2688 234
43.28891 194
43.30902 218
43.32914 224
43.34925 231
43.36937 182
43.38948 204
43.40959 223
43.42971 209
43.44982 221
43.46993 220
43.49005 195
43.51016 230
43.53028 206
43.55039 225
43.5705 206
43.59062 203
43.61073 203
43.63084 212
43.65096 204
43.67107 188
43.69119 214
43.7113 203
43.73141 178
43.75153 203
43.77164 190
43.79175 186
43.81187 194
43.83198 189
43.85209 172
43.87221 206
43.89232 214
43.91244 189
43.93255 211
43.95266 207
43.97278 210
43.99289 218
44.013 175
44.03312 221
44.05323 219
44.07335 220
44.09346 197
44.11357 223
44.13369 231
44.1538 211
44.17391 207
44.19403 191
44.21414 206
44.23426 230
44.25437 231
44.27448 220
44.2946 187
44.31471 214
44.33482 203
44.35494 215
44.37505 225
44.39516 215
44.41528 195
44.43539 201
44.45551 186
44.47562 199
44.49573 203
44.51585 203
44.53596 218
44.55607 231
44.57619 210
44.5963 220
44.61642 207
44.63653 213
44.65664 208
44.67676 215
44.69687 210
44.71698 206
44.7371 200
44.75721 199
44.77732 214
44.79744 198
44.81755 200
44.83767 206
44.85778 205
44.87789 195
44.89801 197
44.91812 221
44.93823 180
44.95835 218
44.97846 226
44.99858 209
45.01869 220
45.0388 231
45.05892 216
45.07903 184
45.09914 195
45.11926 214
45.13937 200
45.15949 201
45.1796 194
45.19971 212
45.21983 223
45.23994 225
45.26005 212
45.28017 225
45.30028 241
45.32039 235
45.34051 239
45.36062 230
45.38074 272
45.40085 271
45.42096 255
45.44108 279
45.46119 260
45.4813 315
45.50142 340
45.52153 364
45.54165 340
45.56176 361
45.58187 385
45.60199 449
45.6221 432
45.64221 458
45.66233 503
45.68244 596
45.70256 600
45.72267 652
45.74278 703
45.7629 694
45.78301 717
45.80312 711
45.82324 671
45.84335 597
45.86346 533
45.88358 525
45.90369 467
45.92381 433
45.94392 384
45.96403 339
45.98415 306
46.00426 250
46.02437 228
46.04449 231
46.0646 215
46.08472 255
46.10483 227
46.12494 238
46.14506 217
46.16517 262
46.18528 254
46.2054 232
46.22551 220
46.24563 254
46.26574 239
46.28585 222
46.30597 242
46.32608 236
46.34619 206
46.36631 250
46.38642 199
46.40653 195
46.42665 208
46.44676 198
46.46688 201
46.48699 195
46.5071 173
46.52722 199
46.54733 194
46.56744 194
46.58756 210
46.60767 193
46.62779 192
46.6479 198
46.66801 202
46.68813 206
46.70824 209
46.72835 182
46.74847 180
46.76858 185
46.78869 205
46.80881 202
46.82892 184
46.84904 218
46.86915 183
46.88926 215
46.90938 212
46.92949 219
46.9496 226
46.96972 177
46.98983 229
47.00995 229
47.03006 228
47.05017 214
47.07029 241
47.0904 272
47.11051 271
47.13063 239
47.15074 273
47.17086 255
47.19097 240
47.21108 254
47.2312 220
47.25131 214
47.27142 226
47.29154 228
47.31165 245
47.33176 237
47.35188 232
47.37199 238
47.39211 257
47.41222 259
47.43233 259
47.45245 260
47.47256 229
47.49267 255
47.51279 241
47.5329 236
47.55302 223
47.57313 217
47.59324 206
47.61336 227
47.63347 191
47.65358 205
47.6737 197
47.69381 181
47.71393 205
47.73404 180
47.75415 191
47.77427 206
47.79438 188
47.81449 191
47.83461 179
47.85472 207
47.87483 205
47.89495 219
47.91506 183
47.93518 208
47.95529 216
47.9754 230
47.99552 201
48.01563 195
48.03574 221
48.05586 178
48.07597 203
48.09609 194
48.1162 199
48.13631 209
48.15643 196
48.17654 214
48.19665 210
48.21677 196
48.23688 199
48.257 198
48.27711 186
48.29722 192
48.31734 191
48.33745 226
48.35756 184
48.37768 210
48.39779 222
48.4179 225
48.43802 203
48.45813 187
48.47825 209
48.49836 219
48.51847 206
48.53859 198
48.5587 202
48.57881 214
48.59893 227
48.61904 195
48.63916 225
48.65927 219
48.67938 224
48.6995 233
48.71961 212
48.73972 260
48.75984 279
48.77995 219
48.80006 247
48.82018 232
48.84029 258
48.86041 252
48.88052 252
48.90063 240
48.92075 230
48.94086 251
48.96097 246
48.98109 230
49.0012 285
49.02132 249
49.04143 270
49.06154 230
49.08166 280
49.10177 232
49.12188 245
49.142 241
49.16211 223
49.18223 249
49.20234 241
49.22245 236
49.24257 245
49.26268 238
49.28279 210
49.30291 231
49.32302 242
49.34313 218
49.36325 194
49.38336 207
49.40348 208
49.42359 213
49.4437 208
49.46382 209
49.48393 211
49.50404 235
49.52416 227
49.54427 220
49.56439 246
49.5845 262
49.60461 253
49.62473 267
49.64484 280
49.66495 268
49.68507 272
49.70518 281
49.7253 265
49.74541 262
49.76552 331
49.78564 361
49.80575 415
49.82586 409
49.84598 490
49.86609 535
49.8862 569
49.90632 630
49.92643 714
49.94655 840
49.96666 957
49.98677 995
50.00689 1135
50.027 1263
50.04711 1456
50.06723 1614
50.08734 1735
50.10746 1839
50.12757 1878
50.14768 1846
50.1678 1617
50.18791 1526
50.20802 1357
50.22814 1253
50.24825 1131
50.26837 1010
50.28848 892
50.30859 774
50.32871 656
50.34882 551
50.36893 526
50.38905 450
50.40916 439
50.42927 418
50.44939 467
50.4695 431
50.48962 473
50.50973 460
50.52984 438
50.54996 444
50.57007 421
50.59018 436
50.6103 415
50.63041 400
50.65053 382
50.67064 398
50.69075 355
50.71087 332
50.73098 322
50.75109 281
50.77121 313
50.79132 319
50.81143 277
50.83155 292
50.85166 277
50.87178 301
50.89189 277
50.912 259
50.93212 254
50.95223 236
50.97234 253
50.99246 269
51.01257 251
51.03269 247
51.0528 250
51.07291 218
51.09303 231
51.11314 231
51.13325 216
51.15337 249
51.17348 216
51.1936 209
51.21371 212
51.23382 216
51.25394 193
51.27405 203
51.29416 210
51.31428 193
51.33439 177
51.3545 204
51.37462 208
51.39473 192
51.41485 172
51.43496 198
51.45507 203
51.47519 207
51.4953 192
51.51541 187
51.53553 182
51.55564 201
51.57576 185
51.59587 184
51.61598 168
51.6361 188
51.65621 179
51.67632 181
51.69644 161
51.71655 174
51.73667 167
51.75678 187
51.77689 157
51.79701 188
51.81712 180
51.83723 162
51.85735 167
51.87746 137
51.89757 161
51.91769 195
51.9378 179
51.95792 183
51.97803 203
51.99814 169
52.01826 162
52.03837 161
52.05848 189
52.0786 180
52.09871 161
52.11883 175
52.13894 190
52.15905 171
52.17917 165
52.19928 168
52.21939 161
52.23951 198
52.25962 161
52.27974 169
52.29985 189
52.31996 175
52.34008 190
52.36019 182
52.3803 203
52.40042 217
52.42053 186
52.44064 213
52.46076 209
52.48087 189
52.50099 231
52.5211 197
52.54121 202
52.56133 232
52.58144 230
52.60155 211
52.62167 234
52.64178 222
52.6619 228
52.68201 192
52.70212 182
52.72224 204
52.74235 200
52.76246 216
52.78258 201
52.80269 185
52.8228 217
52.84292 172
52.86303 189
52.88315 175
52.90326 208
52.92337 200
52.94349 190
52.9636 221
52.98371 191
53.00383 188
53.02394 190
53.04406 195
53.06417 185
53.08428 199
53.1044 197
53.12451 183
53.14462 206
53.16474 176
53.18485 182
53.20497 201
53.22508 182
53.24519 177
53.26531 202
53.28542 195
53.30553 179
53.32565 182
53.34576 214
53.36587 196
53.38599 196
53.4061 228
53.42622 222
53.44633 219
53.46644 187
53.48656 208
53.50667 209
53.52678 211
53.5469 192
53.56701 200
53.58713 207
53.60724 203
53.62735 196
53.64747 216
53.66758 185
53.68769 201
53.70781 206
53.72792 225
53.74804 201
53.76815 230
53.78826 228
53.80838 219
53.82849 213
53.8486 229
53.86872 213
53.88883 223
53.90894 228
53.92906 237
53.94917 218
53.96929 265
53.9894 242
54.00951 214
54.02963 239
54.04974 219
54.06985 214
54.08997 217
54.11008 205
54.1302 227
54.15031 236
54.17042 234
54.19054 224
54.21065 236
54.23076 250
54.25088 221
54.27099 212
54.29111 254
54.31122 236
54.33133 221
54.35145 229
54.37156 267
54.39167 259
54.41179 225
54.4319 229
54.45201 264
54.47213 238
54.49224 251
54.51236 251
54.53247 246
54.55258 266
54.5727 330
54.59281 272
54.61292 333
54.63304 351
54.65315 375
54.67327 394
54.69338 379
54.71349 425
54.73361 506
54.75372 507
54.77383 579
54.79395 598
54.81406 649
54.83417 649
54.85429 683
54.8744 663
54.89452 657
54.91463 603
54.93474 572
54.95486 514
54.97497 499
54.99508 487
55.0152 463
55.03531 427
55.05543 389
55.07554 376
55.09565 367
55.11577 345
55.13588 321
55.15599 319
55.17611 334
55.19622 381
55.21634 367
55.23645 405
55.25656 402
55.27668 445
55.29679 419
55.3169 397
55.33702 397
55.35713 416
55.37724 394
55.39736 361
55.41747 386
55.43759 368
55.4577 360
55.47781 341
55.49793 320
55.51804 321
55.53815 293
55.55827 287
55.57838 248
55.5985 259
55.61861 259
55.63872 271
55.65884 234
55.67895 238
55.69906 211
55.71918 215
55.73929 206
55.75941 187
55.77952 197
55.79963 225
55.81975 197
55.83986 196
55.85997 219
55.88009 213
55.9002 189
55.92031 231
55.94043 232
55.96054 202
55.98066 195
56.00077 204
56.02088 216
56.041 190
56.06111 218
56.08122 179
56.10134 197
56.12145 219
56.14157 203
56.16168 206
56.18179 234
56.20191 170
56.22202 188
56.24213 184
56.26225 181
56.28236 183
56.30248 172
56.32259 205
56.3427 191
56.36282 211
56.38293 195
56.40304 211
56.42316 163
56.44327 182
56.46338 194
56.4835 183
56.50361 228
56.52373 198
56.54384 219
56.56395 207
56.58407 171
56.60418 210
56.62429 194
56.64441 227
56.66452 197
56.68464 186
56.70475 194
56.72486 213
56.74498 183
56.76509 184
56.7852 240
56.80532 224
56.82543 210
56.84554 186
56.86566 192
56.88577 204
56.90589 197
56.926 212
56.94611 199
56.96623 197
56.98634 198
57.00645 183
57.02657 223
57.04668 207
57.0668 178
57.08691 204
57.10702 206
57.12714 216
57.14725 199
57.16736 218
57.18748 213
57.20759 238
57.22771 233
57.24782 241
57.26793 250
57.28805 202
57.30816 207
57.32827 241
57.34839 220
57.3685 234
57.38861 240
57.40873 228
57.42884 184
57.44896 225
57.46907 216
57.48918 202
57.5093 228
57.52941 189
57.54952 203
57.56964 207
57.58975 212
57.60987 196
57.62998 206
57.65009 216
57.67021 187
57.69032 221
57.71043 193
57.73055 167
57.75066 212
57.77078 175
57.79089 198
57.811 207
57.83112 176
57.85123 188
57.87134 196
57.89146 190
57.91157 193
57.93168 186
57.9518 182
57.97191 188
57.99203 198
58.01214 183
58.03225 198
58.05237 183
58.07248 200
58.09259 186
58.11271 200
58.13282 206
58.15294 201
58.17305 188
58.19316 205
58.21328 203
58.23339 186
58.2535 181
58.27362 171
58.29373 194
58.31385 184
58.33396 188
58.35407 216
58.37419 219
58.3943 199
58.41441 229
58.43453 192
58.45464 215
58.47475 185
58.49487 200
58.51498 223
58.5351 209
58.55521 205
58.57532 207
58.59544 214
58.61555 210
58.63566 214
58.65578 209
58.67589 199
58.69601 181
58.71612 196
58.73623 204
58.75635 192
58.77646 192
58.79657 195
58.81669 177
58.8368 221
58.85691 193
58.87703 189
58.89714 201
58.91726 195
58.93737 207
58.95748 173
58.9776 189
58.99771 179
59.01782 193
59.03794 183
59.05805 193
59.07817 193
59.09828 195
59.11839 184
59.13851 197
59.15862 181
59.17873 225
59.19885 213
59.21896 209
59.23908 179
59.25919 205
59.2793 199
59.29942 212
59.31953 216
59.33964 227
59.35976 223
59.37987 234
59.39998 240
59.4201 245
59.44021 216
59.46033 235
59.48044 237
59.50055 273
59.52067 295
59.54078 309
59.56089 329
59.58101 289
59.60112 322
59.62124 363
59.64135 366
59.66146 397
59.68158 415
59.70169 476
59.7218 509
59.74192 529
59.76203 616
59.78215 694
59.80226 773
59.82237 878
59.84249 952
59.8626 1111
59.88271 1147
59.90283 1150
59.92294 1211
59.94305 1189
59.96317 1205
59.98328 1066
60.0034 913
60.02351 868
60.04362 780
60.06374 765
60.08385 759
60.10396 702
60.12408 641
60.14419 544
60.16431 499
60.18442 369
60.20453 381
60.22465 327
60.24476 267
60.26487 289
60.28499 250
60.3051 233
60.32522 233
60.34533 230
60.36544 203
60.38556 229
60.40567 238
60.42578 207
60.4459 218
60.46601 209
60.48612 207
60.50624 230
60.52635 206
60.54647 210
60.56658 187
60.58669 220
60.60681 206
60.62692 214
60.64703 208
60.66715 196
60.68726 193
60.70738 197
60.72749 184
60.7476 218
60.76772 206
60.78783 197
60.80794 193
60.82806 225
60.84817 245
60.86828 194
60.8884 215
60.90851 207
60.92863 213
60.94874 215
60.96885 215
60.98897 228
61.00908 228
61.02919 247
61.04931 210
61.06942 248
61.08954 235
61.10965 234
61.12976 257
61.14988 268
61.16999 258
61.1901 220
61.21022 243
61.23033 245
61.25045 216
61.27056 231
61.29067 216
61.31079 244
61.3309 204
61.35101 204
61.37113 205
61.39124 219
61.41135 203
61.43147 217
61.45158 198
61.4717 183
61.49181 203
61.51192 197
61.53204 180
61.55215 213
61.57226 175
61.59238 201
61.61249 194
61.63261 191
61.65272 202
61.67283 193
61.69295 213
61.71306 196
61.73317 193
61.75329 233
61.7734 219
61.79352 198
61.81363 207
61.83374 187
61.85386 214
61.87397 233
61.89408 208
61.9142 215
61.93431 204
61.95442 238
61.97454 213
61.99465 215
62.01477 202
62.03488 212
62.05499 225
62.07511 252
62.09522 254
62.11533 231
62.13545 253
62.15556 263
62.17568 253
62.19579 248
62.2159 271
62.23602 262
62.25613 263
62.27624 246
62.29636 231
62.31647 261
62.33659 243
62.3567 248
62.37681 227
62.39693 254
62.41704 239
62.43715 248
62.45727 202
62.47738 246
62.49749 255
62.51761 229
62.53772 244
62.55784 249
62.57795 224
62.59806 218
62.61818 233
62.63829 220
62.6584 236
62.67852 199
62.69863 239
62.71875 212
62.73886 221
62.75897 241
62.77909 214
62.7992 221
62.81931 221
62.83943 227
62.85954 235
62.87965 243
62.89977 221
62.91988 222
62.94 226
62.96011 240
62.98022 227
63.00034 267
63.02045 225
63.04056 234
63.06068 241
63.08079 226
63.10091 250
63.12102 223
63.14113 218
63.16125 233
63.18136 225
63.20147 259
63.22159 227
63.2417 241
63.26182 228
63.28193 227
63.30204 205
63.32216 215
63.34227 211
63.36238 215
63.3825 221
63.40261 212
63.42272 219
63.44284 232
63.46295 214
63.48307 195
63.50318 209
63.52329 234
63.54341 247
63.56352 202
63.58363 215
63.60375 225
63.62386 238
63.64398 271
63.66409 273
63.6842 254
63.70432 260
63.72443 247
63.74454 285
63.76466 299
63.78477 312
63.80489 292
63.825 331
63.84511 315
63.86523 371
63.88534 338
63.90545 386
63.92557 401
63.94568 425
63.96579 414
63.98591 462
64.00602 460
64.02614 424
64.04625 368
64.06636 362
64.08648 360
64.10659 354
64.1267 344
64.14682 312
64.16693 321
64.18705 273
64.20716 295
64.22727 301
64.24739 259
64.2675 235
64.28761 233
64.30773 220
64.32784 223
64.34796 195
64.36807 222
64.38818 183
64.4083 206
64.42841 180
64.44852 204
64.46864 208
64.48875 188
64.50886 169
64.52898 182
64.54909 192
64.56921 168
64.58932 149
64.60943 171
64.62955 177
64.64966 187
64.66977 179
64.68989 207
64.71 196
64.73012 150
64.75023 193
64.77034 178
64.79046 163
64.81057 178
64.83068 182
64.8508 179
64.87091 182
64.89102 200
64.91114 186
64.93125 201
64.95137 200
64.97148 173
64.99159 199
65.01171 199
65.03182 189
65.05193 207
65.07205 201
65.09216 207
65.11228 221
65.13239 225
65.1525 211
65.17262 214
65.19273 212
65.21284 250
65.23296 226
65.25307 234
65.27319 213
65.2933 200
65.31341 224
65.33353 214
65.35364 212
65.37375 227
65.39387 207
65.41398 217
65.43409 191
65.45421 198
65.47432 207
65.49444 206
65.51455 187
65.53466 215
65.55478 219
65.57489 195
65.595 190
65.61512 210
65.63523 207
65.65535 188
65.67546 208
65.69557 197
65.71569 202
65.7358 223
65.75591 237
65.77603 229
65.79614 212
65.81626 215
65.83637 220
65.85648 190
65.8766 199
65.89671 197
65.91682 200
65.93694 207
65.95705 188
65.97716 203
65.99728 195
66.01739 209
66.03751 188
66.05762 180
66.07773 183
66.09785 184
66.11796 192
66.13807 212
66.15819 183
66.1783 200
66.19842 222
66.21853 212
66.23864 234
66.25876 229
66.27887 218
66.29898 187
66.3191 205
66.33921 202
66.35933 223
66.37944 222
66.39955 224
66.41967 194
66.43978 197
66.45989 201
66.48001 209
66.50012 187
66.52023 172
66.54035 191
66.56046 178
66.58058 180
66.60069 185
66.6208 181
66.64092 164
66.66103 176
66.68114 191
66.70126 191
66.72137 197
66.74149 176
66.7616 212
66.78171 210
66.80183 203
66.82194 199
66.84205 192
66.86217 194
66.88228 187
66.90239 198
66.92251 193
66.94262 196
66.96274 199
66.98285 206
67.00296 186
67.02308 223
67.04319 197
67.0633 219
67.08342 219
67.10353 223
67.12365 200
67.14376 204
67.16387 234
67.18399 198
67.2041 204
67.22421 251
67.24433 218
67.26444 251
67.28456 236
67.30467 255
67.32478 253
67.3449 249
67.36501 260
67.38512 290
67.40524 304
67.42535 273
67.44546 333
67.46558 368
67.48569 374
67.50581 388
67.52592 475
67.54603 489
67.56615 473
67.58626 587
67.60637 587
67.62649 671
67.6466 717
67.66672 748
67.68683 795
67.70694 829
67.72706 876
67.74717 826
67.76728 764
67.7874 740
67.80751 687
67.82763 683
67.84774 729
67.86785 668
67.88797 709
67.90808 761
67.92819 722
67.94831 770
67.96842 808
67.98853 808
68.00865 825
68.02876 888
68.04888 1022
68.06899 992
68.0891 1076
68.10922 1042
68.12933 1104
68.14944 1087
68.16956 1101
68.18967 999
68.20979 1011
68.2299 1020
68.25001 1019
68.27013 1033
68.29024 1018
68.31035 993
68.33047 890
68.35058 800
68.3707 703
68.39081 611
68.41092 547
68.43104 504
68.45115 499
68.47126 458
68.49138 405
68.51149 416
68.5316 370
68.55172 320
68.57183 306
68.59195 269
68.61206 268
68.63217 232
68.65229 231
68.6724 206
68.69251 210
68.71263 220
68.73274 230
68.75286 191
68.77297 193
68.79308 231
68.8132 226
68.83331 194
68.85342 188
68.87354 202
68.89365 187
68.91376 189
68.93388 211
68.95399 210
68.97411 202
68.99422 184
69.01433 195
69.03445 219
69.05456 188
69.07467 200
69.09479 189
69.1149 190
69.13502 189
69.15513 184
69.17524 185
69.19536 171
69.21547 183
69.23558 180
69.2557 189
69.27581 188
69.29593 160
69.31604 186
69.33615 206
69.35627 187
69.37638 178
69.39649 167
69.41661 158
69.43672 169
69.45683 187
69.47695 180
69.49706 203
69.51718 193
69.53729 187
69.5574 166
69.57752 183
69.59763 170
69.61774 190
69.63786 185
69.65797 172
69.67809 162
69.6982 163
69.71831 162
69.73843 165
69.75854 179
69.77865 177
69.79877 187
69.81888 184
69.839 178
69.85911 169
69.87922 186
69.89934 178
69.91945 171
69.93956 170
69.95968 169
69.97979 190
69.9999 185
70.02002 191
70.04013 161
70.06025 187
70.08036 176
70.10047 167
70.12059 202
70.1407 176
70.16081 172
70.18093 173
70.20104 175
70.22116 201
70.24127 174
70.26138 176
70.2815 159
70.30161 178
70.32172 153
70.34184 180
70.36195 176
70.38207 160
70.40218 166
70.42229 201
70.44241 156
70.46252 168
70.48263 174
70.50275 165
70.52286 161
70.54297 175
70.56309 187
70.5832 200
70.60332 197
70.62343 177
70.64354 193
70.66366 176
70.68377 177
70.70388 208
70.724 185
70.74411 173
70.76423 188
70.78434 189
70.80445 168
70.82457 167
70.84468 206
70.86479 188
70.88491 177
70.90502 165
70.92513 161
70.94525 188
70.96536 158
70.98548 173
71.00559 181
71.0257 185
71.04582 154
71.06593 166
71.08604 173
71.10616 173
71.12627 183
71.14639 195
71.1665 185
71.18661 184
71.20673 180
71.22684 184
71.24695 170
71.26707 177
71.28718 173
71.3073 202
71.32741 170
71.34752 187
71.36764 179
71.38775 190
71.40786 179
71.42798 163
71.44809 177
71.4682 206
71.48832 179
71.50843 190
71.52855 218
71.54866 204
71.56877 189
71.58889 190
71.609 189
71.62911 190
71.64923 196
71.66934 198
71.68946 187
71.70957 194
71.72968 192
71.7498 190
71.76991 187
71.79002 188
71.81014 174
71.83025 200
71.85037 185
71.87048 204
71.89059 185
71.91071 176
71.93082 186
71.95093 188
71.97105 191
71.99116 186
72.01127 185
72.03139 177
72.0515 204
72.07162 187
72.09173 213
72.11184 211
72.13196 187
72.15207 187
72.17218 174
72.1923 220
72.21241 219
72.23253 195
72.25264 171
72.27275 196
72.29287 200
72.31298 187
72.33309 203
72.35321 196
72.37332 184
72.39344 195
72.41355 189
72.43366 177
72.45378 192
72.47389 194
72.494 178
72.51412 179
72.53423 199
72.55434 174
72.57446 215
72.59457 192
72.61469 188
72.6348 192
72.65491 194
72.67503 186
72.69514 184
72.71525 181
72.73537 188
72.75548 181
72.7756 170
72.79571 213
72.81582 195
72.83594 205
72.85605 176
72.87616 187
72.89628 211
72.91639 183
72.9365 193
72.95662 210
72.97673 216
72.99685 216
73.01696 237
73.03707 198
73.05719 195
73.0773 248
73.09741 204
73.11753 273
73.13764 261
73.15776 259
73.17787 269
73.19798 259
73.2181 278
73.23821 278
73.25832 298
73.27844 318
73.29855 298
73.31867 326
73.33878 351
73.35889 369
73.37901 413
73.39912 423
73.41923 383
73.43935 403
73.45946 429
73.47957 360
73.49969 365
73.5198 336
73.53992 303
73.56003 328
73.58014 307
73.60026 285
73.62037 314
73.64048 278
73.6606 279
73.68071 262
73.70083 266
73.72094 240
73.74105 256
73.76117 241
73.78128 206
73.80139 200
73.82151 211
73.84162 176
73.86174 184
73.88185 174
73.90196 167
73.92208 176
73.94219 180
73.9623 171
73.98242 174
74.00253 200
74.02264 186
74.04276 190
74.06287 176
74.08299 183
74.1031 203
74.12321 183
74.14333 169
74.16344 174
74.18355 203
74.20367 193
74.22378 188
74.2439 187
74.26401 168
74.28412 170
74.30424 185
74.32435 197
74.34446 172
74.36458 184
74.38469 173
74.40481 201
74.42492 205
74.44503 175
74.46515 185
74.48526 194
74.50537 156
74.52549 196
74.5456 178
74.56571 187
74.58583 185
74.60594 178
74.62606 179
74.64617 194
74.66628 178
74.6864 209
74.70651 185
74.72662 196
74.74674 198
74.76685 196
74.78697 180
74.80708 174
74.82719 195
74.84731 189
74.86742 180
74.88753 170
74.90765 203
74.92776 198
74.94787 189
74.96799 208
74.9881 201
75.00822 219
