3.00117 20955
3.02128 20476
3.0414 19583
3.06151 19326
3.08162 18986
3.10174 18122
3.12185 17953
3.14197 17249
3.16208 16819
3.18219 16288
3.20231 15883
3.22242 15549
3.24253 14782
3.26265 14762
3.28276 13832
3.30288 13398
3.32299 13363
3.3431 12683
3.36322 12588
3.38333 11905
3.40344 11495
3.42356 11407
3.44367 10692
3.46379 10618
3.4839 10108
3.50401 9841
3.52413 9664
3.54424 9018
3.56435 8868
3.58447 8565
3.60458 8326
3.62469 8277
3.64481 7532
3.66492 7646
3.68504 7161
3.70515 6828
3.72526 6758
3.74538 6375
3.76549 6134
3.7856 5863
3.80572 5574
3.82583 5707
3.84595 5221
3.86606 5099
3.88617 4760
3.90629 4724
3.9264 4697
3.94651 4125
3.96663 4128
3.98674 3904
4.00686 3800
4.02697 3787
4.04708 3318
4.0672 3432
4.08731 3186
4.10742 3126
4.12754 3054
4.14765 2806
4.16776 2831
4.18788 2655
4.20799 2572
4.22811 2633
4.24822 2357
4.26833 2349
4.28845 2278
4.30856 2198
4.32867 2272
4.34879 2038
4.3689 2148
4.38902 1968
4.40913 1911
4.42924 2041
4.44936 1770
4.46947 1802
4.48958 1829
4.5097 1752
4.52981 1802
4.54992 1586
4.57004 1637
4.59015 1628
4.61027 1565
4.63038 1626
4.65049 1539
4.67061 1535
4.69072 1542
4.71083 1454
4.73095 1515
4.75106 1350
4.77118 1397
4.79129 1351
4.8114 1328
4.83152 1309
4.85163 1221
4.87174 1215
4.89186 1263
4.91197 1202
4.93209 1170
4.9522 1214
4.97231 1114
4.99243 1171
5.01254 1183
5.03265 1133
5.05277 1043
5.07288 1062
5.09299 1117
5.11311 1030
5.13322 1058
5.15334 1048
5.17345 958
5.19356 999
5.21368 1012
5.23379 1009
5.2539 954
5.27402 933
5.29413 946
5.31425 891
5.33436 957
5.35447 916
5.37459 852
5.3947 834
5.41481 832
5.43493 824
5.45504 890
5.47516 840
5.49527 852
5.51538 877
5.5355 824
5.55561 812
5.57572 789
5.59584 751
5.61595 801
5.63606 736
5.65618 773
5.67629 799
5.69641 771
5.71652 748
5.73663 688
5.75675 809
5.77686 731
5.79697 727
5.81709 753
5.8372 712
5.85732 778
5.87743 675
5.89754 702
5.91766 670
5.93777 732
5.95788 715
5.978 687
5.99811 670
6.01823 701
6.03834 682
6.05845 694
6.07857 723
6.09868 747
6.11879 712
6.13891 707
6.15902 737
6.17913 738
6.19925 736
6.21936 801
6.23948 768
6.25959 753
6.2797 721
6.29982 696
6.31993 712
6.34004 696
6.36016 697
6.38027 698
6.40039 707
6.4205 687
6.44061 683
6.46073 674
6.48084 627
6.50095 669
6.52107 614
6.54118 631
6.56129 680
6.58141 641
6.60152 652
6.62164 632
6.64175 676
6.66186 614
6.68198 745
6.70209 574
6.7222 641
6.74232 631
6.76243 676
6.78255 658
6.80266 660
6.82277 639
6.84289 641
6.863 609
6.88311 648
6.90323 618
6.92334 662
6.94346 576
6.96357 606
6.98368 646
7.0038 658
7.02391 614
7.04402 582
7.06414 578
7.08425 646
7.10436 610
7.12448 631
7.14459 666
7.16471 591
7.18482 603
7.20493 605
7.22505 615
7.24516 670
7.26527 573
7.28539 602
7.3055 606
7.32562 579
7.34573 583
7.36584 593
7.38596 624
7.40607 612
7.42618 620
7.4463 634
7.46641 600
7.48653 604
7.50664 614
7.52675 621
7.54687 633
7.56698 612
7.58709 583
7.60721 640
7.62732 642
7.64743 633
7.66755 609
7.68766 644
7.70778 616
7.72789 619
7.748 595
7.76812 562
7.78823 565
7.80834 590
7.82846 601
7.84857 588
7.86869 619
7.8888 583
7.90891 610
7.92903 571
7.94914 567
7.96925 606
7.98937 611
8.00948 549
8.0296 607
8.04971 558
8.06982 619
8.08994 596
8.11005 543
8.13016 680
8.15028 573
8.17039 556
8.1905 602
8.21062 617
8.23073 610
8.25085 576
8.27096 540
8.29107 603
8.31119 566
8.3313 592
8.35141 572
8.37153 592
8.39164 594
8.41176 583
8.43187 604
8.45198 617
8.4721 620
8.49221 594
8.51232 545
8.53244 597
8.55255 592
8.57266 610
8.59278 618
8.61289 536
8.63301 556
8.65312 600
8.67323 598
8.69335 552
8.71346 568
8.73357 556
8.75369 592
8.7738 607
8.79392 624
8.81403 663
8.83414 570
8.85426 589
8.87437 572
8.89448 575
8.9146 576
8.93471 642
8.95483 585
8.97494 622
8.99505 621
9.01517 628
9.03528 603
9.05539 605
9.07551 623
9.09562 549
9.11573 608
9.13585 549
9.15596 614
9.17608 561
9.19619 573
9.2163 609
9.23642 625
9.25653 616
9.27664 573
9.29676 591
9.31687 582
9.33699 602
9.3571 604
9.37721 602
9.39733 593
9.41744 580
9.43755 613
9.45767 571
9.47778 597
9.4979 583
9.51801 581
9.53812 602
9.55824 548
9.57835 591
9.59846 614
9.61858 584
9.63869 576
9.6588 526
9.67892 605
9.69903 594
9.71915 599
9.73926 542
9.75937 635
9.77949 615
9.7996 621
9.81971 534
9.83983 533
9.85994 614
9.88006 572
9.90017 578
9.92028 591
9.9404 564
9.96051 606
9.98062 619
10.00074 588
10.02085 604
10.04097 591
10.06108 598
10.08119 589
10.10131 567
10.12142 565
10.14153 577
10.16165 599
10.18176 645
10.20187 596
10.22199 621
10.2421 567
10.26222 529
10.28233 537
10.30244 583
10.32256 595
10.34267 647
10.36278 552
10.3829 583
10.40301 587
10.42313 561
10.44324 589
10.46335 565
10.48347 583
10.50358 578
10.52369 608
10.54381 548
10.56392 610
10.58403 535
10.60415 555
10.62426 592
10.64438 614
10.66449 574
10.6846 594
10.70472 610
10.72483 543
10.74494 599
10.76506 588
10.78517 556
10.80529 579
10.8254 569
10.84551 586
10.86563 550
10.88574 610
10.90585 613
10.92597 592
10.94608 600
10.9662 583
10.98631 593
11.00642 589
11.02654 623
11.04665 576
11.06676 595
11.08688 597
11.10699 613
11.1271 592
11.14722 563
11.16733 584
11.18745 626
11.20756 595
11.22767 586
11.24779 615
11.2679 608
11.28801 583
11.30813 602
11.32824 577
11.34836 567
11.36847 582
11.38858 584
11.4087 579
11.42881 584
11.44892 595
11.46904 596
11.48915 620
11.50927 616
11.52938 590
11.54949 612
11.56961 562
11.58972 614
11.60983 569
11.62995 629
11.65006 622
11.67017 573
11.69029 657
11.7104 574
11.73052 598
11.75063 614
11.77074 603
11.79086 642
11.81097 623
11.83108 622
11.8512 660
11.87131 627
11.89143 617
11.91154 622
11.93165 628
11.95177 650
11.97188 652
11.99199 655
12.01211 624
12.03222 637
12.05234 656
12.07245 656
12.09256 666
12.11268 686
12.13279 716
12.1529 687
12.17302 695
12.19313 751
12.21324 739
12.23336 704
12.25347 692
12.27359 736
12.2937 753
12.31381 738
12.33393 772
12.35404 733
12.37415 689
12.39427 718
12.41438 742
12.4345 685
12.45461 645
12.47472 679
12.49484 670
12.51495 655
12.53506 651
12.55518 630
12.57529 638
12.5954 647
12.61552 641
12.63563 627
12.65575 628
12.67586 610
12.69597 620
12.71609 659
12.7362 631
12.75631 623
12.77643 617
12.79654 618
12.81666 603
12.83677 582
12.85688 592
12.877 556
12.89711 577
12.91722 574
12.93734 589
12.95745 598
12.97757 571
12.99768 588
13.01779 613
13.03791 588
13.05802 581
13.07813 549
13.09825 558
13.11836 569
13.13847 585
13.15859 527
13.1787 611
13.19882 574
13.21893 602
13.23904 615
13.25916 559
13.27927 577
13.29938 603
13.3195 564
13.33961 577
13.35973 586
13.37984 608
13.39995 560
13.42007 576
13.44018 552
13.46029 583
13.48041 561
13.50052 577
13.52064 553
13.54075 621
13.56086 613
13.58098 550
13.60109 575
13.6212 573
13.64132 611
13.66143 589
13.68154 603
13.70166 581
13.72177 573
13.74189 551
13.762 538
13.78211 544
13.80223 601
13.82234 611
13.84245 586
13.86257 586
13.88268 567
13.9028 580
13.92291 549
13.94302 546
13.96314 551
13.98325 567
14.00336 572
14.02348 587
14.04359 585
14.06371 539
14.08382 583
14.10393 590
14.12405 556
14.14416 582
14.16427 559
14.18439 588
14.2045 590
14.22461 612
14.24473 599
14.26484 601
14.28496 587
14.30507 581
14.32518 574
14.3453 563
14.36541 563
14.38552 592
14.40564 590
14.42575 612
14.44587 610
14.46598 608
14.48609 603
14.50621 574
14.52632 600
14.54643 563
14.56655 547
14.58666 571
14.60677 607
14.62689 580
14.647 599
14.66712 598
14.68723 557
14.70734 579
14.72746 585
14.74757 566
14.76768 552
14.7878 578
14.80791 570
14.82803 548
14.84814 607
14.86825 530
14.88837 607
14.90848 579
14.92859 570
14.94871 553
14.96882 534
14.98894 577
15.00905 549
15.02916 550
15.04928 574
15.06939 556
15.0895 547
15.10962 560
15.12973 576
15.14984 580
15.16996 566
15.19007 591
15.21019 566
15.2303 596
15.25041 592
15.27053 563
15.29064 581
15.31075 558
15.33087 550
15.35098 578
15.3711 565
15.39121 595
15.41132 539
15.43144 563
15.45155 566
15.47166 576
15.49178 586
15.51189 550
15.53201 561
15.55212 562
15.57223 539
15.59235 555
15.61246 562
15.63257 612
15.65269 631
15.6728 617
15.69291 548
15.71303 611
15.73314 574
15.75326 568
15.77337 607
15.79348 561
15.8136 578
15.83371 556
15.85382 584
15.87394 571
15.89405 566
15.91417 587
15.93428 561
15.95439 637
15.97451 588
15.99462 564
16.01473 568
16.03485 575
16.05496 590
16.07508 577
16.09519 560
16.1153 571
16.13542 570
16.15553 574
16.17564 588
16.19576 599
16.21587 600
16.23598 572
16.2561 536
16.27621 562
16.29633 554
16.31644 582
16.33655 583
16.35667 527
16.37678 614
16.39689 565
16.41701 558
16.43712 562
16.45724 549
16.47735 537
16.49746 593
16.51758 569
16.53769 600
16.5578 560
16.57792 566
16.59803 640
16.61814 613
16.63826 592
16.65837 601
16.67849 510
16.6986 626
16.71871 569
16.73883 602
16.75894 568
16.77905 574
16.79917 572
16.81928 543
16.8394 575
16.85951 609
16.87962 548
16.89974 575
16.91985 563
16.93996 596
16.96008 592
16.98019 577
17.00031 585
17.02042 608
17.04053 578
17.06065 575
17.08076 586
17.10087 588
17.12099 600
17.1411 593
17.16121 599
17.18133 586
17.20144 559
17.22156 571
17.24167 558
17.26178 580
17.2819 598
17.30201 577
17.32212 571
17.34224 577
17.36235 610
17.38247 639
17.40258 579
17.42269 627
17.44281 582
17.46292 623
17.48303 587
17.50315 589
17.52326 591
17.54338 550
17.56349 572
17.5836 596
17.60372 625
17.62383 561
17.64394 625
17.66406 550
17.68417 588
17.70428 676
17.7244 636
17.74451 591
17.76463 615
17.78474 654
17.80485 580
17.82497 591
17.84508 648
17.86519 642
17.88531 642
17.90542 654
17.92554 631
17.94565 636
17.96576 606
17.98588 642
18.00599 576
18.0261 643
18.04622 675
18.06633 667
18.08645 701
18.10656 748
18.12667 740
18.14679 812
18.1669 820
18.18701 884
18.20713 985
18.22724 988
18.24735 1034
18.26747 990
18.28758 1032
18.3077 1077
18.32781 879
18.34792 928
18.36804 843
18.38815 763
18.40826 739
18.42838 705
18.44849 730
18.46861 721
18.48872 662
18.50883 639
18.52895 623
18.54906 639
18.56917 673
18.58929 588
18.6094 645
18.62951 639
18.64963 651
18.66974 609
18.68986 594
18.70997 635
18.73008 630
18.7502 674
18.77031 616
18.79042 589
18.81054 577
18.83065 615
18.85077 583
18.87088 581
18.89099 600
18.91111 564
18.93122 653
18.95133 581
18.97145 673
18.99156 596
19.01168 626
19.03179 598
19.0519 609
19.07202 633
19.09213 597
19.11224 606
19.13236 613
19.15247 592
19.17258 591
19.1927 628
19.21281 627
19.23293 675
19.25304 593
19.27315 606
19.29327 643
19.31338 660
19.33349 611
19.35361 610
19.37372 643
19.39384 643
19.41395 656
19.43406 638
19.45418 641
19.47429 624
19.4944 668
19.51452 662
19.53463 628
19.55475 629
19.57486 673
19.59497 669
19.61509 678
19.6352 727
19.65531 684
19.67543 728
19.69554 782
19.71565 771
19.73577 784
19.75588 816
19.776 817
19.79611 846
19.81622 860
19.83634 839
19.85645 809
19.87656 868
19.89668 777
19.91679 817
19.93691 892
19.95702 848
19.97713 779
19.99725 839
20.01736 854
20.03747 823
20.05759 808
20.0777 777
20.09782 833
20.11793 859
20.13804 899
20.15816 847
20.17827 921
20.19838 879
20.2185 949
20.23861 963
20.25872 929
20.27884 923
20.29895 942
20.31907 900
20.33918 785
20.35929 830
20.37941 916
20.39952 895
20.41963 883
20.43975 871
20.45986 880
20.47998 838
20.50009 906
20.5202 889
20.54032 839
20.56043 847
20.58054 823
20.60066 827
20.62077 868
20.64088 896
20.661 961
20.68111 1019
20.70123 1133
20.72134 1316
20.74145 1433
20.76157 1606
20.78168 1691
20.80179 1779
20.82191 1753
20.84202 1671
20.86214 1602
20.88225 1312
20.90236 1200
20.92248 1040
20.94259 919
20.9627 836
20.98282 862
21.00293 836
21.02305 857
21.04316 778
21.06327 829
21.08339 835
21.1035 846
21.12361 882
21.14373 832
21.16384 859
21.18395 845
21.20407 864
21.22418 868
21.2443 906
21.26441 880
21.28452 921
21.30464 946
21.32475 934
21.34486 938
21.36498 949
21.38509 879
21.40521 848
21.42532 940
21.44543 881
21.46555 937
21.48566 939
21.50577 843
21.52589 821
21.546 886
21.56612 839
21.58623 842
21.60634 863
21.62646 850
21.64657 832
21.66668 812
21.6868 817
21.70691 822
21.72702 851
21.74714 799
21.76725 782
21.78737 769
21.80748 773
21.82759 820
21.84771 770
21.86782 792
21.88793 778
21.90805 833
21.92816 708
21.94828 720
21.96839 723
21.9885 724
22.00862 731
22.02873 749
22.04884 709
22.06896 678
22.08907 775
22.10919 671
22.1293 676
22.14941 690
22.16953 710
22.18964 651
22.20975 660
22.22987 739
22.24998 758
22.27009 728
22.29021 689
22.31032 699
22.33044 639
22.35055 670
22.37066 691
22.39078 713
22.41089 683
22.431 727
22.45112 729
22.47123 679
22.49135 695
22.51146 654
22.53157 643
22.55169 712
22.5718 721
22.59191 699
22.61203 647
22.63214 631
22.65225 666
22.67237 656
22.69248 645
22.7126 722
22.73271 660
22.75282 646
22.77294 674
22.79305 660
22.81316 673
22.83328 656
22.85339 614
22.87351 666
22.89362 621
22.91373 734
22.93385 695
22.95396 665
22.97407 674
22.99419 651
23.0143 688
23.03442 640
23.05453 697
23.07464 626
23.09476 727
23.11487 674
23.13498 673
23.1551 687
23.17521 642
23.19532 658
23.21544 670
23.23555 698
23.25567 708
23.27578 653
23.29589 640
23.31601 639
23.33612 688
23.35623 630
23.37635 641
23.39646 681
23.41658 635
23.43669 744
23.4568 655
23.47692 683
23.49703 645
23.51714 658
23.53726 636
23.55737 687
23.57749 691
23.5976 647
23.61771 693
23.63783 678
23.65794 706
23.67805 689
23.69817 660
23.71828 688
23.73839 680
23.75851 653
23.77862 693
23.79874 682
23.81885 689
23.83896 684
23.85908 674
23.87919 737
23.8993 685
23.91942 678
23.93953 684
23.95965 673
23.97976 684
23.99987 682
24.01999 704
24.0401 669
24.06021 745
24.08033 751
24.10044 693
24.12056 722
24.14067 741
24.16078 745
24.1809 715
24.20101 715
24.22112 733
24.24124 714
24.26135 710
24.28146 778
24.30158 720
24.32169 736
24.34181 673
24.36192 744
24.38203 742
24.40215 698
24.42226 688
24.44237 743
24.46249 733
24.4826 722
24.50272 719
24.52283 698
24.54294 693
24.56306 682
24.58317 723
24.60328 724
24.6234 700
24.64351 730
24.66362 760
24.68374 774
24.70385 795
24.72397 757
24.74408 813
24.76419 789
24.78431 779
24.80442 756
24.82453 743
24.84465 820
24.86476 786
24.88488 764
24.90499 769
24.9251 778
24.94522 816
24.96533 766
24.98544 758
25.00556 716
25.02567 758
25.04579 743
25.0659 729
25.08601 766
25.10613 768
25.12624 764
25.14635 817
25.16647 876
25.18658 825
25.20669 845
25.22681 869
25.24692 866
25.26704 775
25.28715 800
25.30726 807
25.32738 738
25.34749 777
25.3676 766
25.38772 712
25.40783 695
25.42795 770
25.44806 686
25.46817 712
25.48829 687
25.5084 682
25.52851 617
25.54863 710
25.56874 669
25.58886 697
25.60897 672
25.62908 685
25.6492 697
25.66931 662
25.68942 697
25.70954 686
25.72965 677
25.74976 676
25.76988 692
25.78999 671
25.81011 734
25.83022 681
25.85033 682
25.87045 700
25.89056 684
25.91067 684
25.93079 673
25.9509 711
25.97102 713
25.99113 716
26.01124 737
26.03136 742
26.05147 681
26.07158 683
26.0917 699
26.11181 767
26.13193 743
26.15204 776
26.17215 816
26.19227 756
26.21238 793
26.23249 824
26.25261 899
26.27272 873
26.29283 886
26.31295 863
26.33306 976
26.35318 956
26.37329 1096
26.3934 1220
26.41352 1399
26.43363 1722
26.45374 2129
26.47386 2643
26.49397 3202
26.51409 4005
26.5342 4552
26.55431 5216
26.57443 5392
26.59454 5372
26.61465 4916
26.63477 4433
26.65488 3622
26.67499 2949
26.69511 2364
26.71522 1756
26.73534 1414
26.75545 1165
26.77556 1011
26.79568 876
26.81579 896
26.8359 880
26.85602 885
26.87613 840
26.89625 801
26.91636 823
26.93647 768
26.95659 830
26.9767 741
26.99681 734
27.01693 706
27.03704 733
27.05716 716
27.07727 751
27.09738 690
27.1175 671
27.13761 715
27.15772 714
27.17784 715
27.19795 724
27.21806 688
27.23818 687
27.25829 720
27.27841 701
27.29852 722
27.31863 671
27.33875 718
27.35886 706
27.37897 707
27.39909 682
27.4192 768
27.43932 694
27.45943 742
27.47954 708
27.49966 672
27.51977 706
27.53988 686
27.56 671
27.58011 653
27.60023 675
27.62034 621
27.64045 689
27.66057 623
27.68068 639
27.70079 673
27.72091 667
27.74102 687
27.76113 657
27.78125 654
27.80136 708
27.82148 698
27.84159 663
27.8617 624
27.88182 662
27.90193 637
27.92204 721
27.94216 719
27.96227 659
27.98239 676
28.0025 662
28.02261 622
28.04273 651
28.06284 696
28.08295 643
28.10307 658
28.12318 656
28.1433 670
28.16341 661
28.18352 680
28.20364 649
28.22375 658
28.24386 644
28.26398 630
28.28409 636
28.3042 644
28.32432 620
28.34443 697
28.36455 605
28.38466 648
28.40477 651
28.42489 596
28.445 652
28.46511 661
28.48523 638
28.50534 621
28.52546 614
28.54557 650
28.56568 648
28.5858 652
28.60591 619
28.62602 635
28.64614 654
28.66625 624
28.68636 616
28.70648 637
28.72659 633
28.74671 628
28.76682 627
28.78693 589
28.80705 639
28.82716 622
28.84727 593
28.86739 576
28.8875 583
28.90762 647
28.92773 681
28.94784 628
28.96796 616
28.98807 625
29.00818 583
29.0283 612
29.04841 609
29.06853 620
29.08864 606
29.10875 615
29.12887 592
29.14898 583
29.16909 610
29.18921 623
29.20932 566
29.22943 688
29.24955 584
29.26966 632
29.28978 638
29.30989 633
29.33 622
29.35012 621
29.37023 623
29.39034 578
29.41046 637
29.43057 639
29.45069 648
29.4708 632
29.49091 699
29.51103 605
29.53114 637
29.55125 603
29.57137 641
29.59148 641
29.6116 614
29.63171 592
29.65182 638
29.67194 602
29.69205 571
29.71216 612
29.73228 561
29.75239 577
29.7725 683
29.79262 590
29.81273 640
29.83285 619
29.85296 574
29.87307 614
29.89319 609
29.9133 584
29.93341 643
29.95353 618
29.97364 618
29.99376 614
30.01387 620
30.03398 645
30.0541 644
30.07421 606
30.09432 676
30.11444 675
30.13455 650
30.15467 684
30.17478 648
30.19489 622
30.21501 605
30.23512 645
30.25523 618
30.27535 647
30.29546 620
30.31557 681
30.33569 651
30.3558 652
30.37592 643
30.39603 632
30.41614 633
30.43626 636
30.45637 646
30.47648 595
30.4966 633
30.51671 628
30.53683 603
30.55694 639
30.57705 601
30.59717 628
30.61728 647
30.63739 617
30.65751 620
30.67762 595
30.69773 630
30.71785 628
30.73796 644
30.75808 634
30.77819 634
30.7983 588
30.81842 616
30.83853 633
30.85864 619
30.87876 644
30.89887 677
30.91899 599
30.9391 642
30.95921 649
30.97933 597
30.99944 614
31.01955 606
31.03967 607
31.05978 606
31.0799 565
31.10001 641
31.12012 617
31.14024 644
31.16035 612
31.18046 669
31.20058 688
31.22069 652
31.2408 655
31.26092 628
31.28103 615
31.30115 620
31.32126 576
31.34137 573
31.36149 638
31.3816 604
31.40171 643
31.42183 631
31.44194 627
31.46206 611
31.48217 633
31.50228 611
31.5224 610
31.54251 656
31.56262 600
31.58274 665
31.60285 571
31.62297 600
31.64308 634
31.66319 663
31.68331 654
31.70342 641
31.72353 610
31.74365 587
31.76376 656
31.78387 609
31.80399 622
31.8241 671
31.84422 587
31.86433 581
31.88444 601
31.90456 640
31.92467 635
31.94478 658
31.9649 600
31.98501 638
32.00513 596
32.02524 622
32.04535 651
32.06547 647
32.08558 648
32.10569 636
32.12581 639
32.14592 610
32.16604 619
32.18615 639
32.20626 641
32.22638 624
32.24649 602
32.2666 675
32.28672 622
32.30683 680
32.32694 719
32.34706 657
32.36717 663
32.38729 623
32.4074 703
32.42751 648
32.44763 680
32.46774 693
32.48785 692
32.50797 696
32.52808 677
32.5482 729
32.56831 694
32.58842 739
32.60854 658
32.62865 741
32.64876 699
32.66888 650
32.68899 654
32.7091 713
32.72922 630
32.74933 741
32.76945 686
32.78956 759
32.80967 714
32.82979 735
32.8499 685
32.87001 736
32.89013 702
32.91024 718
32.93036 705
32.95047 774
32.97058 721
32.9907 779
33.01081 733
33.03092 743
33.05104 780
33.07115 747
33.09127 803
33.11138 852
33.13149 777
33.15161 853
33.17172 799
33.19183 782
33.21195 861
33.23206 838
33.25217 779
33.27229 786
33.2924 844
33.31252 798
33.33263 808
33.35274 829
33.37286 798
33.39297 771
33.41308 766
33.4332 812
33.45331 762
33.47343 776
33.49354 734
33.51365 738
33.53377 757
33.55388 775
33.57399 762
33.59411 714
33.61422 769
33.63434 749
33.65445 753
33.67456 750
33.69468 717
33.71479 748
33.7349 741
33.75502 757
33.77513 719
33.79524 673
33.81536 747
33.83547 729
33.85559 752
33.8757 687
33.89581 682
33.91593 732
33.93604 748
33.95615 686
33.97627 640
33.99638 695
34.0165 721
34.03661 674
34.05672 728
34.07684 723
34.09695 646
34.11706 676
34.13718 687
34.15729 644
34.17741 690
34.19752 677
34.21763 641
34.23775 624
34.25786 696
34.27797 659
34.29809 654
34.3182 687
34.33831 765
34.35843 714
34.37854 733
34.39866 674
34.41877 646
34.43888 653
34.459 670
34.47911 732
34.49922 638
34.51934 679
34.53945 724
34.55957 716
34.57968 692
34.59979 719
34.61991 704
34.64002 712
34.66013 708
34.68025 666
34.70036 738
34.72047 711
34.74059 732
34.7607 750
34.78082 749
34.80093 731
34.82104 723
34.84116 797
34.86127 743
34.88138 745
34.9015 791
34.92161 763
34.94173 777
34.96184 770
34.98195 780
35.00207 728
35.02218 734
35.04229 745
35.06241 786
35.08252 751
35.10264 747
35.12275 802
35.14286 763
35.16298 767
35.18309 770
35.2032 789
35.22332 752
35.24343 802
35.26354 781
35.28366 789
35.30377 763
35.32389 808
35.344 778
35.36411 770
35.38423 804
35.40434 847
35.42445 776
35.44457 803
35.46468 826
35.4848 829
35.50491 868
35.52502 811
35.54514 857
35.56525 850
35.58536 901
35.60548 953
35.62559 929
35.64571 923
35.66582 892
35.68593 927
35.70605 938
35.72616 881
35.74627 930
35.76639 932
35.7865 930
35.80661 930
35.82673 915
35.84684 878
35.86696 892
35.88707 903
35.90718 863
35.9273 877
35.94741 892
35.96752 868
35.98764 868
36.00775 818
36.02787 874
36.04798 792
36.06809 820
36.08821 860
36.10832 856
36.12843 800
36.14855 801
36.16866 797
36.18878 803
36.20889 829
36.229 819
36.24912 834
36.26923 842
36.28934 852
36.30946 867
36.32957 867
36.34968 897
36.3698 935
36.38991 958
36.41003 1013
36.43014 1056
36.45025 1129
36.47037 1160
36.49048 1115
36.51059 1052
36.53071 1002
36.55082 997
36.57094 916
36.59105 944
36.61116 907
36.63128 842
36.65139 756
36.6715 846
36.69162 792
36.71173 742
36.73184 823
36.75196 853
36.77207 783
36.79219 787
36.8123 830
36.83241 794
36.85253 768
36.87264 786
36.89275 744
36.91287 763
36.93298 773
36.9531 832
36.97321 758
36.99332 764
37.01344 862
37.03355 785
37.05366 826
37.07378 808
37.09389 804
37.11401 794
37.13412 827
37.15423 785
37.17435 829
37.19446 734
37.21457 800
37.23469 761
37.2548 781
37.27491 788
37.29503 785
37.31514 777
37.33526 793
37.35537 819
37.37548 768
37.3956 775
37.41571 804
37.43582 800
37.45594 820
37.47605 808
37.49617 765
37.51628 807
37.53639 791
37.55651 790
37.57662 727
37.59673 770
37.61685 833
37.63696 845
37.65708 809
37.67719 788
37.6973 811
37.71742 812
37.73753 758
37.75764 785
37.77776 807
37.79787 772
37.81798 798
37.8381 744
37.85821 768
37.87833 704
37.89844 773
37.91855 789
37.93867 749
37.95878 706
37.97889 640
37.99901 726
38.01912 685
38.03924 713
38.05935 689
38.07946 740
38.09958 682
38.11969 722
38.1398 690
38.15992 642
38.18003 771
38.20015 716
38.22026 720
38.24037 695
38.26049 722
38.2806 744
38.30071 772
38.32083 729
38.34094 766
38.36105 748
38.38117 737
38.40128 735
38.4214 761
38.44151 707
38.46162 739
38.48174 745
38.50185 694
38.52196 747
38.54208 700
38.56219 738
38.58231 711
38.60242 678
38.62253 705
38.64265 734
38.66276 676
38.68287 702
38.70299 741
38.7231 636
38.74321 679
38.76333 679
38.78344 673
38.80356 674
38.82367 644
38.84378 614
38.8639 657
38.88401 631
38.90412 675
38.92424 706
38.94435 689
38.96447 640
38.98458 713
39.00469 662
39.02481 691
39.04492 672
39.06503 682
39.08515 674
39.10526 670
39.12538 667
39.14549 633
39.1656 718
39.18572 631
39.20583 708
39.22594 731
39.24606 754
39.26617 743
39.28628 809
39.3064 816
39.32651 866
39.34663 854
39.36674 942
39.38685 932
39.40697 946
39.42708 888
39.44719 848
39.46731 813
39.48742 849
39.50754 827
39.52765 738
39.54776 724
39.56788 711
39.58799 701
39.6081 680
39.62822 627
39.64833 687
39.66845 621
39.68856 616
39.70867 673
39.72879 662
39.7489 630
39.76901 675
39.78913 685
39.80924 625
39.82935 671
39.84947 618
39.86958 727
39.8897 652
39.90981 644
39.92992 715
39.95004 640
39.97015 665
39.99026 686
40.01038 711
40.03049 656
40.05061 686
40.07072 712
40.09083 695
40.11095 783
40.13106 740
40.15117 745
40.17129 808
40.1914 816
40.21152 747
40.23163 783
40.25174 814
40.27186 815
40.29197 786
40.31208 774
40.3322 733
40.35231 739
40.37242 763
40.39254 703
40.41265 719
40.43277 686
40.45288 695
40.47299 728
40.49311 689
40.51322 700
40.53333 663
40.55345 656
40.57356 676
40.59368 715
40.61379 683
40.6339 682
40.65402 687
40.67413 662
40.69424 643
40.71436 667
40.73447 722
40.75458 676
40.7747 682
40.79481 664
40.81493 687
40.83504 712
40.85515 716
40.87527 720
40.89538 717
40.91549 707
40.93561 744
40.95572 715
40.97584 730
40.99595 729
41.01606 728
41.03618 712
41.05629 753
41.0764 751
41.09652 733
41.11663 731
41.13675 726
41.15686 718
41.17697 708
41.19709 749
41.2172 723
41.23731 774
41.25743 705
41.27754 741
41.29765 685
41.31777 693
41.33788 683
41.358 698
41.37811 724
41.39822 714
41.41834 680
41.43845 706
41.45856 660
41.47868 723
41.49879 691
41.51891 723
41.53902 711
41.55913 711
41.57925 730
41.59936 718
41.61947 709
41.63959 744
41.6597 705
41.67982 635
41.69993 671
41.72004 728
41.74016 686
41.76027 671
41.78038 672
41.8005 686
41.82061 673
41.84072 657
41.86084 679
41.88095 691
41.90107 679
41.92118 674
41.94129 665
41.96141 659
41.98152 656
42.00163 655
42.02175 666
42.04186 635
42.06198 677
42.08209 702
42.1022 660
42.12232 693
42.14243 694
42.16254 643
42.18266 730
42.20277 700
42.22289 701
42.243 758
42.26311 757
42.28323 775
42.30334 771
42.32345 762
42.34357 839
42.36368 823
42.38379 872
42.40391 840
42.42402 805
42.44414 758
42.46425 768
42.48436 733
42.50448 674
42.52459 692
42.5447 669
42.56482 677
42.58493 640
42.60505 681
42.62516 639
42.64527 588
42.66539 572
42.6855 646
42.70561 584
42.72573 651
42.74584 674
42.76595 609
42.78607 654
42.80618 642
42.8263 611
42.84641 595
42.86652 604
42.88664 596
42.90675 596
42.92686 618
42.94698 603
42.96709 621
42.98721 574
43.00732 653
43.02743 624
43.04755 616
43.06766 628
43.08777 648
43.10789 607
43.128 611
43.14812 602
43.16823 633
43.18834 622
43.20846 630
43.22857 618
43.24868 556
43.2688 633
43.28891 618
43.30902 622
43.32914 670
43.34925 590
43.36937 634
43.38948 636
43.40959 630
43.42971 610
43.44982 686
43.46993 623
43.49005 606
43.51016 577
43.53028 611
43.55039 655
43.5705 635
43.59062 655
43.61073 640
43.63084 601
43.65096 607
43.67107 629
43.69119 634
43.7113 610
43.73141 608
43.75153 641
43.77164 605
43.79175 624
43.81187 633
43.83198 626
43.85209 605
43.87221 593
43.89232 579
43.91244 608
43.93255 611
43.95266 606
43.97278 666
43.99289 632
44.013 635
44.03312 658
44.05323 656
44.07335 636
44.09346 604
44.11357 587
44.13369 663
44.1538 630
44.17391 577
44.19403 646
44.21414 630
44.23426 610
44.25437 609
44.27448 613
44.2946 586
44.31471 608
44.33482 617
44.35494 618
44.37505 589
44.39516 621
44.41528 619
44.43539 600
44.45551 613
44.47562 583
44.49573 640
44.51585 655
44.53596 606
44.55607 605
44.57619 607
44.5963 619
44.61642 617
44.63653 629
44.65664 578
44.67676 587
44.69687 614
44.71698 622
44.7371 627
44.75721 560
44.77732 644
44.79744 613
44.81755 567
44.83767 590
44.85778 623
44.87789 622
44.89801 559
44.91812 639
44.93823 610
44.95835 629
44.97846 635
44.99858 623
45.01869 599
45.0388 614
45.05892 624
45.07903 603
45.09914 602
45.11926 644
45.13937 638
45.15949 594
45.1796 645
45.19971 601
45.21983 605
45.23994 627
45.26005 572
45.28017 618
45.30028 639
45.32039 617
45.34051 646
45.36062 684
45.38074 628
45.40085 647
45.42096 689
45.44108 629
45.46119 631
45.4813 604
45.50142 618
45.52153 648
45.54165 641
45.56176 672
45.58187 647
45.60199 631
45.6221 704
45.64221 724
45.66233 749
45.68244 755
45.70256 709
45.72267 819
45.74278 714
45.7629 695
45.78301 689
45.80312 705
45.82324 688
45.84335 656
45.86346 675
45.88358 607
45.90369 644
45.92381 642
45.94392 583
45.96403 654
45.98415 602
46.00426 573
46.02437 599
46.04449 594
46.0646 621
46.08472 596
46.10483 648
46.12494 633
46.14506 662
46.16517 583
46.18528 628
46.2054 631
46.22551 619
46.24563 578
46.26574 628
46.28585 606
46.30597 596
46.32608 593
46.34619 574
46.36631 619
46.38642 575
46.40653 591
46.42665 606
46.44676 578
46.46688 577
46.48699 600
46.5071 571
46.52722 617
46.54733 586
46.56744 622
46.58756 629
46.60767 606
46.62779 602
46.6479 607
46.66801 592
46.68813 563
46.70824 600
46.72835 595
46.74847 621
46.76858 556
46.78869 591
46.80881 596
46.82892 605
46.84904 595
46.86915 619
46.88926 600
46.90938 595
46.92949 626
46.9496 594
46.96972 598
46.98983 609
47.00995 603
47.03006 598
47.05017 572
47.07029 631
47.0904 648
47.11051 579
47.13063 599
47.15074 601
47.17086 626
47.19097 580
47.21108 598
47.2312 658
47.25131 625
47.27142 646
47.29154 645
47.31165 584
47.33176 654
47.35188 595
47.37199 595
47.39211 630
47.41222 586
47.43233 568
47.45245 642
47.47256 587
47.49267 596
47.51279 657
47.5329 600
47.55302 587
47.57313 598
47.59324 596
47.61336 571
47.63347 653
47.65358 583
47.6737 653
47.69381 645
47.71393 593
47.73404 615
47.75415 640
47.77427 619
47.79438 618
47.81449 632
47.83461 626
47.85472 629
47.87483 682
47.89495 616
47.91506 636
47.93518 629
47.95529 602
47.9754 638
47.99552 604
48.01563 613
48.03574 666
48.05586 591
48.07597 605
48.09609 602
48.1162 607
48.13631 566
48.15643 633
48.17654 632
48.19665 576
48.21677 601
48.23688 628
48.257 627
48.27711 607
48.29722 591
48.31734 569
48.33745 566
48.35756 564
48.37768 578
48.39779 602
48.4179 568
48.43802 590
48.45813 614
48.47825 621
48.49836 570
48.51847 580
48.53859 591
48.5587 593
48.57881 582
48.59893 623
48.61904 592
48.63916 601
48.65927 604
48.67938 597
48.6995 647
48.71961 622
48.73972 624
48.75984 607
48.77995 644
48.80006 622
48.82018 606
48.84029 621
48.86041 652
48.88052 585
48.90063 616
48.92075 633
48.94086 588
48.96097 616
48.98109 577
49.0012 590
49.02132 660
49.04143 589
49.06154 584
49.08166 589
49.10177 608
49.12188 631
49.142 635
49.16211 648
49.18223 588
49.20234 623
49.22245 660
49.24257 611
49.26268 624
49.28279 616
49.30291 636
49.32302 580
49.34313 620
49.36325 628
49.38336 620
49.40348 671
49.42359 662
49.4437 592
49.46382 644
49.48393 695
49.50404 619
49.52416 645
49.54427 658
49.56439 673
49.5845 634
49.60461 688
49.62473 638
49.64484 659
49.66495 647
49.68507 610
49.70518 642
49.7253 570
49.74541 704
49.76552 637
49.78564 663
49.80575 696
49.82586 672
49.84598 671
49.86609 694
49.8862 721
49.90632 769
49.92643 788
49.94655 865
49.96666 880
49.98677 999
50.00689 988
50.027 1073
50.04711 1070
50.06723 1081
50.08734 1079
50.10746 1017
50.12757 985
50.14768 947
50.1678 956
50.18791 877
50.20802 830
50.22814 852
50.24825 744
50.26837 667
50.28848 700
50.30859 677
50.32871 643
50.34882 645
50.36893 622
50.38905 646
50.40916 598
50.42927 617
50.44939 638
50.4695 637
50.48962 629
50.50973 639
50.52984 631
50.54996 641
50.57007 617
50.59018 640
50.6103 650
50.63041 676
50.65053 618
50.67064 654
50.69075 607
50.71087 643
50.73098 643
50.75109 638
50.77121 638
50.79132 653
50.81143 604
50.83155 646
50.85166 626
50.87178 595
50.89189 612
50.912 631
50.93212 610
50.95223 636
50.97234 624
50.99246 617
51.01257 566
51.03269 614
51.0528 575
51.07291 585
51.09303 606
51.11314 654
51.13325 604
51.15337 584
51.17348 578
51.1936 618
51.21371 647
51.23382 602
51.25394 579
51.27405 639
51.29416 628
51.31428 552
51.33439 631
51.3545 642
51.37462 610
51.39473 578
51.41485 597
51.43496 590
51.45507 588
51.47519 602
51.4953 553
51.51541 619
51.53553 617
51.55564 628
51.57576 570
51.59587 593
51.61598 640
51.6361 576
51.65621 626
51.67632 585
51.69644 557
51.71655 599
51.73667 593
51.75678 586
51.77689 607
51.79701 611
51.81712 582
51.83723 537
51.85735 616
51.87746 603
51.89757 610
51.91769 621
51.9378 647
51.95792 585
51.97803 626
51.99814 589
52.01826 613
52.03837 636
52.05848 590
52.0786 624
52.09871 620
52.11883 635
52.13894 620
52.15905 638
52.17917 601
52.19928 598
52.21939 655
52.23951 594
52.25962 634
52.27974 588
52.29985 592
52.31996 607
52.34008 599
52.36019 556
52.3803 621
52.40042 563
52.42053 624
52.44064 568
52.46076 582
52.48087 565
52.50099 609
52.5211 593
52.54121 607
52.56133 583
52.58144 580
52.60155 580
52.62167 617
52.64178 565
52.6619 586
52.68201 613
52.70212 592
52.72224 615
52.74235 569
52.76246 616
52.78258 583
52.80269 549
52.8228 550
52.84292 573
52.86303 607
52.88315 570
52.90326 585
52.92337 627
52.94349 605
52.9636 622
52.98371 641
53.00383 611
53.02394 607
53.04406 616
53.06417 618
53.08428 625
53.1044 604
53.12451 614
53.14462 617
53.16474 669
53.18485 631
53.20497 642
53.22508 584
53.24519 649
53.26531 586
53.28542 598
53.30553 658
53.32565 649
53.34576 631
53.36587 590
53.38599 604
53.4061 630
53.42622 622
53.44633 615
53.46644 659
53.48656 664
53.50667 678
53.52678 662
53.5469 600
53.56701 660
53.58713 667
53.60724 646
53.62735 730
53.64747 737
53.66758 674
53.68769 656
53.70781 660
53.72792 658
53.74804 672
53.76815 665
53.78826 707
53.80838 725
53.82849 718
53.8486 651
53.86872 694
53.88883 666
53.90894 733
53.92906 748
53.94917 708
53.96929 667
53.9894 766
54.00951 743
54.02963 727
54.04974 783
54.06985 747
54.08997 760
54.11008 738
54.1302 772
54.15031 792
54.17042 779
54.19054 787
54.21065 759
54.23076 783
54.25088 790
54.27099 730
54.29111 778
54.31122 776
54.33133 759
54.35145 734
54.37156 754
54.39167 797
54.41179 767
54.4319 712
54.45201 722
54.47213 747
54.49224 754
54.51236 741
54.53247 727
54.55258 752
54.5727 732
54.59281 792
54.61292 701
54.63304 744
54.65315 760
54.67327 748
54.69338 794
54.71349 829
54.73361 845
54.75372 858
54.77383 821
54.79395 867
54.81406 808
54.83417 820
54.85429 861
54.8744 797
54.89452 789
54.91463 794
54.93474 764
54.95486 779
54.97497 779
54.99508 721
55.0152 750
55.03531 720
55.05543 662
55.07554 693
55.09565 737
55.11577 730
55.13588 731
55.15599 763
55.17611 663
55.19622 719
55.21634 729
55.23645 747
55.25656 721
55.27668 722
55.29679 708
55.3169 734
55.33702 683
55.35713 669
55.37724 654
55.39736 669
55.41747 717
55.43759 656
55.4577 680
55.47781 689
55.49793 652
55.51804 661
55.53815 624
55.55827 629
55.57838 669
55.5985 655
55.61861 665
55.63872 665
55.65884 620
55.67895 669
55.69906 609
55.71918 635
55.73929 622
55.75941 584
55.77952 620
55.79963 577
55.81975 582
55.83986 621
55.85997 581
55.88009 602
55.9002 573
55.92031 594
55.94043 599
55.96054 635
55.98066 633
56.00077 621
56.02088 629
56.041 654
56.06111 624
56.08122 582
56.10134 631
56.12145 621
56.14157 610
56.16168 637
56.18179 592
56.20191 636
56.22202 626
56.24213 635
56.26225 638
56.28236 594
56.30248 575
56.32259 634
56.3427 625
56.36282 566
56.38293 569
56.40304 617
56.42316 638
56.44327 635
56.46338 635
56.4835 571
56.50361 562
56.52373 591
56.54384 607
56.56395 614
56.58407 599
56.60418 619
56.62429 590
56.64441 626
56.66452 589
56.68464 614
56.70475 612
56.72486 614
56.74498 616
56.76509 555
56.7852 575
56.80532 623
56.82543 569
56.84554 543
56.86566 642
56.88577 571
56.90589 555
56.926 597
56.94611 578
56.96623 575
56.98634 571
57.00645 583
57.02657 600
57.04668 605
57.0668 629
57.08691 593
57.10702 622
57.12714 628
57.14725 618
57.16736 658
57.18748 596
57.20759 590
57.22771 627
57.24782 616
57.26793 597
57.28805 600
57.30816 631
57.32827 600
57.34839 638
57.3685 609
57.38861 580
57.40873 637
57.42884 606
57.44896 563
57.46907 605
57.48918 625
57.5093 602
57.52941 590
57.54952 599
57.56964 608
57.58975 609
57.60987 580
57.62998 606
57.65009 568
57.67021 598
57.69032 589
57.71043 602
57.73055 562
57.75066 584
57.77078 629
57.79089 580
57.811 570
57.83112 602
57.85123 599
57.87134 609
57.89146 588
57.91157 601
57.93168 591
57.9518 583
57.97191 612
57.99203 564
58.01214 567
58.03225 622
58.05237 598
58.07248 587
58.09259 581
58.11271 551
58.13282 606
58.15294 585
58.17305 626
58.19316 624
58.21328 589
58.23339 610
58.2535 599
58.27362 588
58.29373 612
58.31385 576
58.33396 616
58.35407 597
58.37419 571
58.3943 587
58.41441 570
58.43453 645
58.45464 581
58.47475 570
58.49487 545
58.51498 589
58.5351 589
58.55521 556
58.57532 613
58.59544 579
58.61555 601
58.63566 563
58.65578 605
58.67589 560
58.69601 629
58.71612 600
58.73623 606
58.75635 615
58.77646 610
58.79657 549
58.81669 592
58.8368 586
58.85691 613
58.87703 619
58.89714 601
58.91726 585
58.93737 591
58.95748 585
58.9776 541
58.99771 593
59.01782 570
59.03794 582
59.05805 560
59.07817 558
59.09828 613
59.11839 617
59.13851 504
59.15862 590
59.17873 580
59.19885 594
59.21896 591
59.23908 551
59.25919 579
59.2793 571
59.29942 578
59.31953 586
59.33964 607
59.35976 612
59.37987 584
59.39998 608
59.4201 621
59.44021 583
59.46033 618
59.48044 608
59.50055 619
59.52067 651
59.54078 611
59.56089 596
59.58101 596
59.60112 610
59.62124 591
59.64135 661
59.66146 664
59.68158 673
59.70169 673
59.7218 734
59.74192 725
59.76203 745
59.78215 768
59.80226 818
59.82237 835
59.84249 829
59.8626 884
59.88271 877
59.90283 931
59.92294 843
59.94305 774
59.96317 794
59.98328 743
60.0034 805
60.02351 791
60.04362 712
60.06374 690
60.08385 697
60.10396 710
60.12408 661
60.14419 632
60.16431 592
60.18442 595
60.20453 647
60.22465 604
60.24476 614
60.26487 598
60.28499 616
60.3051 607
60.32522 582
60.34533 614
60.36544 634
60.38556 587
60.40567 566
60.42578 577
60.4459 592
60.46601 562
60.48612 600
60.50624 569
60.52635 581
60.54647 592
60.56658 594
60.58669 581
60.60681 599
60.62692 596
60.64703 562
60.66715 573
60.68726 556
60.70738 596
60.72749 601
60.7476 575
60.76772 609
60.78783 597
60.80794 624
60.82806 639
60.84817 565
60.86828 608
60.8884 612
60.90851 583
60.92863 559
60.94874 585
60.96885 550
60.98897 559
61.00908 613
61.02919 545
61.04931 575
61.06942 571
61.08954 591
61.10965 605
61.12976 593
61.14988 592
61.16999 597
61.1901 590
61.21022 585
61.23033 614
61.25045 594
61.27056 559
61.29067 565
61.31079 561
61.3309 622
61.35101 623
61.37113 579
61.39124 617
61.41135 576
61.43147 599
61.45158 653
61.4717 604
61.49181 597
61.51192 569
61.53204 592
61.55215 598
61.57226 614
61.59238 617
61.61249 631
61.63261 625
61.65272 592
61.67283 599
61.69295 602
61.71306 613
61.73317 630
61.75329 629
61.7734 632
61.79352 655
61.81363 594
61.83374 629
61.85386 635
61.87397 631
61.89408 683
61.9142 657
61.93431 624
61.95442 635
61.97454 584
61.99465 637
62.01477 641
62.03488 671
62.05499 648
62.07511 624
62.09522 658
62.11533 666
62.13545 629
62.15556 609
62.17568 651
62.19579 655
62.2159 614
62.23602 625
62.25613 681
62.27624 657
62.29636 646
62.31647 708
62.33659 674
62.3567 649
62.37681 660
62.39693 701
62.41704 687
62.43715 670
62.45727 663
62.47738 655
62.49749 650
62.51761 703
62.53772 720
62.55784 669
62.57795 617
62.59806 617
62.61818 649
62.63829 684
62.6584 626
62.67852 671
62.69863 635
62.71875 646
62.73886 685
62.75897 618
62.77909 627
62.7992 692
62.81931 639
62.83943 684
62.85954 643
62.87965 589
62.89977 664
62.91988 626
62.94 607
62.96011 649
62.98022 566
63.00034 632
63.02045 674
63.04056 588
63.06068 616
63.08079 604
63.10091 655
63.12102 643
63.14113 656
63.16125 627
63.18136 640
63.20147 629
63.22159 627
63.2417 595
63.26182 683
63.28193 620
63.30204 605
63.32216 643
63.34227 634
63.36238 633
63.3825 638
63.40261 622
63.42272 624
63.44284 656
63.46295 662
63.48307 627
63.50318 590
63.52329 659
63.54341 617
63.56352 629
63.58363 605
63.60375 585
63.62386 624
63.64398 638
63.66409 691
63.6842 624
63.70432 673
63.72443 649
63.74454 649
63.76466 667
63.78477 627
63.80489 613
63.825 662
63.84511 700
63.86523 679
63.88534 724
63.90545 669
63.92557 703
63.94568 686
63.96579 697
63.98591 709
64.00602 727
64.02614 715
64.04625 690
64.06636 653
64.08648 662
64.10659 705
64.1267 664
64.14682 692
64.16693 649
64.18705 650
64.20716 640
64.22727 669
64.24739 640
64.2675 649
64.28761 642
64.30773 694
64.32784 692
64.34796 603
64.36807 600
64.38818 644
64.4083 671
64.42841 603
64.44852 667
64.46864 585
64.48875 660
64.50886 618
64.52898 606
64.54909 640
64.56921 648
64.58932 611
64.60943 629
64.62955 688
64.64966 622
64.66977 605
64.68989 657
64.71 604
64.73012 604
64.75023 627
64.77034 612
64.79046 598
64.81057 619
64.83068 610
64.8508 589
64.87091 654
64.89102 655
64.91114 595
64.93125 638
64.95137 593
64.97148 584
64.99159 598
65.01171 592
65.03182 575
65.05193 627
65.07205 598
65.09216 585
65.11228 577
65.13239 615
65.1525 561
65.17262 602
65.19273 585
65.21284 593
65.23296 576
65.25307 564
65.27319 599
65.2933 608
65.31341 580
65.33353 579
65.35364 567
65.37375 558
65.39387 577
65.41398 602
65.43409 625
65.45421 585
65.47432 565
65.49444 571
65.51455 596
65.53466 599
65.55478 585
65.57489 568
65.595 594
65.61512 633
65.63523 591
65.65535 589
65.67546 593
65.69557 602
65.71569 597
65.7358 630
65.75591 585
65.77603 612
65.79614 571
65.81626 591
65.83637 625
65.85648 600
65.8766 608
65.89671 585
65.91682 603
65.93694 570
65.95705 550
65.97716 580
65.99728 596
66.01739 609
66.03751 631
66.05762 616
66.07773 605
66.09785 577
66.11796 624
66.13807 585
66.15819 594
66.1783 561
66.19842 585
66.21853 612
66.23864 597
66.25876 583
66.27887 574
66.29898 563
66.3191 554
66.33921 567
66.35933 574
66.37944 576
66.39955 568
66.41967 616
66.43978 558
66.45989 602
66.48001 599
66.50012 583
66.52023 597
66.54035 550
66.56046 564
66.58058 604
66.60069 537
66.6208 572
66.64092 535
66.66103 570
66.68114 589
66.70126 592
66.72137 599
66.74149 563
66.7616 548
66.78171 586
66.80183 570
66.82194 583
66.84205 583
66.86217 567
66.88228 568
66.90239 562
66.92251 549
66.94262 584
66.96274 542
66.98285 544
67.00296 590
67.02308 616
67.04319 579
67.0633 570
67.08342 590
67.10353 538
67.12365 572
67.14376 586
67.16387 595
67.18399 594
67.2041 593
67.22421 614
67.24433 563
67.26444 575
67.28456 565
67.30467 595
67.32478 592
67.3449 571
67.36501 592
67.38512 582
67.40524 572
67.42535 649
67.44546 610
67.46558 597
67.48569 659
67.50581 610
67.52592 665
67.54603 697
67.56615 719
67.58626 695
67.60637 733
67.62649 729
67.6466 721
67.66672 727
67.68683 685
67.70694 730
67.72706 683
67.74717 669
67.76728 664
67.7874 694
67.80751 731
67.82763 715
67.84774 676
67.86785 696
67.88797 712
67.90808 676
67.92819 746
67.94831 678
67.96842 729
67.98853 746
68.00865 805
68.02876 796
68.04888 817
68.06899 781
68.0891 786
68.10922 806
68.12933 843
68.14944 763
68.16956 807
68.18967 774
68.20979 808
68.2299 798
68.25001 789
68.27013 790
68.29024 752
68.31035 706
68.33047 691
68.35058 692
68.3707 648
68.39081 641
68.41092 608
68.43104 637
68.45115 606
68.47126 596
68.49138 603
68.51149 593
68.5316 538
68.55172 550
68.57183 547
68.59195 568
68.61206 576
68.63217 565
68.65229 590
68.6724 583
68.69251 571
68.71263 552
68.73274 546
68.75286 565
68.77297 550
68.79308 567
68.8132 576
68.83331 552
68.85342 585
68.87354 516
68.89365 536
68.91376 537
68.93388 559
68.95399 518
68.97411 579
68.99422 589
69.01433 565
69.03445 532
69.05456 535
69.07467 575
69.09479 511
69.1149 583
69.13502 577
69.15513 530
69.17524 578
69.19536 569
69.21547 547
69.23558 549
69.2557 588
69.27581 579
69.29593 570
69.31604 543
69.33615 575
69.35627 559
69.37638 560
69.39649 537
69.41661 557
69.43672 584
69.45683 586
69.47695 553
69.49706 522
69.51718 560
69.53729 553
69.5574 532
69.57752 560
69.59763 566
69.61774 539
69.63786 520
69.65797 523
69.67809 550
69.6982 524
69.71831 530
69.73843 571
69.75854 563
69.77865 562
69.79877 566
69.81888 557
69.839 546
69.85911 561
69.87922 591
69.89934 546
69.91945 544
69.93956 560
69.95968 569
69.97979 534
69.9999 537
70.02002 568
70.04013 568
70.06025 540
70.08036 583
70.10047 522
70.12059 601
70.1407 549
70.16081 541
70.18093 549
70.20104 529
70.22116 526
70.24127 568
70.26138 545
70.2815 553
70.30161 541
70.32172 563
70.34184 553
70.36195 588
70.38207 552
70.40218 517
70.42229 537
70.44241 508
70.46252 544
70.48263 511
70.50275 560
70.52286 529
70.54297 581
70.56309 568
70.5832 553
70.60332 579
70.62343 516
70.64354 521
70.66366 554
70.68377 510
70.70388 559
70.724 534
70.74411 512
70.76423 548
70.78434 586
70.80445 573
70.82457 570
70.84468 563
70.86479 552
70.88491 534
70.90502 539
70.92513 582
70.94525 494
70.96536 534
70.98548 556
71.00559 528
71.0257 564
71.04582 551
71.06593 540
71.08604 594
71.10616 523
71.12627 567
71.14639 579
71.1665 520
71.18661 548
71.20673 516
71.22684 554
71.24695 525
71.26707 526
71.28718 534
71.3073 554
71.32741 538
71.34752 524
71.36764 557
71.38775 524
71.40786 531
71.42798 515
71.44809 531
71.4682 565
71.48832 512
71.50843 540
71.52855 591
71.54866 572
71.56877 554
71.58889 541
71.609 549
71.62911 525
71.64923 552
71.66934 552
71.68946 529
71.70957 539
71.72968 524
71.7498 561
71.76991 525
71.79002 582
71.81014 566
71.83025 540
71.85037 544
71.87048 581
71.89059 562
71.91071 565
71.93082 578
71.95093 534
71.97105 550
71.99116 508
72.01127 541
72.03139 537
72.0515 497
72.07162 561
72.09173 532
72.11184 529
72.13196 534
72.15207 542
72.17218 543
72.1923 494
72.21241 573
72.23253 519
72.25264 551
72.27275 553
72.29287 546
72.31298 545
72.33309 558
72.35321 525
72.37332 554
72.39344 585
72.41355 533
72.43366 536
72.45378 537
72.47389 522
72.494 566
72.51412 534
72.53423 534
72.55434 565
72.57446 548
72.59457 544
72.61469 523
72.6348 477
72.65491 530
72.67503 541
72.69514 560
72.71525 557
72.73537 505
72.75548 557
72.7756 550
72.79571 571
72.81582 519
72.83594 527
72.85605 572
72.87616 563
72.89628 575
72.91639 547
72.9365 598
72.95662 553
72.97673 542
72.99685 530
73.01696 551
73.03707 571
73.05719 576
73.0773 552
73.09741 568
73.11753 553
73.13764 540
73.15776 562
73.17787 589
73.19798 560
73.2181 587
73.23821 561
73.25832 577
73.27844 579
73.29855 584
73.31867 613
73.33878 588
73.35889 620
73.37901 583
73.39912 566
73.41923 627
73.43935 574
73.45946 576
73.47957 578
73.49969 547
73.5198 575
73.53992 563
73.56003 574
73.58014 525
73.60026 549
73.62037 585
73.64048 558
73.6606 559
73.68071 530
73.70083 519
73.72094 542
73.74105 512
73.76117 530
73.78128 553
73.80139 542
73.82151 501
73.84162 548
73.86174 563
73.88185 520
73.90196 502
73.92208 541
73.94219 559
73.9623 546
73.98242 532
74.00253 552
74.02264 570
74.04276 521
74.06287 548
74.08299 551
74.1031 544
74.12321 480
74.14333 535
74.16344 547
74.18355 512
74.20367 526
74.22378 535
74.2439 505
74.26401 517
74.28412 529
74.30424 502
74.32435 540
74.34446 511
74.36458 530
74.38469 531
74.40481 566
74.42492 534
74.44503 522
74.46515 510
74.48526 524
74.50537 533
74.52549 526
74.5456 528
74.56571 492
74.58583 532
74.60594 523
74.62606 506
74.64617 522
74.66628 562
74.6864 505
74.70651 545
74.72662 562
74.74674 518
74.76685 498
74.78697 524
74.80708 553
74.82719 540
74.84731 524
74.86742 570
74.88753 547
74.90765 543
74.92776 504
74.94787 536
74.96799 527
74.9881 516
75.00822 516
