3.00117 20596
3.02128 19200
3.0414 19194
3.06151 18745
3.08162 18142
3.10174 18001
3.12185 16928
3.14197 16902
3.16208 16258
3.18219 15713
3.20231 15875
3.22242 14876
3.24253 14615
3.26265 14133
3.28276 13444
3.30288 13494
3.32299 12807
3.3431 12540
3.36322 12046
3.38333 11917
3.40344 11567
3.42356 10908
3.44367 10854
3.46379 10426
3.4839 10023
3.50401 9746
3.52413 9220
3.54424 9143
3.56435 8555
3.58447 8518
3.60458 8208
3.62469 7659
3.64481 7464
3.66492 7229
3.68504 7075
3.70515 6955
3.72526 6352
3.74538 6403
3.76549 5945
3.7856 5692
3.80572 5796
3.82583 5242
3.84595 5257
3.86606 5020
3.88617 4835
3.90629 4691
3.9264 4312
3.94651 4263
3.96663 3985
3.98674 3961
4.00686 4006
4.02697 3460
4.04708 3558
4.0672 3519
4.08731 3238
4.10742 3112
4.12754 2867
4.14765 2990
4.16776 2725
4.18788 2655
4.20799 2651
4.22811 2460
4.24822 2390
4.26833 2285
4.28845 2310
4.30856 2324
4.32867 2093
4.34879 2183
4.3689 2110
4.38902 1986
4.40913 2016
4.42924 1807
4.44936 1815
4.46947 1867
4.48958 1828
4.5097 1764
4.52981 1652
4.54992 1695
4.57004 1783
4.59015 1616
4.61027 1653
4.63038 1526
4.65049 1563
4.67061 1534
4.69072 1457
4.71083 1499
4.73095 1367
4.75106 1387
4.77118 1372
4.79129 1319
4.8114 1279
4.83152 1184
4.85163 1232
4.87174 1287
4.89186 1206
4.91197 1268
4.93209 1183
4.9522 1211
4.97231 1210
4.99243 1117
5.01254 1079
5.03265 1032
5.05277 1053
5.07288 1146
5.09299 1055
5.11311 997
5.13322 1028
5.15334 979
5.17345 958
5.19356 958
5.21368 945
5.23379 923
5.2539 871
5.27402 887
5.29413 856
5.31425 878
5.33436 881
5.35447 860
5.37459 833
5.3947 823
5.41481 853
5.43493 799
5.45504 813
5.47516 779
5.49527 843
5.51538 777
5.5355 813
5.55561 774
5.57572 816
5.59584 832
5.61595 766
5.63606 717
5.65618 740
5.67629 720
5.69641 717
5.71652 717
5.73663 651
5.75675 724
5.77686 687
5.79697 662
5.81709 714
5.8372 649
5.85732 680
5.87743 639
5.89754 644
5.91766 625
5.93777 625
5.95788 667
5.978 601
5.99811 626
6.01823 593
6.03834 622
6.05845 631
6.07857 571
6.09868 629
6.11879 624
6.13891 646
6.15902 610
6.17913 587
6.19925 653
6.21936 596
6.23948 622
6.25959 544
6.2797 587
6.29982 565
6.31993 624
6.34004 588
6.36016 593
6.38027 608
6.40039 577
6.4205 622
6.44061 571
6.46073 561
6.48084 581
6.50095 607
6.52107 605
6.54118 579
6.56129 566
6.58141 536
6.60152 582
6.62164 548
6.64175 581
6.66186 580
6.68198 579
6.70209 600
6.7222 539
6.74232 577
6.76243 565
6.78255 610
6.80266 552
6.82277 561
6.84289 595
6.863 578
6.88311 563
6.90323 554
6.92334 582
6.94346 562
6.96357 594
6.98368 526
7.0038 558
7.02391 552
7.04402 501
7.06414 546
7.08425 527
7.10436 574
7.12448 533
7.14459 546
7.16471 547
7.18482 576
7.20493 552
7.22505 557
7.24516 576
7.26527 520
7.28539 549
7.3055 545
7.32562 554
7.34573 542
7.36584 586
7.38596 551
7.40607 564
7.42618 581
7.4463 565
7.46641 546
7.48653 563
7.50664 522
7.52675 541
7.54687 576
7.56698 492
7.58709 511
7.60721 548
7.62732 571
7.64743 538
7.66755 515
7.68766 515
7.70778 525
7.72789 530
7.748 595
7.76812 518
7.78823 552
7.80834 574
7.82846 565
7.84857 562
7.86869 528
7.8888 498
7.90891 552
7.92903 570
7.94914 582
7.96925 586
7.98937 547
8.00948 542
8.0296 558
8.04971 531
8.06982 519
8.08994 536
8.11005 572
8.13016 568
8.15028 580
8.17039 519
8.1905 544
8.21062 518
8.23073 566
8.25085 575
8.27096 568
8.29107 535
8.31119 525
8.3313 519
8.35141 534
8.37153 543
8.39164 613
8.41176 595
8.43187 543
8.45198 588
8.4721 550
8.49221 557
8.51232 568
8.53244 575
8.55255 573
8.57266 528
8.59278 586
8.61289 541
8.63301 587
8.65312 563
8.67323 538
8.69335 503
8.71346 580
8.73357 561
8.75369 505
8.7738 515
8.79392 554
8.81403 528
8.83414 569
8.85426 505
8.87437 509
8.89448 610
8.9146 522
8.93471 546
8.95483 525
8.97494 546
8.99505 530
9.01517 499
9.03528 528
9.05539 525
9.07551 483
9.09562 544
9.11573 499
9.13585 528
9.15596 535
9.17608 487
9.19619 486
9.2163 558
9.23642 483
9.25653 540
9.27664 497
9.29676 550
9.31687 514
9.33699 503
9.3571 556
9.37721 554
9.39733 517
9.41744 549
9.43755 506
9.45767 544
9.47778 491
9.4979 526
9.51801 454
9.53812 472
9.55824 519
9.57835 518
9.59846 508
9.61858 497
9.63869 486
9.6588 504
9.67892 504
9.69903 470
9.71915 486
9.73926 536
9.75937 467
9.77949 508
9.7996 513
9.81971 508
9.83983 511
9.85994 502
9.88006 496
9.90017 472
9.92028 524
9.9404 486
9.96051 501
9.98062 503
10.00074 477
10.02085 479
10.04097 452
10.06108 469
10.08119 493
10.10131 497
10.12142 454
10.14153 522
10.16165 461
10.18176 522
10.20187 498
10.22199 456
10.2421 483
10.26222 487
10.28233 549
10.30244 489
10.32256 511
10.34267 549
10.36278 503
10.3829 514
10.40301 514
10.42313 507
10.44324 510
10.46335 554
10.48347 509
10.50358 546
10.52369 481
10.54381 563
10.56392 497
10.58403 475
10.60415 502
10.62426 477
10.64438 510
10.66449 476
10.6846 519
10.70472 535
10.72483 505
10.74494 480
10.76506 496
10.78517 529
10.80529 518
10.8254 509
10.84551 488
10.86563 547
10.88574 514
10.90585 477
10.92597 537
10.94608 528
10.9662 520
10.98631 514
11.00642 506
11.02654 532
11.04665 448
11.06676 466
11.08688 517
11.10699 480
11.1271 483
11.14722 492
11.16733 513
11.18745 495
11.20756 524
11.22767 513
11.24779 511
11.2679 516
11.28801 528
11.30813 505
11.32824 538
11.34836 544
11.36847 471
11.38858 517
11.4087 536
11.42881 583
11.44892 564
11.46904 575
11.48915 523
11.50927 556
11.52938 560
11.54949 513
11.56961 549
11.58972 594
11.60983 522
11.62995 541
11.65006 587
11.67017 512
11.69029 552
11.7104 515
11.73052 499
11.75063 586
11.77074 540
11.79086 555
11.81097 521
11.83108 638
11.8512 597
11.87131 598
11.89143 572
11.91154 610
11.93165 602
11.95177 645
11.97188 618
11.99199 625
12.01211 610
12.03222 612
12.05234 645
12.07245 606
12.09256 626
12.11268 672
12.13279 688
12.1529 657
12.17302 640
12.19313 605
12.21324 646
12.23336 695
12.25347 677
12.27359 708
12.2937 665
12.31381 658
12.33393 663
12.35404 634
12.37415 653
12.39427 659
12.41438 624
12.4345 595
12.45461 625
12.47472 617
12.49484 561
12.51495 532
12.53506 556
12.55518 560
12.57529 567
12.5954 569
12.61552 546
12.63563 558
12.65575 547
12.67586 549
12.69597 488
12.71609 539
12.7362 516
12.75631 519
12.77643 555
12.79654 516
12.81666 511
12.83677 482
12.85688 481
12.877 492
12.89711 463
12.91722 448
12.93734 508
12.95745 496
12.97757 450
12.99768 481
13.01779 451
13.03791 480
13.05802 445
13.07813 468
13.09825 452
13.11836 470
13.13847 435
13.15859 468
13.1787 513
13.19882 470
13.21893 486
13.23904 439
13.25916 517
13.27927 439
13.29938 471
13.3195 469
13.33961 466
13.35973 445
13.37984 469
13.39995 412
13.42007 503
13.44018 468
13.46029 421
13.48041 447
13.50052 440
13.52064 454
13.54075 454
13.56086 458
13.58098 436
13.60109 498
13.6212 447
13.64132 492
13.66143 495
13.68154 467
13.70166 470
13.72177 481
13.74189 494
13.762 487
13.78211 487
13.80223 515
13.82234 442
13.84245 487
13.86257 463
13.88268 487
13.9028 449
13.92291 415
13.94302 451
13.96314 428
13.98325 423
14.00336 429
14.02348 453
14.04359 472
14.06371 434
14.08382 422
14.10393 447
14.12405 467
14.14416 433
14.16427 422
14.18439 435
14.2045 430
14.22461 431
14.24473 459
14.26484 432
14.28496 411
14.30507 454
14.32518 484
14.3453 448
14.36541 424
14.38552 440
14.40564 428
14.42575 464
14.44587 434
14.46598 442
14.48609 442
14.50621 445
14.52632 426
14.54643 475
14.56655 396
14.58666 444
14.60677 449
14.62689 420
14.647 464
14.66712 414
14.68723 422
14.70734 433
14.72746 418
14.74757 473
14.76768 417
14.7878 490
14.80791 443
14.82803 441
14.84814 436
14.86825 416
14.88837 451
14.90848 448
14.92859 422
14.94871 424
14.96882 484
14.98894 482
15.00905 436
15.02916 498
15.04928 435
15.06939 469
15.0895 497
15.10962 437
15.12973 445
15.14984 474
15.16996 434
15.19007 429
15.21019 437
15.2303 446
15.25041 447
15.27053 422
15.29064 456
15.31075 409
15.33087 439
15.35098 450
15.3711 442
15.39121 455
15.41132 447
15.43144 426
15.45155 425
15.47166 450
15.49178 482
15.51189 427
15.53201 458
15.55212 417
15.57223 401
15.59235 422
15.61246 458
15.63257 450
15.65269 413
15.6728 439
15.69291 444
15.71303 450
15.73314 474
15.75326 430
15.77337 429
15.79348 446
15.8136 411
15.83371 434
15.85382 444
15.87394 430
15.89405 465
15.91417 409
15.93428 418
15.95439 442
15.97451 440
15.99462 440
16.01473 440
16.03485 462
16.05496 457
16.07508 431
16.09519 432
16.1153 443
16.13542 407
16.15553 390
16.17564 434
16.19576 421
16.21587 423
16.23598 434
16.2561 438
16.27621 427
16.29633 459
16.31644 472
16.33655 451
16.35667 422
16.37678 450
16.39689 393
16.41701 373
16.43712 411
16.45724 437
16.47735 419
16.49746 408
16.51758 445
16.53769 438
16.5578 422
16.57792 387
16.59803 405
16.61814 450
16.63826 398
16.65837 425
16.67849 466
16.6986 415
16.71871 419
16.73883 453
16.75894 432
16.77905 431
16.79917 440
16.81928 442
16.8394 440
16.85951 414
16.87962 411
16.89974 441
16.91985 441
16.93996 442
16.96008 423
16.98019 402
17.00031 411
17.02042 495
17.04053 424
17.06065 421
17.08076 446
17.10087 436
17.12099 428
17.1411 414
17.16121 428
17.18133 452
17.20144 442
17.22156 408
17.24167 450
17.26178 438
17.2819 435
17.30201 441
17.32212 396
17.34224 439
17.36235 411
17.38247 423
17.40258 415
17.42269 435
17.44281 402
17.46292 448
17.48303 423
17.50315 446
17.52326 402
17.54338 401
17.56349 429
17.5836 411
17.60372 425
17.62383 472
17.64394 452
17.66406 468
17.68417 418
17.70428 424
17.7244 406
17.74451 461
17.76463 419
17.78474 441
17.80485 423
17.82497 413
17.84508 396
17.86519 453
17.88531 450
17.90542 473
17.92554 427
17.94565 464
17.96576 435
17.98588 467
18.00599 406
18.0261 461
18.04622 425
18.06633 469
18.08645 507
18.10656 485
18.12667 473
18.14679 528
18.1669 499
18.18701 532
18.20713 547
18.22724 593
18.24735 556
18.26747 593
18.28758 559
18.3077 581
18.32781 493
18.34792 521
18.36804 525
18.38815 543
18.40826 514
18.42838 454
18.44849 492
18.46861 442
18.48872 454
18.50883 454
18.52895 457
18.54906 465
18.56917 427
18.58929 455
18.6094 463
18.62951 489
18.64963 450
18.66974 455
18.68986 448
18.70997 450
18.73008 423
18.7502 437
18.77031 447
18.79042 491
18.81054 459
18.83065 452
18.85077 479
18.87088 433
18.89099 497
18.91111 441
18.93122 460
18.95133 447
18.97145 466
18.99156 441
19.01168 482
19.03179 518
19.0519 438
19.07202 485
19.09213 421
19.11224 461
19.13236 411
19.15247 472
19.17258 486
19.1927 491
19.21281 537
19.23293 508
19.25304 496
19.27315 548
19.29327 538
19.31338 526
19.33349 527
19.35361 600
19.37372 534
19.39384 554
19.41395 554
19.43406 553
19.45418 514
19.47429 511
19.4944 572
19.51452 583
19.53463 570
19.55475 554
19.57486 601
19.59497 557
19.61509 581
19.6352 668
19.65531 598
19.67543 605
19.69554 625
19.71565 641
19.73577 696
19.75588 652
19.776 719
19.79611 749
19.81622 787
19.83634 723
19.85645 785
19.87656 753
19.89668 807
19.91679 811
19.93691 785
19.95702 853
19.97713 738
19.99725 778
20.01736 863
20.03747 759
20.05759 747
20.0777 770
20.09782 737
20.11793 696
20.13804 800
20.15816 763
20.17827 748
20.19838 753
20.2185 794
20.23861 779
20.25872 749
20.27884 763
20.29895 778
20.31907 754
20.33918 770
20.35929 750
20.37941 717
20.39952 698
20.41963 744
20.43975 752
20.45986 710
20.47998 752
20.50009 739
20.5202 726
20.54032 700
20.56043 728
20.58054 769
20.60066 764
20.62077 727
20.64088 726
20.661 762
20.68111 820
20.70123 867
20.72134 894
20.74145 1044
20.76157 1252
20.78168 1420
20.80179 1590
20.82191 1781
20.84202 1756
20.86214 1686
20.88225 1539
20.90236 1273
20.92248 1141
20.94259 1067
20.9627 946
20.98282 963
21.00293 961
21.02305 885
21.04316 865
21.06327 844
21.08339 865
21.1035 743
21.12361 725
21.14373 757
21.16384 702
21.18395 704
21.20407 686
21.22418 665
21.2443 659
21.26441 639
21.28452 700
21.30464 690
21.32475 695
21.34486 649
21.36498 687
21.38509 643
21.40521 634
21.42532 614
21.44543 630
21.46555 627
21.48566 584
21.50577 645
21.52589 673
21.546 581
21.56612 622
21.58623 645
21.60634 657
21.62646 619
21.64657 596
21.66668 586
21.6868 640
21.70691 629
21.72702 674
21.74714 578
21.76725 635
21.78737 643
21.80748 611
21.82759 641
21.84771 683
21.86782 651
21.88793 685
21.90805 699
21.92816 668
21.94828 746
21.96839 767
21.9885 732
22.00862 789
22.02873 724
22.04884 703
22.06896 664
22.08907 628
22.10919 580
22.1293 593
22.14941 576
22.16953 609
22.18964 585
22.20975 629
22.22987 605
22.24998 634
22.27009 609
22.29021 601
22.31032 582
22.33044 593
22.35055 591
22.37066 612
22.39078 597
22.41089 593
22.431 600
22.45112 599
22.47123 659
22.49135 628
22.51146 612
22.53157 570
22.55169 580
22.5718 578
22.59191 585
22.61203 581
22.63214 609
22.65225 579
22.67237 589
22.69248 527
22.7126 579
22.73271 559
22.75282 562
22.77294 629
22.79305 576
22.81316 545
22.83328 589
22.85339 623
22.87351 585
22.89362 600
22.91373 634
22.93385 649
22.95396 604
22.97407 580
22.99419 621
23.0143 579
23.03442 591
23.05453 593
23.07464 592
23.09476 627
23.11487 594
23.13498 613
23.1551 609
23.17521 655
23.19532 663
23.21544 631
23.23555 634
23.25567 628
23.27578 595
23.29589 602
23.31601 613
23.33612 591
23.35623 604
23.37635 631
23.39646 601
23.41658 616
23.43669 623
23.4568 709
23.47692 673
23.49703 719
23.51714 745
23.53726 693
23.55737 755
23.57749 733
23.5976 735
23.61771 758
23.63783 711
23.65794 620
23.67805 645
23.69817 643
23.71828 651
23.73839 658
23.75851 629
23.77862 613
23.79874 624
23.81885 641
23.83896 676
23.85908 671
23.87919 647
23.8993 730
23.91942 673
23.93953 727
23.95965 673
23.97976 680
23.99987 641
24.01999 685
24.0401 664
24.06021 626
24.08033 652
24.10044 663
24.12056 682
24.14067 638
24.16078 660
24.1809 667
24.20101 701
24.22112 699
24.24124 696
24.26135 671
24.28146 689
24.30158 707
24.32169 674
24.34181 636
24.36192 656
24.38203 662
24.40215 703
24.42226 677
24.44237 669
24.46249 709
24.4826 646
24.50272 626
24.52283 655
24.54294 696
24.56306 703
24.58317 719
24.60328 664
24.6234 686
24.64351 682
24.66362 693
24.68374 712
24.70385 740
24.72397 700
24.74408 674
24.76419 669
24.78431 737
24.80442 704
24.82453 741
24.84465 684
24.86476 761
24.88488 691
24.90499 729
24.9251 723
24.94522 721
24.96533 677
24.98544 661
25.00556 741
25.02567 666
25.04579 705
25.0659 653
25.08601 655
25.10613 706
25.12624 662
25.14635 676
25.16647 677
25.18658 669
25.20669 682
25.22681 636
25.24692 641
25.26704 662
25.28715 629
25.30726 624
25.32738 708
25.34749 651
25.3676 626
25.38772 645
25.40783 657
25.42795 646
25.44806 667
25.46817 688
25.48829 721
25.5084 723
25.52851 755
25.54863 784
25.56874 738
25.58886 795
25.60897 787
25.62908 776
25.6492 761
25.66931 697
25.68942 728
25.70954 702
25.72965 674
25.74976 646
25.76988 635
25.78999 615
25.81011 618
25.83022 645
25.85033 644
25.87045 661
25.89056 592
25.91067 644
25.93079 590
25.9509 641
25.97102 643
25.99113 606
26.01124 617
26.03136 653
26.05147 642
26.07158 602
26.0917 688
26.11181 670
26.13193 726
26.15204 709
26.17215 681
26.19227 675
26.21238 712
26.23249 756
26.25261 738
26.27272 751
26.29283 702
26.31295 792
26.33306 782
26.35318 884
26.37329 855
26.3934 958
26.41352 1001
26.43363 1089
26.45374 1324
26.47386 1576
26.49397 1988
26.51409 2517
26.5342 3215
26.55431 4190
26.57443 4952
26.59454 5718
26.61465 5807
26.63477 5292
26.65488 4558
26.67499 3706
26.69511 2778
26.71522 2153
26.73534 1709
26.75545 1273
26.77556 1107
26.79568 952
26.81579 896
26.8359 926
26.85602 895
26.87613 865
26.89625 821
26.91636 876
26.93647 834
26.95659 846
26.9767 810
26.99681 878
27.01693 887
27.03704 872
27.05716 925
27.07727 926
27.09738 849
27.1175 770
27.13761 753
27.15772 702
27.17784 709
27.19795 682
27.21806 630
27.23818 611
27.25829 670
27.27841 696
27.29852 708
27.31863 670
27.33875 812
27.35886 794
27.37897 869
27.39909 926
27.4192 968
27.43932 1016
27.45943 1030
27.47954 983
27.49966 943
27.51977 861
27.53988 817
27.56 782
27.58011 748
27.60023 703
27.62034 706
27.64045 667
27.66057 746
27.68068 776
27.70079 776
27.72091 839
27.74102 856
27.76113 874
27.78125 887
27.80136 836
27.82148 876
27.84159 861
27.8617 834
27.88182 836
27.90193 824
27.92204 881
27.94216 824
27.96227 842
27.98239 790
28.0025 812
28.02261 713
28.04273 688
28.06284 707
28.08295 614
28.10307 597
28.12318 598
28.1433 574
28.16341 597
28.18352 593
28.20364 611
28.22375 592
28.24386 632
28.26398 613
28.28409 567
28.3042 552
28.32432 511
28.34443 597
28.36455 575
28.38466 524
28.40477 570
28.42489 541
28.445 521
28.46511 604
28.48523 523
28.50534 530
28.52546 544
28.54557 531
28.56568 527
28.5858 572
28.60591 535
28.62602 525
28.64614 560
28.66625 533
28.68636 513
28.70648 487
28.72659 513
28.74671 552
28.76682 517
28.78693 485
28.80705 568
28.82716 507
28.84727 523
28.86739 485
28.8875 467
28.90762 455
28.92773 519
28.94784 553
28.96796 512
28.98807 492
29.00818 490
29.0283 523
29.04841 490
29.06853 528
29.08864 497
29.10875 539
29.12887 463
29.14898 487
29.16909 487
29.18921 505
29.20932 531
29.22943 507
29.24955 542
29.26966 495
29.28978 511
29.30989 504
29.33 513
29.35012 539
29.37023 514
29.39034 543
29.41046 551
29.43057 550
29.45069 508
29.4708 575
29.49091 571
29.51103 528
29.53114 550
29.55125 526
29.57137 516
29.59148 532
29.6116 550
29.63171 604
29.65182 580
29.67194 613
29.69205 590
29.71216 604
29.73228 621
29.75239 672
29.7725 676
29.79262 671
29.81273 677
29.83285 666
29.85296 719
29.87307 620
29.89319 681
29.9133 727
29.93341 655
29.95353 698
29.97364 711
29.99376 626
30.01387 640
30.03398 665
30.0541 617
30.07421 652
30.09432 612
30.11444 584
30.13455 589
30.15467 592
30.17478 543
30.19489 604
30.21501 594
30.23512 608
30.25523 518
30.27535 573
30.29546 592
30.31557 577
30.33569 590
30.3558 561
30.37592 613
30.39603 592
30.41614 619
30.43626 561
30.45637 592
30.47648 575
30.4966 543
30.51671 493
30.53683 545
30.55694 532
30.57705 510
30.59717 540
30.61728 490
30.63739 594
30.65751 525
30.67762 578
30.69773 566
30.71785 634
30.73796 603
30.75808 609
30.77819 609
30.7983 624
30.81842 578
30.83853 563
30.85864 539
30.87876 570
30.89887 520
30.91899 530
30.9391 511
30.95921 494
30.97933 505
30.99944 528
31.01955 517
31.03967 496
31.05978 533
31.0799 498
31.10001 487
31.12012 501
31.14024 508
31.16035 475
31.18046 467
31.20058 485
31.22069 501
31.2408 488
31.26092 529
31.28103 533
31.30115 489
31.32126 504
31.34137 533
31.36149 495
31.3816 509
31.40171 522
31.42183 460
31.44194 512
31.46206 513
31.48217 490
31.50228 530
31.5224 520
31.54251 520
31.56262 492
31.58274 501
31.60285 520
31.62297 479
31.64308 486
31.66319 517
31.68331 493
31.70342 496
31.72353 495
31.74365 523
31.76376 496
31.78387 465
31.80399 501
31.8241 491
31.84422 497
31.86433 513
31.88444 491
31.90456 498
31.92467 484
31.94478 498
31.9649 536
31.98501 533
32.00513 472
32.02524 501
32.04535 476
32.06547 523
32.08558 508
32.10569 490
32.12581 511
32.14592 545
32.16604 498
32.18615 539
32.20626 516
32.22638 565
32.24649 550
32.2666 536
32.28672 557
32.30683 550
32.32694 554
32.34706 529
32.36717 495
32.38729 531
32.4074 520
32.42751 552
32.44763 532
32.46774 539
32.48785 575
32.50797 516
32.52808 513
32.5482 554
32.56831 499
32.58842 516
32.60854 526
32.62865 485
32.64876 531
32.66888 511
32.68899 505
32.7091 565
32.72922 496
32.74933 484
32.76945 509
32.78956 533
32.80967 546
32.82979 525
32.8499 527
32.87001 547
32.89013 526
32.91024 571
32.93036 535
32.95047 501
32.97058 602
32.9907 599
33.01081 605
33.03092 594
33.05104 584
33.07115 584
33.09127 604
33.11138 557
33.13149 614
33.15161 565
33.17172 579
33.19183 565
33.21195 542
33.23206 506
33.25217 515
33.27229 506
33.2924 515
33.31252 534
33.33263 498
33.35274 538
33.37286 514
33.39297 551
33.41308 520
33.4332 486
33.45331 516
33.47343 502
33.49354 525
33.51365 493
33.53377 498
33.55388 475
33.57399 557
33.59411 523
33.61422 554
33.63434 515
33.65445 498
33.67456 517
33.69468 522
33.71479 526
33.7349 495
33.75502 531
33.77513 515
33.79524 546
33.81536 563
33.83547 572
33.85559 548
33.8757 573
33.89581 542
33.91593 541
33.93604 596
33.95615 544
33.97627 516
33.99638 483
34.0165 545
34.03661 605
34.05672 591
34.07684 566
34.09695 588
34.11706 622
34.13718 623
34.15729 672
34.17741 661
34.19752 688
34.21763 672
34.23775 648
34.25786 637
34.27797 629
34.29809 656
34.3182 644
34.33831 643
34.35843 647
34.37854 624
34.39866 638
34.41877 616
34.43888 635
34.459 589
34.47911 587
34.49922 619
34.51934 588
34.53945 647
34.55957 594
34.57968 593
34.59979 565
34.61991 596
34.64002 606
34.66013 609
34.68025 624
34.70036 604
34.72047 611
34.74059 646
34.7607 614
34.78082 697
34.80093 622
34.82104 707
34.84116 701
34.86127 720
34.88138 686
34.9015 734
34.92161 637
34.94173 706
34.96184 740
34.98195 713
35.00207 716
35.02218 742
35.04229 755
35.06241 689
35.08252 753
35.10264 832
35.12275 785
35.14286 819
35.16298 850
35.18309 882
35.2032 979
35.22332 999
35.24343 987
35.26354 985
35.28366 1003
35.30377 924
35.32389 1006
35.344 892
35.36411 983
35.38423 899
35.40434 852
35.42445 845
35.44457 837
35.46468 814
35.4848 851
35.50491 876
35.52502 809
35.54514 824
35.56525 807
35.58536 793
35.60548 799
35.62559 779
35.64571 757
35.66582 777
35.68593 725
35.70605 756
35.72616 684
35.74627 726
35.76639 734
35.7865 717
35.80661 687
35.82673 696
35.84684 685
35.86696 639
35.88707 693
35.90718 652
35.9273 651
35.94741 649
35.96752 655
35.98764 651
36.00775 633
36.02787 654
36.04798 621
36.06809 588
36.08821 669
36.10832 659
36.12843 641
36.14855 629
36.16866 662
36.18878 561
36.20889 607
36.229 589
36.24912 623
36.26923 639
36.28934 631
36.30946 610
36.32957 665
36.34968 646
36.3698 680
36.38991 695
36.41003 717
36.43014 759
36.45025 833
36.47037 936
36.49048 940
36.51059 966
36.53071 1000
36.55082 872
36.57094 825
36.59105 783
36.61116 741
36.63128 707
36.65139 682
36.6715 668
36.69162 635
36.71173 622
36.73184 680
36.75196 656
36.77207 634
36.79219 646
36.8123 593
36.83241 664
36.85253 635
36.87264 614
36.89275 657
36.91287 617
36.93298 680
36.9531 660
36.97321 665
36.99332 610
37.01344 647
37.03355 603
37.05366 630
37.07378 628
37.09389 607
37.11401 584
37.13412 586
37.15423 627
37.17435 590
37.19446 590
37.21457 585
37.23469 630
37.2548 605
37.27491 580
37.29503 577
37.31514 572
37.33526 575
37.35537 601
37.37548 560
37.3956 575
37.41571 574
37.43582 625
37.45594 591
37.47605 568
37.49617 583
37.51628 618
37.53639 618
37.55651 613
37.57662 575
37.59673 603
37.61685 629
37.63696 610
37.65708 599
37.67719 584
37.6973 627
37.71742 615
37.73753 600
37.75764 582
37.77776 619
37.79787 563
37.81798 586
37.8381 604
37.85821 569
37.87833 559
37.89844 533
37.91855 530
37.93867 609
37.95878 578
37.97889 525
37.99901 565
38.01912 553
38.03924 578
38.05935 567
38.07946 562
38.09958 557
38.11969 538
38.1398 567
38.15992 594
38.18003 580
38.20015 602
38.22026 623
38.24037 541
38.26049 591
38.2806 574
38.30071 617
38.32083 612
38.34094 559
38.36105 600
38.38117 589
38.40128 589
38.4214 592
38.44151 545
38.46162 588
38.48174 608
38.50185 558
38.52196 596
38.54208 580
38.56219 555
38.58231 575
38.60242 606
38.62253 546
38.64265 529
38.66276 537
38.68287 524
38.70299 523
38.7231 575
38.74321 553
38.76333 595
38.78344 562
38.80356 560
38.82367 556
38.84378 511
38.8639 549
38.88401 552
38.90412 529
38.92424 541
38.94435 550
38.96447 562
38.98458 534
39.00469 587
39.02481 540
39.04492 575
39.06503 568
39.08515 527
39.10526 591
39.12538 519
39.14549 611
39.1656 550
39.18572 602
39.20583 564
39.22594 588
39.24606 611
39.26617 597
39.28628 630
39.3064 650
39.32651 685
39.34663 734
39.36674 755
39.38685 814
39.40697 837
39.42708 839
39.44719 805
39.46731 789
39.48742 773
39.50754 749
39.52765 725
39.54776 703
39.56788 634
39.58799 580
39.6081 578
39.62822 524
39.64833 546
39.66845 587
39.68856 528
39.70867 519
39.72879 509
39.7489 515
39.76901 543
39.78913 546
39.80924 530
39.82935 512
39.84947 509
39.86958 518
39.8897 494
39.90981 494
39.92992 526
39.95004 523
39.97015 528
39.99026 519
40.01038 524
40.03049 565
40.05061 526
40.07072 553
40.09083 582
40.11095 576
40.13106 553
40.15117 571
40.17129 607
40.1914 644
40.21152 637
40.23163 703
40.25174 655
40.27186 632
40.29197 610
40.31208 621
40.3322 589
40.35231 625
40.37242 611
40.39254 610
40.41265 565
40.43277 511
40.45288 544
40.47299 564
40.49311 509
40.51322 529
40.53333 515
40.55345 527
40.57356 477
40.59368 455
40.61379 540
40.6339 493
40.65402 510
40.67413 517
40.69424 537
40.71436 521
40.73447 528
40.75458 523
40.7747 556
40.79481 568
40.81493 529
40.83504 535
40.85515 561
40.87527 531
40.89538 558
40.91549 539
40.93561 578
40.95572 529
40.97584 500
40.99595 521
41.01606 531
41.03618 498
41.05629 545
41.0764 525
41.09652 495
41.11663 536
41.13675 524
41.15686 511
41.17697 534
41.19709 513
41.2172 532
41.23731 525
41.25743 525
41.27754 579
41.29765 551
41.31777 564
41.33788 554
41.358 531
41.37811 535
41.39822 544
41.41834 546
41.43845 516
41.45856 513
41.47868 544
41.49879 540
41.51891 525
41.53902 556
41.55913 528
41.57925 562
41.59936 591
41.61947 572
41.63959 581
41.6597 582
41.67982 560
41.69993 580
41.72004 612
41.74016 617
41.76027 561
41.78038 527
41.8005 553
41.82061 567
41.84072 527
41.86084 541
41.88095 531
41.90107 495
41.92118 504
41.94129 514
41.96141 482
41.98152 509
42.00163 506
42.02175 446
42.04186 503
42.06198 512
42.08209 521
42.1022 474
42.12232 520
42.14243 448
42.16254 508
42.18266 508
42.20277 540
42.22289 493
42.243 552
42.26311 556
42.28323 582
42.30334 580
42.32345 645
42.34357 654
42.36368 688
42.38379 724
42.40391 700
42.42402 732
42.44414 654
42.46425 676
42.48436 661
42.50448 586
42.52459 587
42.5447 581
42.56482 629
42.58493 508
42.60505 530
42.62516 506
42.64527 536
42.66539 541
42.6855 522
42.70561 531
42.72573 537
42.74584 547
42.76595 548
42.78607 564
42.80618 570
42.8263 586
42.84641 576
42.86652 556
42.88664 538
42.90675 511
42.92686 548
42.94698 557
42.96709 541
42.98721 507
43.00732 546
43.02743 479
43.04755 464
43.06766 476
43.08777 475
43.10789 538
43.128 503
43.14812 537
43.16823 514
43.18834 466
43.20846 501
43.22857 445
43.24868 481
43.2688 507
43.28891 463
43.30902 506
43.32914 453
43.34925 463
43.36937 474
43.38948 467
43.40959 476
43.42971 472
43.44982 444
43.46993 500
43.49005 511
43.51016 465
43.53028 461
43.55039 445
43.5705 479
43.59062 468
43.61073 457
43.63084 480
43.65096 495
43.67107 434
43.69119 454
43.7113 437
43.73141 449
43.75153 478
43.77164 472
43.79175 437
43.81187 507
43.83198 419
43.85209 487
43.87221 439
43.89232 492
43.91244 467
43.93255 447
43.95266 436
43.97278 499
43.99289 445
44.013 504
44.03312 484
44.05323 502
44.07335 473
44.09346 481
44.11357 470
44.13369 480
44.1538 499
44.17391 410
44.19403 462
44.21414 455
44.23426 461
44.25437 457
44.27448 473
44.2946 445
44.31471 457
44.33482 471
44.35494 479
44.37505 472
44.39516 455
44.41528 440
44.43539 451
44.45551 458
44.47562 467
44.49573 440
44.51585 429
44.53596 504
44.55607 463
44.57619 485
44.5963 507
44.61642 454
44.63653 495
44.65664 459
44.67676 442
44.69687 447
44.71698 468
44.7371 516
44.75721 454
44.77732 507
44.79744 419
44.81755 473
44.83767 524
44.85778 438
44.87789 489
44.89801 467
44.91812 460
44.93823 483
44.95835 516
44.97846 458
44.99858 481
45.01869 477
45.0388 504
45.05892 477
45.07903 493
45.09914 464
45.11926 473
45.13937 496
45.15949 516
45.1796 487
45.19971 487
45.21983 506
45.23994 494
45.26005 497
45.28017 486
45.30028 486
45.32039 495
45.34051 492
45.36062 534
45.38074 505
45.40085 517
45.42096 493
45.44108 492
45.46119 504
45.4813 500
45.50142 497
45.52153 497
45.54165 508
45.56176 533
45.58187 519
45.60199 534
45.6221 555
45.64221 518
45.66233 579
45.68244 580
45.70256 601
45.72267 654
45.74278 593
45.7629 639
45.78301 599
45.80312 577
45.82324 571
45.84335 580
45.86346 549
45.88358 569
45.90369 511
45.92381 541
45.94392 555
45.96403 507
45.98415 505
46.00426 489
46.02437 501
46.04449 460
46.0646 496
46.08472 503
46.10483 498
46.12494 501
46.14506 451
46.16517 463
46.18528 484
46.2054 491
46.22551 457
46.24563 494
46.26574 505
46.28585 490
46.30597 447
46.32608 491
46.34619 477
46.36631 443
46.38642 445
46.40653 433
46.42665 492
46.44676 422
46.46688 459
46.48699 456
46.5071 458
46.52722 489
46.54733 483
46.56744 464
46.58756 468
46.60767 466
46.62779 451
46.6479 464
46.66801 476
46.68813 448
46.70824 501
46.72835 427
46.74847 491
46.76858 495
46.78869 503
46.80881 485
46.82892 442
46.84904 481
46.86915 478
46.88926 445
46.90938 519
46.92949 486
46.9496 473
46.96972 469
46.98983 495
47.00995 464
47.03006 507
47.05017 490
47.07029 475
47.0904 460
47.11051 496
47.13063 483
47.15074 482
47.17086 481
47.19097 482
47.21108 470
47.2312 517
47.25131 507
47.27142 493
47.29154 453
47.31165 463
47.33176 467
47.35188 476
47.37199 480
47.39211 483
47.41222 495
47.43233 512
47.45245 501
47.47256 522
47.49267 527
47.51279 511
47.5329 509
47.55302 464
47.57313 471
47.59324 472
47.61336 456
47.63347 465
47.65358 464
47.6737 491
47.69381 471
47.71393 458
47.73404 523
47.75415 498
47.77427 468
47.79438 503
47.81449 501
47.83461 459
47.85472 476
47.87483 455
47.89495 454
47.91506 461
47.93518 428
47.95529 433
47.9754 488
47.99552 467
48.01563 437
48.03574 475
48.05586 443
48.07597 417
48.09609 464
48.1162 483
48.13631 479
48.15643 432
48.17654 464
48.19665 447
48.21677 506
48.23688 478
48.257 492
48.27711 462
48.29722 476
48.31734 444
48.33745 449
48.35756 438
48.37768 446
48.39779 438
48.4179 463
48.43802 453
48.45813 438
48.47825 457
48.49836 419
48.51847 480
48.53859 483
48.5587 467
48.57881 441
48.59893 489
48.61904 484
48.63916 425
48.65927 463
48.67938 447
48.6995 501
48.71961 447
48.73972 490
48.75984 463
48.77995 450
48.80006 449
48.82018 480
48.84029 450
48.86041 463
48.88052 495
48.90063 468
48.92075 485
48.94086 459
48.96097 438
48.98109 504
49.0012 470
49.02132 476
49.04143 495
49.06154 494
49.08166 488
49.10177 501
49.12188 518
49.142 534
49.16211 487
49.18223 502
49.20234 476
49.22245 494
49.24257 491
49.26268 466
49.28279 518
49.30291 488
49.32302 498
49.34313 510
49.36325 492
49.38336 475
49.40348 506
49.42359 517
49.4437 447
49.46382 492
49.48393 457
49.50404 476
49.52416 462
49.54427 471
49.56439 481
49.5845 482
49.60461 475
49.62473 542
49.64484 505
49.66495 501
49.68507 510
49.70518 467
49.7253 459
49.74541 499
49.76552 525
49.78564 496
49.80575 502
49.82586 530
49.84598 541
49.86609 513
49.8862 567
49.90632 565
49.92643 608
49.94655 601
49.96666 646
49.98677 675
50.00689 804
50.027 784
50.04711 889
50.06723 986
50.08734 930
50.10746 907
50.12757 890
50.14768 832
50.1678 729
50.18791 744
50.20802 721
50.22814 718
50.24825 694
50.26837 625
50.28848 545
50.30859 555
50.32871 496
50.34882 501
50.36893 496
50.38905 546
50.40916 543
50.42927 516
50.44939 536
50.4695 515
50.48962 536
50.50973 526
50.52984 562
50.54996 545
50.57007 548
50.59018 572
50.6103 539
50.63041 566
50.65053 526
50.67064 551
50.69075 551
50.71087 503
50.73098 504
50.75109 507
50.77121 504
50.79132 509
50.81143 463
50.83155 509
50.85166 493
50.87178 465
50.89189 475
50.912 506
50.93212 477
50.95223 496
50.97234 463
50.99246 454
51.01257 480
51.03269 484
51.0528 464
51.07291 493
51.09303 465
51.11314 439
51.13325 488
51.15337 476
51.17348 449
51.1936 436
51.21371 451
51.23382 462
51.25394 474
51.27405 493
51.29416 449
51.31428 452
51.33439 441
51.3545 492
51.37462 493
51.39473 450
51.41485 414
51.43496 454
51.45507 443
51.47519 464
51.4953 456
51.51541 457
51.53553 441
51.55564 463
51.57576 445
51.59587 424
51.61598 462
51.6361 450
51.65621 452
51.67632 493
51.69644 452
51.71655 428
51.73667 402
51.75678 480
51.77689 414
51.79701 428
51.81712 442
51.83723 476
51.85735 423
51.87746 471
51.89757 442
51.91769 451
51.9378 479
51.95792 458
51.97803 443
51.99814 450
52.01826 474
52.03837 435
52.05848 430
52.0786 407
52.09871 438
52.11883 461
52.13894 446
52.15905 453
52.17917 448
52.19928 443
52.21939 484
52.23951 467
52.25962 447
52.27974 465
52.29985 486
52.31996 451
52.34008 445
52.36019 473
52.3803 460
52.40042 496
52.42053 462
52.44064 481
52.46076 440
52.48087 464
52.50099 468
52.5211 519
52.54121 484
52.56133 475
52.58144 513
52.60155 446
52.62167 499
52.64178 459
52.6619 496
52.68201 495
52.70212 486
52.72224 475
52.74235 438
52.76246 518
52.78258 465
52.80269 451
52.8228 492
52.84292 466
52.86303 494
52.88315 445
52.90326 477
52.92337 489
52.94349 461
52.9636 512
52.98371 482
53.00383 510
53.02394 490
53.04406 482
53.06417 464
53.08428 501
53.1044 473
53.12451 498
53.14462 547
53.16474 522
53.18485 495
53.20497 496
53.22508 524
53.24519 532
53.26531 501
53.28542 526
53.30553 524
53.32565 544
53.34576 536
53.36587 493
53.38599 518
53.4061 514
53.42622 490
53.44633 526
53.46644 536
53.48656 511
53.50667 499
53.52678 522
53.5469 518
53.56701 521
53.58713 478
53.60724 469
53.62735 534
53.64747 476
53.66758 517
53.68769 513
53.70781 541
53.72792 521
53.74804 512
53.76815 514
53.78826 481
53.80838 534
53.82849 527
53.8486 527
53.86872 534
53.88883 538
53.90894 550
53.92906 541
53.94917 527
53.96929 544
53.9894 544
54.00951 504
54.02963 557
54.04974 523
54.06985 563
54.08997 510
54.11008 589
54.1302 580
54.15031 553
54.17042 573
54.19054 539
54.21065 527
54.23076 500
54.25088 589
54.27099 550
54.29111 508
54.31122 564
54.33133 506
54.35145 524
54.37156 530
54.39167 525
54.41179 576
54.4319 559
54.45201 546
54.47213 553
54.49224 528
54.51236 547
54.53247 561
54.55258 547
54.5727 549
54.59281 574
54.61292 555
54.63304 568
54.65315 569
54.67327 589
54.69338 619
54.71349 622
54.73361 604
54.75372 656
54.77383 670
54.79395 672
54.81406 717
54.83417 630
54.85429 671
54.8744 629
54.89452 634
54.91463 648
54.93474 618
54.95486 607
54.97497 546
54.99508 615
55.0152 600
55.03531 530
55.05543 562
55.07554 581
55.09565 522
55.11577 548
55.13588 551
55.15599 540
55.17611 575
55.19622 559
55.21634 534
55.23645 581
55.25656 601
55.27668 573
55.29679 599
55.3169 559
55.33702 553
55.35713 590
55.37724 552
55.39736 532
55.41747 521
55.43759 519
55.4577 520
55.47781 497
55.49793 506
55.51804 549
55.53815 499
55.55827 511
55.57838 500
55.5985 491
55.61861 478
55.63872 509
55.65884 525
55.67895 486
55.69906 527
55.71918 490
55.73929 471
55.75941 514
55.77952 520
55.79963 484
55.81975 465
55.83986 498
55.85997 505
55.88009 512
55.9002 504
55.92031 512
55.94043 525
55.96054 459
55.98066 479
56.00077 485
56.02088 475
56.041 443
56.06111 519
56.08122 467
56.10134 445
56.12145 535
56.14157 464
56.16168 499
56.18179 500
56.20191 476
56.22202 461
56.24213 527
56.26225 495
56.28236 501
56.30248 517
56.32259 491
56.3427 498
56.36282 474
56.38293 521
56.40304 496
56.42316 495
56.44327 503
56.46338 495
56.4835 500
56.50361 499
56.52373 511
56.54384 533
56.56395 564
56.58407 504
56.60418 538
56.62429 562
56.64441 560
56.66452 600
56.68464 550
56.70475 574
56.72486 539
56.74498 544
56.76509 545
56.7852 547
56.80532 554
56.82543 551
56.84554 524
56.86566 529
56.88577 528
56.90589 522
56.926 499
56.94611 527
56.96623 512
56.98634 486
57.00645 540
57.02657 505
57.04668 486
57.0668 510
57.08691 483
57.10702 465
57.12714 513
57.14725 483
57.16736 529
57.18748 460
57.20759 497
57.22771 486
57.24782 475
57.26793 516
57.28805 478
57.30816 480
57.32827 486
57.34839 500
57.3685 503
57.38861 492
57.40873 473
57.42884 512
57.44896 478
57.46907 483
57.48918 504
57.5093 467
57.52941 476
57.54952 447
57.56964 473
57.58975 492
57.60987 447
57.62998 487
57.65009 456
57.67021 476
57.69032 504
57.71043 502
57.73055 437
57.75066 459
57.77078 488
57.79089 472
57.811 428
57.83112 479
57.85123 458
57.87134 443
57.89146 499
57.91157 439
57.93168 489
57.9518 486
57.97191 495
57.99203 468
58.01214 452
58.03225 441
58.05237 455
58.07248 482
58.09259 414
58.11271 430
58.13282 440
58.15294 455
58.17305 461
58.19316 441
58.21328 441
58.23339 436
58.2535 473
58.27362 454
58.29373 499
58.31385 450
58.33396 520
58.35407 500
58.37419 483
58.3943 468
58.41441 484
58.43453 454
58.45464 447
58.47475 455
58.49487 455
58.51498 486
58.5351 508
58.55521 491
58.57532 452
58.59544 496
58.61555 449
58.63566 474
58.65578 488
58.67589 486
58.69601 473
58.71612 470
58.73623 440
58.75635 450
58.77646 455
58.79657 441
58.81669 440
58.8368 435
58.85691 492
58.87703 455
58.89714 449
58.91726 421
58.93737 492
58.95748 461
58.9776 466
58.99771 456
59.01782 437
59.03794 460
59.05805 442
59.07817 475
59.09828 482
59.11839 455
59.13851 464
59.15862 474
59.17873 476
59.19885 453
59.21896 498
59.23908 466
59.25919 456
59.2793 448
59.29942 469
59.31953 440
59.33964 454
59.35976 465
59.37987 471
59.39998 474
59.4201 441
59.44021 459
59.46033 444
59.48044 466
59.50055 484
59.52067 467
59.54078 481
59.56089 482
59.58101 488
59.60112 497
59.62124 486
59.64135 502
59.66146 452
59.68158 496
59.70169 549
59.7218 517
59.74192 553
59.76203 529
59.78215 612
59.80226 610
59.82237 692
59.84249 695
59.8626 733
59.88271 765
59.90283 775
59.92294 841
59.94305 752
59.96317 699
59.98328 658
60.0034 649
60.02351 693
60.04362 634
60.06374 646
60.08385 657
60.10396 620
60.12408 607
60.14419 560
60.16431 595
60.18442 563
60.20453 541
60.22465 586
60.24476 560
60.26487 555
60.28499 545
60.3051 547
60.32522 532
60.34533 503
60.36544 510
60.38556 508
60.40567 511
60.42578 488
60.4459 523
60.46601 500
60.48612 494
60.50624 469
60.52635 464
60.54647 509
60.56658 452
60.58669 499
60.60681 492
60.62692 477
60.64703 439
60.66715 446
60.68726 484
60.70738 481
60.72749 502
60.7476 490
60.76772 486
60.78783 522
60.80794 493
60.82806 475
60.84817 523
60.86828 475
60.8884 498
60.90851 512
60.92863 505
60.94874 440
60.96885 501
60.98897 506
61.00908 495
61.02919 487
61.04931 482
61.06942 454
61.08954 472
61.10965 513
61.12976 513
61.14988 502
61.16999 482
61.1901 444
61.21022 481
61.23033 485
61.25045 485
61.27056 490
61.29067 497
61.31079 468
61.3309 519
61.35101 489
61.37113 454
61.39124 483
61.41135 524
61.43147 493
61.45158 483
61.4717 479
61.49181 493
61.51192 509
61.53204 476
61.55215 462
61.57226 516
61.59238 496
61.61249 472
61.63261 480
61.65272 497
61.67283 483
61.69295 510
61.71306 532
61.73317 486
61.75329 499
61.7734 500
61.79352 510
61.81363 486
61.83374 516
61.85386 524
61.87397 550
61.89408 532
61.9142 576
61.93431 549
61.95442 581
61.97454 574
61.99465 568
62.01477 564
62.03488 573
62.05499 581
62.07511 581
62.09522 598
62.11533 644
62.13545 642
62.15556 664
62.17568 659
62.19579 659
62.2159 637
62.23602 647
62.25613 685
62.27624 650
62.29636 677
62.31647 653
62.33659 634
62.3567 690
62.37681 604
62.39693 680
62.41704 617
62.43715 620
62.45727 643
62.47738 621
62.49749 602
62.51761 580
62.53772 568
62.55784 559
62.57795 558
62.59806 589
62.61818 555
62.63829 558
62.6584 536
62.67852 541
62.69863 546
62.71875 501
62.73886 537
62.75897 583
62.77909 555
62.7992 560
62.81931 535
62.83943 506
62.85954 482
62.87965 531
62.89977 563
62.91988 559
62.94 482
62.96011 518
62.98022 535
63.00034 506
63.02045 524
63.04056 516
63.06068 486
63.08079 502
63.10091 505
63.12102 506
63.14113 498
63.16125 514
63.18136 510
63.20147 548
63.22159 484
63.2417 497
63.26182 515
63.28193 541
63.30204 481
63.32216 474
63.34227 509
63.36238 479
63.3825 465
63.40261 497
63.42272 502
63.44284 466
63.46295 502
63.48307 469
63.50318 506
63.52329 507
63.54341 468
63.56352 484
63.58363 509
63.60375 505
63.62386 489
63.64398 496
63.66409 472
63.6842 493
63.70432 526
63.72443 487
63.74454 529
63.76466 514
63.78477 522
63.80489 553
63.825 486
63.84511 506
63.86523 517
63.88534 546
63.90545 587
63.92557 560
63.94568 556
63.96579 607
63.98591 598
64.00602 560
64.02614 542
64.04625 519
64.06636 548
64.08648 489
64.10659 534
64.1267 542
64.14682 552
64.16693 495
64.18705 539
64.20716 517
64.22727 501
64.24739 504
64.2675 522
64.28761 467
64.30773 464
64.32784 481
64.34796 453
64.36807 480
64.38818 467
64.4083 432
64.42841 466
64.44852 442
64.46864 469
64.48875 468
64.50886 489
64.52898 484
64.54909 473
64.56921 456
64.58932 487
64.60943 487
64.62955 465
64.64966 500
64.66977 484
64.68989 516
64.71 489
64.73012 448
64.75023 459
64.77034 499
64.79046 432
64.81057 427
64.83068 463
64.8508 497
64.87091 441
64.89102 456
64.91114 468
64.93125 479
64.95137 429
64.97148 475
64.99159 490
65.01171 455
65.03182 454
65.05193 466
65.07205 460
65.09216 440
65.11228 439
65.13239 458
65.1525 493
65.17262 451
65.19273 441
65.21284 495
65.23296 430
65.25307 460
65.27319 477
65.2933 466
65.31341 429
65.33353 474
65.35364 475
65.37375 481
65.39387 451
65.41398 428
65.43409 432
65.45421 451
65.47432 457
65.49444 461
65.51455 504
65.53466 419
65.55478 474
65.57489 450
65.595 466
65.61512 443
65.63523 513
65.65535 471
65.67546 451
65.69557 439
65.71569 437
65.7358 492
65.75591 477
65.77603 448
65.79614 478
65.81626 441
65.83637 464
65.85648 426
65.8766 460
65.89671 420
65.91682 444
65.93694 458
65.95705 408
65.97716 435
65.99728 445
66.01739 463
66.03751 438
66.05762 452
66.07773 423
66.09785 419
66.11796 447
66.13807 437
66.15819 431
66.1783 416
66.19842 438
66.21853 455
66.23864 426
66.25876 451
66.27887 460
66.29898 483
66.3191 463
66.33921 454
66.35933 456
66.37944 430
66.39955 445
66.41967 451
66.43978 430
66.45989 465
66.48001 432
66.50012 425
66.52023 436
66.54035 395
66.56046 471
66.58058 423
66.60069 459
66.6208 438
66.64092 484
66.66103 437
66.68114 433
66.70126 448
66.72137 428
66.74149 434
66.7616 448
66.78171 455
66.80183 444
66.82194 468
66.84205 452
66.86217 470
66.88228 427
66.90239 430
66.92251 424
66.94262 440
66.96274 417
66.98285 428
67.00296 437
67.02308 467
67.04319 468
67.0633 407
67.08342 431
67.10353 480
67.12365 437
67.14376 473
67.16387 438
67.18399 450
67.2041 436
67.22421 466
67.24433 469
67.26444 441
67.28456 473
67.30467 439
67.32478 446
67.3449 422
67.36501 461
67.38512 437
67.40524 448
67.42535 486
67.44546 498
67.46558 451
67.48569 476
67.50581 466
67.52592 528
67.54603 500
67.56615 575
67.58626 530
67.60637 604
67.62649 580
67.6466 595
67.66672 661
67.68683 618
67.70694 603
67.72706 589
67.74717 603
67.76728 573
67.7874 535
67.80751 513
67.82763 556
67.84774 597
67.86785 569
67.88797 606
67.90808 592
67.92819 623
67.94831 585
67.96842 589
67.98853 615
68.00865 638
68.02876 638
68.04888 669
68.06899 694
68.0891 723
68.10922 702
68.12933 706
68.14944 652
68.16956 647
68.18967 687
68.20979 675
68.2299 754
68.25001 643
68.27013 694
68.29024 706
68.31035 629
68.33047 597
68.35058 557
68.3707 552
68.39081 549
68.41092 485
68.43104 484
68.45115 490
68.47126 483
68.49138 462
68.51149 501
68.5316 504
68.55172 473
68.57183 461
68.59195 477
68.61206 492
68.63217 491
68.65229 458
68.6724 456
68.69251 448
68.71263 440
68.73274 449
68.75286 457
68.77297 466
68.79308 466
68.8132 479
68.83331 403
68.85342 465
68.87354 456
68.89365 480
68.91376 474
68.93388 403
68.95399 463
68.97411 475
68.99422 434
69.01433 450
69.03445 455
69.05456 460
69.07467 477
69.09479 457
69.1149 446
69.13502 488
69.15513 415
69.17524 465
69.19536 441
69.21547 444
69.23558 455
69.2557 454
69.27581 406
69.29593 450
69.31604 455
69.33615 453
69.35627 476
69.37638 462
69.39649 439
69.41661 446
69.43672 429
69.45683 491
69.47695 423
69.49706 439
69.51718 449
69.53729 430
69.5574 460
69.57752 495
69.59763 459
69.61774 425
69.63786 415
69.65797 464
69.67809 434
69.6982 424
69.71831 468
69.73843 445
69.75854 472
69.77865 420
69.79877 440
69.81888 420
69.839 445
69.85911 454
69.87922 429
69.89934 401
69.91945 417
69.93956 422
69.95968 448
69.97979 460
69.9999 447
70.02002 438
70.04013 433
70.06025 425
70.08036 455
70.10047 472
70.12059 407
70.1407 437
70.16081 417
70.18093 467
70.20104 417
70.22116 435
70.24127 449
70.26138 441
70.2815 452
70.30161 425
70.32172 418
70.34184 445
70.36195 455
70.38207 417
70.40218 411
70.42229 448
70.44241 434
70.46252 420
70.48263 462
70.50275 422
70.52286 424
70.54297 442
70.56309 492
70.5832 434
70.60332 436
70.62343 432
70.64354 433
70.66366 433
70.68377 430
70.70388 447
70.724 458
70.74411 475
70.76423 450
70.78434 423
70.80445 443
70.82457 440
70.84468 475
70.86479 418
70.88491 459
70.90502 431
70.92513 469
70.94525 438
70.96536 445
70.98548 463
71.00559 466
71.0257 467
71.04582 431
71.06593 459
71.08604 447
71.10616 422
71.12627 460
71.14639 445
71.1665 470
71.18661 455
71.20673 426
71.22684 420
71.24695 440
71.26707 423
71.28718 434
71.3073 447
71.32741 445
71.34752 454
71.36764 404
71.38775 426
71.40786 478
71.42798 458
71.44809 466
71.4682 424
71.48832 403
71.50843 440
71.52855 428
71.54866 456
71.56877 436
71.58889 416
71.609 447
71.62911 443
71.64923 458
71.66934 425
71.68946 442
71.70957 451
71.72968 453
71.7498 465
71.76991 454
71.79002 440
71.81014 444
71.83025 461
71.85037 451
71.87048 462
71.89059 410
71.91071 444
71.93082 444
71.95093 458
71.97105 462
71.99116 408
72.01127 439
72.03139 418
72.0515 432
72.07162 418
72.09173 446
72.11184 393
72.13196 436
72.15207 441
72.17218 459
72.1923 457
72.21241 455
72.23253 438
72.25264 443
72.27275 433
72.29287 424
72.31298 424
72.33309 428
72.35321 453
72.37332 422
72.39344 469
72.41355 441
72.43366 436
72.45378 493
72.47389 418
72.494 463
72.51412 423
72.53423 427
72.55434 429
72.57446 422
72.59457 492
72.61469 406
72.6348 443
72.65491 445
72.67503 438
72.69514 438
72.71525 474
72.73537 447
72.75548 422
72.7756 424
72.79571 433
72.81582 428
72.83594 439
72.85605 450
72.87616 456
72.89628 491
72.91639 421
72.9365 443
72.95662 426
72.97673 443
72.99685 426
73.01696 455
73.03707 492
73.05719 414
73.0773 474
73.09741 458
73.11753 451
73.13764 437
73.15776 476
73.17787 464
73.19798 433
73.2181 480
73.23821 457
73.25832 448
73.27844 451
73.29855 488
73.31867 499
73.33878 510
73.35889 488
73.37901 518
73.39912 531
73.41923 511
73.43935 494
73.45946 487
73.47957 461
73.49969 489
73.5198 464
73.53992 504
73.56003 504
73.58014 489
73.60026 496
73.62037 510
73.64048 506
73.6606 465
73.68071 485
73.70083 475
73.72094 471
73.74105 452
73.76117 444
73.78128 441
73.80139 462
73.82151 443
73.84162 433
73.86174 425
73.88185 438
73.90196 464
73.92208 439
73.94219 466
73.9623 477
73.98242 487
74.00253 458
74.02264 451
74.04276 439
74.06287 437
74.08299 439
74.1031 431
74.12321 438
74.14333 456
74.16344 435
74.18355 461
74.20367 462
74.22378 468
74.2439 385
74.26401 398
74.28412 447
74.30424 451
74.32435 434
74.34446 451
74.36458 461
74.38469 455
74.40481 443
74.42492 449
74.44503 454
74.46515 452
74.48526 435
74.50537 449
74.52549 443
74.5456 444
74.56571 413
74.58583 432
74.60594 440
74.62606 439
74.64617 431
74.66628 461
74.6864 461
74.70651 439
74.72662 439
74.74674 443
74.76685 430
74.78697 440
74.80708 423
74.82719 441
74.84731 459
74.86742 409
74.88753 403
74.90765 419
74.92776 436
74.94787 431
74.96799 414
74.9881 429
75.00822 467
