3.00117 21132
3.02128 20738
3.0414 19925
3.06151 19172
3.08162 18965
3.10174 18096
3.12185 18048
3.14197 17061
3.16208 16755
3.18219 16089
3.20231 15527
3.22242 15347
3.24253 14873
3.26265 14152
3.28276 13848
3.30288 13268
3.32299 13173
3.3431 12476
3.36322 12202
3.38333 11791
3.40344 10998
3.42356 11108
3.44367 10616
3.46379 10147
3.4839 10022
3.50401 9449
3.52413 9160
3.54424 8848
3.56435 8540
3.58447 8190
3.60458 7721
3.62469 7653
3.64481 7212
3.66492 7093
3.68504 6676
3.70515 6132
3.72526 6285
3.74538 5736
3.76549 5554
3.7856 5423
3.80572 5109
3.82583 5071
3.84595 4740
3.86606 4410
3.88617 4407
3.90629 4020
3.9264 3954
3.94651 3767
3.96663 3610
3.98674 3559
4.00686 3144
4.02697 3210
4.04708 3107
4.0672 2731
4.08731 2651
4.10742 2516
4.12754 2480
4.14765 2536
4.16776 2218
4.18788 2139
4.20799 1969
4.22811 1967
4.24822 1936
4.26833 1753
4.28845 1759
4.30856 1712
4.32867 1752
4.34879 1637
4.3689 1534
4.38902 1594
4.40913 1504
4.42924 1482
4.44936 1463
4.46947 1399
4.48958 1330
4.5097 1270
4.52981 1303
4.54992 1268
4.57004 1150
4.59015 1160
4.61027 1152
4.63038 1120
4.65049 1127
4.67061 1042
4.69072 1025
4.71083 933
4.73095 982
4.75106 1053
4.77118 926
4.79129 901
4.8114 888
4.83152 891
4.85163 915
4.87174 762
4.89186 767
4.91197 742
4.93209 757
4.9522 806
4.97231 726
4.99243 721
5.01254 689
5.03265 656
5.05277 701
5.07288 584
5.09299 610
5.11311 632
5.13322 589
5.15334 607
5.17345 547
5.19356 521
5.21368 591
5.23379 543
5.2539 515
5.27402 493
5.29413 463
5.31425 510
5.33436 438
5.35447 450
5.37459 448
5.3947 445
5.41481 456
5.43493 437
5.45504 397
5.47516 381
5.49527 381
5.51538 357
5.5355 347
5.55561 328
5.57572 365
5.59584 348
5.61595 341
5.63606 378
5.65618 308
5.67629 302
5.69641 316
5.71652 321
5.73663 314
5.75675 324
5.77686 313
5.79697 299
5.81709 320
5.8372 289
5.85732 256
5.87743 248
5.89754 284
5.91766 243
5.93777 225
5.95788 237
5.978 222
5.99811 241
6.01823 225
6.03834 254
6.05845 225
6.07857 255
6.09868 228
6.11879 219
6.13891 223
6.15902 229
6.17913 222
6.19925 234
6.21936 210
6.23948 238
6.25959 208
6.2797 228
6.29982 216
6.31993 196
6.34004 198
6.36016 226
6.38027 242
6.40039 223
6.4205 214
6.44061 239
6.46073 207
6.48084 192
6.50095 230
6.52107 224
6.54118 197
6.56129 196
6.58141 203
6.60152 193
6.62164 181
6.64175 167
6.66186 202
6.68198 182
6.70209 176
6.7222 202
6.74232 182
6.76243 205
6.78255 191
6.80266 198
6.82277 187
6.84289 185
6.863 174
6.88311 180
6.90323 216
6.92334 196
6.94346 189
6.96357 171
6.98368 181
7.0038 190
7.02391 167
7.04402 219
7.06414 198
7.08425 186
7.10436 177
7.12448 217
7.14459 234
7.16471 200
7.18482 193
7.20493 214
7.22505 203
7.24516 186
7.26527 219
7.28539 214
7.3055 168
7.32562 202
7.34573 193
7.36584 191
7.38596 173
7.40607 174
7.42618 211
7.4463 181
7.46641 183
7.48653 172
7.50664 201
7.52675 209
7.54687 175
7.56698 198
7.58709 221
7.60721 196
7.62732 213
7.64743 181
7.66755 212
7.68766 194
7.70778 197
7.72789 187
7.748 230
7.76812 209
7.78823 209
7.80834 218
7.82846 188
7.84857 195
7.86869 213
7.8888 197
7.90891 225
7.92903 214
7.94914 187
7.96925 198
7.98937 198
8.00948 208
8.0296 206
8.04971 214
8.06982 199
8.08994 184
8.11005 180
8.13016 224
8.15028 219
8.17039 203
8.1905 222
8.21062 216
8.23073 194
8.25085 191
8.27096 206
8.29107 184
8.31119 206
8.3313 230
8.35141 237
8.37153 203
8.39164 232
8.41176 225
8.43187 239
8.45198 219
8.4721 227
8.49221 218
8.51232 230
8.53244 200
8.55255 186
8.57266 207
8.59278 192
8.61289 213
8.63301 229
8.65312 221
8.67323 191
8.69335 226
8.71346 208
8.73357 217
8.75369 224
8.7738 202
8.79392 219
8.81403 207
8.83414 220
8.85426 214
8.87437 219
8.89448 220
8.9146 216
8.93471 220
8.95483 216
8.97494 207
8.99505 216
9.01517 180
9.03528 214
9.05539 232
9.07551 202
9.09562 221
9.11573 228
9.13585 192
9.15596 191
9.17608 218
9.19619 212
9.2163 241
9.23642 230
9.25653 198
9.27664 210
9.29676 225
9.31687 205
9.33699 199
9.3571 212
9.37721 208
9.39733 208
9.41744 200
9.43755 196
9.45767 222
9.47778 220
9.4979 216
9.51801 205
9.53812 222
9.55824 222
9.57835 228
9.59846 253
9.61858 209
9.63869 220
9.6588 210
9.67892 212
9.69903 226
9.71915 212
9.73926 224
9.75937 231
9.77949 238
9.7996 230
9.81971 206
9.83983 204
9.85994 199
9.88006 236
9.90017 240
9.92028 198
9.9404 211
9.96051 216
9.98062 203
10.00074 216
10.02085 268
10.04097 229
10.06108 202
10.08119 211
10.10131 204
10.12142 212
10.14153 195
10.16165 184
10.18176 209
10.20187 217
10.22199 230
10.2421 201
10.26222 225
10.28233 221
10.30244 217
10.32256 195
10.34267 198
10.36278 227
10.3829 236
10.40301 234
10.42313 231
10.44324 238
10.46335 228
10.48347 221
10.50358 223
10.52369 200
10.54381 242
10.56392 229
10.58403 241
10.60415 231
10.62426 209
10.64438 225
10.66449 219
10.6846 208
10.70472 207
10.72483 214
10.74494 234
10.76506 243
10.78517 204
10.80529 215
10.8254 234
10.84551 232
10.86563 205
10.88574 204
10.90585 233
10.92597 235
10.94608 237
10.9662 241
10.98631 226
11.00642 217
11.02654 216
11.04665 213
11.06676 218
11.08688 220
11.10699 224
11.1271 212
11.14722 188
11.16733 235
11.18745 223
11.20756 211
11.22767 226
11.24779 243
11.2679 209
11.28801 220
11.30813 242
11.32824 238
11.34836 231
11.36847 214
11.38858 230
11.4087 223
11.42881 228
11.44892 244
11.46904 202
11.48915 194
11.50927 211
11.52938 208
11.54949 170
11.56961 232
11.58972 215
11.60983 238
11.62995 242
11.65006 227
11.67017 246
11.69029 238
11.7104 204
11.73052 234
11.75063 277
11.77074 247
11.79086 220
11.81097 229
11.83108 259
11.8512 234
11.87131 238
11.89143 226
11.91154 244
11.93165 255
11.95177 240
11.97188 257
11.99199 251
12.01211 279
12.03222 253
12.05234 249
12.07245 265
12.09256 291
12.11268 303
12.13279 307
12.1529 288
12.17302 329
12.19313 359
12.21324 370
12.23336 334
12.25347 369
12.27359 401
12.2937 437
12.31381 417
12.33393 418
12.35404 402
12.37415 439
12.39427 360
12.41438 388
12.4345 355
12.45461 341
12.47472 353
12.49484 317
12.51495 271
12.53506 276
12.55518 251
12.57529 275
12.5954 231
12.61552 284
12.63563 238
12.65575 211
12.67586 223
12.69597 211
12.71609 203
12.7362 210
12.75631 215
12.77643 232
12.79654 234
12.81666 232
12.83677 242
12.85688 224
12.877 210
12.89711 198
12.91722 193
12.93734 183
12.95745 190
12.97757 235
12.99768 218
13.01779 234
13.03791 199
13.05802 232
13.07813 219
13.09825 203
13.11836 219
13.13847 198
13.15859 197
13.1787 197
13.19882 211
13.21893 175
13.23904 189
13.25916 178
13.27927 198
13.29938 206
13.3195 190
13.33961 208
13.35973 192
13.37984 204
13.39995 224
13.42007 206
13.44018 191
13.46029 202
13.48041 191
13.50052 202
13.52064 198
13.54075 185
13.56086 196
13.58098 196
13.60109 171
13.6212 209
13.64132 192
13.66143 204
13.68154 188
13.70166 186
13.72177 193
13.74189 195
13.762 190
13.78211 173
13.80223 196
13.82234 211
13.84245 206
13.86257 201
13.88268 205
13.9028 206
13.92291 205
13.94302 210
13.96314 205
13.98325 189
14.00336 180
14.02348 176
14.04359 171
14.06371 221
14.08382 192
14.10393 184
14.12405 199
14.14416 180
14.16427 220
14.18439 212
14.2045 186
14.22461 183
14.24473 188
14.26484 185
14.28496 183
14.30507 186
14.32518 202
14.3453 194
14.36541 203
14.38552 200
14.40564 189
14.42575 174
14.44587 192
14.46598 192
14.48609 203
14.50621 212
14.52632 203
14.54643 199
14.56655 173
14.58666 188
14.60677 176
14.62689 181
14.647 185
14.66712 173
14.68723 189
14.70734 187
14.72746 179
14.74757 211
14.76768 180
14.7878 201
14.80791 192
14.82803 194
14.84814 194
14.86825 189
14.88837 172
14.90848 184
14.92859 151
14.94871 168
14.96882 173
14.98894 182
15.00905 186
15.02916 212
15.04928 148
15.06939 185
15.0895 184
15.10962 212
15.12973 203
15.14984 177
15.16996 184
15.19007 181
15.21019 195
15.2303 187
15.25041 192
15.27053 196
15.29064 186
15.31075 196
15.33087 174
15.35098 170
15.3711 184
15.39121 189
15.41132 206
15.43144 232
15.45155 191
15.47166 181
15.49178 209
15.51189 178
15.53201 161
15.55212 198
15.57223 192
15.59235 186
15.61246 182
15.63257 167
15.65269 181
15.6728 167
15.69291 167
15.71303 177
15.73314 152
15.75326 197
15.77337 186
15.79348 169
15.8136 146
15.83371 178
15.85382 178
15.87394 198
15.89405 175
15.91417 192
15.93428 185
15.95439 186
15.97451 190
15.99462 187
16.01473 190
16.03485 150
16.05496 186
16.07508 183
16.09519 167
16.1153 170
16.13542 171
16.15553 165
16.17564 159
16.19576 171
16.21587 181
16.23598 177
16.2561 154
16.27621 180
16.29633 196
16.31644 185
16.33655 165
16.35667 184
16.37678 198
16.39689 171
16.41701 180
16.43712 176
16.45724 159
16.47735 183
16.49746 162
16.51758 156
16.53769 157
16.5578 172
16.57792 162
16.59803 177
16.61814 184
16.63826 190
16.65837 162
16.67849 190
16.6986 191
16.71871 155
16.73883 179
16.75894 186
16.77905 172
16.79917 182
16.81928 170
16.8394 166
16.85951 174
16.87962 156
16.89974 205
16.91985 179
16.93996 151
16.96008 158
16.98019 156
17.00031 168
17.02042 160
17.04053 166
17.06065 177
17.08076 177
17.10087 178
17.12099 178
17.1411 172
17.16121 162
17.18133 175
17.20144 180
17.22156 168
17.24167 174
17.26178 180
17.2819 171
17.30201 189
17.32212 171
17.34224 166
17.36235 157
17.38247 173
17.40258 189
17.42269 169
17.44281 174
17.46292 164
17.48303 187
17.50315 172
17.52326 164
17.54338 183
17.56349 176
17.5836 156
17.60372 148
17.62383 201
17.64394 160
17.66406 205
17.68417 171
17.70428 162
17.7244 182
17.74451 195
17.76463 203
17.78474 173
17.80485 169
17.82497 177
17.84508 193
17.86519 158
17.88531 189
17.90542 169
17.92554 173
17.94565 195
17.96576 183
17.98588 191
18.00599 195
18.0261 194
18.04622 190
18.06633 177
18.08645 175
18.10656 166
18.12667 188
18.14679 151
18.1669 171
18.18701 170
18.20713 170
18.22724 187
18.24735 203
18.26747 174
18.28758 157
18.3077 156
18.32781 160
18.34792 141
18.36804 158
18.38815 183
18.40826 172
18.42838 159
18.44849 152
18.46861 159
18.48872 174
18.50883 177
18.52895 152
18.54906 159
18.56917 187
18.58929 162
18.6094 176
18.62951 181
18.64963 178
18.66974 179
18.68986 180
18.70997 193
18.73008 165
18.7502 149
18.77031 194
18.79042 209
18.81054 192
18.83065 173
18.85077 178
18.87088 163
18.89099 195
18.91111 174
18.93122 207
18.95133 167
18.97145 168
18.99156 180
19.01168 145
19.03179 182
19.0519 204
19.07202 178
19.09213 156
19.11224 192
19.13236 165
19.15247 205
19.17258 192
19.1927 176
19.21281 171
19.23293 204
19.25304 190
19.27315 174
19.29327 198
19.31338 183
19.33349 218
19.35361 193
19.37372 176
19.39384 188
19.41395 192
19.43406 216
19.45418 181
19.47429 163
19.4944 207
19.51452 199
19.53463 213
19.55475 196
19.57486 207
19.59497 218
19.61509 211
19.6352 220
19.65531 175
19.67543 192
19.69554 196
19.71565 228
19.73577 248
19.75588 244
19.776 256
19.79611 272
19.81622 287
19.83634 269
19.85645 309
19.87656 335
19.89668 293
19.91679 330
19.93691 316
19.95702 310
19.97713 344
19.99725 321
20.01736 302
20.03747 309
20.05759 297
20.0777 331
20.09782 341
20.11793 320
20.13804 307
20.15816 362
20.17827 372
20.19838 354
20.2185 352
20.23861 345
20.25872 370
20.27884 359
20.29895 394
20.31907 343
20.33918 397
20.35929 370
20.37941 400
20.39952 425
20.41963 445
20.43975 413
20.45986 429
20.47998 439
20.50009 472
20.5202 541
20.54032 482
20.56043 522
20.58054 541
20.60066 600
20.62077 698
20.64088 812
20.661 935
20.68111 1313
20.70123 1660
20.72134 2195
20.74145 3121
20.76157 4139
20.78168 5527
20.80179 6879
20.82191 7885
20.84202 8244
20.86214 7805
20.88225 6567
20.90236 4937
20.92248 3217
20.94259 2255
20.9627 1331
20.98282 869
21.00293 714
21.02305 592
21.04316 600
21.06327 488
21.08339 500
21.1035 454
21.12361 421
21.14373 388
21.16384 410
21.18395 407
21.20407 389
21.22418 391
21.2443 355
21.26441 353
21.28452 349
21.30464 347
21.32475 325
21.34486 351
21.36498 360
21.38509 341
21.40521 298
21.42532 323
21.44543 322
21.46555 304
21.48566 315
21.50577 312
21.52589 310
21.546 280
21.56612 294
21.58623 288
21.60634 283
21.62646 293
21.64657 303
21.66668 247
21.6868 261
21.70691 236
21.72702 247
21.74714 273
21.76725 255
21.78737 251
21.80748 262
21.82759 240
21.84771 283
21.86782 227
21.88793 238
21.90805 238
21.92816 261
21.94828 240
21.96839 240
21.9885 229
22.00862 240
22.02873 270
22.04884 279
22.06896 265
22.08907 221
22.10919 243
22.1293 232
22.14941 238
22.16953 234
22.18964 243
22.20975 235
22.22987 246
22.24998 242
22.27009 269
22.29021 243
22.31032 251
22.33044 220
22.35055 233
22.37066 245
22.39078 221
22.41089 233
22.431 203
22.45112 235
22.47123 240
22.49135 220
22.51146 217
22.53157 205
22.55169 241
22.5718 240
22.59191 251
22.61203 184
22.63214 236
22.65225 230
22.67237 244
22.69248 210
22.7126 187
22.73271 220
22.75282 224
22.77294 213
22.79305 230
22.81316 242
22.83328 219
22.85339 228
22.87351 256
22.89362 197
22.91373 224
22.93385 212
22.95396 216
22.97407 239
22.99419 235
23.0143 222
23.03442 227
23.05453 238
23.07464 220
23.09476 233
23.11487 248
23.13498 235
23.1551 247
23.17521 195
23.19532 253
23.21544 219
23.23555 216
23.25567 204
23.27578 226
23.29589 211
23.31601 225
23.33612 236
23.35623 217
23.37635 212
23.39646 241
23.41658 233
23.43669 193
23.4568 227
23.47692 236
23.49703 232
23.51714 207
23.53726 226
23.55737 209
23.57749 208
23.5976 213
23.61771 202
23.63783 200
23.65794 232
23.67805 201
23.69817 214
23.71828 234
23.73839 215
23.75851 204
23.77862 234
23.79874 259
23.81885 252
23.83896 228
23.85908 235
23.87919 258
23.8993 283
23.91942 269
23.93953 289
23.95965 296
23.97976 291
23.99987 297
24.01999 315
24.0401 307
24.06021 234
24.08033 264
24.10044 223
24.12056 215
24.14067 226
24.16078 230
24.1809 230
24.20101 238
24.22112 219
24.24124 231
24.26135 252
24.28146 223
24.30158 227
24.32169 204
24.34181 228
24.36192 200
24.38203 230
24.40215 247
24.42226 222
24.44237 242
24.46249 214
24.4826 262
24.50272 248
24.52283 232
24.54294 292
24.56306 284
24.58317 281
24.60328 296
24.6234 282
24.64351 282
24.66362 334
24.68374 296
24.70385 302
24.72397 348
24.74408 341
24.76419 340
24.78431 329
24.80442 351
24.82453 391
24.84465 339
24.86476 329
24.88488 348
24.90499 327
24.9251 302
24.94522 319
24.96533 292
24.98544 296
25.00556 315
25.02567 289
25.04579 286
25.0659 272
25.08601 264
25.10613 265
25.12624 239
25.14635 243
25.16647 252
25.18658 252
25.20669 238
25.22681 254
25.24692 269
25.26704 270
25.28715 250
25.30726 268
25.32738 242
25.34749 259
25.3676 248
25.38772 226
25.40783 268
25.42795 247
25.44806 249
25.46817 249
25.48829 239
25.5084 279
25.52851 289
25.54863 318
25.56874 293
25.58886 296
25.60897 295
25.62908 326
25.6492 361
25.66931 358
25.68942 418
25.70954 401
25.72965 445
25.74976 450
25.76988 444
25.78999 444
25.81011 472
25.83022 528
25.85033 459
25.87045 508
25.89056 523
25.91067 462
25.93079 524
25.9509 571
25.97102 572
25.99113 571
26.01124 584
26.03136 602
26.05147 643
26.07158 619
26.0917 693
26.11181 746
26.13193 757
26.15204 816
26.17215 864
26.19227 961
26.21238 990
26.23249 1115
26.25261 1144
26.27272 1305
26.29283 1377
26.31295 1534
26.33306 1684
26.35318 2075
26.37329 2312
26.3934 2819
26.41352 3440
26.43363 4627
26.45374 6006
26.47386 7888
26.49397 10772
26.51409 14604
26.5342 19574
26.55431 25395
26.57443 31479
26.59454 35962
26.61465 38059
26.63477 36297
26.65488 31872
26.67499 24703
26.69511 18550
26.71522 13099
26.73534 8348
26.75545 4979
26.77556 3133
26.79568 2369
26.81579 1983
26.8359 1666
26.85602 1572
26.87613 1384
26.89625 1266
26.91636 1095
26.93647 1005
26.95659 984
26.9767 787
26.99681 815
27.01693 678
27.03704 634
27.05716 617
27.07727 602
27.09738 533
27.1175 523
27.13761 442
27.15772 502
27.17784 512
27.19795 469
27.21806 480
27.23818 472
27.25829 444
27.27841 394
27.29852 434
27.31863 404
27.33875 400
27.35886 401
27.37897 425
27.39909 410
27.4192 398
27.43932 367
27.45943 406
27.47954 348
27.49966 314
27.51977 375
27.53988 353
27.56 329
27.58011 333
27.60023 316
27.62034 373
27.64045 280
27.66057 289
27.68068 311
27.70079 356
27.72091 309
27.74102 322
27.76113 299
27.78125 307
27.80136 333
27.82148 312
27.84159 269
27.8617 306
27.88182 328
27.90193 302
27.92204 306
27.94216 294
27.96227 293
27.98239 321
28.0025 308
28.02261 294
28.04273 317
28.06284 286
28.08295 281
28.10307 275
28.12318 272
28.1433 273
28.16341 286
28.18352 309
28.20364 246
28.22375 287
28.24386 295
28.26398 262
28.28409 288
28.3042 278
28.32432 255
28.34443 290
28.36455 282
28.38466 254
28.40477 268
28.42489 265
28.445 261
28.46511 266
28.48523 240
28.50534 246
28.52546 255
28.54557 247
28.56568 265
28.5858 246
28.60591 267
28.62602 267
28.64614 254
28.66625 269
28.68636 241
28.70648 249
28.72659 284
28.74671 221
28.76682 243
28.78693 235
28.80705 230
28.82716 202
28.84727 238
28.86739 224
28.8875 253
28.90762 229
28.92773 265
28.94784 267
28.96796 243
28.98807 225
29.00818 240
29.0283 258
29.04841 261
29.06853 263
29.08864 253
29.10875 264
29.12887 227
29.14898 254
29.16909 229
29.18921 225
29.20932 254
29.22943 231
29.24955 220
29.26966 203
29.28978 232
29.30989 222
29.33 218
29.35012 229
29.37023 211
29.39034 228
29.41046 237
29.43057 235
29.45069 229
29.4708 223
29.49091 219
29.51103 229
29.53114 216
29.55125 201
29.57137 241
29.59148 233
29.6116 208
29.63171 223
29.65182 202
29.67194 210
29.69205 215
29.71216 205
29.73228 233
29.75239 226
29.7725 216
29.79262 212
29.81273 217
29.83285 221
29.85296 213
29.87307 231
29.89319 222
29.9133 232
29.93341 228
29.95353 221
29.97364 201
29.99376 195
30.01387 216
30.03398 200
30.0541 195
30.07421 189
30.09432 229
30.11444 198
30.13455 214
30.15467 257
30.17478 221
30.19489 214
30.21501 222
30.23512 199
30.25523 230
30.27535 197
30.29546 230
30.31557 227
30.33569 187
30.3558 192
30.37592 193
30.39603 209
30.41614 221
30.43626 208
30.45637 212
30.47648 203
30.4966 203
30.51671 195
30.53683 184
30.55694 210
30.57705 207
30.59717 213
30.61728 199
30.63739 227
30.65751 192
30.67762 176
30.69773 213
30.71785 204
30.73796 179
30.75808 225
30.77819 198
30.7983 218
30.81842 211
30.83853 215
30.85864 210
30.87876 216
30.89887 207
30.91899 230
30.9391 210
30.95921 167
30.97933 168
30.99944 197
31.01955 177
31.03967 223
31.05978 195
31.0799 182
31.10001 196
31.12012 175
31.14024 158
31.16035 196
31.18046 180
31.20058 170
31.22069 215
31.2408 198
31.26092 227
31.28103 195
31.30115 179
31.32126 185
31.34137 185
31.36149 209
31.3816 204
31.40171 194
31.42183 189
31.44194 199
31.46206 194
31.48217 185
31.50228 189
31.5224 188
31.54251 154
31.56262 183
31.58274 178
31.60285 207
31.62297 166
31.64308 179
31.66319 185
31.68331 171
31.70342 195
31.72353 192
31.74365 160
31.76376 191
31.78387 184
31.80399 174
31.8241 192
31.84422 178
31.86433 177
31.88444 159
31.90456 183
31.92467 192
31.94478 196
31.9649 204
31.98501 195
32.00513 187
32.02524 159
32.04535 181
32.06547 169
32.08558 180
32.10569 214
32.12581 201
32.14592 186
32.16604 204
32.18615 185
32.20626 185
32.22638 183
32.24649 172
32.2666 201
32.28672 193
32.30683 198
32.32694 202
32.34706 188
32.36717 166
32.38729 206
32.4074 170
32.42751 174
32.44763 177
32.46774 203
32.48785 211
32.50797 201
32.52808 188
32.5482 205
32.56831 197
32.58842 203
32.60854 204
32.62865 193
32.64876 198
32.66888 170
32.68899 178
32.7091 166
32.72922 164
32.74933 163
32.76945 174
32.78956 172
32.80967 187
32.82979 186
32.8499 213
32.87001 199
32.89013 170
32.91024 190
32.93036 197
32.95047 161
32.97058 169
32.9907 182
33.01081 187
33.03092 185
33.05104 170
33.07115 188
33.09127 162
33.11138 176
33.13149 193
33.15161 169
33.17172 204
33.19183 188
33.21195 198
33.23206 164
33.25217 166
33.27229 179
33.2924 187
33.31252 181
33.33263 188
33.35274 216
33.37286 227
33.39297 183
33.41308 179
33.4332 159
33.45331 157
33.47343 175
33.49354 170
33.51365 155
33.53377 179
33.55388 173
33.57399 172
33.59411 200
33.61422 178
33.63434 165
33.65445 171
33.67456 159
33.69468 187
33.71479 157
33.7349 168
33.75502 159
33.77513 151
33.79524 161
33.81536 158
33.83547 153
33.85559 165
33.8757 183
33.89581 160
33.91593 162
33.93604 148
33.95615 167
33.97627 168
33.99638 158
34.0165 162
34.03661 147
34.05672 152
34.07684 181
34.09695 146
34.11706 147
34.13718 153
34.15729 178
34.17741 159
34.19752 154
34.21763 172
34.23775 175
34.25786 190
34.27797 176
34.29809 187
34.3182 156
34.33831 157
34.35843 163
34.37854 148
34.39866 163
34.41877 150
34.43888 162
34.459 175
34.47911 153
34.49922 162
34.51934 179
34.53945 166
34.55957 172
34.57968 186
34.59979 171
34.61991 199
34.64002 162
34.66013 156
34.68025 161
34.70036 175
34.72047 166
34.74059 186
34.7607 193
34.78082 232
34.80093 236
34.82104 218
34.84116 206
34.86127 199
34.88138 218
34.9015 219
34.92161 216
34.94173 248
34.96184 236
34.98195 235
35.00207 215
35.02218 236
35.04229 170
35.06241 220
35.08252 233
35.10264 203
35.12275 203
35.14286 216
35.16298 203
35.18309 213
35.2032 230
35.22332 200
35.24343 220
35.26354 195
35.28366 227
35.30377 221
35.32389 194
35.344 223
35.36411 229
35.38423 205
35.40434 242
35.42445 226
35.44457 224
35.46468 214
35.4848 230
35.50491 225
35.52502 238
35.54514 211
35.56525 240
35.58536 226
35.60548 244
35.62559 232
35.64571 220
35.66582 211
35.68593 206
35.70605 257
35.72616 202
35.74627 220
35.76639 223
35.7865 206
35.80661 262
35.82673 220
35.84684 227
35.86696 225
35.88707 217
35.90718 263
35.9273 282
35.94741 237
35.96752 245
35.98764 260
36.00775 245
36.02787 245
36.04798 261
36.06809 245
36.08821 275
36.10832 281
36.12843 270
36.14855 283
36.16866 254
36.18878 295
36.20889 332
36.229 324
36.24912 372
36.26923 349
36.28934 431
36.30946 468
36.32957 573
36.34968 687
36.3698 828
36.38991 1078
36.41003 1304
36.43014 1524
36.45025 2022
36.47037 2209
36.49048 2417
36.51059 2504
36.53071 2462
36.55082 2170
36.57094 1898
36.59105 1485
36.61116 1312
36.63128 1051
36.65139 829
36.6715 586
36.69162 447
36.71173 361
36.73184 340
36.75196 321
36.77207 310
36.79219 273
36.8123 268
36.83241 265
36.85253 276
36.87264 278
36.89275 225
36.91287 233
36.93298 239
36.9531 232
36.97321 242
36.99332 251
37.01344 213
37.03355 197
37.05366 224
37.07378 201
37.09389 180
37.11401 179
37.13412 187
37.15423 198
37.17435 209
37.19446 182
37.21457 199
37.23469 208
37.2548 201
37.27491 200
37.29503 212
37.31514 187
37.33526 211
37.35537 181
37.37548 166
37.3956 191
37.41571 218
37.43582 189
37.45594 176
37.47605 201
37.49617 196
37.51628 195
37.53639 191
37.55651 198
37.57662 176
37.59673 188
37.61685 208
37.63696 205
37.65708 198
37.67719 180
37.6973 197
37.71742 215
37.73753 208
37.75764 188
37.77776 214
37.79787 200
37.81798 172
37.8381 189
37.85821 201
37.87833 195
37.89844 203
37.91855 192
37.93867 198
37.95878 184
37.97889 184
37.99901 190
38.01912 189
38.03924 193
38.05935 216
38.07946 183
38.09958 226
38.11969 218
38.1398 218
38.15992 215
38.18003 207
38.20015 217
38.22026 206
38.24037 210
38.26049 198
38.2806 219
38.30071 222
38.32083 215
38.34094 234
38.36105 229
38.38117 213
38.40128 218
38.4214 239
38.44151 242
38.46162 218
38.48174 207
38.50185 205
38.52196 207
38.54208 215
38.56219 214
38.58231 222
38.60242 213
38.62253 210
38.64265 209
38.66276 225
38.68287 219
38.70299 186
38.7231 228
38.74321 209
38.76333 200
38.78344 241
38.80356 220
38.82367 196
38.84378 208
38.8639 210
38.88401 218
38.90412 198
38.92424 225
38.94435 238
38.96447 214
38.98458 238
39.00469 266
39.02481 274
39.04492 250
39.06503 290
39.08515 295
39.10526 307
39.12538 320
39.14549 326
39.1656 355
39.18572 331
39.20583 415
39.22594 469
39.24606 521
39.26617 630
39.28628 734
39.3064 953
39.32651 1130
39.34663 1426
39.36674 1679
39.38685 1957
39.40697 2297
39.42708 2316
39.44719 2241
39.46731 2155
39.48742 1735
39.50754 1457
39.52765 1344
39.54776 1133
39.56788 965
39.58799 724
39.6081 490
39.62822 393
39.64833 305
39.66845 356
39.68856 264
39.70867 264
39.72879 236
39.7489 237
39.76901 263
39.78913 253
39.80924 254
39.82935 227
39.84947 237
39.86958 238
39.8897 259
39.90981 239
39.92992 227
39.95004 259
39.97015 260
39.99026 293
40.01038 285
40.03049 322
40.05061 344
40.07072 382
40.09083 430
40.11095 478
40.13106 568
40.15117 644
40.17129 753
40.1914 988
40.21152 1053
40.23163 1178
40.25174 1268
40.27186 1175
40.29197 1144
40.31208 929
40.3322 840
40.35231 726
40.37242 641
40.39254 556
40.41265 420
40.43277 360
40.45288 267
40.47299 273
40.49311 238
40.51322 222
40.53333 218
40.55345 200
40.57356 201
40.59368 197
40.61379 207
40.6339 188
40.65402 187
40.67413 202
40.69424 180
40.71436 197
40.73447 179
40.75458 198
40.7747 218
40.79481 201
40.81493 207
40.83504 201
40.85515 186
40.87527 198
40.89538 210
40.91549 184
40.93561 203
40.95572 191
40.97584 219
40.99595 192
41.01606 193
41.03618 223
41.05629 179
41.0764 172
41.09652 194
41.11663 183
41.13675 191
41.15686 177
41.17697 196
41.19709 179
41.2172 171
41.23731 195
41.25743 204
41.27754 198
41.29765 192
41.31777 175
41.33788 214
41.358 201
41.37811 192
41.39822 198
41.41834 215
41.43845 186
41.45856 183
41.47868 202
41.49879 192
41.51891 196
41.53902 200
41.55913 191
41.57925 174
41.59936 158
41.61947 194
41.63959 185
41.6597 202
41.67982 180
41.69993 159
41.72004 168
41.74016 193
41.76027 179
41.78038 179
41.8005 195
41.82061 152
41.84072 188
41.86084 196
41.88095 213
41.90107 192
41.92118 200
41.94129 214
41.96141 192
41.98152 183
42.00163 225
42.02175 188
42.04186 213
42.06198 238
42.08209 237
42.1022 257
42.12232 290
42.14243 269
42.16254 306
42.18266 340
42.20277 372
42.22289 411
42.243 479
42.26311 580
42.28323 690
42.30334 823
42.32345 992
42.34357 1209
42.36368 1440
42.38379 1563
42.40391 1690
42.42402 1655
42.44414 1522
42.46425 1338
42.48436 1196
42.50448 1075
42.52459 929
42.5447 818
42.56482 589
42.58493 478
42.60505 348
42.62516 294
42.64527 243
42.66539 240
42.6855 211
42.70561 228
42.72573 212
42.74584 196
42.76595 196
42.78607 178
42.80618 213
42.8263 189
42.84641 199
42.86652 193
42.88664 178
42.90675 179
42.92686 182
42.94698 163
42.96709 174
42.98721 171
43.00732 165
43.02743 176
43.04755 158
43.06766 164
43.08777 172
43.10789 166
43.128 165
43.14812 159
43.16823 175
43.18834 153
43.20846 160
43.22857 159
43.24868 155
43.2688 175
43.28891 157
43.30902 176
43.32914 170
43.34925 155
43.36937 179
43.38948 175
43.40959 181
43.42971 160
43.44982 154
43.46993 156
43.49005 149
43.51016 174
43.53028 166
43.55039 152
43.5705 147
43.59062 144
43.61073 164
43.63084 147
43.65096 132
43.67107 166
43.69119 160
43.7113 166
43.73141 154
43.75153 169
43.77164 163
43.79175 175
43.81187 158
43.83198 150
43.85209 150
43.87221 152
43.89232 161
43.91244 140
43.93255 166
43.95266 151
43.97278 153
43.99289 157
44.013 146
44.03312 147
44.05323 168
44.07335 145
44.09346 167
44.11357 169
44.13369 166
44.1538 152
44.17391 159
44.19403 162
44.21414 158
44.23426 175
44.25437 154
44.27448 173
44.2946 148
44.31471 156
44.33482 182
44.35494 159
44.37505 148
44.39516 157
44.41528 161
44.43539 158
44.45551 155
44.47562 160
44.49573 172
44.51585 154
44.53596 162
44.55607 153
44.57619 145
44.5963 172
44.61642 148
44.63653 169
44.65664 171
44.67676 150
44.69687 152
44.71698 164
44.7371 136
44.75721 154
44.77732 156
44.79744 171
44.81755 151
44.83767 176
44.85778 163
44.87789 163
44.89801 166
44.91812 176
44.93823 152
44.95835 136
44.97846 187
44.99858 189
45.01869 175
45.0388 184
45.05892 194
45.07903 160
45.09914 162
45.11926 160
45.13937 173
45.15949 175
45.1796 170
45.19971 165
45.21983 174
45.23994 183
45.26005 186
45.28017 186
45.30028 208
45.32039 180
45.34051 194
45.36062 181
45.38074 202
45.40085 179
45.42096 200
45.44108 250
45.46119 234
45.4813 258
45.50142 254
45.52153 251
45.54165 300
45.56176 328
45.58187 421
45.60199 440
45.6221 511
45.64221 642
45.66233 666
45.68244 833
45.70256 995
45.72267 1088
45.74278 1159
45.7629 1118
45.78301 1035
45.80312 924
45.82324 780
45.84335 695
45.86346 644
45.88358 599
45.90369 554
45.92381 415
45.94392 320
45.96403 256
45.98415 222
46.00426 222
46.02437 180
46.04449 176
46.0646 186
46.08472 178
46.10483 180
46.12494 181
46.14506 173
46.16517 171
46.18528 188
46.2054 178
46.22551 159
46.24563 151
46.26574 170
46.28585 178
46.30597 180
46.32608 151
46.34619 159
46.36631 167
46.38642 165
46.40653 144
46.42665 160
46.44676 164
46.46688 143
46.48699 142
46.5071 164
46.52722 184
46.54733 178
46.56744 170
46.58756 168
46.60767 147
46.62779 170
46.6479 161
46.66801 155
46.68813 169
46.70824 148
46.72835 164
46.74847 160
46.76858 167
46.78869 152
46.80881 136
46.82892 152
46.84904 162
46.86915 155
46.88926 139
46.90938 168
46.92949 153
46.9496 143
46.96972 152
46.98983 129
47.00995 146
47.03006 144
47.05017 152
47.07029 135
47.0904 152
47.11051 145
47.13063 131
47.15074 147
47.17086 157
47.19097 155
47.21108 165
47.2312 148
47.25131 172
47.27142 145
47.29154 168
47.31165 142
47.33176 138
47.35188 140
47.37199 157
47.39211 144
47.41222 160
47.43233 144
47.45245 139
47.47256 164
47.49267 143
47.51279 137
47.5329 145
47.55302 145
47.57313 142
47.59324 155
47.61336 140
47.63347 150
47.65358 153
47.6737 163
47.69381 140
47.71393 165
47.73404 132
47.75415 160
47.77427 159
47.79438 186
47.81449 157
47.83461 135
47.85472 147
47.87483 146
47.89495 152
47.91506 161
47.93518 148
47.95529 148
47.9754 142
47.99552 143
48.01563 156
48.03574 143
48.05586 151
48.07597 135
48.09609 137
48.1162 132
48.13631 141
48.15643 155
48.17654 144
48.19665 152
48.21677 136
48.23688 157
48.257 174
48.27711 170
48.29722 165
48.31734 140
48.33745 144
48.35756 152
48.37768 158
48.39779 188
48.4179 139
48.43802 159
48.45813 150
48.47825 161
48.49836 158
48.51847 176
48.53859 176
48.5587 172
48.57881 159
48.59893 162
48.61904 141
48.63916 162
48.65927 184
48.67938 174
48.6995 151
48.71961 160
48.73972 157
48.75984 171
48.77995 152
48.80006 167
48.82018 171
48.84029 185
48.86041 154
48.88052 147
48.90063 151
48.92075 175
48.94086 154
48.96097 160
48.98109 150
49.0012 173
49.02132 187
49.04143 163
49.06154 171
49.08166 166
49.10177 176
49.12188 192
49.142 206
49.16211 182
49.18223 158
49.20234 165
49.22245 166
49.24257 177
49.26268 163
49.28279 172
49.30291 172
49.32302 174
49.34313 184
49.36325 195
49.38336 191
49.40348 191
49.42359 205
49.4437 194
49.46382 197
49.48393 183
49.50404 242
49.52416 223
49.54427 188
49.56439 215
49.5845 227
49.60461 243
49.62473 250
49.64484 256
49.66495 251
49.68507 242
49.70518 316
49.7253 324
49.74541 345
49.76552 335
49.78564 399
49.80575 466
49.82586 482
49.84598 566
49.86609 679
49.8862 781
49.90632 859
49.92643 1002
49.94655 1205
49.96666 1472
49.98677 1883
50.00689 2224
50.027 2653
50.04711 3064
50.06723 3479
50.08734 3638
50.10746 3657
50.12757 3320
50.14768 2896
50.1678 2310
50.18791 2112
50.20802 2007
50.22814 1871
50.24825 1641
50.26837 1307
50.28848 1005
50.30859 742
50.32871 554
50.34882 440
50.36893 331
50.38905 318
50.40916 329
50.42927 304
50.44939 278
50.4695 294
50.48962 264
50.50973 284
50.52984 256
50.54996 289
50.57007 270
50.59018 293
50.6103 258
50.63041 306
50.65053 255
50.67064 238
50.69075 234
50.71087 231
50.73098 193
50.75109 216
50.77121 207
50.79132 188
50.81143 205
50.83155 170
50.85166 211
50.87178 184
50.89189 178
50.912 171
50.93212 198
50.95223 182
50.97234 148
50.99246 190
51.01257 158
51.03269 148
51.0528 177
51.07291 180
51.09303 152
51.11314 166
51.13325 165
51.15337 166
51.17348 161
51.1936 135
51.21371 167
51.23382 153
51.25394 136
51.27405 174
51.29416 132
51.31428 153
51.33439 143
51.3545 139
51.37462 151
51.39473 156
51.41485 159
51.43496 142
51.45507 117
51.47519 132
51.4953 154
51.51541 137
51.53553 127
51.55564 154
51.57576 139
51.59587 148
51.61598 130
51.6361 135
51.65621 143
51.67632 143
51.69644 144
51.71655 142
51.73667 160
51.75678 141
51.77689 149
51.79701 122
51.81712 126
51.83723 154
51.85735 136
51.87746 137
51.89757 152
51.91769 146
51.9378 136
51.95792 157
51.97803 132
51.99814 137
52.01826 146
52.03837 149
52.05848 125
52.0786 138
52.09871 129
52.11883 135
52.13894 148
52.15905 136
52.17917 117
52.19928 141
52.21939 134
52.23951 142
52.25962 135
52.27974 133
52.29985 152
52.31996 148
52.34008 137
52.36019 143
52.3803 131
52.40042 148
52.42053 154
52.44064 144
52.46076 137
52.48087 132
52.50099 130
52.5211 152
52.54121 150
52.56133 141
52.58144 138
52.60155 129
52.62167 117
52.64178 166
52.6619 138
52.68201 148
52.70212 163
52.72224 131
52.74235 136
52.76246 146
52.78258 149
52.80269 123
52.8228 126
52.84292 145
52.86303 156
52.88315 177
52.90326 149
52.92337 133
52.94349 147
52.9636 131
52.98371 171
53.00383 140
53.02394 160
53.04406 141
53.06417 162
53.08428 161
53.1044 165
53.12451 158
53.14462 180
53.16474 187
53.18485 134
53.20497 178
53.22508 174
53.24519 128
53.26531 157
53.28542 149
53.30553 136
53.32565 153
53.34576 168
53.36587 180
53.38599 153
53.4061 124
53.42622 166
53.44633 140
53.46644 163
53.48656 157
53.50667 159
53.52678 175
53.5469 171
53.56701 134
53.58713 169
53.60724 163
53.62735 165
53.64747 175
53.66758 173
53.68769 168
53.70781 160
53.72792 146
53.74804 163
53.76815 188
53.78826 144
53.80838 152
53.82849 163
53.8486 170
53.86872 162
53.88883 151
53.90894 154
53.92906 152
53.94917 177
53.96929 150
53.9894 179
54.00951 155
54.02963 168
54.04974 163
54.06985 161
54.08997 173
54.11008 180
54.1302 172
54.15031 176
54.17042 190
54.19054 207
54.21065 166
54.23076 204
54.25088 207
54.27099 170
54.29111 202
54.31122 185
54.33133 195
54.35145 200
54.37156 210
54.39167 206
54.41179 193
54.4319 230
54.45201 218
54.47213 227
54.49224 227
54.51236 254
54.53247 263
54.55258 231
54.5727 292
54.59281 279
54.61292 354
54.63304 395
54.65315 413
54.67327 464
54.69338 558
54.71349 643
54.73361 801
54.75372 875
54.77383 1020
54.79395 1082
54.81406 1085
54.83417 1091
54.85429 1063
54.8744 957
54.89452 802
54.91463 711
54.93474 640
54.95486 701
54.97497 650
54.99508 640
55.0152 584
55.03531 496
55.05543 381
55.07554 350
55.09565 355
55.11577 342
55.13588 331
55.15599 392
55.17611 447
55.19622 431
55.21634 512
55.23645 500
55.25656 522
55.27668 550
55.29679 564
55.3169 531
55.33702 461
55.35713 389
55.37724 366
55.39736 387
55.41747 349
55.43759 340
55.4577 312
55.47781 289
55.49793 259
55.51804 229
55.53815 212
55.55827 186
55.57838 202
55.5985 189
55.61861 183
55.63872 172
55.65884 164
55.67895 191
55.69906 168
55.71918 174
55.73929 178
55.75941 153
55.77952 166
55.79963 151
55.81975 152
55.83986 160
55.85997 185
55.88009 147
55.9002 187
55.92031 148
55.94043 147
55.96054 154
55.98066 132
56.00077 135
56.02088 133
56.041 160
56.06111 146
56.08122 144
56.10134 148
56.12145 127
56.14157 160
56.16168 173
56.18179 145
56.20191 159
56.22202 165
56.24213 173
56.26225 136
56.28236 136
56.30248 165
56.32259 175
56.3427 151
56.36282 172
56.38293 158
56.40304 143
56.42316 133
56.44327 172
56.46338 143
56.4835 118
56.50361 135
56.52373 154
56.54384 158
56.56395 138
56.58407 147
56.60418 154
56.62429 141
56.64441 131
56.66452 133
56.68464 158
56.70475 137
56.72486 142
56.74498 141
56.76509 118
56.7852 153
56.80532 137
56.82543 155
56.84554 139
56.86566 128
56.88577 159
56.90589 153
56.926 141
56.94611 154
56.96623 171
56.98634 147
57.00645 154
57.02657 159
57.04668 172
57.0668 131
57.08691 204
57.10702 195
57.12714 191
57.14725 184
57.16736 191
57.18748 180
57.20759 187
57.22771 174
57.24782 181
57.26793 173
57.28805 185
57.30816 172
57.32827 163
57.34839 171
57.3685 156
57.38861 161
57.40873 142
57.42884 136
57.44896 133
57.46907 144
57.48918 124
57.5093 145
57.52941 141
57.54952 147
57.56964 139
57.58975 150
57.60987 128
57.62998 135
57.65009 116
57.67021 129
57.69032 173
57.71043 156
57.73055 146
57.75066 161
57.77078 138
57.79089 147
57.811 142
57.83112 143
57.85123 151
57.87134 153
57.89146 143
57.91157 136
57.93168 141
57.9518 163
57.97191 135
57.99203 149
58.01214 146
58.03225 134
58.05237 145
58.07248 142
58.09259 149
58.11271 150
58.13282 151
58.15294 186
58.17305 144
58.19316 125
58.21328 132
58.23339 129
58.2535 143
58.27362 146
58.29373 161
58.31385 142
58.33396 141
58.35407 155
58.37419 154
58.3943 143
58.41441 158
58.43453 134
58.45464 152
58.47475 136
58.49487 145
58.51498 128
58.5351 157
58.55521 146
58.57532 144
58.59544 163
58.61555 127
58.63566 136
58.65578 143
58.67589 145
58.69601 139
58.71612 167
58.73623 143
58.75635 129
58.77646 129
58.79657 142
58.81669 145
58.8368 140
58.85691 183
58.87703 151
58.89714 133
58.91726 171
58.93737 156
58.95748 137
58.9776 135
58.99771 157
59.01782 171
59.03794 136
59.05805 189
59.07817 155
59.09828 167
59.11839 161
59.13851 161
59.15862 167
59.17873 179
59.19885 174
59.21896 159
59.23908 162
59.25919 177
59.2793 171
59.29942 189
59.31953 205
59.33964 185
59.35976 188
59.37987 210
59.39998 208
59.4201 181
59.44021 223
59.46033 208
59.48044 244
59.50055 247
59.52067 245
59.54078 267
59.56089 289
59.58101 340
59.60112 345
59.62124 348
59.64135 439
59.66146 449
59.68158 532
59.70169 576
59.7218 700
59.74192 782
59.76203 896
59.78215 1144
59.80226 1291
59.82237 1539
59.84249 1755
59.8626 2031
59.88271 2151
59.90283 2167
59.92294 2067
59.94305 1948
59.96317 1669
59.98328 1444
60.0034 1282
60.02351 1246
60.04362 1174
60.06374 1232
60.08385 1102
60.10396 924
60.12408 755
60.14419 618
60.16431 437
60.18442 343
60.20453 285
60.22465 261
60.24476 257
60.26487 245
60.28499 229
60.3051 223
60.32522 209
60.34533 195
60.36544 195
60.38556 192
60.40567 175
60.42578 186
60.4459 182
60.46601 173
60.48612 179
60.50624 156
60.52635 163
60.54647 176
60.56658 168
60.58669 136
60.60681 163
60.62692 169
60.64703 159
60.66715 172
60.68726 139
60.70738 168
60.72749 165
60.7476 145
60.76772 145
60.78783 179
60.80794 169
60.82806 146
60.84817 138
60.86828 158
60.8884 148
60.90851 145
60.92863 155
60.94874 149
60.96885 145
60.98897 130
61.00908 157
61.02919 140
61.04931 154
61.06942 163
61.08954 149
61.10965 115
61.12976 154
61.14988 150
61.16999 130
61.1901 123
61.21022 160
61.23033 120
61.25045 137
61.27056 137
61.29067 144
61.31079 172
61.3309 151
61.35101 134
61.37113 141
61.39124 146
61.41135 133
61.43147 147
61.45158 154
61.4717 148
61.49181 137
61.51192 142
61.53204 141
61.55215 155
61.57226 139
61.59238 147
61.61249 157
61.63261 127
61.65272 138
61.67283 130
61.69295 150
61.71306 143
61.73317 128
61.75329 154
61.7734 160
61.79352 147
61.81363 159
61.83374 153
61.85386 132
61.87397 141
61.89408 156
61.9142 148
61.93431 162
61.95442 130
61.97454 167
61.99465 155
62.01477 140
62.03488 150
62.05499 161
62.07511 147
62.09522 166
62.11533 190
62.13545 204
62.15556 180
62.17568 178
62.19579 198
62.2159 172
62.23602 169
62.25613 195
62.27624 196
62.29636 182
62.31647 186
62.33659 175
62.3567 185
62.37681 169
62.39693 185
62.41704 144
62.43715 158
62.45727 147
62.47738 154
62.49749 168
62.51761 153
62.53772 146
62.55784 161
62.57795 155
62.59806 145
62.61818 158
62.63829 144
62.6584 140
62.67852 145
62.69863 133
62.71875 175
62.73886 135
62.75897 158
62.77909 141
62.7992 122
62.81931 145
62.83943 136
62.85954 126
62.87965 142
62.89977 124
62.91988 113
62.94 146
62.96011 128
62.98022 140
63.00034 136
63.02045 150
63.04056 149
63.06068 134
63.08079 133
63.10091 140
63.12102 125
63.14113 140
63.16125 134
63.18136 142
63.20147 150
63.22159 162
63.2417 142
63.26182 128
63.28193 142
63.30204 162
63.32216 150
63.34227 168
63.36238 134
63.3825 144
63.40261 146
63.42272 177
63.44284 160
63.46295 137
63.48307 138
63.50318 137
63.52329 138
63.54341 160
63.56352 143
63.58363 159
63.60375 163
63.62386 171
63.64398 160
63.66409 176
63.6842 168
63.70432 164
63.72443 182
63.74454 187
63.76466 214
63.78477 219
63.80489 237
63.825 259
63.84511 265
63.86523 354
63.88534 355
63.90545 408
63.92557 429
63.94568 492
63.96579 473
63.98591 479
64.00602 447
64.02614 384
64.04625 420
64.06636 347
64.08648 326
64.10659 298
64.1267 319
64.14682 315
64.16693 315
64.18705 276
64.20716 271
64.22727 224
64.24739 191
64.2675 174
64.28761 173
64.30773 151
64.32784 161
64.34796 146
64.36807 162
64.38818 155
64.4083 168
64.42841 153
64.44852 150
64.46864 129
64.48875 142
64.50886 119
64.52898 152
64.54909 150
64.56921 120
64.58932 143
64.60943 130
64.62955 139
64.64966 142
64.66977 139
64.68989 114
64.71 147
64.73012 142
64.75023 126
64.77034 153
64.79046 121
64.81057 117
64.83068 146
64.8508 135
64.87091 123
64.89102 142
64.91114 128
64.93125 115
64.95137 120
64.97148 120
64.99159 114
65.01171 122
65.03182 131
65.05193 132
65.07205 148
65.09216 151
65.11228 127
65.13239 154
65.1525 149
65.17262 143
65.19273 128
65.21284 141
65.23296 134
65.25307 129
65.27319 134
65.2933 138
65.31341 142
65.33353 133
65.35364 145
65.37375 159
65.39387 151
65.41398 135
65.43409 156
65.45421 141
65.47432 154
65.49444 165
65.51455 157
65.53466 173
65.55478 180
65.57489 157
65.595 200
65.61512 202
65.63523 184
65.65535 204
65.67546 213
65.69557 239
65.71569 234
65.7358 240
65.75591 208
65.77603 207
65.79614 179
65.81626 190
65.83637 181
65.85648 176
65.8766 164
65.89671 162
65.91682 178
65.93694 159
65.95705 153
65.97716 176
65.99728 162
66.01739 157
66.03751 152
66.05762 150
66.07773 146
66.09785 144
66.11796 143
66.13807 146
66.15819 142
66.1783 158
66.19842 143
66.21853 135
66.23864 164
66.25876 144
66.27887 139
66.29898 153
66.3191 148
66.33921 141
66.35933 151
66.37944 124
66.39955 151
66.41967 133
66.43978 152
66.45989 146
66.48001 155
66.50012 166
66.52023 155
66.54035 150
66.56046 148
66.58058 158
66.60069 132
66.6208 139
66.64092 134
66.66103 151
66.68114 146
66.70126 117
66.72137 149
66.74149 135
66.7616 149
66.78171 158
66.80183 163
66.82194 163
66.84205 158
66.86217 153
66.88228 161
66.90239 154
66.92251 152
66.94262 142
66.96274 151
66.98285 178
67.00296 168
67.02308 184
67.04319 158
67.0633 149
67.08342 176
67.10353 167
67.12365 187
67.14376 181
67.16387 175
67.18399 208
67.2041 201
67.22421 221
67.24433 181
67.26444 194
67.28456 236
67.30467 224
67.32478 260
67.3449 275
67.36501 304
67.38512 312
67.40524 286
67.42535 331
67.44546 363
67.46558 425
67.48569 451
67.50581 488
67.52592 565
67.54603 660
67.56615 756
67.58626 873
67.60637 935
67.62649 1117
67.6466 1245
67.66672 1300
67.68683 1329
67.70694 1235
67.72706 1150
67.74717 1061
67.76728 973
67.7874 923
67.80751 877
67.82763 925
67.84774 956
67.86785 1003
67.88797 996
67.90808 1095
67.92819 1089
67.94831 1098
67.96842 1129
67.98853 1181
68.00865 1325
68.02876 1494
68.04888 1625
68.06899 1685
68.0891 1763
68.10922 1782
68.12933 1716
68.14944 1547
68.16956 1557
68.18967 1455
68.20979 1475
68.2299 1562
68.25001 1625
68.27013 1559
68.29024 1446
68.31035 1359
68.33047 1100
68.35058 956
68.3707 774
68.39081 707
68.41092 612
68.43104 648
68.45115 603
68.47126 585
68.49138 534
68.51149 424
68.5316 361
68.55172 294
68.57183 253
68.59195 229
68.61206 224
68.63217 234
68.65229 211
68.6724 205
68.69251 190
68.71263 192
68.73274 176
68.75286 184
68.77297 201
68.79308 185
68.8132 170
68.83331 180
68.85342 153
68.87354 154
68.89365 162
68.91376 177
68.93388 153
68.95399 148
68.97411 136
68.99422 159
69.01433 144
69.03445 141
69.05456 142
69.07467 155
69.09479 146
69.1149 162
69.13502 154
69.15513 138
69.17524 155
69.19536 136
69.21547 143
69.23558 124
69.2557 127
69.27581 147
69.29593 112
69.31604 158
69.33615 137
69.35627 138
69.37638 152
69.39649 130
69.41661 142
69.43672 148
69.45683 141
69.47695 122
69.49706 124
69.51718 144
69.53729 127
69.5574 136
69.57752 144
69.59763 133
69.61774 146
69.63786 141
69.65797 139
69.67809 139
69.6982 127
69.71831 148
69.73843 154
69.75854 106
69.77865 132
69.79877 136
69.81888 121
69.839 126
69.85911 116
69.87922 119
69.89934 136
69.91945 134
69.93956 169
69.95968 124
69.97979 132
69.9999 144
70.02002 127
70.04013 137
70.06025 129
70.08036 116
70.10047 135
70.12059 112
70.1407 130
70.16081 126
70.18093 135
70.20104 122
70.22116 115
70.24127 128
70.26138 132
70.2815 134
70.30161 122
70.32172 133
70.34184 145
70.36195 127
70.38207 119
70.40218 132
70.42229 111
70.44241 141
70.46252 146
70.48263 138
70.50275 134
70.52286 111
70.54297 95
70.56309 116
70.5832 145
70.60332 117
70.62343 134
70.64354 121
70.66366 134
70.68377 112
70.70388 121
70.724 111
70.74411 125
70.76423 154
70.78434 122
70.80445 130
70.82457 120
70.84468 135
70.86479 108
70.88491 119
70.90502 131
70.92513 122
70.94525 121
70.96536 121
70.98548 113
71.00559 140
71.0257 123
71.04582 111
71.06593 125
71.08604 95
71.10616 128
71.12627 130
71.14639 108
71.1665 115
71.18661 111
71.20673 135
71.22684 133
71.24695 109
71.26707 140
71.28718 102
71.3073 119
71.32741 107
71.34752 127
71.36764 115
71.38775 109
71.40786 117
71.42798 126
71.44809 116
71.4682 135
71.48832 120
71.50843 120
71.52855 120
71.54866 123
71.56877 122
71.58889 135
71.609 127
71.62911 124
71.64923 119
71.66934 120
71.68946 134
71.70957 115
71.72968 120
71.7498 123
71.76991 108
71.79002 147
71.81014 114
71.83025 101
71.85037 110
71.87048 147
71.89059 131
71.91071 106
71.93082 114
71.95093 122
71.97105 132
71.99116 123
72.01127 116
72.03139 113
72.0515 110
72.07162 127
72.09173 116
72.11184 120
72.13196 114
72.15207 133
72.17218 130
72.1923 137
72.21241 122
72.23253 122
72.25264 137
72.27275 118
72.29287 144
72.31298 116
72.33309 145
72.35321 132
72.37332 119
72.39344 123
72.41355 121
72.43366 133
72.45378 118
72.47389 124
72.494 113
72.51412 115
72.53423 132
72.55434 138
72.57446 124
72.59457 127
72.61469 106
72.6348 150
72.65491 119
72.67503 124
72.69514 134
72.71525 111
72.73537 131
72.75548 135
72.7756 113
72.79571 126
72.81582 128
72.83594 120
72.85605 139
72.87616 128
72.89628 140
72.91639 125
72.9365 131
72.95662 131
72.97673 149
72.99685 149
73.01696 152
73.03707 156
73.05719 160
73.0773 170
73.09741 163
73.11753 176
73.13764 166
73.15776 191
73.17787 176
73.19798 207
73.2181 238
73.23821 229
73.25832 245
73.27844 286
73.29855 306
73.31867 379
73.33878 409
73.35889 436
73.37901 452
73.39912 534
73.41923 484
73.43935 457
73.45946 436
73.47957 344
73.49969 322
73.5198 311
73.53992 281
73.56003 318
73.58014 302
73.60026 290
73.62037 323
73.64048 283
73.6606 248
73.68071 233
73.70083 229
73.72094 191
73.74105 188
73.76117 165
73.78128 169
73.80139 133
73.82151 128
73.84162 153
73.86174 139
73.88185 127
73.90196 123
73.92208 141
73.94219 140
73.9623 142
73.98242 136
74.00253 121
74.02264 143
74.04276 133
74.06287 132
74.08299 139
74.1031 126
74.12321 121
74.14333 117
74.16344 111
74.18355 108
74.20367 134
74.22378 122
74.2439 118
74.26401 113
74.28412 129
74.30424 142
74.32435 121
74.34446 124
74.36458 133
74.38469 114
74.40481 111
74.42492 129
74.44503 124
74.46515 125
74.48526 126
74.50537 134
74.52549 119
74.5456 120
74.56571 111
74.58583 127
74.60594 129
74.62606 119
74.64617 140
74.66628 98
74.6864 109
74.70651 126
74.72662 128
74.74674 128
74.76685 139
74.78697 120
74.80708 107
74.82719 158
74.84731 131
74.86742 164
74.88753 147
74.90765 127
74.92776 143
74.94787 132
74.96799 116
74.9881 113
75.00822 121
