3.00117 21700
3.02128 21737
3.0414 20541
3.06151 20186
3.08162 19678
3.10174 18731
3.12185 18788
3.14197 18089
3.16208 17239
3.18219 17322
3.20231 16258
3.22242 16286
3.24253 15679
3.26265 15254
3.28276 14705
3.30288 14136
3.32299 14097
3.3431 13367
3.36322 13027
3.38333 12679
3.40344 11889
3.42356 11838
3.44367 11487
3.46379 10901
3.4839 10827
3.50401 10043
3.52413 10181
3.54424 9725
3.56435 9340
3.58447 9172
3.60458 8771
3.62469 8466
3.64481 8079
3.66492 7928
3.68504 7584
3.70515 7123
3.72526 7122
3.74538 6727
3.76549 6392
3.7856 6228
3.80572 5951
3.82583 5986
3.84595 5739
3.86606 5378
3.88617 5215
3.90629 4929
3.9264 4888
3.94651 4536
3.96663 4345
3.98674 4294
4.00686 4041
4.02697 4054
4.04708 3781
4.0672 3583
4.08731 3505
4.10742 3385
4.12754 3230
4.14765 3207
4.16776 2902
4.18788 2944
4.20799 2762
4.22811 2719
4.24822 2622
4.26833 2679
4.28845 2450
4.30856 2450
4.32867 2289
4.34879 2356
4.3689 2134
4.38902 2216
4.40913 2230
4.42924 2174
4.44936 2150
4.46947 1941
4.48958 1930
4.5097 2015
4.52981 1934
4.54992 1959
4.57004 1854
4.59015 1778
4.61027 1858
4.63038 1802
4.65049 1915
4.67061 1690
4.69072 1774
4.71083 1635
4.73095 1689
4.75106 1681
4.77118 1515
4.79129 1645
4.8114 1608
4.83152 1583
4.85163 1587
4.87174 1492
4.89186 1569
4.91197 1531
4.93209 1589
4.9522 1582
4.97231 1495
4.99243 1472
5.01254 1404
5.03265 1432
5.05277 1427
5.07288 1431
5.09299 1366
5.11311 1422
5.13322 1335
5.15334 1433
5.17345 1355
5.19356 1424
5.21368 1414
5.23379 1327
5.2539 1363
5.27402 1241
5.29413 1279
5.31425 1403
5.33436 1304
5.35447 1259
5.37459 1299
5.3947 1309
5.41481 1301
5.43493 1327
5.45504 1202
5.47516 1226
5.49527 1282
5.51538 1223
5.5355 1261
5.55561 1269
5.57572 1232
5.59584 1197
5.61595 1291
5.63606 1211
5.65618 1223
5.67629 1151
5.69641 1224
5.71652 1188
5.73663 1187
5.75675 1176
5.77686 1133
5.79697 1188
5.81709 1185
5.8372 1102
5.85732 1096
5.87743 1162
5.89754 1167
5.91766 1049
5.93777 1077
5.95788 1070
5.978 1069
5.99811 1043
6.01823 1038
6.03834 1096
6.05845 960
6.07857 1022
6.09868 1000
6.11879 1025
6.13891 903
6.15902 942
6.17913 919
6.19925 920
6.21936 952
6.23948 922
6.25959 925
6.2797 872
6.29982 895
6.31993 870
6.34004 909
6.36016 883
6.38027 848
6.40039 877
6.4205 821
6.44061 826
6.46073 758
6.48084 789
6.50095 813
6.52107 756
6.54118 751
6.56129 755
6.58141 764
6.60152 722
6.62164 748
6.64175 734
6.66186 695
6.68198 694
6.70209 721
6.7222 688
6.74232 693
6.76243 642
6.78255 629
6.80266 625
6.82277 625
6.84289 600
6.863 628
6.88311 609
6.90323 601
6.92334 555
6.94346 575
6.96357 653
6.98368 593
7.0038 561
7.02391 581
7.04402 586
7.06414 562
7.08425 563
7.10436 555
7.12448 551
7.14459 582
7.16471 569
7.18482 526
7.20493 576
7.22505 544
7.24516 504
7.26527 528
7.28539 502
7.3055 556
7.32562 490
7.34573 466
7.36584 498
7.38596 464
7.40607 505
7.42618 499
7.4463 491
7.46641 471
7.48653 517
7.50664 462
7.52675 445
7.54687 479
7.56698 463
7.58709 463
7.60721 485
7.62732 472
7.64743 458
7.66755 461
7.68766 457
7.70778 486
7.72789 458
7.748 450
7.76812 415
7.78823 415
7.80834 424
7.82846 423
7.84857 440
7.86869 462
7.8888 439
7.90891 462
7.92903 434
7.94914 423
7.96925 400
7.98937 414
8.00948 427
8.0296 456
8.04971 422
8.06982 448
8.08994 408
8.11005 450
8.13016 429
8.15028 414
8.17039 421
8.1905 390
8.21062 424
8.23073 370
8.25085 404
8.27096 379
8.29107 409
8.31119 372
8.3313 386
8.35141 398
8.37153 375
8.39164 404
8.41176 402
8.43187 361
8.45198 386
8.4721 365
8.49221 362
8.51232 369
8.53244 388
8.55255 337
8.57266 354
8.59278 370
8.61289 380
8.63301 390
8.65312 341
8.67323 414
8.69335 369
8.71346 385
8.73357 357
8.75369 371
8.7738 359
8.79392 393
8.81403 372
8.83414 393
8.85426 350
8.87437 347
8.89448 331
8.9146 323
8.93471 364
8.95483 335
8.97494 311
8.99505 305
9.01517 345
9.03528 335
9.05539 292
9.07551 341
9.09562 326
9.11573 348
9.13585 336
9.15596 367
9.17608 369
9.19619 303
9.2163 328
9.23642 375
9.25653 304
9.27664 328
9.29676 317
9.31687 348
9.33699 307
9.3571 310
9.37721 369
9.39733 324
9.41744 309
9.43755 321
9.45767 331
9.47778 308
9.4979 305
9.51801 332
9.53812 353
9.55824 339
9.57835 339
9.59846 329
9.61858 317
9.63869 318
9.6588 315
9.67892 290
9.69903 325
9.71915 336
9.73926 305
9.75937 319
9.77949 324
9.7996 288
9.81971 295
9.83983 325
9.85994 321
9.88006 303
9.90017 368
9.92028 320
9.9404 329
9.96051 295
9.98062 327
10.00074 271
10.02085 360
10.04097 326
10.06108 287
10.08119 320
10.10131 256
10.12142 277
10.14153 298
10.16165 307
10.18176 301
10.20187 311
10.22199 281
10.2421 302
10.26222 299
10.28233 269
10.30244 339
10.32256 300
10.34267 297
10.36278 286
10.3829 298
10.40301 298
10.42313 286
10.44324 321
10.46335 326
10.48347 312
10.50358 353
10.52369 318
10.54381 311
10.56392 316
10.58403 294
10.60415 295
10.62426 302
10.64438 289
10.66449 304
10.6846 322
10.70472 301
10.72483 290
10.74494 272
10.76506 322
10.78517 273
10.80529 278
10.8254 277
10.84551 290
10.86563 283
10.88574 273
10.90585 263
10.92597 259
10.94608 269
10.9662 323
10.98631 274
11.00642 291
11.02654 299
11.04665 283
11.06676 282
11.08688 299
11.10699 259
11.1271 281
11.14722 287
11.16733 284
11.18745 286
11.20756 269
11.22767 272
11.24779 284
11.2679 303
11.28801 282
11.30813 268
11.32824 264
11.34836 323
11.36847 279
11.38858 305
11.4087 289
11.42881 293
11.44892 268
11.46904 296
11.48915 278
11.50927 303
11.52938 299
11.54949 273
11.56961 332
11.58972 286
11.60983 278
11.62995 250
11.65006 273
11.67017 287
11.69029 281
11.7104 291
11.73052 282
11.75063 264
11.77074 296
11.79086 295
11.81097 280
11.83108 321
11.8512 312
11.87131 266
11.89143 257
11.91154 278
11.93165 306
11.95177 276
11.97188 294
11.99199 351
12.01211 279
12.03222 304
12.05234 299
12.07245 334
12.09256 303
12.11268 324
12.13279 289
12.1529 321
12.17302 319
12.19313 337
12.21324 317
12.23336 339
12.25347 315
12.27359 349
12.2937 358
12.31381 356
12.33393 328
12.35404 354
12.37415 342
12.39427 303
12.41438 259
12.4345 314
12.45461 300
12.47472 316
12.49484 270
12.51495 299
12.53506 299
12.55518 285
12.57529 272
12.5954 281
12.61552 289
12.63563 283
12.65575 285
12.67586 251
12.69597 278
12.71609 299
12.7362 290
12.75631 299
12.77643 290
12.79654 262
12.81666 280
12.83677 285
12.85688 276
12.877 288
12.89711 266
12.91722 278
12.93734 309
12.95745 273
12.97757 233
12.99768 272
13.01779 305
13.03791 280
13.05802 262
13.07813 238
13.09825 268
13.11836 260
13.13847 277
13.15859 282
13.1787 250
13.19882 298
13.21893 218
13.23904 286
13.25916 297
13.27927 251
13.29938 294
13.3195 263
13.33961 268
13.35973 309
13.37984 252
13.39995 282
13.42007 249
13.44018 275
13.46029 273
13.48041 247
13.50052 270
13.52064 294
13.54075 233
13.56086 251
13.58098 275
13.60109 252
13.6212 268
13.64132 234
13.66143 273
13.68154 268
13.70166 280
13.72177 266
13.74189 270
13.762 263
13.78211 266
13.80223 254
13.82234 258
13.84245 251
13.86257 286
13.88268 253
13.9028 254
13.92291 236
13.94302 243
13.96314 274
13.98325 305
14.00336 269
14.02348 266
14.04359 268
14.06371 287
14.08382 254
14.10393 235
14.12405 253
14.14416 267
14.16427 245
14.18439 241
14.2045 252
14.22461 259
14.24473 229
14.26484 232
14.28496 283
14.30507 256
14.32518 284
14.3453 284
14.36541 236
14.38552 244
14.40564 276
14.42575 250
14.44587 228
14.46598 246
14.48609 252
14.50621 261
14.52632 267
14.54643 279
14.56655 260
14.58666 248
14.60677 251
14.62689 278
14.647 239
14.66712 230
14.68723 257
14.70734 242
14.72746 284
14.74757 243
14.76768 249
14.7878 274
14.80791 252
14.82803 250
14.84814 223
14.86825 285
14.88837 264
14.90848 222
14.92859 262
14.94871 281
14.96882 251
14.98894 233
15.00905 262
15.02916 264
15.04928 256
15.06939 256
15.0895 249
15.10962 232
15.12973 250
15.14984 279
15.16996 231
15.19007 243
15.21019 250
15.2303 212
15.25041 257
15.27053 241
15.29064 236
15.31075 238
15.33087 251
15.35098 215
15.3711 261
15.39121 251
15.41132 264
15.43144 239
15.45155 251
15.47166 277
15.49178 220
15.51189 241
15.53201 253
15.55212 243
15.57223 251
15.59235 247
15.61246 253
15.63257 260
15.65269 247
15.6728 253
15.69291 264
15.71303 271
15.73314 220
15.75326 260
15.77337 266
15.79348 242
15.8136 286
15.83371 246
15.85382 213
15.87394 222
15.89405 267
15.91417 264
15.93428 241
15.95439 252
15.97451 242
15.99462 219
16.01473 265
16.03485 213
16.05496 253
16.07508 262
16.09519 270
16.1153 251
16.13542 288
16.15553 234
16.17564 266
16.19576 241
16.21587 222
16.23598 252
16.2561 284
16.27621 255
16.29633 243
16.31644 217
16.33655 278
16.35667 243
16.37678 263
16.39689 255
16.41701 266
16.43712 242
16.45724 244
16.47735 250
16.49746 248
16.51758 257
16.53769 269
16.5578 292
16.57792 259
16.59803 248
16.61814 245
16.63826 307
16.65837 267
16.67849 271
16.6986 245
16.71871 263
16.73883 252
16.75894 231
16.77905 265
16.79917 259
16.81928 266
16.8394 275
16.85951 249
16.87962 257
16.89974 272
16.91985 250
16.93996 245
16.96008 274
16.98019 265
17.00031 268
17.02042 293
17.04053 261
17.06065 282
17.08076 264
17.10087 282
17.12099 254
17.1411 268
17.16121 256
17.18133 263
17.20144 257
17.22156 255
17.24167 236
17.26178 259
17.2819 270
17.30201 277
17.32212 254
17.34224 250
17.36235 258
17.38247 261
17.40258 274
17.42269 256
17.44281 290
17.46292 257
17.48303 271
17.50315 267
17.52326 246
17.54338 274
17.56349 270
17.5836 278
17.60372 278
17.62383 256
17.64394 266
17.66406 265
17.68417 252
17.70428 300
17.7244 280
17.74451 266
17.76463 267
17.78474 235
17.80485 274
17.82497 245
17.84508 254
17.86519 257
17.88531 247
17.90542 276
17.92554 281
17.94565 273
17.96576 275
17.98588 263
18.00599 250
18.0261 264
18.04622 256
18.06633 252
18.08645 281
18.10656 273
18.12667 272
18.14679 255
18.1669 290
18.18701 259
18.20713 249
18.22724 232
18.24735 263
18.26747 241
18.28758 241
18.3077 251
18.32781 278
18.34792 296
18.36804 263
18.38815 258
18.40826 249
18.42838 277
18.44849 264
18.46861 260
18.48872 243
18.50883 265
18.52895 256
18.54906 239
18.56917 277
18.58929 255
18.6094 235
18.62951 265
18.64963 249
18.66974 272
18.68986 292
18.70997 278
18.73008 256
18.7502 255
18.77031 246
18.79042 280
18.81054 251
18.83065 266
18.85077 269
18.87088 298
18.89099 281
18.91111 278
18.93122 252
18.95133 280
18.97145 271
18.99156 242
19.01168 291
19.03179 254
19.0519 277
19.07202 261
19.09213 254
19.11224 255
19.13236 250
19.15247 311
19.17258 336
19.1927 358
19.21281 291
19.23293 305
19.25304 327
19.27315 360
19.29327 310
19.31338 364
19.33349 340
19.35361 358
19.37372 357
19.39384 370
19.41395 408
19.43406 420
19.45418 475
19.47429 430
19.4944 449
19.51452 524
19.53463 506
19.55475 566
19.57486 568
19.59497 594
19.61509 675
19.6352 724
19.65531 714
19.67543 760
19.69554 744
19.71565 819
19.73577 808
19.75588 809
19.776 817
19.79611 817
19.81622 790
19.83634 803
19.85645 765
19.87656 701
19.89668 782
19.91679 665
19.93691 717
19.95702 692
19.97713 684
19.99725 704
20.01736 633
20.03747 648
20.05759 680
20.0777 651
20.09782 614
20.11793 556
20.13804 624
20.15816 574
20.17827 596
20.19838 615
20.2185 557
20.23861 628
20.25872 611
20.27884 574
20.29895 594
20.31907 605
20.33918 560
20.35929 587
20.37941 561
20.39952 563
20.41963 576
20.43975 593
20.45986 578
20.47998 563
20.50009 603
20.5202 660
20.54032 666
20.56043 654
20.58054 704
20.60066 731
20.62077 851
20.64088 947
20.661 1176
20.68111 1488
20.70123 1870
20.72134 2406
20.74145 3123
20.76157 3714
20.78168 4416
20.80179 4839
20.82191 4885
20.84202 4728
20.86214 4186
20.88225 3172
20.90236 2336
20.92248 1685
20.94259 1194
20.9627 882
20.98282 727
21.00293 658
21.02305 608
21.04316 604
21.06327 567
21.08339 527
21.1035 509
21.12361 475
21.14373 446
21.16384 501
21.18395 480
21.20407 455
21.22418 452
21.2443 467
21.26441 443
21.28452 411
21.30464 496
21.32475 456
21.34486 454
21.36498 422
21.38509 440
21.40521 405
21.42532 461
21.44543 430
21.46555 425
21.48566 421
21.50577 424
21.52589 421
21.546 407
21.56612 427
21.58623 405
21.60634 397
21.62646 413
21.64657 432
21.66668 422
21.6868 371
21.70691 388
21.72702 419
21.74714 386
21.76725 408
21.78737 389
21.80748 459
21.82759 373
21.84771 438
21.86782 421
21.88793 416
21.90805 396
21.92816 435
21.94828 436
21.96839 426
21.9885 430
22.00862 440
22.02873 453
22.04884 394
22.06896 373
22.08907 410
22.10919 362
22.1293 370
22.14941 372
22.16953 371
22.18964 349
22.20975 370
22.22987 320
22.24998 375
22.27009 351
22.29021 377
22.31032 334
22.33044 394
22.35055 390
22.37066 379
22.39078 377
22.41089 354
22.431 389
22.45112 353
22.47123 357
22.49135 397
22.51146 390
22.53157 345
22.55169 354
22.5718 414
22.59191 377
22.61203 382
22.63214 349
22.65225 360
22.67237 368
22.69248 374
22.7126 378
22.73271 363
22.75282 350
22.77294 366
22.79305 343
22.81316 384
22.83328 328
22.85339 382
22.87351 376
22.89362 377
22.91373 384
22.93385 380
22.95396 390
22.97407 365
22.99419 373
23.0143 400
23.03442 357
23.05453 377
23.07464 389
23.09476 404
23.11487 335
23.13498 396
23.1551 389
23.17521 383
23.19532 344
23.21544 354
23.23555 330
23.25567 343
23.27578 358
23.29589 391
23.31601 362
23.33612 373
23.35623 345
23.37635 394
23.39646 375
23.41658 371
23.43669 340
23.4568 375
23.47692 397
23.49703 385
23.51714 398
23.53726 384
23.55737 360
23.57749 372
23.5976 374
23.61771 355
23.63783 372
23.65794 374
23.67805 363
23.69817 371
23.71828 379
23.73839 379
23.75851 387
23.77862 374
23.79874 380
23.81885 395
23.83896 380
23.85908 343
23.87919 403
23.8993 393
23.91942 400
23.93953 412
23.95965 418
23.97976 460
23.99987 383
24.01999 420
24.0401 420
24.06021 367
24.08033 374
24.10044 386
24.12056 385
24.14067 362
24.16078 401
24.1809 331
24.20101 379
24.22112 337
24.24124 396
24.26135 410
24.28146 360
24.30158 375
24.32169 371
24.34181 365
24.36192 363
24.38203 379
24.40215 374
24.42226 346
24.44237 353
24.46249 380
24.4826 371
24.50272 346
24.52283 368
24.54294 377
24.56306 383
24.58317 397
24.60328 383
24.6234 366
24.64351 384
24.66362 352
24.68374 362
24.70385 369
24.72397 413
24.74408 396
24.76419 426
24.78431 407
24.80442 413
24.82453 412
24.84465 382
24.86476 432
24.88488 368
24.90499 411
24.9251 354
24.94522 443
24.96533 365
24.98544 384
25.00556 388
25.02567 368
25.04579 383
25.0659 348
25.08601 409
25.10613 368
25.12624 397
25.14635 374
25.16647 415
25.18658 390
25.20669 412
25.22681 417
25.24692 395
25.26704 409
25.28715 428
25.30726 410
25.32738 371
25.34749 385
25.3676 435
25.38772 389
25.40783 400
25.42795 380
25.44806 395
25.46817 355
25.48829 438
25.5084 404
25.52851 398
25.54863 456
25.56874 412
25.58886 432
25.60897 462
25.62908 461
25.6492 493
25.66931 447
25.68942 448
25.70954 465
25.72965 475
25.74976 477
25.76988 442
25.78999 530
25.81011 487
25.83022 501
25.85033 512
25.87045 527
25.89056 512
25.91067 506
25.93079 508
25.9509 544
25.97102 553
25.99113 574
26.01124 571
26.03136 576
26.05147 605
26.07158 604
26.0917 648
26.11181 611
26.13193 730
26.15204 759
26.17215 799
26.19227 793
26.21238 847
26.23249 921
26.25261 996
26.27272 1030
26.29283 1166
26.31295 1297
26.33306 1530
26.35318 1850
26.37329 2192
26.3934 2795
26.41352 3586
26.43363 4542
26.45374 5920
26.47386 7779
26.49397 10106
26.51409 12659
26.5342 15623
26.55431 18382
26.57443 19932
26.59454 20446
26.61465 19876
26.63477 17536
26.65488 14280
26.67499 10759
26.69511 7840
26.71522 5527
26.73534 3382
26.75545 2262
26.77556 1592
26.79568 1288
26.81579 1142
26.8359 993
26.85602 1005
26.87613 962
26.89625 893
26.91636 811
26.93647 794
26.95659 711
26.9767 729
26.99681 670
27.01693 637
27.03704 578
27.05716 537
27.07727 601
27.09738 605
27.1175 529
27.13761 567
27.15772 502
27.17784 514
27.19795 478
27.21806 497
27.23818 499
27.25829 469
27.27841 504
27.29852 467
27.31863 509
27.33875 504
27.35886 501
27.37897 486
27.39909 487
27.4192 508
27.43932 506
27.45943 521
27.47954 467
27.49966 516
27.51977 504
27.53988 529
27.56 487
27.58011 457
27.60023 504
27.62034 489
27.64045 541
27.66057 528
27.68068 529
27.70079 538
27.72091 573
27.74102 520
27.76113 564
27.78125 503
27.80136 515
27.82148 516
27.84159 563
27.8617 532
27.88182 532
27.90193 569
27.92204 494
27.94216 537
27.96227 501
27.98239 481
28.0025 440
28.02261 474
28.04273 409
28.06284 447
28.08295 436
28.10307 381
28.12318 398
28.1433 392
28.16341 425
28.18352 433
28.20364 434
28.22375 452
28.24386 409
28.26398 394
28.28409 421
28.3042 421
28.32432 432
28.34443 421
28.36455 377
28.38466 413
28.40477 384
28.42489 369
28.445 351
28.46511 375
28.48523 372
28.50534 395
28.52546 377
28.54557 316
28.56568 365
28.5858 380
28.60591 384
28.62602 351
28.64614 403
28.66625 367
28.68636 341
28.70648 386
28.72659 367
28.74671 405
28.76682 385
28.78693 344
28.80705 400
28.82716 399
28.84727 382
28.86739 379
28.8875 410
28.90762 362
28.92773 404
28.94784 365
28.96796 347
28.98807 367
29.00818 335
29.0283 384
29.04841 344
29.06853 348
29.08864 375
29.10875 352
29.12887 370
29.14898 359
29.16909 352
29.18921 366
29.20932 344
29.22943 365
29.24955 351
29.26966 371
29.28978 382
29.30989 339
29.33 330
29.35012 352
29.37023 365
29.39034 358
29.41046 409
29.43057 352
29.45069 366
29.4708 365
29.49091 330
29.51103 335
29.53114 365
29.55125 339
29.57137 351
29.59148 347
29.6116 379
29.63171 349
29.65182 368
29.67194 375
29.69205 336
29.71216 385
29.73228 358
29.75239 378
29.7725 349
29.79262 374
29.81273 335
29.83285 360
29.85296 345
29.87307 363
29.89319 356
29.9133 352
29.93341 355
29.95353 379
29.97364 322
29.99376 368
30.01387 315
30.03398 304
30.0541 363
30.07421 342
30.09432 326
30.11444 321
30.13455 340
30.15467 322
30.17478 372
30.19489 360
30.21501 360
30.23512 359
30.25523 374
30.27535 365
30.29546 334
30.31557 322
30.33569 331
30.3558 336
30.37592 386
30.39603 344
30.41614 368
30.43626 340
30.45637 347
30.47648 327
30.4966 357
30.51671 337
30.53683 343
30.55694 314
30.57705 330
30.59717 309
30.61728 328
30.63739 330
30.65751 325
30.67762 359
30.69773 337
30.71785 340
30.73796 344
30.75808 366
30.77819 319
30.7983 341
30.81842 320
30.83853 328
30.85864 314
30.87876 305
30.89887 330
30.91899 323
30.9391 339
30.95921 358
30.97933 321
30.99944 288
31.01955 310
31.03967 304
31.05978 306
31.0799 327
31.10001 293
31.12012 336
31.14024 302
31.16035 289
31.18046 327
31.20058 291
31.22069 349
31.2408 344
31.26092 312
31.28103 321
31.30115 339
31.32126 324
31.34137 309
31.36149 290
31.3816 319
31.40171 315
31.42183 302
31.44194 293
31.46206 304
31.48217 313
31.50228 294
31.5224 284
31.54251 311
31.56262 274
31.58274 259
31.60285 284
31.62297 262
31.64308 308
31.66319 303
31.68331 283
31.70342 278
31.72353 304
31.74365 312
31.76376 270
31.78387 310
31.80399 258
31.8241 314
31.84422 289
31.86433 311
31.88444 321
31.90456 262
31.92467 266
31.94478 289
31.9649 300
31.98501 274
32.00513 296
32.02524 302
32.04535 289
32.06547 297
32.08558 292
32.10569 317
32.12581 299
32.14592 287
32.16604 300
32.18615 286
32.20626 295
32.22638 314
32.24649 292
32.2666 290
32.28672 286
32.30683 275
32.32694 299
32.34706 273
32.36717 287
32.38729 297
32.4074 266
32.42751 335
32.44763 290
32.46774 288
32.48785 318
32.50797 276
32.52808 262
32.5482 286
32.56831 297
32.58842 273
32.60854 298
32.62865 294
32.64876 307
32.66888 298
32.68899 304
32.7091 257
32.72922 266
32.74933 258
32.76945 298
32.78956 284
32.80967 275
32.82979 264
32.8499 274
32.87001 254
32.89013 304
32.91024 268
32.93036 293
32.95047 279
32.97058 263
32.9907 285
33.01081 287
33.03092 255
33.05104 273
33.07115 219
33.09127 251
33.11138 253
33.13149 271
33.15161 256
33.17172 286
33.19183 295
33.21195 249
33.23206 266
33.25217 283
33.27229 274
33.2924 242
33.31252 261
33.33263 278
33.35274 219
33.37286 288
33.39297 270
33.41308 262
33.4332 246
33.45331 274
33.47343 256
33.49354 261
33.51365 292
33.53377 303
33.55388 240
33.57399 300
33.59411 272
33.61422 260
33.63434 288
33.65445 259
33.67456 271
33.69468 250
33.71479 275
33.7349 283
33.75502 269
33.77513 251
33.79524 281
33.81536 267
33.83547 276
33.85559 262
33.8757 273
33.89581 268
33.91593 315
33.93604 314
33.95615 283
33.97627 283
33.99638 319
34.0165 276
34.03661 280
34.05672 259
34.07684 262
34.09695 281
34.11706 305
34.13718 311
34.15729 324
34.17741 297
34.19752 316
34.21763 310
34.23775 318
34.25786 327
34.27797 327
34.29809 347
34.3182 334
34.33831 353
34.35843 385
34.37854 337
34.39866 385
34.41877 369
34.43888 395
34.459 392
34.47911 432
34.49922 409
34.51934 451
34.53945 427
34.55957 455
34.57968 436
34.59979 413
34.61991 476
34.64002 476
34.66013 484
34.68025 493
34.70036 474
34.72047 460
34.74059 465
34.7607 529
34.78082 478
34.80093 513
34.82104 441
34.84116 533
34.86127 510
34.88138 487
34.9015 470
34.92161 546
34.94173 489
34.96184 489
34.98195 457
35.00207 482
35.02218 472
35.04229 458
35.06241 485
35.08252 465
35.10264 464
35.12275 443
35.14286 452
35.16298 469
35.18309 464
35.2032 483
35.22332 460
35.24343 428
35.26354 469
35.28366 460
35.30377 446
35.32389 468
35.344 446
35.36411 427
35.38423 442
35.40434 431
35.42445 397
35.44457 418
35.46468 437
35.4848 403
35.50491 419
35.52502 399
35.54514 432
35.56525 457
35.58536 452
35.60548 395
35.62559 417
35.64571 431
35.66582 376
35.68593 396
35.70605 385
35.72616 377
35.74627 415
35.76639 362
35.7865 419
35.80661 385
35.82673 397
35.84684 377
35.86696 375
35.88707 392
35.90718 386
35.9273 439
35.94741 370
35.96752 370
35.98764 397
36.00775 408
36.02787 393
36.04798 381
36.06809 384
36.08821 400
36.10832 447
36.12843 435
36.14855 415
36.16866 445
36.18878 419
36.20889 442
36.229 531
36.24912 474
36.26923 583
36.28934 605
36.30946 652
36.32957 747
36.34968 833
36.3698 966
36.38991 1067
36.41003 1220
36.43014 1310
36.45025 1604
36.47037 1538
36.49048 1661
36.51059 1600
36.53071 1451
36.55082 1267
36.57094 1093
36.59105 957
36.61116 846
36.63128 711
36.65139 590
36.6715 494
36.69162 434
36.71173 446
36.73184 401
36.75196 411
36.77207 375
36.79219 386
36.8123 412
36.83241 393
36.85253 351
36.87264 369
36.89275 378
36.91287 379
36.93298 355
36.9531 364
36.97321 402
36.99332 361
37.01344 370
37.03355 361
37.05366 344
37.07378 372
37.09389 325
37.11401 340
37.13412 345
37.15423 325
37.17435 331
37.19446 339
37.21457 327
37.23469 329
37.2548 333
37.27491 293
37.29503 336
37.31514 334
37.33526 337
37.35537 318
37.37548 360
37.3956 365
37.41571 312
37.43582 333
37.45594 362
37.47605 348
37.49617 368
37.51628 366
37.53639 341
37.55651 365
37.57662 343
37.59673 362
37.61685 313
37.63696 381
37.65708 368
37.67719 368
37.6973 354
37.71742 353
37.73753 361
37.75764 347
37.77776 359
37.79787 287
37.81798 323
37.8381 327
37.85821 320
37.87833 351
37.89844 348
37.91855 311
37.93867 326
37.95878 324
37.97889 333
37.99901 319
38.01912 326
38.03924 312
38.05935 306
38.07946 378
38.09958 298
38.11969 326
38.1398 337
38.15992 315
38.18003 350
38.20015 351
38.22026 340
38.24037 333
38.26049 315
38.2806 314
38.30071 355
38.32083 334
38.34094 304
38.36105 328
38.38117 329
38.40128 332
38.4214 326
38.44151 328
38.46162 335
38.48174 344
38.50185 349
38.52196 355
38.54208 340
38.56219 332
38.58231 326
38.60242 305
38.62253 350
38.64265 316
38.66276 346
38.68287 289
38.70299 323
38.7231 331
38.74321 314
38.76333 332
38.78344 317
38.80356 326
38.82367 328
38.84378 354
38.8639 315
38.88401 297
38.90412 336
38.92424 302
38.94435 322
38.96447 287
38.98458 334
39.00469 349
39.02481 331
39.04492 393
39.06503 357
39.08515 344
39.10526 381
39.12538 389
39.14549 443
39.1656 436
39.18572 461
39.20583 503
39.22594 557
39.24606 602
39.26617 739
39.28628 860
39.3064 897
39.32651 1146
39.34663 1242
39.36674 1336
39.38685 1442
39.40697 1506
39.42708 1454
39.44719 1337
39.46731 1187
39.48742 1121
39.50754 949
39.52765 829
39.54776 715
39.56788 635
39.58799 477
39.6081 438
39.62822 374
39.64833 367
39.66845 372
39.68856 368
39.70867 348
39.72879 331
39.7489 308
39.76901 390
39.78913 333
39.80924 314
39.82935 338
39.84947 341
39.86958 370
39.8897 345
39.90981 375
39.92992 353
39.95004 355
39.97015 387
39.99026 355
40.01038 379
40.03049 439
40.05061 415
40.07072 486
40.09083 537
40.11095 575
40.13106 630
40.15117 671
40.17129 714
40.1914 820
40.21152 837
40.23163 889
40.25174 852
40.27186 837
40.29197 732
40.31208 638
40.3322 589
40.35231 561
40.37242 526
40.39254 425
40.41265 392
40.43277 357
40.45288 362
40.47299 285
40.49311 321
40.51322 294
40.53333 289
40.55345 313
40.57356 292
40.59368 321
40.61379 298
40.6339 282
40.65402 287
40.67413 339
40.69424 299
40.71436 296
40.73447 327
40.75458 277
40.7747 320
40.79481 318
40.81493 296
40.83504 300
40.85515 300
40.87527 313
40.89538 307
40.91549 318
40.93561 307
40.95572 301
40.97584 268
40.99595 284
41.01606 304
41.03618 320
41.05629 308
41.0764 285
41.09652 343
41.11663 340
41.13675 279
41.15686 290
41.17697 311
41.19709 329
41.2172 295
41.23731 289
41.25743 288
41.27754 302
41.29765 319
41.31777 294
41.33788 272
41.358 274
41.37811 296
41.39822 309
41.41834 315
41.43845 274
41.45856 298
41.47868 307
41.49879 302
41.51891 270
41.53902 332
41.55913 298
41.57925 308
41.59936 287
41.61947 291
41.63959 305
41.6597 313
41.67982 282
41.69993 284
41.72004 310
41.74016 289
41.76027 284
41.78038 303
41.8005 279
41.82061 312
41.84072 281
41.86084 292
41.88095 294
41.90107 286
41.92118 288
41.94129 298
41.96141 297
41.98152 298
42.00163 289
42.02175 337
42.04186 314
42.06198 330
42.08209 364
42.1022 337
42.12232 353
42.14243 369
42.16254 450
42.18266 437
42.20277 476
42.22289 532
42.243 567
42.26311 664
42.28323 749
42.30334 821
42.32345 985
42.34357 1051
42.36368 1128
42.38379 1189
42.40391 1130
42.42402 1092
42.44414 1016
42.46425 920
42.48436 785
42.50448 692
42.52459 637
42.5447 528
42.56482 513
42.58493 443
42.60505 348
42.62516 387
42.64527 316
42.66539 309
42.6855 303
42.70561 301
42.72573 300
42.74584 296
42.76595 284
42.78607 289
42.80618 306
42.8263 302
42.84641 266
42.86652 308
42.88664 288
42.90675 269
42.92686 291
42.94698 287
42.96709 297
42.98721 265
43.00732 303
43.02743 299
43.04755 267
43.06766 263
43.08777 293
43.10789 282
43.128 244
43.14812 288
43.16823 271
43.18834 291
43.20846 267
43.22857 266
43.24868 250
43.2688 261
43.28891 263
43.30902 249
43.32914 272
43.34925 263
43.36937 211
43.38948 237
43.40959 262
43.42971 267
43.44982 241
43.46993 252
43.49005 256
43.51016 266
43.53028 271
43.55039 260
43.5705 264
43.59062 259
43.61073 252
43.63084 264
43.65096 273
43.67107 267
43.69119 244
43.7113 280
43.73141 279
43.75153 279
43.77164 257
43.79175 281
43.81187 261
43.83198 271
43.85209 266
43.87221 264
43.89232 246
43.91244 250
43.93255 261
43.95266 247
43.97278 269
43.99289 237
44.013 290
44.03312 237
44.05323 269
44.07335 261
44.09346 242
44.11357 260
44.13369 277
44.1538 248
44.17391 273
44.19403 268
44.21414 284
44.23426 239
44.25437 266
44.27448 244
44.2946 259
44.31471 252
44.33482 271
44.35494 267
44.37505 287
44.39516 227
44.41528 243
44.43539 243
44.45551 260
44.47562 245
44.49573 285
44.51585 240
44.53596 251
44.55607 266
44.57619 240
44.5963 282
44.61642 240
44.63653 263
44.65664 233
44.67676 234
44.69687 240
44.71698 257
44.7371 260
44.75721 234
44.77732 254
44.79744 285
44.81755 266
44.83767 245
44.85778 251
44.87789 234
44.89801 258
44.91812 252
44.93823 258
44.95835 303
44.97846 272
44.99858 251
45.01869 270
45.0388 260
45.05892 262
45.07903 248
45.09914 295
45.11926 261
45.13937 259
45.15949 255
45.1796 269
45.19971 275
45.21983 264
45.23994 265
45.26005 284
45.28017 273
45.30028 280
45.32039 282
45.34051 278
45.36062 295
45.38074 268
45.40085 293
45.42096 278
45.44108 298
45.46119 334
45.4813 330
45.50142 341
45.52153 386
45.54165 411
45.56176 424
45.58187 477
45.60199 494
45.6221 541
45.64221 592
45.66233 680
45.68244 723
45.70256 799
45.72267 796
45.74278 796
45.7629 790
45.78301 706
45.80312 658
45.82324 593
45.84335 530
45.86346 490
45.88358 446
45.90369 426
45.92381 344
45.94392 321
45.96403 325
45.98415 318
46.00426 265
46.02437 262
46.04449 269
46.0646 264
46.08472 273
46.10483 247
46.12494 254
46.14506 246
46.16517 255
46.18528 238
46.2054 272
46.22551 239
46.24563 244
46.26574 239
46.28585 275
46.30597 225
46.32608 255
46.34619 240
46.36631 265
46.38642 242
46.40653 236
46.42665 260
46.44676 268
46.46688 238
46.48699 261
46.5071 242
46.52722 243
46.54733 242
46.56744 254
46.58756 230
46.60767 246
46.62779 246
46.6479 215
46.66801 223
46.68813 221
46.70824 252
46.72835 214
46.74847 227
46.76858 216
46.78869 259
46.80881 257
46.82892 223
46.84904 211
46.86915 253
46.88926 206
46.90938 249
46.92949 229
46.9496 249
46.96972 228
46.98983 217
47.00995 215
47.03006 238
47.05017 216
47.07029 221
47.0904 240
47.11051 240
47.13063 225
47.15074 246
47.17086 238
47.19097 240
47.21108 216
47.2312 223
47.25131 237
47.27142 232
47.29154 222
47.31165 232
47.33176 240
47.35188 258
47.37199 236
47.39211 243
47.41222 253
47.43233 257
47.45245 222
47.47256 235
47.49267 230
47.51279 255
47.5329 234
47.55302 243
47.57313 244
47.59324 240
47.61336 254
47.63347 244
47.65358 244
47.6737 222
47.69381 285
47.71393 274
47.73404 256
47.75415 241
47.77427 217
47.79438 268
47.81449 227
47.83461 265
47.85472 216
47.87483 234
47.89495 228
47.91506 231
47.93518 257
47.95529 228
47.9754 242
47.99552 261
48.01563 211
48.03574 272
48.05586 258
48.07597 262
48.09609 265
48.1162 249
48.13631 226
48.15643 259
48.17654 241
48.19665 222
48.21677 218
48.23688 256
48.257 204
48.27711 249
48.29722 255
48.31734 237
48.33745 228
48.35756 251
48.37768 244
48.39779 254
48.4179 278
48.43802 259
48.45813 237
48.47825 257
48.49836 218
48.51847 248
48.53859 227
48.5587 264
48.57881 232
48.59893 232
48.61904 218
48.63916 236
48.65927 252
48.67938 236
48.6995 240
48.71961 260
48.73972 263
48.75984 235
48.77995 237
48.80006 267
48.82018 239
48.84029 226
48.86041 231
48.88052 228
48.90063 244
48.92075 242
48.94086 239
48.96097 255
48.98109 256
49.0012 243
49.02132 268
49.04143 238
49.06154 248
49.08166 245
49.10177 236
49.12188 245
49.142 237
49.16211 231
49.18223 234
49.20234 249
49.22245 260
49.24257 254
49.26268 236
49.28279 237
49.30291 266
49.32302 225
49.34313 244
49.36325 255
49.38336 226
49.40348 232
49.42359 264
49.4437 240
49.46382 272
49.48393 277
49.50404 253
49.52416 271
49.54427 251
49.56439 277
49.5845 261
49.60461 309
49.62473 273
49.64484 347
49.66495 299
49.68507 314
49.70518 346
49.7253 374
49.74541 415
49.76552 393
49.78564 424
49.80575 461
49.82586 536
49.84598 598
49.86609 695
49.8862 772
49.90632 891
49.92643 996
49.94655 1243
49.96666 1347
49.98677 1550
50.00689 1789
50.027 2055
50.04711 2213
50.06723 2326
50.08734 2220
50.10746 2157
50.12757 1816
50.14768 1546
50.1678 1427
50.18791 1347
50.20802 1176
50.22814 1104
50.24825 913
50.26837 718
50.28848 544
50.30859 454
50.32871 383
50.34882 348
50.36893 317
50.38905 324
50.40916 316
50.42927 286
50.44939 292
50.4695 319
50.48962 332
50.50973 302
50.52984 297
50.54996 281
50.57007 290
50.59018 295
50.6103 313
50.63041 264
50.65053 304
50.67064 265
50.69075 261
50.71087 256
50.73098 258
50.75109 244
50.77121 255
50.79132 236
50.81143 269
50.83155 262
50.85166 256
50.87178 239
50.89189 220
50.912 247
50.93212 221
50.95223 218
50.97234 267
50.99246 252
51.01257 223
51.03269 226
51.0528 265
51.07291 244
51.09303 226
51.11314 227
51.13325 233
51.15337 240
51.17348 227
51.1936 233
51.21371 252
51.23382 223
51.25394 247
51.27405 239
51.29416 227
51.31428 215
51.33439 227
51.3545 230
51.37462 226
51.39473 229
51.41485 185
51.43496 207
51.45507 219
51.47519 236
51.4953 229
51.51541 218
51.53553 204
51.55564 234
51.57576 219
51.59587 211
51.61598 220
51.6361 219
51.65621 209
51.67632 234
51.69644 216
51.71655 258
51.73667 219
51.75678 202
51.77689 235
51.79701 228
51.81712 199
51.83723 235
51.85735 212
51.87746 227
51.89757 230
51.91769 225
51.9378 225
51.95792 203
51.97803 228
51.99814 190
52.01826 220
52.03837 214
52.05848 216
52.0786 229
52.09871 243
52.11883 230
52.13894 213
52.15905 225
52.17917 194
52.19928 199
52.21939 205
52.23951 258
52.25962 216
52.27974 234
52.29985 235
52.31996 237
52.34008 201
52.36019 242
52.3803 244
52.40042 217
52.42053 230
52.44064 202
52.46076 230
52.48087 202
52.50099 229
52.5211 222
52.54121 245
52.56133 240
52.58144 214
52.60155 212
52.62167 229
52.64178 210
52.6619 234
52.68201 225
52.70212 242
52.72224 242
52.74235 216
52.76246 234
52.78258 231
52.80269 219
52.8228 258
52.84292 207
52.86303 226
52.88315 187
52.90326 227
52.92337 219
52.94349 239
52.9636 240
52.98371 234
53.00383 258
53.02394 212
53.04406 227
53.06417 250
53.08428 254
53.1044 249
53.12451 237
53.14462 256
53.16474 243
53.18485 248
53.20497 255
53.22508 235
53.24519 242
53.26531 255
53.28542 264
53.30553 269
53.32565 268
53.34576 263
53.36587 259
53.38599 255
53.4061 258
53.42622 233
53.44633 240
53.46644 265
53.48656 241
53.50667 260
53.52678 282
53.5469 248
53.56701 241
53.58713 252
53.60724 269
53.62735 267
53.64747 288
53.66758 274
53.68769 296
53.70781 258
53.72792 264
53.74804 256
53.76815 254
53.78826 279
53.80838 304
53.82849 275
53.8486 285
53.86872 253
53.88883 271
53.90894 287
53.92906 291
53.94917 274
53.96929 300
53.9894 272
54.00951 278
54.02963 278
54.04974 281
54.06985 267
54.08997 252
54.11008 284
54.1302 278
54.15031 249
54.17042 281
54.19054 291
54.21065 279
54.23076 301
54.25088 320
54.27099 307
54.29111 281
54.31122 286
54.33133 288
54.35145 288
54.37156 290
54.39167 300
54.41179 295
54.4319 314
54.45201 331
54.47213 322
54.49224 352
54.51236 361
54.53247 373
54.55258 366
54.5727 343
54.59281 369
54.61292 411
54.63304 467
54.65315 521
54.67327 537
54.69338 598
54.71349 660
54.73361 733
54.75372 832
54.77383 798
54.79395 902
54.81406 839
54.83417 804
54.85429 746
54.8744 674
54.89452 608
54.91463 622
54.93474 565
54.95486 571
54.97497 547
54.99508 535
55.0152 441
55.03531 444
55.05543 385
55.07554 387
55.09565 375
55.11577 394
55.13588 421
55.15599 452
55.17611 479
55.19622 493
55.21634 493
55.23645 492
55.25656 501
55.27668 468
55.29679 474
55.3169 441
55.33702 444
55.35713 413
55.37724 402
55.39736 388
55.41747 377
55.43759 394
55.4577 329
55.47781 334
55.49793 290
55.51804 288
55.53815 283
55.55827 297
55.57838 278
55.5985 272
55.61861 258
55.63872 278
55.65884 276
55.67895 232
55.69906 267
55.71918 288
55.73929 246
55.75941 242
55.77952 266
55.79963 245
55.81975 244
55.83986 266
55.85997 282
55.88009 246
55.9002 290
55.92031 264
55.94043 280
55.96054 276
55.98066 232
56.00077 263
56.02088 230
56.041 270
56.06111 242
56.08122 240
56.10134 241
56.12145 238
56.14157 238
56.16168 264
56.18179 245
56.20191 273
56.22202 229
56.24213 233
56.26225 291
56.28236 227
56.30248 240
56.32259 235
56.3427 238
56.36282 269
56.38293 266
56.40304 230
56.42316 249
56.44327 246
56.46338 276
56.4835 244
56.50361 238
56.52373 249
56.54384 241
56.56395 237
56.58407 233
56.60418 246
56.62429 255
56.64441 255
56.66452 248
56.68464 257
56.70475 205
56.72486 251
56.74498 266
56.76509 236
56.7852 253
56.80532 270
56.82543 254
56.84554 254
56.86566 215
56.88577 226
56.90589 258
56.926 237
56.94611 261
56.96623 245
56.98634 254
57.00645 284
57.02657 243
57.04668 267
57.0668 245
57.08691 252
57.10702 244
57.12714 247
57.14725 276
57.16736 266
57.18748 293
57.20759 291
57.22771 256
57.24782 263
57.26793 253
57.28805 272
57.30816 266
57.32827 245
57.34839 244
57.3685 220
57.38861 222
57.40873 222
57.42884 260
57.44896 223
57.46907 234
57.48918 245
57.5093 242
57.52941 236
57.54952 215
57.56964 229
57.58975 203
57.60987 238
57.62998 223
57.65009 231
57.67021 223
57.69032 252
57.71043 233
57.73055 231
57.75066 236
57.77078 226
57.79089 238
57.811 226
57.83112 227
57.85123 248
57.87134 249
57.89146 237
57.91157 201
57.93168 227
57.9518 227
57.97191 222
57.99203 208
58.01214 233
58.03225 210
58.05237 217
58.07248 229
58.09259 237
58.11271 232
58.13282 227
58.15294 260
58.17305 223
58.19316 265
58.21328 226
58.23339 241
58.2535 204
58.27362 253
58.29373 221
58.31385 228
58.33396 240
58.35407 238
58.37419 241
58.3943 245
58.41441 232
58.43453 240
58.45464 248
58.47475 250
58.49487 213
58.51498 247
58.5351 209
58.55521 221
58.57532 202
58.59544 231
58.61555 238
58.63566 228
58.65578 215
58.67589 233
58.69601 219
58.71612 232
58.73623 230
58.75635 231
58.77646 225
58.79657 241
58.81669 222
58.8368 231
58.85691 234
58.87703 229
58.89714 248
58.91726 213
58.93737 220
58.95748 229
58.9776 213
58.99771 244
59.01782 241
59.03794 222
59.05805 219
59.07817 221
59.09828 233
59.11839 269
59.13851 241
59.15862 270
59.17873 263
59.19885 250
59.21896 254
59.23908 272
59.25919 263
59.2793 231
59.29942 244
59.31953 251
59.33964 266
59.35976 275
59.37987 230
59.39998 265
59.4201 280
59.44021 271
59.46033 286
59.48044 299
59.50055 286
59.52067 325
59.54078 330
59.56089 349
59.58101 363
59.60112 409
59.62124 409
59.64135 459
59.66146 484
59.68158 561
59.70169 626
59.7218 700
59.74192 746
59.76203 849
59.78215 1034
59.80226 1107
59.82237 1227
59.84249 1311
59.8626 1429
59.88271 1389
59.90283 1407
59.92294 1279
59.94305 1144
59.96317 1096
59.98328 991
60.0034 877
60.02351 819
60.04362 816
60.06374 837
60.08385 734
60.10396 597
60.12408 474
60.14419 431
60.16431 365
60.18442 341
60.20453 316
60.22465 290
60.24476 292
60.26487 261
60.28499 244
60.3051 269
60.32522 239
60.34533 320
60.36544 273
60.38556 235
60.40567 231
60.42578 239
60.4459 258
60.46601 247
60.48612 231
60.50624 235
60.52635 244
60.54647 233
60.56658 260
60.58669 247
60.60681 236
60.62692 240
60.64703 252
60.66715 240
60.68726 234
60.70738 211
60.72749 214
60.7476 261
60.76772 250
60.78783 261
60.80794 220
60.82806 237
60.84817 256
60.86828 212
60.8884 252
60.90851 257
60.92863 236
60.94874 243
60.96885 262
60.98897 248
61.00908 255
61.02919 255
61.04931 250
61.06942 268
61.08954 278
61.10965 279
61.12976 265
61.14988 249
61.16999 269
61.1901 276
61.21022 278
61.23033 275
61.25045 297
61.27056 311
61.29067 301
61.31079 311
61.3309 295
61.35101 318
61.37113 324
61.39124 322
61.41135 334
61.43147 333
61.45158 292
61.4717 328
61.49181 331
61.51192 355
61.53204 322
61.55215 344
61.57226 371
61.59238 362
61.61249 309
61.63261 372
61.65272 352
61.67283 364
61.69295 388
61.71306 312
61.73317 351
61.75329 337
61.7734 314
61.79352 298
61.81363 314
61.83374 302
61.85386 315
61.87397 309
61.89408 330
61.9142 310
61.93431 317
61.95442 322
61.97454 323
61.99465 300
62.01477 303
62.03488 297
62.05499 299
62.07511 309
62.09522 313
62.11533 298
62.13545 319
62.15556 305
62.17568 294
62.19579 324
62.2159 309
62.23602 287
62.25613 299
62.27624 294
62.29636 273
62.31647 277
62.33659 254
62.3567 261
62.37681 279
62.39693 275
62.41704 269
62.43715 260
62.45727 251
62.47738 261
62.49749 265
62.51761 250
62.53772 239
62.55784 257
62.57795 207
62.59806 255
62.61818 264
62.63829 237
62.6584 257
62.67852 233
62.69863 253
62.71875 226
62.73886 242
62.75897 211
62.77909 259
62.7992 226
62.81931 228
62.83943 258
62.85954 233
62.87965 242
62.89977 227
62.91988 230
62.94 219
62.96011 255
62.98022 217
63.00034 213
63.02045 222
63.04056 228
63.06068 201
63.08079 239
63.10091 233
63.12102 204
63.14113 218
63.16125 222
63.18136 238
63.20147 246
63.22159 201
63.2417 235
63.26182 220
63.28193 222
63.30204 244
63.32216 234
63.34227 223
63.36238 223
63.3825 237
63.40261 233
63.42272 239
63.44284 220
63.46295 225
63.48307 248
63.50318 221
63.52329 226
63.54341 215
63.56352 254
63.58363 222
63.60375 240
63.62386 255
63.64398 256
63.66409 239
63.6842 231
63.70432 300
63.72443 261
63.74454 255
63.76466 298
63.78477 316
63.80489 317
63.825 338
63.84511 378
63.86523 335
63.88534 374
63.90545 423
63.92557 422
63.94568 453
63.96579 436
63.98591 420
64.00602 394
64.02614 387
64.04625 364
64.06636 326
64.08648 330
64.10659 313
64.1267 310
64.14682 322
64.16693 303
64.18705 282
64.20716 284
64.22727 262
64.24739 237
64.2675 246
64.28761 236
64.30773 226
64.32784 226
64.34796 220
64.36807 193
64.38818 205
64.4083 205
64.42841 209
64.44852 225
64.46864 217
64.48875 223
64.50886 206
64.52898 210
64.54909 233
64.56921 220
64.58932 229
64.60943 202
64.62955 195
64.64966 214
64.66977 220
64.68989 222
64.71 199
64.73012 208
64.75023 220
64.77034 196
64.79046 199
64.81057 195
64.83068 217
64.8508 217
64.87091 207
64.89102 207
64.91114 222
64.93125 204
64.95137 206
64.97148 227
64.99159 220
65.01171 224
65.03182 224
65.05193 213
65.07205 205
65.09216 189
65.11228 211
65.13239 214
65.1525 230
65.17262 219
65.19273 209
65.21284 195
65.23296 206
65.25307 222
65.27319 226
65.2933 200
65.31341 211
65.33353 247
65.35364 227
65.37375 226
65.39387 217
65.41398 211
65.43409 238
65.45421 216
65.47432 221
65.49444 224
65.51455 211
65.53466 244
65.55478 224
65.57489 261
65.595 254
65.61512 244
65.63523 234
65.65535 249
65.67546 287
65.69557 269
65.71569 267
65.7358 261
65.75591 284
65.77603 250
65.79614 248
65.81626 243
65.83637 210
65.85648 247
65.8766 239
65.89671 242
65.91682 240
65.93694 234
65.95705 229
65.97716 221
65.99728 219
66.01739 210
66.03751 215
66.05762 221
66.07773 230
66.09785 212
66.11796 191
66.13807 216
66.15819 195
66.1783 206
66.19842 223
66.21853 205
66.23864 209
66.25876 198
66.27887 205
66.29898 214
66.3191 196
66.33921 216
66.35933 217
66.37944 238
66.39955 197
66.41967 198
66.43978 209
66.45989 190
66.48001 218
66.50012 212
66.52023 228
66.54035 197
66.56046 227
66.58058 230
66.60069 222
66.6208 220
66.64092 238
66.66103 220
66.68114 224
66.70126 224
66.72137 211
66.74149 190
66.7616 198
66.78171 185
66.80183 211
66.82194 229
66.84205 226
66.86217 229
66.88228 228
66.90239 216
66.92251 228
66.94262 233
66.96274 226
66.98285 231
67.00296 225
67.02308 246
67.04319 243
67.0633 241
67.08342 238
67.10353 232
67.12365 220
67.14376 223
67.16387 224
67.18399 228
67.2041 242
67.22421 245
67.24433 247
67.26444 290
67.28456 298
67.30467 278
67.32478 273
67.3449 298
67.36501 297
67.38512 344
67.40524 339
67.42535 381
67.44546 392
67.46558 460
67.48569 466
67.50581 557
67.52592 550
67.54603 664
67.56615 669
67.58626 771
67.60637 832
67.62649 927
67.6466 975
67.66672 918
67.68683 882
67.70694 883
67.72706 827
67.74717 771
67.76728 695
67.7874 728
67.80751 728
67.82763 793
67.84774 791
67.86785 883
67.88797 809
67.90808 829
67.92819 857
67.94831 861
67.96842 944
67.98853 958
68.00865 1068
68.02876 1119
68.04888 1209
68.06899 1256
68.0891 1215
68.10922 1275
68.12933 1229
68.14944 1148
68.16956 1113
68.18967 1076
68.20979 1108
68.2299 1059
68.25001 1081
68.27013 1016
68.29024 917
68.31035 874
68.33047 696
68.35058 669
68.3707 615
68.39081 544
68.41092 506
68.43104 514
68.45115 462
68.47126 430
68.49138 361
68.51149 303
68.5316 278
68.55172 302
68.57183 265
68.59195 262
68.61206 257
68.63217 269
68.65229 265
68.6724 255
68.69251 222
68.71263 234
68.73274 245
68.75286 245
68.77297 242
68.79308 257
68.8132 242
68.83331 230
68.85342 224
68.87354 221
68.89365 208
68.91376 236
68.93388 244
68.95399 241
68.97411 212
68.99422 221
69.01433 249
69.03445 227
69.05456 200
69.07467 214
69.09479 195
69.1149 222
69.13502 194
69.15513 224
69.17524 202
69.19536 239
69.21547 252
69.23558 202
69.2557 190
69.27581 222
69.29593 206
69.31604 227
69.33615 234
69.35627 207
69.37638 210
69.39649 207
69.41661 235
69.43672 231
69.45683 209
69.47695 238
69.49706 225
69.51718 184
69.53729 208
69.5574 207
69.57752 212
69.59763 214
69.61774 202
69.63786 217
69.65797 175
69.67809 200
69.6982 210
69.71831 209
69.73843 228
69.75854 226
69.77865 209
69.79877 215
69.81888 221
69.839 204
69.85911 209
69.87922 208
69.89934 191
69.91945 204
69.93956 213
69.95968 200
69.97979 223
69.9999 227
70.02002 194
70.04013 231
70.06025 217
70.08036 204
70.10047 211
70.12059 202
70.1407 194
70.16081 201
70.18093 224
70.20104 179
70.22116 208
70.24127 181
70.26138 174
70.2815 198
70.30161 191
70.32172 194
70.34184 215
70.36195 208
70.38207 200
70.40218 202
70.42229 199
70.44241 240
70.46252 215
70.48263 215
70.50275 225
70.52286 196
70.54297 183
70.56309 198
70.5832 216
70.60332 214
70.62343 208
70.64354 209
70.66366 180
70.68377 179
70.70388 207
70.724 190
70.74411 196
70.76423 199
70.78434 216
70.80445 213
70.82457 212
70.84468 201
70.86479 207
70.88491 207
70.90502 200
70.92513 228
70.94525 214
70.96536 204
70.98548 200
71.00559 218
71.0257 203
71.04582 201
71.06593 227
71.08604 195
71.10616 207
71.12627 190
71.14639 202
71.1665 179
71.18661 181
71.20673 203
71.22684 205
71.24695 201
71.26707 185
71.28718 202
71.3073 197
71.32741 214
71.34752 210
71.36764 209
71.38775 215
71.40786 182
71.42798 204
71.44809 222
71.4682 190
71.48832 195
71.50843 198
71.52855 192
71.54866 215
71.56877 206
71.58889 202
71.609 227
71.62911 203
71.64923 190
71.66934 202
71.68946 209
71.70957 232
71.72968 201
71.7498 226
71.76991 214
71.79002 210
71.81014 209
71.83025 186
71.85037 200
71.87048 223
71.89059 202
71.91071 213
71.93082 211
71.95093 249
71.97105 185
71.99116 212
72.01127 189
72.03139 246
72.0515 212
72.07162 198
72.09173 202
72.11184 207
72.13196 188
72.15207 192
72.17218 206
72.1923 199
72.21241 216
72.23253 248
72.25264 212
72.27275 222
72.29287 208
72.31298 235
72.33309 207
72.35321 220
72.37332 197
72.39344 233
72.41355 231
72.43366 232
72.45378 234
72.47389 216
72.494 204
72.51412 238
72.53423 209
72.55434 226
72.57446 217
72.59457 208
72.61469 213
72.6348 240
72.65491 230
72.67503 209
72.69514 243
72.71525 217
72.73537 204
72.75548 223
72.7756 230
72.79571 251
72.81582 229
72.83594 238
72.85605 219
72.87616 250
72.89628 237
72.91639 235
72.9365 255
72.95662 240
72.97673 240
72.99685 251
73.01696 244
73.03707 245
73.05719 248
73.0773 258
73.09741 276
73.11753 290
73.13764 269
73.15776 264
73.17787 296
73.19798 297
73.2181 343
73.23821 363
73.25832 357
73.27844 363
73.29855 418
73.31867 449
73.33878 448
73.35889 468
73.37901 458
73.39912 398
73.41923 453
73.43935 455
73.45946 434
73.47957 412
73.49969 340
73.5198 317
73.53992 316
73.56003 315
73.58014 357
73.60026 354
73.62037 344
73.64048 296
73.6606 257
73.68071 242
73.70083 267
73.72094 246
73.74105 251
73.76117 227
73.78128 224
73.80139 225
73.82151 204
73.84162 236
73.86174 229
73.88185 221
73.90196 234
73.92208 222
73.94219 223
73.9623 242
73.98242 209
74.00253 216
74.02264 197
74.04276 196
74.06287 207
74.08299 230
74.1031 209
74.12321 223
74.14333 206
74.16344 197
74.18355 176
74.20367 214
74.22378 204
74.2439 212
74.26401 219
74.28412 206
74.30424 203
74.32435 211
74.34446 214
74.36458 205
74.38469 221
74.40481 191
74.42492 218
74.44503 203
74.46515 219
74.48526 211
74.50537 181
74.52549 202
74.5456 217
74.56571 194
74.58583 204
74.60594 209
74.62606 198
74.64617 189
74.66628 207
74.6864 212
74.70651 228
74.72662 224
74.74674 212
74.76685 227
74.78697 195
74.80708 234
74.82719 210
74.84731 196
74.86742 208
74.88753 199
74.90765 223
74.92776 192
74.94787 228
74.96799 203
74.9881 208
75.00822 236
