3.00117 18554
3.02128 17954
3.0414 17649
3.06151 17072
3.08162 16500
3.10174 16245
3.12185 15515
3.14197 15118
3.16208 14608
3.18219 14219
3.20231 13983
3.22242 13412
3.24253 13039
3.26265 12604
3.28276 11939
3.30288 11739
3.32299 11181
3.3431 11018
3.36322 10661
3.38333 10461
3.40344 10104
3.42356 9700
3.44367 9430
3.46379 8978
3.4839 8693
3.50401 8473
3.52413 8166
3.54424 7764
3.56435 7408
3.58447 7177
3.60458 6965
3.62469 6731
3.64481 6401
3.66492 6107
3.68504 5715
3.70515 5657
3.72526 5304
3.74538 5089
3.76549 4992
3.7856 4681
3.80572 4488
3.82583 4434
3.84595 4178
3.86606 3829
3.88617 3621
3.90629 3642
3.9264 3467
3.94651 3362
3.96663 3194
3.98674 2976
4.00686 3009
4.02697 2739
4.04708 2572
4.0672 2582
4.08731 2322
4.10742 2245
4.12754 2336
4.14765 2062
4.16776 1979
4.18788 1849
4.20799 1850
4.22811 1811
4.24822 1648
4.26833 1575
4.28845 1590
4.30856 1641
4.32867 1578
4.34879 1429
4.3689 1413
4.38902 1278
4.40913 1360
4.42924 1297
4.44936 1151
4.46947 1236
4.48958 1133
4.5097 1192
4.52981 1150
4.54992 1070
4.57004 1110
4.59015 1042
4.61027 1035
4.63038 1085
4.65049 919
4.67061 969
4.69072 889
4.71083 890
4.73095 901
4.75106 819
4.77118 844
4.79129 847
4.8114 852
4.83152 851
4.85163 695
4.87174 765
4.89186 709
4.91197 701
4.93209 733
4.9522 589
4.97231 611
4.99243 684
5.01254 614
5.03265 635
5.05277 578
5.07288 570
5.09299 636
5.11311 584
5.13322 576
5.15334 499
5.17345 516
5.19356 510
5.21368 497
5.23379 520
5.2539 469
5.27402 438
5.29413 466
5.31425 414
5.33436 498
5.35447 381
5.37459 414
5.3947 382
5.41481 396
5.43493 414
5.45504 303
5.47516 330
5.49527 394
5.51538 376
5.5355 366
5.55561 320
5.57572 364
5.59584 328
5.61595 303
5.63606 295
5.65618 291
5.67629 266
5.69641 296
5.71652 283
5.73663 302
5.75675 297
5.77686 256
5.79697 270
5.81709 258
5.8372 249
5.85732 235
5.87743 247
5.89754 276
5.91766 262
5.93777 238
5.95788 264
5.978 250
5.99811 250
6.01823 233
6.03834 245
6.05845 237
6.07857 277
6.09868 234
6.11879 227
6.13891 234
6.15902 234
6.17913 228
6.19925 203
6.21936 215
6.23948 207
6.25959 209
6.2797 226
6.29982 200
6.31993 190
6.34004 215
6.36016 202
6.38027 241
6.40039 267
6.4205 222
6.44061 212
6.46073 176
6.48084 186
6.50095 215
6.52107 194
6.54118 202
6.56129 179
6.58141 183
6.60152 212
6.62164 197
6.64175 184
6.66186 193
6.68198 200
6.70209 182
6.7222 203
6.74232 200
6.76243 165
6.78255 192
6.80266 170
6.82277 207
6.84289 186
6.863 208
6.88311 180
6.90323 190
6.92334 185
6.94346 208
6.96357 185
6.98368 192
7.0038 203
7.02391 212
7.04402 191
7.06414 173
7.08425 204
7.10436 194
7.12448 201
7.14459 216
7.16471 183
7.18482 187
7.20493 190
7.22505 179
7.24516 218
7.26527 182
7.28539 205
7.3055 180
7.32562 186
7.34573 189
7.36584 177
7.38596 203
7.40607 192
7.42618 199
7.4463 186
7.46641 187
7.48653 193
7.50664 176
7.52675 201
7.54687 177
7.56698 204
7.58709 209
7.60721 199
7.62732 219
7.64743 187
7.66755 199
7.68766 217
7.70778 199
7.72789 182
7.748 190
7.76812 208
7.78823 219
7.80834 200
7.82846 203
7.84857 192
7.86869 187
7.8888 182
7.90891 213
7.92903 201
7.94914 216
7.96925 201
7.98937 234
8.00948 196
8.0296 181
8.04971 195
8.06982 200
8.08994 211
8.11005 229
8.13016 224
8.15028 199
8.17039 232
8.1905 203
8.21062 198
8.23073 238
8.25085 202
8.27096 183
8.29107 235
8.31119 201
8.3313 225
8.35141 172
8.37153 213
8.39164 218
8.41176 202
8.43187 228
8.45198 221
8.4721 225
8.49221 212
8.51232 217
8.53244 211
8.55255 205
8.57266 214
8.59278 218
8.61289 237
8.63301 223
8.65312 220
8.67323 201
8.69335 238
8.71346 224
8.73357 252
8.75369 210
8.7738 249
8.79392 247
8.81403 219
8.83414 217
8.85426 225
8.87437 249
8.89448 230
8.9146 214
8.93471 213
8.95483 237
8.97494 218
8.99505 205
9.01517 190
9.03528 246
9.05539 227
9.07551 229
9.09562 232
9.11573 204
9.13585 196
9.15596 204
9.17608 223
9.19619 226
9.2163 202
9.23642 230
9.25653 229
9.27664 230
9.29676 216
9.31687 213
9.33699 217
9.3571 230
9.37721 222
9.39733 205
9.41744 220
9.43755 190
9.45767 240
9.47778 207
9.4979 219
9.51801 242
9.53812 220
9.55824 257
9.57835 238
9.59846 231
9.61858 219
9.63869 223
9.6588 239
9.67892 213
9.69903 238
9.71915 217
9.73926 229
9.75937 234
9.77949 202
9.7996 208
9.81971 213
9.83983 246
9.85994 205
9.88006 228
9.90017 203
9.92028 227
9.9404 228
9.96051 195
9.98062 212
10.00074 218
10.02085 238
10.04097 211
10.06108 256
10.08119 233
10.10131 207
10.12142 192
10.14153 216
10.16165 218
10.18176 214
10.20187 255
10.22199 215
10.2421 236
10.26222 193
10.28233 199
10.30244 238
10.32256 216
10.34267 199
10.36278 243
10.3829 225
10.40301 228
10.42313 234
10.44324 237
10.46335 221
10.48347 249
10.50358 225
10.52369 230
10.54381 228
10.56392 184
10.58403 185
10.60415 234
10.62426 210
10.64438 206
10.66449 239
10.6846 213
10.70472 218
10.72483 232
10.74494 249
10.76506 228
10.78517 241
10.80529 209
10.8254 200
10.84551 206
10.86563 243
10.88574 197
10.90585 229
10.92597 196
10.94608 221
10.9662 213
10.98631 185
11.00642 239
11.02654 226
11.04665 204
11.06676 224
11.08688 227
11.10699 204
11.1271 234
11.14722 237
11.16733 204
11.18745 221
11.20756 221
11.22767 212
11.24779 210
11.2679 201
11.28801 200
11.30813 206
11.32824 223
11.34836 228
11.36847 216
11.38858 184
11.4087 204
11.42881 199
11.44892 223
11.46904 204
11.48915 201
11.50927 236
11.52938 218
11.54949 208
11.56961 225
11.58972 218
11.60983 199
11.62995 217
11.65006 199
11.67017 210
11.69029 217
11.7104 237
11.73052 229
11.75063 212
11.77074 234
11.79086 231
11.81097 221
11.83108 219
11.8512 228
11.87131 204
11.89143 231
11.91154 223
11.93165 182
11.95177 220
11.97188 202
11.99199 221
12.01211 198
12.03222 205
12.05234 217
12.07245 204
12.09256 208
12.11268 199
12.13279 205
12.1529 214
12.17302 220
12.19313 187
12.21324 206
12.23336 213
12.25347 246
12.27359 220
12.2937 205
12.31381 220
12.33393 200
12.35404 201
12.37415 191
12.39427 216
12.41438 200
12.4345 214
12.45461 218
12.47472 182
12.49484 190
12.51495 194
12.53506 165
12.55518 216
12.57529 204
12.5954 214
12.61552 185
12.63563 195
12.65575 216
12.67586 212
12.69597 216
12.71609 190
12.7362 188
12.75631 221
12.77643 198
12.79654 182
12.81666 206
12.83677 224
12.85688 197
12.877 196
12.89711 192
12.91722 191
12.93734 202
12.95745 198
12.97757 209
12.99768 177
13.01779 198
13.03791 199
13.05802 205
13.07813 217
13.09825 209
13.11836 212
13.13847 232
13.15859 202
13.1787 217
13.19882 209
13.21893 199
13.23904 193
13.25916 200
13.27927 258
13.29938 236
13.3195 199
13.33961 220
13.35973 199
13.37984 227
13.39995 189
13.42007 179
13.44018 172
13.46029 173
13.48041 227
13.50052 221
13.52064 232
13.54075 202
13.56086 208
13.58098 211
13.60109 239
13.6212 223
13.64132 236
13.66143 256
13.68154 238
13.70166 202
13.72177 216
13.74189 211
13.762 219
13.78211 172
13.80223 228
13.82234 232
13.84245 231
13.86257 260
13.88268 231
13.9028 255
13.92291 238
13.94302 232
13.96314 224
13.98325 211
14.00336 223
14.02348 189
14.04359 182
14.06371 197
14.08382 185
14.10393 193
14.12405 198
14.14416 197
14.16427 178
14.18439 180
14.2045 195
14.22461 191
14.24473 193
14.26484 181
14.28496 207
14.30507 188
14.32518 193
14.3453 169
14.36541 202
14.38552 184
14.40564 187
14.42575 166
14.44587 190
14.46598 178
14.48609 190
14.50621 177
14.52632 197
14.54643 159
14.56655 182
14.58666 196
14.60677 202
14.62689 189
14.647 168
14.66712 189
14.68723 177
14.70734 178
14.72746 202
14.74757 188
14.76768 133
14.7878 198
14.80791 180
14.82803 209
14.84814 166
14.86825 207
14.88837 196
14.90848 207
14.92859 183
14.94871 205
14.96882 218
14.98894 197
15.00905 215
15.02916 193
15.04928 184
15.06939 191
15.0895 191
15.10962 172
15.12973 182
15.14984 178
15.16996 198
15.19007 176
15.21019 189
15.2303 184
15.25041 163
15.27053 177
15.29064 187
15.31075 160
15.33087 183
15.35098 193
15.3711 154
15.39121 189
15.41132 153
15.43144 185
15.45155 157
15.47166 172
15.49178 197
15.51189 163
15.53201 203
15.55212 188
15.57223 174
15.59235 166
15.61246 184
15.63257 171
15.65269 202
15.6728 176
15.69291 176
15.71303 198
15.73314 191
15.75326 196
15.77337 186
15.79348 183
15.8136 185
15.83371 210
15.85382 176
15.87394 163
15.89405 204
15.91417 174
15.93428 178
15.95439 176
15.97451 164
15.99462 182
16.01473 161
16.03485 169
16.05496 174
16.07508 190
16.09519 169
16.1153 177
16.13542 194
16.15553 149
16.17564 192
16.19576 174
16.21587 186
16.23598 149
16.2561 158
16.27621 195
16.29633 194
16.31644 187
16.33655 180
16.35667 175
16.37678 196
16.39689 150
16.41701 162
16.43712 169
16.45724 175
16.47735 185
16.49746 176
16.51758 182
16.53769 171
16.5578 174
16.57792 176
16.59803 193
16.61814 175
16.63826 172
16.65837 156
16.67849 181
16.6986 182
16.71871 189
16.73883 180
16.75894 173
16.77905 153
16.79917 173
16.81928 167
16.8394 188
16.85951 156
16.87962 160
16.89974 178
16.91985 168
16.93996 168
16.96008 165
16.98019 173
17.00031 170
17.02042 169
17.04053 156
17.06065 173
17.08076 174
17.10087 172
17.12099 164
17.1411 181
17.16121 162
17.18133 147
17.20144 184
17.22156 171
17.24167 182
17.26178 175
17.2819 176
17.30201 188
17.32212 158
17.34224 155
17.36235 175
17.38247 172
17.40258 174
17.42269 159
17.44281 195
17.46292 129
17.48303 194
17.50315 173
17.52326 170
17.54338 189
17.56349 165
17.5836 145
17.60372 173
17.62383 162
17.64394 153
17.66406 177
17.68417 182
17.70428 176
17.7244 187
17.74451 178
17.76463 167
17.78474 152
17.80485 174
17.82497 141
17.84508 179
17.86519 158
17.88531 159
17.90542 199
17.92554 163
17.94565 176
17.96576 149
17.98588 169
18.00599 167
18.0261 173
18.04622 147
18.06633 154
18.08645 164
18.10656 142
18.12667 158
18.14679 171
18.1669 180
18.18701 162
18.20713 183
18.22724 153
18.24735 166
18.26747 135
18.28758 163
18.3077 178
18.32781 159
18.34792 154
18.36804 168
18.38815 138
18.40826 155
18.42838 187
18.44849 166
18.46861 174
18.48872 141
18.50883 169
18.52895 142
18.54906 158
18.56917 167
18.58929 163
18.6094 171
18.62951 187
18.64963 173
18.66974 172
18.68986 193
18.70997 170
18.73008 164
18.7502 178
18.77031 165
18.79042 182
18.81054 183
18.83065 185
18.85077 177
18.87088 178
18.89099 161
18.91111 158
18.93122 145
18.95133 157
18.97145 150
18.99156 172
19.01168 153
19.03179 171
19.0519 163
19.07202 195
19.09213 159
19.11224 157
19.13236 159
19.15247 185
19.17258 163
19.1927 160
19.21281 188
19.23293 175
19.25304 192
19.27315 187
19.29327 200
19.31338 193
19.33349 184
19.35361 182
19.37372 180
19.39384 161
19.41395 175
19.43406 186
19.45418 182
19.47429 182
19.4944 170
19.51452 177
19.53463 176
19.55475 191
19.57486 190
19.59497 190
19.61509 184
19.6352 204
19.65531 200
19.67543 205
19.69554 206
19.71565 204
19.73577 234
19.75588 180
19.776 226
19.79611 227
19.81622 212
19.83634 252
19.85645 247
19.87656 237
19.89668 206
19.91679 225
19.93691 216
19.95702 212
19.97713 238
19.99725 227
20.01736 222
20.03747 215
20.05759 237
20.0777 220
20.09782 258
20.11793 240
20.13804 262
20.15816 236
20.17827 275
20.19838 254
20.2185 260
20.23861 240
20.25872 213
20.27884 265
20.29895 245
20.31907 267
20.33918 281
20.35929 270
20.37941 280
20.39952 251
20.41963 307
20.43975 310
20.45986 306
20.47998 321
20.50009 328
20.5202 336
20.54032 388
20.56043 405
20.58054 437
20.60066 453
20.62077 527
20.64088 527
20.661 707
20.68111 924
20.70123 1144
20.72134 1493
20.74145 2053
20.76157 2840
20.78168 3769
20.80179 4973
20.82191 6384
20.84202 7509
20.86214 8303
20.88225 7552
20.90236 5884
20.92248 4054
20.94259 2858
20.9627 1614
20.98282 1043
21.00293 854
21.02305 717
21.04316 645
21.06327 622
21.08339 513
21.1035 462
21.12361 430
21.14373 370
21.16384 368
21.18395 301
21.20407 291
21.22418 305
21.2443 288
21.26441 280
21.28452 290
21.30464 273
21.32475 291
21.34486 244
21.36498 268
21.38509 255
21.40521 250
21.42532 232
21.44543 236
21.46555 231
21.48566 260
21.50577 257
21.52589 221
21.546 186
21.56612 217
21.58623 249
21.60634 229
21.62646 236
21.64657 239
21.66668 240
21.6868 237
21.70691 213
21.72702 230
21.74714 249
21.76725 238
21.78737 220
21.80748 222
21.82759 217
21.84771 250
21.86782 279
21.88793 270
21.90805 307
21.92816 327
21.94828 325
21.96839 392
21.9885 397
22.00862 429
22.02873 465
22.04884 419
22.06896 406
22.08907 358
22.10919 332
22.1293 268
22.14941 258
22.16953 230
22.18964 203
22.20975 231
22.22987 254
22.24998 242
22.27009 243
22.29021 247
22.31032 222
22.33044 250
22.35055 241
22.37066 231
22.39078 215
22.41089 215
22.431 236
22.45112 196
22.47123 206
22.49135 206
22.51146 204
22.53157 206
22.55169 220
22.5718 223
22.59191 231
22.61203 218
22.63214 210
22.65225 200
22.67237 223
22.69248 216
22.7126 218
22.73271 203
22.75282 201
22.77294 216
22.79305 189
22.81316 192
22.83328 193
22.85339 222
22.87351 233
22.89362 231
22.91373 249
22.93385 236
22.95396 258
22.97407 241
22.99419 270
23.0143 240
23.03442 260
23.05453 245
23.07464 274
23.09476 260
23.11487 254
23.13498 277
23.1551 315
23.17521 313
23.19532 276
23.21544 316
23.23555 258
23.25567 245
23.27578 214
23.29589 220
23.31601 198
23.33612 214
23.35623 211
23.37635 226
23.39646 207
23.41658 221
23.43669 222
23.4568 257
23.47692 239
23.49703 249
23.51714 298
23.53726 296
23.55737 285
23.57749 298
23.5976 296
23.61771 299
23.63783 245
23.65794 252
23.67805 218
23.69817 243
23.71828 234
23.73839 226
23.75851 244
23.77862 204
23.79874 234
23.81885 238
23.83896 240
23.85908 277
23.87919 280
23.8993 302
23.91942 351
23.93953 356
23.95965 401
23.97976 434
23.99987 415
24.01999 443
24.0401 438
24.06021 375
24.08033 334
24.10044 290
24.12056 308
24.14067 296
24.16078 325
24.1809 317
24.20101 362
24.22112 361
24.24124 361
24.26135 347
24.28146 363
24.30158 345
24.32169 319
24.34181 320
24.36192 321
24.38203 265
24.40215 239
24.42226 268
24.44237 240
24.46249 232
24.4826 223
24.50272 240
24.52283 213
24.54294 231
24.56306 182
24.58317 229
24.60328 196
24.6234 214
24.64351 230
24.66362 235
24.68374 228
24.70385 230
24.72397 222
24.74408 220
24.76419 242
24.78431 238
24.80442 225
24.82453 222
24.84465 215
24.86476 198
24.88488 233
24.90499 202
24.9251 237
24.94522 245
24.96533 242
24.98544 190
25.00556 191
25.02567 233
25.04579 204
25.0659 234
25.08601 244
25.10613 216
25.12624 190
25.14635 227
25.16647 212
25.18658 222
25.20669 193
25.22681 209
25.24692 215
25.26704 214
25.28715 230
25.30726 214
25.32738 245
25.34749 254
25.3676 253
25.38772 250
25.40783 310
25.42795 294
25.44806 322
25.46817 316
25.48829 351
25.5084 352
25.52851 378
25.54863 382
25.56874 384
25.58886 374
25.60897 371
25.62908 427
25.6492 388
25.66931 397
25.68942 416
25.70954 428
25.72965 409
25.74976 439
25.76988 421
25.78999 411
25.81011 370
25.83022 382
25.85033 405
25.87045 446
25.89056 452
25.91067 397
25.93079 480
25.9509 443
25.97102 441
25.99113 475
26.01124 479
26.03136 477
26.05147 539
26.07158 561
26.0917 552
26.11181 605
26.13193 613
26.15204 674
26.17215 698
26.19227 752
26.21238 815
26.23249 861
26.25261 966
26.27272 1089
26.29283 1148
26.31295 1370
26.33306 1412
26.35318 1714
26.37329 2085
26.3934 2468
26.41352 2924
26.43363 3692
26.45374 4431
26.47386 5960
26.49397 7806
26.51409 10193
26.5342 13649
26.55431 17552
26.57443 22616
26.59454 28125
26.61465 33567
26.63477 36806
26.65488 33986
26.67499 26501
26.69511 20492
26.71522 15733
26.73534 10499
26.75545 5911
26.77556 3108
26.79568 2177
26.81579 1730
26.8359 1532
26.85602 1374
26.87613 1233
26.89625 1131
26.91636 1022
26.93647 948
26.95659 905
26.9767 812
26.99681 858
27.01693 811
27.03704 780
27.05716 690
27.07727 645
27.09738 637
27.1175 624
27.13761 562
27.15772 508
27.17784 506
27.19795 459
27.21806 456
27.23818 463
27.25829 509
27.27841 521
27.29852 576
27.31863 608
27.33875 604
27.35886 619
27.37897 713
27.39909 688
27.4192 739
27.43932 753
27.45943 730
27.47954 638
27.49966 637
27.51977 601
27.53988 553
27.56 544
27.58011 451
27.60023 455
27.62034 458
27.64045 426
27.66057 463
27.68068 521
27.70079 557
27.72091 512
27.74102 603
27.76113 624
27.78125 578
27.80136 630
27.82148 664
27.84159 634
27.8617 632
27.88182 641
27.90193 671
27.92204 632
27.94216 715
27.96227 700
27.98239 650
28.0025 569
28.02261 518
28.04273 428
28.06284 382
28.08295 388
28.10307 406
28.12318 404
28.1433 377
28.16341 374
28.18352 361
28.20364 342
28.22375 359
28.24386 362
28.26398 381
28.28409 387
28.3042 309
28.32432 303
28.34443 310
28.36455 317
28.38466 277
28.40477 284
28.42489 248
28.445 290
28.46511 258
28.48523 269
28.50534 246
28.52546 235
28.54557 250
28.56568 245
28.5858 249
28.60591 244
28.62602 227
28.64614 251
28.66625 233
28.68636 230
28.70648 265
28.72659 223
28.74671 252
28.76682 230
28.78693 215
28.80705 253
28.82716 239
28.84727 259
28.86739 207
28.8875 229
28.90762 241
28.92773 227
28.94784 248
28.96796 225
28.98807 250
29.00818 251
29.0283 247
29.04841 226
29.06853 207
29.08864 218
29.10875 238
29.12887 236
29.14898 229
29.16909 228
29.18921 215
29.20932 218
29.22943 223
29.24955 231
29.26966 243
29.28978 259
29.30989 271
29.33 275
29.35012 285
29.37023 269
29.39034 272
29.41046 311
29.43057 289
29.45069 321
29.4708 295
29.49091 270
29.51103 271
29.53114 249
29.55125 236
29.57137 240
29.59148 227
29.6116 247
29.63171 218
29.65182 209
29.67194 228
29.69205 198
29.71216 232
29.73228 239
29.75239 219
29.7725 280
29.79262 250
29.81273 236
29.83285 245
29.85296 267
29.87307 249
29.89319 244
29.9133 257
29.93341 217
29.95353 245
29.97364 270
29.99376 277
30.01387 244
30.03398 245
30.0541 272
30.07421 300
30.09432 258
30.11444 271
30.13455 274
30.15467 310
30.17478 332
30.19489 294
30.21501 326
30.23512 332
30.25523 343
30.27535 272
30.29546 316
30.31557 268
30.33569 299
30.3558 319
30.37592 272
30.39603 289
30.41614 275
30.43626 310
30.45637 285
30.47648 302
30.4966 273
30.51671 303
30.53683 228
30.55694 245
30.57705 253
30.59717 259
30.61728 247
30.63739 242
30.65751 225
30.67762 269
30.69773 234
30.71785 279
30.73796 267
30.75808 249
30.77819 294
30.7983 258
30.81842 256
30.83853 252
30.85864 258
30.87876 272
30.89887 250
30.91899 225
30.9391 201
30.95921 228
30.97933 217
30.99944 235
31.01955 207
31.03967 182
31.05978 205
31.0799 194
31.10001 202
31.12012 199
31.14024 203
31.16035 191
31.18046 180
31.20058 211
31.22069 223
31.2408 179
31.26092 204
31.28103 201
31.30115 216
31.32126 212
31.34137 211
31.36149 237
31.3816 225
31.40171 222
31.42183 237
31.44194 200
31.46206 192
31.48217 204
31.50228 198
31.5224 219
31.54251 202
31.56262 194
31.58274 189
31.60285 190
31.62297 173
31.64308 202
31.66319 168
31.68331 169
31.70342 199
31.72353 194
31.74365 193
31.76376 184
31.78387 184
31.80399 188
31.8241 191
31.84422 182
31.86433 213
31.88444 175
31.90456 169
31.92467 187
31.94478 193
31.9649 178
31.98501 170
32.00513 192
32.02524 208
32.04535 206
32.06547 179
32.08558 202
32.10569 180
32.12581 184
32.14592 192
32.16604 192
32.18615 201
32.20626 192
32.22638 187
32.24649 205
32.2666 200
32.28672 194
32.30683 177
32.32694 170
32.34706 170
32.36717 180
32.38729 180
32.4074 181
32.42751 164
32.44763 188
32.46774 190
32.48785 175
32.50797 184
32.52808 179
32.5482 203
32.56831 181
32.58842 155
32.60854 151
32.62865 182
32.64876 184
32.66888 145
32.68899 171
32.7091 173
32.72922 176
32.74933 160
32.76945 154
32.78956 162
32.80967 168
32.82979 166
32.8499 159
32.87001 178
32.89013 170
32.91024 167
32.93036 157
32.95047 170
32.97058 163
32.9907 199
33.01081 183
33.03092 167
33.05104 175
33.07115 182
33.09127 162
33.11138 174
33.13149 154
33.15161 175
33.17172 141
33.19183 161
33.21195 172
33.23206 187
33.25217 183
33.27229 161
33.2924 170
33.31252 183
33.33263 163
33.35274 197
33.37286 149
33.39297 160
33.41308 182
33.4332 163
33.45331 140
33.47343 128
33.49354 175
33.51365 166
33.53377 158
33.55388 141
33.57399 177
33.59411 146
33.61422 176
33.63434 169
33.65445 158
33.67456 164
33.69468 155
33.71479 143
33.7349 169
33.75502 171
33.77513 157
33.79524 185
33.81536 176
33.83547 175
33.85559 195
33.8757 176
33.89581 189
33.91593 171
33.93604 161
33.95615 160
33.97627 188
33.99638 151
34.0165 210
34.03661 180
34.05672 163
34.07684 169
34.09695 200
34.11706 190
34.13718 191
34.15729 214
34.17741 207
34.19752 220
34.21763 214
34.23775 217
34.25786 188
34.27797 193
34.29809 213
34.3182 181
34.33831 163
34.35843 153
34.37854 178
34.39866 190
34.41877 169
34.43888 178
34.459 180
34.47911 191
34.49922 184
34.51934 196
34.53945 201
34.55957 173
34.57968 175
34.59979 214
34.61991 199
34.64002 179
34.66013 199
34.68025 179
34.70036 220
34.72047 211
34.74059 181
34.7607 193
34.78082 207
34.80093 188
34.82104 195
34.84116 190
34.86127 201
34.88138 202
34.9015 206
34.92161 227
34.94173 215
34.96184 216
34.98195 226
35.00207 217
35.02218 201
35.04229 224
35.06241 227
35.08252 195
35.10264 239
35.12275 217
35.14286 197
35.16298 212
35.18309 216
35.2032 232
35.22332 207
35.24343 194
35.26354 230
35.28366 230
35.30377 234
35.32389 231
35.344 202
35.36411 182
35.38423 215
35.40434 238
35.42445 223
35.44457 229
35.46468 236
35.4848 214
35.50491 261
35.52502 256
35.54514 235
35.56525 225
35.58536 228
35.60548 238
35.62559 244
35.64571 210
35.66582 206
35.68593 208
35.70605 201
35.72616 232
35.74627 211
35.76639 213
35.7865 165
35.80661 220
35.82673 187
35.84684 196
35.86696 185
35.88707 181
35.90718 190
35.9273 175
35.94741 212
35.96752 205
35.98764 214
36.00775 177
36.02787 178
36.04798 212
36.06809 218
36.08821 224
36.10832 228
36.12843 223
36.14855 252
36.16866 235
36.18878 262
36.20889 267
36.229 284
36.24912 311
36.26923 376
36.28934 377
36.30946 426
36.32957 541
36.34968 580
36.3698 682
36.38991 819
36.41003 909
36.43014 1215
36.45025 1380
36.47037 1617
36.49048 2068
36.51059 2203
36.53071 2443
36.55082 2348
36.57094 1869
36.59105 1534
36.61116 1316
36.63128 1201
36.65139 978
36.6715 717
36.69162 458
36.71173 367
36.73184 310
36.75196 276
36.77207 256
36.79219 245
36.8123 252
36.83241 236
36.85253 290
36.87264 232
36.89275 248
36.91287 243
36.93298 247
36.9531 248
36.97321 255
36.99332 217
37.01344 243
37.03355 220
37.05366 203
37.07378 208
37.09389 208
37.11401 189
37.13412 201
37.15423 197
37.17435 188
37.19446 180
37.21457 185
37.23469 188
37.2548 187
37.27491 186
37.29503 176
37.31514 175
37.33526 179
37.35537 168
37.37548 166
37.3956 182
37.41571 189
37.43582 180
37.45594 174
37.47605 178
37.49617 185
37.51628 185
37.53639 215
37.55651 183
37.57662 180
37.59673 185
37.61685 176
37.63696 184
37.65708 205
37.67719 181
37.6973 172
37.71742 167
37.73753 166
37.75764 152
37.77776 148
37.79787 174
37.81798 184
37.8381 182
37.85821 171
37.87833 151
37.89844 186
37.91855 165
37.93867 150
37.95878 166
37.97889 159
37.99901 163
38.01912 182
38.03924 179
38.05935 147
38.07946 180
38.09958 172
38.11969 166
38.1398 170
38.15992 173
38.18003 179
38.20015 193
38.22026 170
38.24037 160
38.26049 164
38.2806 156
38.30071 191
38.32083 165
38.34094 187
38.36105 177
38.38117 196
38.40128 176
38.4214 171
38.44151 192
38.46162 178
38.48174 198
38.50185 198
38.52196 205
38.54208 207
38.56219 193
38.58231 184
38.60242 170
38.62253 174
38.64265 181
38.66276 140
38.68287 198
38.70299 171
38.7231 185
38.74321 185
38.76333 203
38.78344 169
38.80356 178
38.82367 176
38.84378 190
38.8639 194
38.88401 189
38.90412 203
38.92424 198
38.94435 196
38.96447 208
38.98458 219
39.00469 211
39.02481 207
39.04492 229
39.06503 222
39.08515 247
39.10526 262
39.12538 242
39.14549 290
39.1656 273
39.18572 342
39.20583 345
39.22594 404
39.24606 468
39.26617 541
39.28628 601
39.3064 743
39.32651 871
39.34663 1066
39.36674 1309
39.38685 1429
39.40697 1757
39.42708 1935
39.44719 2106
39.46731 2100
39.48742 1798
39.50754 1378
39.52765 1145
39.54776 1087
39.56788 997
39.58799 811
39.6081 563
39.62822 380
39.64833 318
39.66845 301
39.68856 241
39.70867 251
39.72879 251
39.7489 231
39.76901 229
39.78913 233
39.80924 182
39.82935 214
39.84947 203
39.86958 182
39.8897 215
39.90981 230
39.92992 184
39.95004 215
39.97015 233
39.99026 228
40.01038 273
40.03049 249
40.05061 317
40.07072 343
40.09083 391
40.11095 403
40.13106 483
40.15117 514
40.17129 637
40.1914 768
40.21152 856
40.23163 921
40.25174 1022
40.27186 1108
40.29197 1148
40.31208 1014
40.3322 760
40.35231 647
40.37242 650
40.39254 636
40.41265 524
40.43277 368
40.45288 242
40.47299 226
40.49311 232
40.51322 237
40.53333 205
40.55345 191
40.57356 186
40.59368 196
40.61379 167
40.6339 209
40.65402 192
40.67413 187
40.69424 212
40.71436 169
40.73447 189
40.75458 194
40.7747 201
40.79481 193
40.81493 160
40.83504 173
40.85515 178
40.87527 179
40.89538 157
40.91549 168
40.93561 161
40.95572 168
40.97584 176
40.99595 161
41.01606 149
41.03618 214
41.05629 156
41.0764 169
41.09652 186
41.11663 167
41.13675 187
41.15686 169
41.17697 174
41.19709 177
41.2172 169
41.23731 211
41.25743 174
41.27754 185
41.29765 147
41.31777 173
41.33788 181
41.358 169
41.37811 188
41.39822 176
41.41834 165
41.43845 182
41.45856 180
41.47868 157
41.49879 168
41.51891 179
41.53902 175
41.55913 212
41.57925 183
41.59936 201
41.61947 188
41.63959 188
41.6597 200
41.67982 219
41.69993 239
41.72004 238
41.74016 243
41.76027 237
41.78038 244
41.8005 218
41.82061 242
41.84072 245
41.86084 230
41.88095 212
41.90107 226
41.92118 196
41.94129 234
41.96141 179
41.98152 224
42.00163 180
42.02175 208
42.04186 215
42.06198 229
42.08209 215
42.1022 236
42.12232 276
42.14243 273
42.16254 274
42.18266 278
42.20277 328
42.22289 410
42.243 397
42.26311 483
42.28323 605
42.30334 688
42.32345 776
42.34357 963
42.36368 1057
42.38379 1313
42.40391 1404
42.42402 1572
42.44414 1582
42.46425 1417
42.48436 1127
42.50448 845
42.52459 796
42.5447 832
42.56482 737
42.58493 566
42.60505 379
42.62516 310
42.64527 263
42.66539 265
42.6855 221
42.70561 207
42.72573 232
42.74584 207
42.76595 214
42.78607 233
42.80618 203
42.8263 180
42.84641 180
42.86652 203
42.88664 197
42.90675 192
42.92686 170
42.94698 172
42.96709 180
42.98721 162
43.00732 171
43.02743 187
43.04755 169
43.06766 143
43.08777 152
43.10789 169
43.128 179
43.14812 171
43.16823 159
43.18834 161
43.20846 146
43.22857 166
43.24868 165
43.2688 159
43.28891 178
43.30902 170
43.32914 181
43.34925 155
43.36937 168
43.38948 138
43.40959 169
43.42971 169
43.44982 182
43.46993 175
43.49005 146
43.51016 160
43.53028 150
43.55039 147
43.5705 152
43.59062 156
43.61073 152
43.63084 154
43.65096 160
43.67107 137
43.69119 158
43.7113 162
43.73141 158
43.75153 158
43.77164 147
43.79175 173
43.81187 163
43.83198 161
43.85209 158
43.87221 125
43.89232 163
43.91244 151
43.93255 146
43.95266 137
43.97278 149
43.99289 159
44.013 152
44.03312 173
44.05323 141
44.07335 166
44.09346 165
44.11357 162
44.13369 161
44.1538 152
44.17391 159
44.19403 170
44.21414 167
44.23426 153
44.25437 153
44.27448 158
44.2946 168
44.31471 153
44.33482 151
44.35494 164
44.37505 145
44.39516 130
44.41528 164
44.43539 152
44.45551 172
44.47562 156
44.49573 166
44.51585 161
44.53596 154
44.55607 164
44.57619 144
44.5963 152
44.61642 154
44.63653 161
44.65664 136
44.67676 150
44.69687 172
44.71698 177
44.7371 168
44.75721 151
44.77732 155
44.79744 141
44.81755 156
44.83767 178
44.85778 157
44.87789 166
44.89801 143
44.91812 162
44.93823 160
44.95835 140
44.97846 163
44.99858 164
45.01869 159
45.0388 139
45.05892 161
45.07903 140
45.09914 156
45.11926 174
45.13937 183
45.15949 163
45.1796 179
45.19971 179
45.21983 185
45.23994 158
45.26005 176
45.28017 164
45.30028 190
45.32039 176
45.34051 178
45.36062 183
45.38074 180
45.40085 184
45.42096 214
45.44108 226
45.46119 234
45.4813 239
45.50142 259
45.52153 249
45.54165 311
45.56176 344
45.58187 391
45.60199 383
45.6221 463
45.64221 533
45.66233 551
45.68244 677
45.70256 777
45.72267 844
45.74278 930
45.7629 1064
45.78301 1064
45.80312 906
45.82324 858
45.84335 605
45.86346 563
45.88358 568
45.90369 561
45.92381 481
45.94392 383
45.96403 301
45.98415 227
46.00426 213
46.02437 190
46.04449 177
46.0646 185
46.08472 179
46.10483 176
46.12494 157
46.14506 162
46.16517 159
46.18528 175
46.2054 172
46.22551 174
46.24563 157
46.26574 136
46.28585 162
46.30597 155
46.32608 159
46.34619 159
46.36631 149
46.38642 137
46.40653 137
46.42665 152
46.44676 143
46.46688 158
46.48699 131
46.5071 140
46.52722 162
46.54733 135
46.56744 155
46.58756 140
46.60767 143
46.62779 146
46.6479 144
46.66801 147
46.68813 150
46.70824 150
46.72835 152
46.74847 157
46.76858 133
46.78869 129
46.80881 155
46.82892 147
46.84904 134
46.86915 139
46.88926 153
46.90938 125
46.92949 143
46.9496 145
46.96972 140
46.98983 159
47.00995 166
47.03006 140
47.05017 148
47.07029 167
47.0904 173
47.11051 151
47.13063 162
47.15074 147
47.17086 164
47.19097 159
47.21108 157
47.2312 135
47.25131 168
47.27142 159
47.29154 174
47.31165 144
47.33176 142
47.35188 163
47.37199 161
47.39211 145
47.41222 142
47.43233 163
47.45245 167
47.47256 169
47.49267 145
47.51279 129
47.5329 162
47.55302 155
47.57313 173
47.59324 151
47.61336 153
47.63347 159
47.65358 150
47.6737 134
47.69381 131
47.71393 125
47.73404 142
47.75415 135
47.77427 150
47.79438 140
47.81449 142
47.83461 140
47.85472 150
47.87483 138
47.89495 135
47.91506 129
47.93518 153
47.95529 144
47.9754 140
47.99552 170
48.01563 129
48.03574 146
48.05586 143
48.07597 161
48.09609 149
48.1162 138
48.13631 173
48.15643 163
48.17654 144
48.19665 160
48.21677 154
48.23688 167
48.257 138
48.27711 166
48.29722 140
48.31734 163
48.33745 147
48.35756 157
48.37768 159
48.39779 155
48.4179 150
48.43802 141
48.45813 176
48.47825 150
48.49836 171
48.51847 162
48.53859 153
48.5587 156
48.57881 148
48.59893 161
48.61904 167
48.63916 151
48.65927 161
48.67938 166
48.6995 155
48.71961 174
48.73972 145
48.75984 159
48.77995 165
48.80006 175
48.82018 153
48.84029 161
48.86041 177
48.88052 170
48.90063 175
48.92075 143
48.94086 165
48.96097 148
48.98109 182
49.0012 156
49.02132 175
49.04143 157
49.06154 185
49.08166 177
49.10177 197
49.12188 196
49.142 194
49.16211 178
49.18223 188
49.20234 185
49.22245 170
49.24257 188
49.26268 185
49.28279 184
49.30291 159
49.32302 170
49.34313 170
49.36325 183
49.38336 164
49.40348 184
49.42359 170
49.4437 181
49.46382 181
49.48393 203
49.50404 196
49.52416 217
49.54427 179
49.56439 186
49.5845 225
49.60461 227
49.62473 253
49.64484 249
49.66495 288
49.68507 250
49.70518 279
49.7253 311
49.74541 320
49.76552 355
49.78564 378
49.80575 421
49.82586 467
49.84598 511
49.86609 606
49.8862 723
49.90632 846
49.92643 914
49.94655 1050
49.96666 1241
49.98677 1554
50.00689 1748
50.027 2005
50.04711 2355
50.06723 2720
50.08734 2947
50.10746 3094
50.12757 3159
50.14768 2971
50.1678 2208
50.18791 1884
50.20802 1615
50.22814 1631
50.24825 1671
50.26837 1440
50.28848 1173
50.30859 792
50.32871 548
50.34882 425
50.36893 395
50.38905 360
50.40916 340
50.42927 325
50.44939 324
50.4695 312
50.48962 317
50.50973 308
50.52984 336
50.54996 285
50.57007 302
50.59018 312
50.6103 298
50.63041 297
50.65053 282
50.67064 226
50.69075 254
50.71087 228
50.73098 233
50.75109 228
50.77121 225
50.79132 195
50.81143 181
50.83155 188
50.85166 181
50.87178 168
50.89189 209
50.912 209
50.93212 145
50.95223 183
50.97234 190
50.99246 178
51.01257 161
51.03269 165
51.0528 194
51.07291 183
51.09303 163
51.11314 165
51.13325 158
51.15337 163
51.17348 189
51.1936 163
51.21371 172
51.23382 167
51.25394 179
51.27405 154
51.29416 147
51.31428 194
51.33439 170
51.3545 171
51.37462 146
51.39473 143
51.41485 133
51.43496 153
51.45507 151
51.47519 139
51.4953 128
51.51541 147
51.53553 137
51.55564 145
51.57576 154
51.59587 125
51.61598 121
51.6361 139
51.65621 156
51.67632 148
51.69644 141
51.71655 156
51.73667 115
51.75678 109
51.77689 150
51.79701 126
51.81712 142
51.83723 120
51.85735 141
51.87746 122
51.89757 113
51.91769 122
51.9378 142
51.95792 145
51.97803 137
51.99814 132
52.01826 140
52.03837 157
52.05848 133
52.0786 130
52.09871 129
52.11883 127
52.13894 136
52.15905 151
52.17917 146
52.19928 135
52.21939 162
52.23951 148
52.25962 141
52.27974 115
52.29985 134
52.31996 167
52.34008 139
52.36019 144
52.3803 149
52.40042 149
52.42053 137
52.44064 165
52.46076 145
52.48087 134
52.50099 145
52.5211 146
52.54121 162
52.56133 148
52.58144 145
52.60155 137
52.62167 147
52.64178 157
52.6619 159
52.68201 163
52.70212 161
52.72224 164
52.74235 157
52.76246 131
52.78258 148
52.80269 150
52.8228 155
52.84292 149
52.86303 138
52.88315 161
52.90326 153
52.92337 135
52.94349 151
52.9636 152
52.98371 148
53.00383 150
53.02394 120
53.04406 139
53.06417 143
53.08428 158
53.1044 152
53.12451 148
53.14462 149
53.16474 138
53.18485 165
53.20497 140
53.22508 144
53.24519 161
53.26531 161
53.28542 131
53.30553 162
53.32565 140
53.34576 138
53.36587 150
53.38599 121
53.4061 128
53.42622 131
53.44633 160
53.46644 130
53.48656 151
53.50667 163
53.52678 154
53.5469 143
53.56701 182
53.58713 134
53.60724 131
53.62735 139
53.64747 158
53.66758 165
53.68769 128
53.70781 145
53.72792 149
53.74804 141
53.76815 120
53.78826 177
53.80838 159
53.82849 152
53.8486 147
53.86872 161
53.88883 156
53.90894 143
53.92906 166
53.94917 150
53.96929 153
53.9894 161
54.00951 154
54.02963 167
54.04974 147
54.06985 173
54.08997 159
54.11008 160
54.1302 137
54.15031 141
54.17042 174
54.19054 153
54.21065 172
54.23076 135
54.25088 156
54.27099 173
54.29111 159
54.31122 181
54.33133 156
54.35145 164
54.37156 171
54.39167 156
54.41179 175
54.4319 174
54.45201 190
54.47213 204
54.49224 207
54.51236 177
54.53247 214
54.55258 245
54.5727 262
54.59281 249
54.61292 278
54.63304 326
54.65315 382
54.67327 416
54.69338 453
54.71349 514
54.73361 567
54.75372 709
54.77383 769
54.79395 857
54.81406 935
54.83417 929
54.85429 984
54.8744 950
54.89452 815
54.91463 679
54.93474 589
54.95486 560
54.97497 562
54.99508 569
55.0152 539
55.03531 437
55.05543 397
55.07554 318
55.09565 287
55.11577 284
55.13588 311
55.15599 281
55.17611 332
55.19622 378
55.21634 397
55.23645 457
55.25656 488
55.27668 445
55.29679 503
55.3169 549
55.33702 457
55.35713 400
55.37724 320
55.39736 343
55.41747 349
55.43759 332
55.4577 331
55.47781 325
55.49793 259
55.51804 191
55.53815 190
55.55827 181
55.57838 152
55.5985 145
55.61861 169
55.63872 155
55.65884 177
55.67895 127
55.69906 154
55.71918 157
55.73929 158
55.75941 148
55.77952 154
55.79963 169
55.81975 135
55.83986 152
55.85997 147
55.88009 134
55.9002 142
55.92031 157
55.94043 146
55.96054 146
55.98066 130
56.00077 162
56.02088 128
56.041 133
56.06111 139
56.08122 144
56.10134 145
56.12145 153
56.14157 111
56.16168 142
56.18179 133
56.20191 145
56.22202 125
56.24213 154
56.26225 120
56.28236 127
56.30248 142
56.32259 127
56.3427 129
56.36282 129
56.38293 119
56.40304 134
56.42316 130
56.44327 135
56.46338 138
56.4835 134
56.50361 126
56.52373 147
56.54384 139
56.56395 141
56.58407 127
56.60418 150
56.62429 134
56.64441 137
56.66452 129
56.68464 133
56.70475 147
56.72486 142
56.74498 129
56.76509 156
56.7852 168
56.80532 150
56.82543 152
56.84554 118
56.86566 146
56.88577 153
56.90589 139
56.926 141
56.94611 132
56.96623 142
56.98634 133
57.00645 155
57.02657 126
57.04668 141
57.0668 167
57.08691 151
57.10702 177
57.12714 169
57.14725 173
57.16736 170
57.18748 190
57.20759 205
57.22771 173
57.24782 171
57.26793 168
57.28805 141
57.30816 154
57.32827 151
57.34839 155
57.3685 148
57.38861 156
57.40873 141
57.42884 144
57.44896 149
57.46907 145
57.48918 117
57.5093 147
57.52941 135
57.54952 122
57.56964 139
57.58975 142
57.60987 152
57.62998 152
57.65009 149
57.67021 134
57.69032 126
57.71043 125
57.73055 150
57.75066 157
57.77078 159
57.79089 119
57.811 149
57.83112 159
57.85123 137
57.87134 118
57.89146 133
57.91157 155
57.93168 141
57.9518 122
57.97191 118
57.99203 163
58.01214 145
58.03225 163
58.05237 151
58.07248 166
58.09259 157
58.11271 147
58.13282 145
58.15294 153
58.17305 137
58.19316 149
58.21328 158
58.23339 132
58.2535 140
58.27362 140
58.29373 159
58.31385 127
58.33396 145
58.35407 127
58.37419 157
58.3943 139
58.41441 152
58.43453 141
58.45464 157
58.47475 122
58.49487 147
58.51498 144
58.5351 149
58.55521 146
58.57532 134
58.59544 154
58.61555 140
58.63566 158
58.65578 162
58.67589 151
58.69601 138
58.71612 154
58.73623 156
58.75635 154
58.77646 143
58.79657 134
58.81669 143
58.8368 143
58.85691 149
58.87703 144
58.89714 154
58.91726 131
58.93737 152
58.95748 147
58.9776 120
58.99771 147
59.01782 160
59.03794 155
59.05805 160
59.07817 157
59.09828 146
59.11839 136
59.13851 166
59.15862 151
59.17873 175
59.19885 141
59.21896 155
59.23908 154
59.25919 149
59.2793 187
59.29942 174
59.31953 190
59.33964 203
59.35976 165
59.37987 170
59.39998 199
59.4201 223
59.44021 223
59.46033 215
59.48044 231
59.50055 244
59.52067 226
59.54078 257
59.56089 278
59.58101 323
59.60112 329
59.62124 332
59.64135 435
59.66146 407
59.68158 544
59.70169 566
59.7218 623
59.74192 711
59.76203 738
59.78215 898
59.80226 1000
59.82237 1182
59.84249 1359
59.8626 1532
59.88271 1689
59.90283 1886
59.92294 1891
59.94305 1904
59.96317 1674
59.98328 1386
60.0034 1151
60.02351 1012
60.04362 996
60.06374 970
60.08385 999
60.10396 940
60.12408 840
60.14419 654
60.16431 425
60.18442 340
60.20453 274
60.22465 257
60.24476 215
60.26487 210
60.28499 218
60.3051 162
60.32522 190
60.34533 174
60.36544 186
60.38556 159
60.40567 154
60.42578 173
60.4459 159
60.46601 130
60.48612 162
60.50624 156
60.52635 151
60.54647 144
60.56658 129
60.58669 165
60.60681 158
60.62692 144
60.64703 157
60.66715 136
60.68726 146
60.70738 139
60.72749 146
60.7476 135
60.76772 148
60.78783 126
60.80794 148
60.82806 126
60.84817 155
60.86828 154
60.8884 159
60.90851 131
60.92863 139
60.94874 141
60.96885 156
60.98897 158
61.00908 154
61.02919 146
61.04931 155
61.06942 162
61.08954 170
61.10965 146
61.12976 172
61.14988 124
61.16999 155
61.1901 145
61.21022 128
61.23033 151
61.25045 155
61.27056 122
61.29067 112
61.31079 131
61.3309 147
61.35101 132
61.37113 135
61.39124 130
61.41135 140
61.43147 148
61.45158 127
61.4717 150
61.49181 134
61.51192 131
61.53204 135
61.55215 152
61.57226 143
61.59238 135
61.61249 130
61.63261 144
61.65272 144
61.67283 148
61.69295 149
61.71306 147
61.73317 130
61.75329 124
61.7734 147
61.79352 144
61.81363 156
61.83374 104
61.85386 167
61.87397 158
61.89408 140
61.9142 150
61.93431 136
61.95442 154
61.97454 142
61.99465 140
62.01477 155
62.03488 149
62.05499 125
62.07511 152
62.09522 156
62.11533 156
62.13545 145
62.15556 156
62.17568 116
62.19579 137
62.2159 141
62.23602 120
62.25613 135
62.27624 158
62.29636 146
62.31647 122
62.33659 116
62.3567 142
62.37681 135
62.39693 128
62.41704 121
62.43715 133
62.45727 144
62.47738 124
62.49749 147
62.51761 121
62.53772 139
62.55784 130
62.57795 144
62.59806 146
62.61818 134
62.63829 143
62.6584 148
62.67852 152
62.69863 127
62.71875 132
62.73886 129
62.75897 130
62.77909 136
62.7992 113
62.81931 133
62.83943 134
62.85954 121
62.87965 135
62.89977 144
62.91988 143
62.94 138
62.96011 148
62.98022 152
63.00034 133
63.02045 174
63.04056 131
63.06068 154
63.08079 142
63.10091 154
63.12102 135
63.14113 151
63.16125 153
63.18136 129
63.20147 140
63.22159 150
63.2417 144
63.26182 146
63.28193 137
63.30204 134
63.32216 152
63.34227 159
63.36238 146
63.3825 138
63.40261 109
63.42272 138
63.44284 127
63.46295 146
63.48307 143
63.50318 158
63.52329 134
63.54341 138
63.56352 162
63.58363 187
63.60375 170
63.62386 167
63.64398 163
63.66409 183
63.6842 192
63.70432 188
63.72443 200
63.74454 225
63.76466 245
63.78477 215
63.80489 213
63.825 261
63.84511 264
63.86523 302
63.88534 362
63.90545 366
63.92557 361
63.94568 402
63.96579 416
63.98591 415
64.00602 436
64.02614 444
64.04625 442
64.06636 376
64.08648 295
64.10659 250
64.1267 279
64.14682 257
64.16693 266
64.18705 282
64.20716 291
64.22727 231
64.24739 226
64.2675 164
64.28761 171
64.30773 146
64.32784 168
64.34796 125
64.36807 145
64.38818 142
64.4083 132
64.42841 149
64.44852 122
64.46864 124
64.48875 110
64.50886 145
64.52898 125
64.54909 137
64.56921 139
64.58932 116
64.60943 140
64.62955 153
64.64966 129
64.66977 140
64.68989 129
64.71 149
64.73012 126
64.75023 131
64.77034 120
64.79046 140
64.81057 123
64.83068 124
64.8508 124
64.87091 153
64.89102 127
64.91114 149
64.93125 121
64.95137 138
64.97148 139
64.99159 166
65.01171 167
65.03182 153
65.05193 128
65.07205 147
65.09216 152
65.11228 141
65.13239 137
65.1525 148
65.17262 150
65.19273 148
65.21284 157
65.23296 149
65.25307 148
65.27319 147
65.2933 135
65.31341 151
65.33353 153
65.35364 142
65.37375 147
65.39387 138
65.41398 162
65.43409 137
65.45421 145
65.47432 142
65.49444 150
65.51455 147
65.53466 154
65.55478 179
65.57489 172
65.595 157
65.61512 166
65.63523 173
65.65535 190
65.67546 188
65.69557 197
65.71569 194
65.7358 206
65.75591 214
65.77603 194
65.79614 230
65.81626 177
65.83637 168
65.85648 184
65.8766 197
65.89671 175
65.91682 184
65.93694 172
65.95705 142
65.97716 143
65.99728 167
66.01739 150
66.03751 153
66.05762 144
66.07773 140
66.09785 142
66.11796 150
66.13807 143
66.15819 167
66.1783 138
66.19842 130
66.21853 135
66.23864 158
66.25876 136
66.27887 149
66.29898 149
66.3191 151
66.33921 148
66.35933 141
66.37944 132
66.39955 136
66.41967 143
66.43978 129
66.45989 142
66.48001 147
66.50012 122
66.52023 132
66.54035 130
66.56046 142
66.58058 124
66.60069 133
66.6208 125
66.64092 129
66.66103 143
66.68114 126
66.70126 140
66.72137 131
66.74149 141
66.7616 139
66.78171 147
66.80183 147
66.82194 125
66.84205 160
66.86217 136
66.88228 163
66.90239 142
66.92251 150
66.94262 143
66.96274 166
66.98285 131
67.00296 152
67.02308 164
67.04319 187
67.0633 160
67.08342 183
67.10353 167
67.12365 169
67.14376 163
67.16387 180
67.18399 178
67.2041 182
67.22421 187
67.24433 206
67.26444 227
67.28456 225
67.30467 207
67.32478 252
67.3449 234
67.36501 272
67.38512 271
67.40524 280
67.42535 328
67.44546 325
67.46558 376
67.48569 435
67.50581 435
67.52592 557
67.54603 555
67.56615 654
67.58626 743
67.60637 852
67.62649 943
67.6466 982
67.66672 1042
67.68683 1140
67.70694 1185
67.72706 1178
67.74717 1058
67.76728 919
67.7874 866
67.80751 802
67.82763 787
67.84774 849
67.86785 872
67.88797 949
67.90808 1037
67.92819 1026
67.94831 973
67.96842 963
67.98853 1018
68.00865 1089
68.02876 1216
68.04888 1344
68.06899 1419
68.0891 1526
68.10922 1651
68.12933 1606
68.14944 1600
68.16956 1480
68.18967 1342
68.20979 1304
68.2299 1298
68.25001 1344
68.27013 1367
68.29024 1417
68.31035 1287
68.33047 1190
68.35058 985
68.3707 731
68.39081 623
68.41092 599
68.43104 522
68.45115 502
68.47126 490
68.49138 428
68.51149 428
68.5316 356
68.55172 303
68.57183 227
68.59195 224
68.61206 198
68.63217 195
68.65229 190
68.6724 188
68.69251 175
68.71263 170
68.73274 155
68.75286 191
68.77297 170
68.79308 165
68.8132 155
68.83331 148
68.85342 147
68.87354 156
68.89365 165
68.91376 136
68.93388 133
68.95399 158
68.97411 139
68.99422 160
69.01433 125
69.03445 148
69.05456 130
69.07467 157
69.09479 137
69.1149 145
69.13502 164
69.15513 119
69.17524 121
69.19536 131
69.21547 132
69.23558 137
69.2557 135
69.27581 146
69.29593 146
69.31604 133
69.33615 167
69.35627 159
69.37638 145
69.39649 131
69.41661 120
69.43672 137
69.45683 138
69.47695 140
69.49706 140
69.51718 127
69.53729 147
69.5574 113
69.57752 125
69.59763 124
69.61774 139
69.63786 134
69.65797 117
69.67809 129
69.6982 121
69.71831 136
69.73843 134
69.75854 141
69.77865 125
69.79877 150
69.81888 147
69.839 142
69.85911 113
69.87922 133
69.89934 140
69.91945 132
69.93956 122
69.95968 123
69.97979 137
69.9999 135
70.02002 117
70.04013 135
70.06025 124
70.08036 127
70.10047 132
70.12059 119
70.1407 125
70.16081 110
70.18093 123
70.20104 135
70.22116 120
70.24127 108
70.26138 141
70.2815 129
70.30161 133
70.32172 110
70.34184 111
70.36195 106
70.38207 103
70.40218 119
70.42229 124
70.44241 114
70.46252 120
70.48263 146
70.50275 110
70.52286 132
70.54297 129
70.56309 114
70.5832 118
70.60332 123
70.62343 126
70.64354 133
70.66366 111
70.68377 125
70.70388 135
70.724 140
70.74411 120
70.76423 125
70.78434 150
70.80445 117
70.82457 135
70.84468 145
70.86479 140
70.88491 133
70.90502 126
70.92513 120
70.94525 121
70.96536 118
70.98548 122
71.00559 136
71.0257 122
71.04582 121
71.06593 123
71.08604 89
71.10616 122
71.12627 124
71.14639 119
71.1665 113
71.18661 125
71.20673 135
71.22684 152
71.24695 130
71.26707 147
71.28718 137
71.3073 132
71.32741 126
71.34752 120
71.36764 140
71.38775 120
71.40786 136
71.42798 125
71.44809 109
71.4682 127
71.48832 131
71.50843 140
71.52855 141
71.54866 128
71.56877 114
71.58889 133
71.609 131
71.62911 126
71.64923 137
71.66934 116
71.68946 123
71.70957 130
71.72968 114
71.7498 109
71.76991 124
71.79002 118
71.81014 120
71.83025 124
71.85037 114
71.87048 157
71.89059 121
71.91071 111
71.93082 108
71.95093 137
71.97105 106
71.99116 111
72.01127 112
72.03139 115
72.0515 121
72.07162 124
72.09173 125
72.11184 117
72.13196 123
72.15207 133
72.17218 118
72.1923 125
72.21241 121
72.23253 120
72.25264 124
72.27275 123
72.29287 127
72.31298 128
72.33309 117
72.35321 107
72.37332 126
72.39344 128
72.41355 110
72.43366 135
72.45378 123
72.47389 119
72.494 110
72.51412 123
72.53423 137
72.55434 117
72.57446 120
72.59457 132
72.61469 120
72.6348 110
72.65491 122
72.67503 129
72.69514 129
72.71525 115
72.73537 111
72.75548 138
72.7756 119
72.79571 112
72.81582 148
72.83594 127
72.85605 154
72.87616 139
72.89628 140
72.91639 139
72.9365 151
72.95662 126
72.97673 160
72.99685 136
73.01696 157
73.03707 166
73.05719 164
73.0773 174
73.09741 179
73.11753 171
73.13764 192
73.15776 211
73.17787 201
73.19798 197
73.2181 223
73.23821 261
73.25832 276
73.27844 307
73.29855 310
73.31867 321
73.33878 368
73.35889 392
73.37901 410
73.39912 428
73.41923 423
73.43935 424
73.45946 463
73.47957 372
73.49969 349
73.5198 330
73.53992 281
73.56003 245
73.58014 290
73.60026 240
73.62037 276
73.64048 262
73.6606 284
73.68071 259
73.70083 221
73.72094 187
73.74105 177
73.76117 134
73.78128 171
73.80139 138
73.82151 110
73.84162 115
73.86174 140
73.88185 118
73.90196 123
73.92208 137
73.94219 143
73.9623 126
73.98242 146
74.00253 136
74.02264 115
74.04276 135
74.06287 128
74.08299 131
74.1031 116
74.12321 125
74.14333 112
74.16344 115
74.18355 124
74.20367 134
74.22378 110
74.2439 111
74.26401 121
74.28412 127
74.30424 115
74.32435 127
74.34446 109
74.36458 111
74.38469 129
74.40481 106
74.42492 131
74.44503 116
74.46515 127
74.48526 117
74.50537 132
74.52549 110
74.5456 126
74.56571 154
74.58583 135
74.60594 125
74.62606 111
74.64617 120
74.66628 130
74.6864 110
74.70651 140
74.72662 139
74.74674 126
74.76685 130
74.78697 117
74.80708 144
74.82719 130
74.84731 152
74.86742 112
74.88753 119
74.90765 117
74.92776 128
74.94787 135
74.96799 111
74.9881 157
75.00822 126
