3.00117 20680
3.02128 19889
3.0414 19274
3.06151 18822
3.08162 18336
3.10174 17976
3.12185 17667
3.14197 17212
3.16208 16369
3.18219 15963
3.20231 15652
3.22242 14919
3.24253 14757
3.26265 14013
3.28276 13712
3.30288 13491
3.32299 12663
3.3431 12539
3.36322 12097
3.38333 11625
3.40344 11276
3.42356 10726
3.44367 10647
3.46379 10019
3.4839 9825
3.50401 9727
3.52413 9030
3.54424 9009
3.56435 8389
3.58447 8364
3.60458 8120
3.62469 7663
3.64481 7383
3.66492 7085
3.68504 6839
3.70515 6624
3.72526 6222
3.74538 6098
3.76549 5780
3.7856 5617
3.80572 5564
3.82583 5274
3.84595 4883
3.86606 4693
3.88617 4460
3.90629 4447
3.9264 4123
3.94651 3949
3.96663 3727
3.98674 3658
4.00686 3601
4.02697 3221
4.04708 3270
4.0672 3106
4.08731 2945
4.10742 2914
4.12754 2720
4.14765 2759
4.16776 2482
4.18788 2495
4.20799 2425
4.22811 2283
4.24822 2177
4.26833 2128
4.28845 2063
4.30856 1978
4.32867 1761
4.34879 1900
4.3689 1872
4.38902 1871
4.40913 1804
4.42924 1625
4.44936 1628
4.46947 1681
4.48958 1715
4.5097 1674
4.52981 1488
4.54992 1505
4.57004 1426
4.59015 1462
4.61027 1423
4.63038 1361
4.65049 1233
4.67061 1323
4.69072 1259
4.71083 1317
4.73095 1200
4.75106 1244
4.77118 1166
4.79129 1285
4.8114 1113
4.83152 1094
4.85163 1116
4.87174 1109
4.89186 1092
4.91197 1131
4.93209 1051
4.9522 991
4.97231 1001
4.99243 970
5.01254 986
5.03265 918
5.05277 865
5.07288 928
5.09299 919
5.11311 907
5.13322 861
5.15334 905
5.17345 816
5.19356 845
5.21368 817
5.23379 773
5.2539 731
5.27402 754
5.29413 753
5.31425 743
5.33436 696
5.35447 686
5.37459 740
5.3947 719
5.41481 664
5.43493 676
5.45504 655
5.47516 645
5.49527 664
5.51538 616
5.5355 628
5.55561 637
5.57572 608
5.59584 615
5.61595 565
5.63606 590
5.65618 603
5.67629 568
5.69641 588
5.71652 583
5.73663 545
5.75675 576
5.77686 572
5.79697 588
5.81709 543
5.8372 535
5.85732 591
5.87743 503
5.89754 539
5.91766 499
5.93777 537
5.95788 520
5.978 494
5.99811 531
6.01823 503
6.03834 477
6.05845 477
6.07857 480
6.09868 511
6.11879 496
6.13891 485
6.15902 513
6.17913 430
6.19925 466
6.21936 494
6.23948 495
6.25959 466
6.2797 467
6.29982 466
6.31993 480
6.34004 487
6.36016 527
6.38027 480
6.40039 454
6.4205 464
6.44061 491
6.46073 454
6.48084 492
6.50095 436
6.52107 422
6.54118 425
6.56129 475
6.58141 479
6.60152 474
6.62164 431
6.64175 514
6.66186 452
6.68198 489
6.70209 467
6.7222 448
6.74232 457
6.76243 471
6.78255 498
6.80266 410
6.82277 511
6.84289 472
6.863 423
6.88311 479
6.90323 461
6.92334 468
6.94346 417
6.96357 491
6.98368 442
7.0038 462
7.02391 498
7.04402 436
7.06414 436
7.08425 440
7.10436 468
7.12448 441
7.14459 459
7.16471 382
7.18482 435
7.20493 448
7.22505 439
7.24516 426
7.26527 501
7.28539 448
7.3055 427
7.32562 438
7.34573 470
7.36584 456
7.38596 418
7.40607 441
7.42618 430
7.4463 500
7.46641 446
7.48653 445
7.50664 461
7.52675 456
7.54687 447
7.56698 453
7.58709 438
7.60721 482
7.62732 485
7.64743 492
7.66755 474
7.68766 455
7.70778 471
7.72789 505
7.748 424
7.76812 424
7.78823 454
7.80834 429
7.82846 475
7.84857 458
7.86869 468
7.8888 448
7.90891 448
7.92903 457
7.94914 452
7.96925 438
7.98937 444
8.00948 462
8.0296 495
8.04971 455
8.06982 497
8.08994 468
8.11005 389
8.13016 429
8.15028 460
8.17039 382
8.1905 433
8.21062 480
8.23073 445
8.25085 459
8.27096 494
8.29107 443
8.31119 433
8.3313 434
8.35141 483
8.37153 479
8.39164 415
8.41176 435
8.43187 459
8.45198 453
8.4721 472
8.49221 451
8.51232 446
8.53244 420
8.55255 474
8.57266 473
8.59278 432
8.61289 458
8.63301 489
8.65312 432
8.67323 433
8.69335 428
8.71346 424
8.73357 416
8.75369 431
8.7738 473
8.79392 482
8.81403 459
8.83414 435
8.85426 432
8.87437 438
8.89448 482
8.9146 437
8.93471 416
8.95483 452
8.97494 419
8.99505 450
9.01517 435
9.03528 465
9.05539 424
9.07551 447
9.09562 437
9.11573 500
9.13585 464
9.15596 465
9.17608 450
9.19619 468
9.2163 451
9.23642 450
9.25653 461
9.27664 468
9.29676 458
9.31687 475
9.33699 471
9.3571 459
9.37721 463
9.39733 460
9.41744 477
9.43755 452
9.45767 439
9.47778 454
9.4979 445
9.51801 450
9.53812 415
9.55824 409
9.57835 443
9.59846 413
9.61858 419
9.63869 450
9.6588 425
9.67892 418
9.69903 426
9.71915 444
9.73926 420
9.75937 477
9.77949 424
9.7996 472
9.81971 464
9.83983 468
9.85994 423
9.88006 448
9.90017 461
9.92028 424
9.9404 466
9.96051 469
9.98062 439
10.00074 458
10.02085 461
10.04097 450
10.06108 427
10.08119 436
10.10131 451
10.12142 448
10.14153 457
10.16165 463
10.18176 409
10.20187 405
10.22199 453
10.2421 436
10.26222 461
10.28233 471
10.30244 428
10.32256 402
10.34267 465
10.36278 441
10.3829 462
10.40301 485
10.42313 469
10.44324 450
10.46335 470
10.48347 433
10.50358 477
10.52369 442
10.54381 433
10.56392 482
10.58403 448
10.60415 450
10.62426 447
10.64438 496
10.66449 464
10.6846 488
10.70472 441
10.72483 427
10.74494 489
10.76506 463
10.78517 451
10.80529 464
10.8254 441
10.84551 446
10.86563 423
10.88574 453
10.90585 461
10.92597 464
10.94608 426
10.9662 443
10.98631 405
11.00642 447
11.02654 404
11.04665 470
11.06676 453
11.08688 472
11.10699 402
11.1271 460
11.14722 455
11.16733 478
11.18745 466
11.20756 425
11.22767 498
11.24779 479
11.2679 446
11.28801 449
11.30813 463
11.32824 459
11.34836 510
11.36847 488
11.38858 484
11.4087 458
11.42881 467
11.44892 509
11.46904 473
11.48915 477
11.50927 488
11.52938 460
11.54949 454
11.56961 469
11.58972 504
11.60983 478
11.62995 497
11.65006 476
11.67017 453
11.69029 475
11.7104 469
11.73052 458
11.75063 480
11.77074 471
11.79086 511
11.81097 439
11.83108 542
11.8512 486
11.87131 515
11.89143 483
11.91154 502
11.93165 512
11.95177 494
11.97188 523
11.99199 534
12.01211 518
12.03222 571
12.05234 563
12.07245 589
12.09256 560
12.11268 582
12.13279 608
12.1529 574
12.17302 637
12.19313 655
12.21324 614
12.23336 684
12.25347 609
12.27359 702
12.2937 700
12.31381 697
12.33393 709
12.35404 691
12.37415 723
12.39427 674
12.41438 724
12.4345 671
12.45461 605
12.47472 610
12.49484 537
12.51495 527
12.53506 515
12.55518 543
12.57529 541
12.5954 557
12.61552 475
12.63563 518
12.65575 509
12.67586 592
12.69597 471
12.71609 452
12.7362 494
12.75631 486
12.77643 496
12.79654 489
12.81666 480
12.83677 455
12.85688 411
12.877 490
12.89711 434
12.91722 469
12.93734 426
12.95745 465
12.97757 456
12.99768 425
13.01779 510
13.03791 438
13.05802 472
13.07813 468
13.09825 431
13.11836 428
13.13847 451
13.15859 455
13.1787 461
13.19882 407
13.21893 441
13.23904 398
13.25916 445
13.27927 405
13.29938 475
13.3195 427
13.33961 452
13.35973 455
13.37984 406
13.39995 406
13.42007 429
13.44018 443
13.46029 419
13.48041 448
13.50052 457
13.52064 446
13.54075 463
13.56086 473
13.58098 401
13.60109 394
13.6212 424
13.64132 411
13.66143 397
13.68154 422
13.70166 415
13.72177 456
13.74189 406
13.762 442
13.78211 424
13.80223 433
13.82234 451
13.84245 468
13.86257 449
13.88268 421
13.9028 419
13.92291 442
13.94302 454
13.96314 420
13.98325 470
14.00336 456
14.02348 431
14.04359 416
14.06371 418
14.08382 420
14.10393 416
14.12405 424
14.14416 411
14.16427 442
14.18439 417
14.2045 407
14.22461 429
14.24473 439
14.26484 412
14.28496 442
14.30507 423
14.32518 463
14.3453 413
14.36541 394
14.38552 415
14.40564 428
14.42575 441
14.44587 409
14.46598 416
14.48609 397
14.50621 431
14.52632 428
14.54643 455
14.56655 427
14.58666 417
14.60677 446
14.62689 415
14.647 440
14.66712 433
14.68723 444
14.70734 414
14.72746 463
14.74757 430
14.76768 457
14.7878 488
14.80791 455
14.82803 427
14.84814 422
14.86825 461
14.88837 413
14.90848 386
14.92859 428
14.94871 442
14.96882 437
14.98894 444
15.00905 416
15.02916 445
15.04928 420
15.06939 404
15.0895 454
15.10962 404
15.12973 432
15.14984 381
15.16996 419
15.19007 395
15.21019 358
15.2303 453
15.25041 449
15.27053 440
15.29064 417
15.31075 430
15.33087 413
15.35098 458
15.3711 442
15.39121 440
15.41132 436
15.43144 430
15.45155 480
15.47166 429
15.49178 431
15.51189 451
15.53201 414
15.55212 402
15.57223 469
15.59235 468
15.61246 432
15.63257 451
15.65269 471
15.6728 447
15.69291 448
15.71303 396
15.73314 404
15.75326 445
15.77337 463
15.79348 440
15.8136 391
15.83371 421
15.85382 450
15.87394 423
15.89405 413
15.91417 418
15.93428 462
15.95439 461
15.97451 393
15.99462 431
16.01473 397
16.03485 400
16.05496 435
16.07508 429
16.09519 383
16.1153 445
16.13542 390
16.15553 459
16.17564 442
16.19576 433
16.21587 408
16.23598 434
16.2561 442
16.27621 424
16.29633 431
16.31644 446
16.33655 434
16.35667 424
16.37678 416
16.39689 427
16.41701 440
16.43712 432
16.45724 424
16.47735 438
16.49746 426
16.51758 418
16.53769 444
16.5578 454
16.57792 401
16.59803 457
16.61814 407
16.63826 474
16.65837 448
16.67849 385
16.6986 405
16.71871 388
16.73883 397
16.75894 443
16.77905 433
16.79917 453
16.81928 430
16.8394 425
16.85951 442
16.87962 450
16.89974 450
16.91985 394
16.93996 391
16.96008 432
16.98019 413
17.00031 461
17.02042 412
17.04053 487
17.06065 475
17.08076 460
17.10087 462
17.12099 443
17.1411 430
17.16121 441
17.18133 497
17.20144 475
17.22156 447
17.24167 449
17.26178 455
17.2819 463
17.30201 425
17.32212 429
17.34224 452
17.36235 423
17.38247 414
17.40258 421
17.42269 430
17.44281 444
17.46292 407
17.48303 467
17.50315 438
17.52326 413
17.54338 439
17.56349 480
17.5836 452
17.60372 464
17.62383 456
17.64394 477
17.66406 450
17.68417 474
17.70428 486
17.7244 455
17.74451 466
17.76463 500
17.78474 508
17.80485 522
17.82497 474
17.84508 545
17.86519 561
17.88531 528
17.90542 519
17.92554 503
17.94565 522
17.96576 497
17.98588 487
18.00599 516
18.0261 593
18.04622 572
18.06633 595
18.08645 656
18.10656 680
18.12667 807
18.14679 919
18.1669 1174
18.18701 1461
18.20713 1948
18.22724 2320
18.24735 2852
18.26747 3183
18.28758 3417
18.3077 3295
18.32781 2677
18.34792 2078
18.36804 1423
18.38815 1092
18.40826 886
18.42838 677
18.44849 671
18.46861 621
18.48872 596
18.50883 576
18.52895 566
18.54906 524
18.56917 516
18.58929 511
18.6094 501
18.62951 501
18.64963 480
18.66974 566
18.68986 528
18.70997 478
18.73008 462
18.7502 467
18.77031 462
18.79042 481
18.81054 437
18.83065 505
18.85077 496
18.87088 406
18.89099 473
18.91111 478
18.93122 441
18.95133 439
18.97145 503
18.99156 485
19.01168 464
19.03179 425
19.0519 442
19.07202 448
19.09213 478
19.11224 476
19.13236 484
19.15247 459
19.17258 462
19.1927 482
19.21281 442
19.23293 457
19.25304 434
19.27315 457
19.29327 462
19.31338 453
19.33349 480
19.35361 446
19.37372 423
19.39384 427
19.41395 446
19.43406 476
19.45418 460
19.47429 491
19.4944 473
19.51452 438
19.53463 507
19.55475 487
19.57486 476
19.59497 477
19.61509 493
19.6352 535
19.65531 497
19.67543 468
19.69554 498
19.71565 525
19.73577 535
19.75588 569
19.776 536
19.79611 617
19.81622 634
19.83634 611
19.85645 659
19.87656 665
19.89668 668
19.91679 627
19.93691 630
19.95702 670
19.97713 636
19.99725 713
20.01736 644
20.03747 687
20.05759 723
20.0777 704
20.09782 636
20.11793 758
20.13804 775
20.15816 912
20.17827 1005
20.19838 1095
20.2185 1290
20.23861 1370
20.25872 1438
20.27884 1644
20.29895 1482
20.31907 1314
20.33918 1241
20.35929 1055
20.37941 1006
20.39952 937
20.41963 985
20.43975 962
20.45986 1080
20.47998 1078
20.50009 1116
20.5202 1106
20.54032 1092
20.56043 1101
20.58054 986
20.60066 919
20.62077 845
20.64088 903
20.661 883
20.68111 918
20.70123 1031
20.72134 1259
20.74145 1483
20.76157 1962
20.78168 2227
20.80179 2897
20.82191 3275
20.84202 3426
20.86214 3319
20.88225 2584
20.90236 2099
20.92248 1593
20.94259 1193
20.9627 932
20.98282 835
21.00293 777
21.02305 778
21.04316 814
21.06327 832
21.08339 859
21.1035 783
21.12361 815
21.14373 811
21.16384 767
21.18395 805
21.20407 834
21.22418 862
21.2443 836
21.26441 887
21.28452 946
21.30464 928
21.32475 946
21.34486 862
21.36498 897
21.38509 853
21.40521 876
21.42532 875
21.44543 874
21.46555 848
21.48566 901
21.50577 838
21.52589 791
21.546 757
21.56612 764
21.58623 792
21.60634 720
21.62646 776
21.64657 672
21.66668 691
21.6868 649
21.70691 667
21.72702 674
21.74714 665
21.76725 627
21.78737 668
21.80748 621
21.82759 535
21.84771 616
21.86782 627
21.88793 584
21.90805 583
21.92816 598
21.94828 569
21.96839 604
21.9885 568
22.00862 559
22.02873 555
22.04884 558
22.06896 590
22.08907 575
22.10919 561
22.1293 534
22.14941 554
22.16953 526
22.18964 554
22.20975 554
22.22987 540
22.24998 579
22.27009 531
22.29021 528
22.31032 548
22.33044 472
22.35055 485
22.37066 537
22.39078 515
22.41089 480
22.431 520
22.45112 517
22.47123 487
22.49135 519
22.51146 507
22.53157 514
22.55169 535
22.5718 536
22.59191 546
22.61203 505
22.63214 519
22.65225 546
22.67237 541
22.69248 520
22.7126 485
22.73271 492
22.75282 486
22.77294 518
22.79305 493
22.81316 506
22.83328 505
22.85339 468
22.87351 498
22.89362 472
22.91373 476
22.93385 485
22.95396 533
22.97407 482
22.99419 528
23.0143 509
23.03442 467
23.05453 521
23.07464 522
23.09476 513
23.11487 501
23.13498 490
23.1551 494
23.17521 462
23.19532 500
23.21544 503
23.23555 471
23.25567 525
23.27578 466
23.29589 510
23.31601 494
23.33612 516
23.35623 517
23.37635 529
23.39646 534
23.41658 485
23.43669 504
23.4568 486
23.47692 495
23.49703 489
23.51714 471
23.53726 503
23.55737 474
23.57749 499
23.5976 500
23.61771 536
23.63783 471
23.65794 535
23.67805 488
23.69817 503
23.71828 499
23.73839 524
23.75851 522
23.77862 507
23.79874 546
23.81885 543
23.83896 540
23.85908 532
23.87919 513
23.8993 543
23.91942 565
23.93953 548
23.95965 525
23.97976 571
23.99987 554
24.01999 552
24.0401 546
24.06021 517
24.08033 551
24.10044 556
24.12056 581
24.14067 554
24.16078 600
24.1809 533
24.20101 510
24.22112 536
24.24124 539
24.26135 518
24.28146 525
24.30158 528
24.32169 576
24.34181 538
24.36192 540
24.38203 510
24.40215 502
24.42226 484
24.44237 558
24.46249 540
24.4826 610
24.50272 570
24.52283 544
24.54294 527
24.56306 572
24.58317 566
24.60328 582
24.6234 613
24.64351 552
24.66362 635
24.68374 587
24.70385 619
24.72397 630
24.74408 671
24.76419 638
24.78431 665
24.80442 659
24.82453 663
24.84465 661
24.86476 673
24.88488 677
24.90499 637
24.9251 614
24.94522 628
24.96533 642
24.98544 643
25.00556 588
25.02567 578
25.04579 561
25.0659 582
25.08601 603
25.10613 627
25.12624 560
25.14635 521
25.16647 556
25.18658 545
25.20669 544
25.22681 536
25.24692 522
25.26704 532
25.28715 563
25.30726 549
25.32738 473
25.34749 501
25.3676 535
25.38772 501
25.40783 510
25.42795 517
25.44806 515
25.46817 526
25.48829 509
25.5084 496
25.52851 481
25.54863 531
25.56874 537
25.58886 533
25.60897 495
25.62908 497
25.6492 535
25.66931 515
25.68942 586
25.70954 583
25.72965 595
25.74976 592
25.76988 577
25.78999 586
25.81011 565
25.83022 550
25.85033 564
25.87045 529
25.89056 576
25.91067 616
25.93079 584
25.9509 588
25.97102 562
25.99113 607
26.01124 588
26.03136 625
26.05147 632
26.07158 661
26.0917 644
26.11181 675
26.13193 647
26.15204 632
26.17215 717
26.19227 699
26.21238 717
26.23249 727
26.25261 797
26.27272 852
26.29283 850
26.31295 904
26.33306 958
26.35318 1067
26.37329 1080
26.3934 1206
26.41352 1448
26.43363 1695
26.45374 2061
26.47386 2693
26.49397 3640
26.51409 4858
26.5342 6630
26.55431 8636
26.57443 11321
26.59454 13102
26.61465 13640
26.63477 12945
26.65488 10303
26.67499 8090
26.69511 6151
26.71522 4392
26.73534 2725
26.75545 1813
26.77556 1479
26.79568 1318
26.81579 1209
26.8359 1114
26.85602 1074
26.87613 1071
26.89625 1027
26.91636 955
26.93647 874
26.95659 842
26.9767 717
26.99681 738
27.01693 745
27.03704 643
27.05716 635
27.07727 577
27.09738 606
27.1175 630
27.13761 590
27.15772 598
27.17784 586
27.19795 559
27.21806 631
27.23818 576
27.25829 519
27.27841 577
27.29852 518
27.31863 549
27.33875 561
27.35886 520
27.37897 509
27.39909 498
27.4192 538
27.43932 543
27.45943 486
27.47954 558
27.49966 513
27.51977 519
27.53988 515
27.56 548
27.58011 527
27.60023 552
27.62034 491
27.64045 498
27.66057 494
27.68068 514
27.70079 493
27.72091 522
27.74102 503
27.76113 534
27.78125 534
27.80136 516
27.82148 541
27.84159 522
27.8617 541
27.88182 509
27.90193 586
27.92204 637
27.94216 632
27.96227 646
27.98239 642
28.0025 597
28.02261 556
28.04273 647
28.06284 606
28.08295 540
28.10307 524
28.12318 527
28.1433 505
28.16341 536
28.18352 505
28.20364 510
28.22375 494
28.24386 473
28.26398 498
28.28409 452
28.3042 489
28.32432 471
28.34443 452
28.36455 477
28.38466 494
28.40477 455
28.42489 495
28.445 513
28.46511 499
28.48523 465
28.50534 526
28.52546 466
28.54557 472
28.56568 498
28.5858 519
28.60591 505
28.62602 514
28.64614 534
28.66625 550
28.68636 520
28.70648 507
28.72659 525
28.74671 521
28.76682 490
28.78693 514
28.80705 499
28.82716 533
28.84727 482
28.86739 465
28.8875 469
28.90762 450
28.92773 428
28.94784 482
28.96796 441
28.98807 465
29.00818 459
29.0283 469
29.04841 471
29.06853 479
29.08864 501
29.10875 476
29.12887 494
29.14898 398
29.16909 471
29.18921 447
29.20932 393
29.22943 478
29.24955 446
29.26966 445
29.28978 455
29.30989 459
29.33 451
29.35012 453
29.37023 459
29.39034 459
29.41046 432
29.43057 437
29.45069 463
29.4708 438
29.49091 501
29.51103 452
29.53114 518
29.55125 464
29.57137 472
29.59148 474
29.6116 507
29.63171 461
29.65182 458
29.67194 477
29.69205 470
29.71216 446
29.73228 430
29.75239 491
29.7725 450
29.79262 463
29.81273 466
29.83285 453
29.85296 443
29.87307 448
29.89319 488
29.9133 460
29.93341 493
29.95353 495
29.97364 461
29.99376 487
30.01387 452
30.03398 458
30.0541 491
30.07421 464
30.09432 483
30.11444 452
30.13455 437
30.15467 484
30.17478 450
30.19489 449
30.21501 441
30.23512 444
30.25523 494
30.27535 452
30.29546 419
30.31557 490
30.33569 497
30.3558 492
30.37592 452
30.39603 493
30.41614 457
30.43626 424
30.45637 437
30.47648 447
30.4966 434
30.51671 459
30.53683 488
30.55694 490
30.57705 464
30.59717 452
30.61728 438
30.63739 459
30.65751 453
30.67762 469
30.69773 433
30.71785 441
30.73796 445
30.75808 425
30.77819 460
30.7983 394
30.81842 455
30.83853 460
30.85864 437
30.87876 419
30.89887 450
30.91899 459
30.9391 464
30.95921 448
30.97933 463
30.99944 480
31.01955 462
31.03967 494
31.05978 435
31.0799 442
31.10001 433
31.12012 459
31.14024 444
31.16035 448
31.18046 482
31.20058 451
31.22069 447
31.2408 453
31.26092 431
31.28103 397
31.30115 470
31.32126 441
31.34137 440
31.36149 471
31.3816 446
31.40171 462
31.42183 428
31.44194 468
31.46206 452
31.48217 421
31.50228 428
31.5224 457
31.54251 437
31.56262 440
31.58274 450
31.60285 445
31.62297 426
31.64308 439
31.66319 444
31.68331 468
31.70342 467
31.72353 479
31.74365 489
31.76376 412
31.78387 519
31.80399 456
31.8241 478
31.84422 433
31.86433 429
31.88444 434
31.90456 438
31.92467 472
31.94478 461
31.9649 469
31.98501 441
32.00513 445
32.02524 462
32.04535 462
32.06547 456
32.08558 438
32.10569 432
32.12581 480
32.14592 509
32.16604 461
32.18615 451
32.20626 456
32.22638 433
32.24649 457
32.2666 517
32.28672 511
32.30683 474
32.32694 513
32.34706 461
32.36717 487
32.38729 496
32.4074 456
32.42751 469
32.44763 495
32.46774 518
32.48785 587
32.50797 546
32.52808 540
32.5482 595
32.56831 560
32.58842 556
32.60854 576
32.62865 562
32.64876 588
32.66888 536
32.68899 587
32.7091 544
32.72922 498
32.74933 485
32.76945 551
32.78956 467
32.80967 480
32.82979 511
32.8499 507
32.87001 519
32.89013 528
32.91024 480
32.93036 524
32.95047 566
32.97058 535
32.9907 605
33.01081 588
33.03092 589
33.05104 611
33.07115 666
33.09127 679
33.11138 711
33.13149 660
33.15161 625
33.17172 654
33.19183 600
33.21195 604
33.23206 607
33.25217 606
33.27229 568
33.2924 572
33.31252 594
33.33263 568
33.35274 581
33.37286 549
33.39297 559
33.41308 561
33.4332 574
33.45331 529
33.47343 554
33.49354 565
33.51365 587
33.53377 542
33.55388 542
33.57399 559
33.59411 529
33.61422 576
33.63434 554
33.65445 531
33.67456 542
33.69468 566
33.71479 534
33.7349 525
33.75502 532
33.77513 527
33.79524 539
33.81536 490
33.83547 495
33.85559 515
33.8757 514
33.89581 486
33.91593 523
33.93604 481
33.95615 525
33.97627 510
33.99638 453
34.0165 462
34.03661 514
34.05672 447
34.07684 483
34.09695 503
34.11706 486
34.13718 462
34.15729 424
34.17741 435
34.19752 479
34.21763 474
34.23775 490
34.25786 452
34.27797 477
34.29809 402
34.3182 460
34.33831 457
34.35843 473
34.37854 471
34.39866 412
34.41877 493
34.43888 456
34.459 440
34.47911 428
34.49922 470
34.51934 473
34.53945 485
34.55957 493
34.57968 539
34.59979 452
34.61991 493
34.64002 459
34.66013 474
34.68025 480
34.70036 501
34.72047 546
34.74059 523
34.7607 541
34.78082 521
34.80093 551
34.82104 541
34.84116 552
34.86127 572
34.88138 550
34.9015 585
34.92161 585
34.94173 564
34.96184 596
34.98195 594
35.00207 630
35.02218 577
35.04229 552
35.06241 596
35.08252 590
35.10264 567
35.12275 607
35.14286 634
35.16298 625
35.18309 623
35.2032 724
35.22332 561
35.24343 641
35.26354 707
35.28366 680
35.30377 707
35.32389 665
35.344 716
35.36411 689
35.38423 699
35.40434 686
35.42445 725
35.44457 730
35.46468 681
35.4848 684
35.50491 676
35.52502 686
35.54514 664
35.56525 710
35.58536 642
35.60548 676
35.62559 711
35.64571 673
35.66582 673
35.68593 697
35.70605 644
35.72616 625
35.74627 624
35.76639 654
35.7865 697
35.80661 624
35.82673 608
35.84684 666
35.86696 654
35.88707 633
35.90718 611
35.9273 627
35.94741 643
35.96752 649
35.98764 584
36.00775 624
36.02787 635
36.04798 564
36.06809 567
36.08821 551
36.10832 576
36.12843 518
36.14855 606
36.16866 566
36.18878 565
36.20889 638
36.229 565
36.24912 639
36.26923 641
36.28934 730
36.30946 766
36.32957 805
36.34968 863
36.3698 907
36.38991 982
36.41003 1039
36.43014 1105
36.45025 1310
36.47037 1509
36.49048 1523
36.51059 1605
36.53071 1577
36.55082 1499
36.57094 1406
36.59105 1286
36.61116 1195
36.63128 1149
36.65139 940
36.6715 800
36.69162 739
36.71173 723
36.73184 690
36.75196 631
36.77207 693
36.79219 611
36.8123 671
36.83241 656
36.85253 652
36.87264 690
36.89275 641
36.91287 657
36.93298 705
36.9531 742
36.97321 714
36.99332 700
37.01344 727
37.03355 733
37.05366 770
37.07378 783
37.09389 768
37.11401 821
37.13412 743
37.15423 696
37.17435 692
37.19446 723
37.21457 661
37.23469 687
37.2548 715
37.27491 649
37.29503 647
37.31514 642
37.33526 628
37.35537 639
37.37548 621
37.3956 631
37.41571 677
37.43582 613
37.45594 641
37.47605 662
37.49617 684
37.51628 720
37.53639 734
37.55651 760
37.57662 823
37.59673 841
37.61685 863
37.63696 864
37.65708 836
37.67719 820
37.6973 836
37.71742 720
37.73753 747
37.75764 701
37.77776 656
37.79787 584
37.81798 611
37.8381 558
37.85821 558
37.87833 547
37.89844 538
37.91855 526
37.93867 547
37.95878 573
37.97889 515
37.99901 507
38.01912 508
38.03924 553
38.05935 539
38.07946 496
38.09958 567
38.11969 533
38.1398 490
38.15992 547
38.18003 554
38.20015 567
38.22026 549
38.24037 549
38.26049 587
38.2806 588
38.30071 608
38.32083 573
38.34094 553
38.36105 614
38.38117 615
38.40128 590
38.4214 609
38.44151 638
38.46162 568
38.48174 554
38.50185 573
38.52196 560
38.54208 554
38.56219 521
38.58231 542
38.60242 576
38.62253 569
38.64265 512
38.66276 528
38.68287 520
38.70299 520
38.7231 544
38.74321 569
38.76333 529
38.78344 548
38.80356 548
38.82367 513
38.84378 510
38.8639 548
38.88401 498
38.90412 492
38.92424 516
38.94435 539
38.96447 537
38.98458 574
39.00469 542
39.02481 575
39.04492 558
39.06503 577
39.08515 594
39.10526 562
39.12538 580
39.14549 635
39.1656 614
39.18572 632
39.20583 623
39.22594 648
39.24606 641
39.26617 691
39.28628 776
39.3064 761
39.32651 828
39.34663 955
39.36674 1030
39.38685 1208
39.40697 1292
39.42708 1341
39.44719 1335
39.46731 1110
39.48742 1008
39.50754 944
39.52765 949
39.54776 863
39.56788 755
39.58799 624
39.6081 594
39.62822 574
39.64833 498
39.66845 524
39.68856 516
39.70867 521
39.72879 519
39.7489 481
39.76901 520
39.78913 542
39.80924 529
39.82935 525
39.84947 535
39.86958 523
39.8897 493
39.90981 540
39.92992 570
39.95004 537
39.97015 614
39.99026 544
40.01038 575
40.03049 620
40.05061 649
40.07072 651
40.09083 692
40.11095 680
40.13106 697
40.15117 733
40.17129 756
40.1914 828
40.21152 862
40.23163 941
40.25174 907
40.27186 949
40.29197 833
40.31208 788
40.3322 763
40.35231 755
40.37242 717
40.39254 689
40.41265 662
40.43277 592
40.45288 630
40.47299 593
40.49311 520
40.51322 589
40.53333 545
40.55345 553
40.57356 541
40.59368 574
40.61379 558
40.6339 575
40.65402 540
40.67413 560
40.69424 562
40.71436 528
40.73447 473
40.75458 566
40.7747 557
40.79481 605
40.81493 557
40.83504 535
40.85515 566
40.87527 577
40.89538 546
40.91549 538
40.93561 541
40.95572 496
40.97584 499
40.99595 512
41.01606 522
41.03618 524
41.05629 523
41.0764 498
41.09652 527
41.11663 525
41.13675 565
41.15686 513
41.17697 521
41.19709 466
41.2172 475
41.23731 501
41.25743 538
41.27754 475
41.29765 504
41.31777 536
41.33788 520
41.358 554
41.37811 534
41.39822 540
41.41834 503
41.43845 483
41.45856 534
41.47868 553
41.49879 571
41.51891 591
41.53902 605
41.55913 570
41.57925 678
41.59936 620
41.61947 636
41.63959 636
41.6597 661
41.67982 691
41.69993 649
41.72004 649
41.74016 581
41.76027 630
41.78038 569
41.8005 551
41.82061 564
41.84072 582
41.86084 589
41.88095 492
41.90107 519
41.92118 527
41.94129 507
41.96141 522
41.98152 458
42.00163 519
42.02175 544
42.04186 516
42.06198 473
42.08209 481
42.1022 509
42.12232 454
42.14243 465
42.16254 529
42.18266 525
42.20277 497
42.22289 536
42.243 526
42.26311 558
42.28323 609
42.30334 659
42.32345 654
42.34357 768
42.36368 892
42.38379 994
42.40391 974
42.42402 976
42.44414 866
42.46425 788
42.48436 764
42.50448 775
42.52459 705
42.5447 655
42.56482 579
42.58493 514
42.60505 482
42.62516 464
42.64527 505
42.66539 485
42.6855 431
42.70561 464
42.72573 451
42.74584 445
42.76595 459
42.78607 438
42.80618 422
42.8263 453
42.84641 466
42.86652 457
42.88664 454
42.90675 471
42.92686 450
42.94698 461
42.96709 436
42.98721 464
43.00732 468
43.02743 467
43.04755 482
43.06766 435
43.08777 456
43.10789 420
43.128 448
43.14812 421
43.16823 436
43.18834 447
43.20846 455
43.22857 445
43.24868 452
43.2688 467
43.28891 425
43.30902 474
43.32914 466
43.34925 502
43.36937 460
43.38948 459
43.40959 472
43.42971 454
43.44982 407
43.46993 489
43.49005 461
43.51016 456
43.53028 442
43.55039 462
43.5705 463
43.59062 418
43.61073 418
43.63084 430
43.65096 457
43.67107 465
43.69119 454
43.7113 422
43.73141 485
43.75153 459
43.77164 457
43.79175 431
43.81187 474
43.83198 462
43.85209 492
43.87221 481
43.89232 463
43.91244 461
43.93255 509
43.95266 513
43.97278 567
43.99289 525
44.013 561
44.03312 610
44.05323 623
44.07335 652
44.09346 627
44.11357 656
44.13369 667
44.1538 662
44.17391 678
44.19403 605
44.21414 612
44.23426 626
44.25437 574
44.27448 578
44.2946 513
44.31471 518
44.33482 471
44.35494 495
44.37505 489
44.39516 502
44.41528 461
44.43539 456
44.45551 442
44.47562 495
44.49573 454
44.51585 484
44.53596 442
44.55607 449
44.57619 455
44.5963 480
44.61642 479
44.63653 436
44.65664 467
44.67676 438
44.69687 505
44.71698 406
44.7371 480
44.75721 471
44.77732 462
44.79744 479
44.81755 473
44.83767 434
44.85778 441
44.87789 426
44.89801 454
44.91812 492
44.93823 473
44.95835 463
44.97846 429
44.99858 474
45.01869 477
45.0388 477
45.05892 469
45.07903 446
45.09914 482
45.11926 488
45.13937 489
45.15949 504
45.1796 506
45.19971 477
45.21983 523
45.23994 514
45.26005 522
45.28017 563
45.30028 556
45.32039 608
45.34051 595
45.36062 640
45.38074 598
45.40085 644
45.42096 631
45.44108 632
45.46119 626
45.4813 642
45.50142 636
45.52153 644
45.54165 595
45.56176 578
45.58187 594
45.60199 585
45.6221 601
45.64221 604
45.66233 703
45.68244 723
45.70256 712
45.72267 777
45.74278 889
45.7629 784
45.78301 775
45.80312 705
45.82324 689
45.84335 653
45.86346 650
45.88358 596
45.90369 617
45.92381 542
45.94392 501
45.96403 492
45.98415 479
46.00426 457
46.02437 461
46.04449 479
46.0646 471
46.08472 469
46.10483 454
46.12494 495
46.14506 475
46.16517 467
46.18528 496
46.2054 442
46.22551 477
46.24563 416
46.26574 459
46.28585 446
46.30597 461
46.32608 416
46.34619 470
46.36631 456
46.38642 491
46.40653 444
46.42665 446
46.44676 458
46.46688 418
46.48699 452
46.5071 454
46.52722 444
46.54733 419
46.56744 408
46.58756 414
46.60767 449
46.62779 465
46.6479 468
46.66801 439
46.68813 440
46.70824 455
46.72835 503
46.74847 469
46.76858 452
46.78869 438
46.80881 410
46.82892 437
46.84904 479
46.86915 492
46.88926 441
46.90938 435
46.92949 456
46.9496 438
46.96972 440
46.98983 477
47.00995 466
47.03006 446
47.05017 448
47.07029 492
47.0904 485
47.11051 487
47.13063 450
47.15074 466
47.17086 473
47.19097 501
47.21108 462
47.2312 466
47.25131 513
47.27142 551
47.29154 536
47.31165 509
47.33176 538
47.35188 559
47.37199 533
47.39211 530
47.41222 540
47.43233 523
47.45245 513
47.47256 497
47.49267 500
47.51279 491
47.5329 459
47.55302 476
47.57313 481
47.59324 502
47.61336 456
47.63347 434
47.65358 420
47.6737 413
47.69381 457
47.71393 498
47.73404 454
47.75415 422
47.77427 440
47.79438 435
47.81449 450
47.83461 499
47.85472 456
47.87483 435
47.89495 455
47.91506 469
47.93518 442
47.95529 433
47.9754 441
47.99552 459
48.01563 455
48.03574 472
48.05586 440
48.07597 421
48.09609 441
48.1162 435
48.13631 412
48.15643 438
48.17654 450
48.19665 447
48.21677 464
48.23688 473
48.257 463
48.27711 428
48.29722 465
48.31734 441
48.33745 458
48.35756 434
48.37768 487
48.39779 448
48.4179 434
48.43802 473
48.45813 458
48.47825 443
48.49836 463
48.51847 414
48.53859 436
48.5587 427
48.57881 432
48.59893 472
48.61904 435
48.63916 412
48.65927 457
48.67938 434
48.6995 434
48.71961 491
48.73972 465
48.75984 414
48.77995 409
48.80006 419
48.82018 483
48.84029 451
48.86041 466
48.88052 478
48.90063 415
48.92075 478
48.94086 433
48.96097 410
48.98109 480
49.0012 465
49.02132 441
49.04143 432
49.06154 465
49.08166 457
49.10177 449
49.12188 468
49.142 452
49.16211 469
49.18223 435
49.20234 467
49.22245 488
49.24257 496
49.26268 457
49.28279 522
49.30291 498
49.32302 457
49.34313 472
49.36325 482
49.38336 479
49.40348 507
49.42359 493
49.4437 513
49.46382 500
49.48393 466
49.50404 466
49.52416 482
49.54427 505
49.56439 438
49.5845 450
49.60461 471
49.62473 447
49.64484 459
49.66495 487
49.68507 523
49.70518 462
49.7253 472
49.74541 526
49.76552 494
49.78564 489
49.80575 502
49.82586 551
49.84598 525
49.86609 591
49.8862 627
49.90632 588
49.92643 647
49.94655 705
49.96666 764
49.98677 913
50.00689 1064
50.027 1258
50.04711 1485
50.06723 1655
50.08734 1724
50.10746 1645
50.12757 1549
50.14768 1286
50.1678 1198
50.18791 1139
50.20802 1141
50.22814 1099
50.24825 956
50.26837 899
50.28848 695
50.30859 601
50.32871 612
50.34882 555
50.36893 601
50.38905 560
50.40916 614
50.42927 632
50.44939 646
50.4695 664
50.48962 624
50.50973 633
50.52984 627
50.54996 607
50.57007 612
50.59018 637
50.6103 568
50.63041 579
50.65053 580
50.67064 559
50.69075 587
50.71087 553
50.73098 500
50.75109 550
50.77121 532
50.79132 520
50.81143 486
50.83155 464
50.85166 491
50.87178 497
50.89189 459
50.912 488
50.93212 467
50.95223 465
50.97234 450
50.99246 484
51.01257 455
51.03269 436
51.0528 480
51.07291 494
51.09303 436
51.11314 459
51.13325 462
51.15337 470
51.17348 457
51.1936 421
51.21371 461
51.23382 478
51.25394 465
51.27405 435
51.29416 471
51.31428 429
51.33439 469
51.3545 438
51.37462 412
51.39473 404
51.41485 488
51.43496 422
51.45507 417
51.47519 434
51.4953 468
51.51541 415
51.53553 449
51.55564 404
51.57576 440
51.59587 437
51.61598 448
51.6361 450
51.65621 429
51.67632 440
51.69644 462
51.71655 460
51.73667 453
51.75678 472
51.77689 446
51.79701 441
51.81712 457
51.83723 435
51.85735 467
51.87746 494
51.89757 456
51.91769 494
51.9378 495
51.95792 488
51.97803 457
51.99814 504
52.01826 513
52.03837 559
52.05848 525
52.0786 553
52.09871 562
52.11883 575
52.13894 562
52.15905 582
52.17917 556
52.19928 549
52.21939 481
52.23951 524
52.25962 502
52.27974 517
52.29985 541
52.31996 507
52.34008 486
52.36019 473
52.3803 470
52.40042 444
52.42053 483
52.44064 458
52.46076 482
52.48087 455
52.50099 469
52.5211 448
52.54121 452
52.56133 466
52.58144 430
52.60155 474
52.62167 453
52.64178 478
52.6619 461
52.68201 466
52.70212 424
52.72224 430
52.74235 418
52.76246 444
52.78258 461
52.80269 424
52.8228 469
52.84292 459
52.86303 470
52.88315 481
52.90326 417
52.92337 473
52.94349 432
52.9636 449
52.98371 464
53.00383 464
53.02394 448
53.04406 424
53.06417 461
53.08428 464
53.1044 478
53.12451 478
53.14462 473
53.16474 506
53.18485 495
53.20497 513
53.22508 482
53.24519 493
53.26531 489
53.28542 472
53.30553 463
53.32565 440
53.34576 502
53.36587 518
53.38599 521
53.4061 476
53.42622 508
53.44633 477
53.46644 500
53.48656 496
53.50667 537
53.52678 538
53.5469 527
53.56701 503
53.58713 535
53.60724 523
53.62735 544
53.64747 522
53.66758 552
53.68769 551
53.70781 541
53.72792 618
53.74804 572
53.76815 549
53.78826 578
53.80838 574
53.82849 622
53.8486 565
53.86872 585
53.88883 581
53.90894 596
53.92906 605
53.94917 566
53.96929 589
53.9894 600
54.00951 598
54.02963 594
54.04974 607
54.06985 625
54.08997 550
54.11008 596
54.1302 603
54.15031 585
54.17042 537
54.19054 624
54.21065 597
54.23076 622
54.25088 625
54.27099 607
54.29111 637
54.31122 657
54.33133 657
54.35145 598
54.37156 686
54.39167 643
54.41179 640
54.4319 606
54.45201 593
54.47213 583
54.49224 589
54.51236 646
54.53247 559
54.55258 562
54.5727 536
54.59281 633
54.61292 572
54.63304 572
54.65315 580
54.67327 576
54.69338 617
54.71349 615
54.73361 720
54.75372 682
54.77383 767
54.79395 806
54.81406 857
54.83417 797
54.85429 768
54.8744 707
54.89452 711
54.91463 668
54.93474 661
54.95486 679
54.97497 612
54.99508 662
55.0152 612
55.03531 567
55.05543 531
55.07554 532
55.09565 502
55.11577 572
55.13588 518
55.15599 529
55.17611 529
55.19622 574
55.21634 590
55.23645 663
55.25656 647
55.27668 666
55.29679 652
55.3169 624
55.33702 605
55.35713 572
55.37724 572
55.39736 562
55.41747 573
55.43759 576
55.4577 559
55.47781 541
55.49793 505
55.51804 526
55.53815 495
55.55827 484
55.57838 497
55.5985 449
55.61861 482
55.63872 492
55.65884 452
55.67895 458
55.69906 447
55.71918 503
55.73929 436
55.75941 453
55.77952 487
55.79963 467
55.81975 436
55.83986 464
55.85997 457
55.88009 450
55.9002 479
55.92031 443
55.94043 425
55.96054 467
55.98066 464
56.00077 465
56.02088 487
56.041 433
56.06111 418
56.08122 483
56.10134 439
56.12145 507
56.14157 418
56.16168 464
56.18179 429
56.20191 459
56.22202 486
56.24213 485
56.26225 428
56.28236 476
56.30248 447
56.32259 442
56.3427 467
56.36282 459
56.38293 435
56.40304 432
56.42316 451
56.44327 436
56.46338 466
56.4835 440
56.50361 425
56.52373 472
56.54384 414
56.56395 440
56.58407 397
56.60418 417
56.62429 440
56.64441 421
56.66452 443
56.68464 436
56.70475 416
56.72486 410
56.74498 408
56.76509 478
56.7852 393
56.80532 423
56.82543 436
56.84554 418
56.86566 401
56.88577 429
56.90589 450
56.926 443
56.94611 441
56.96623 435
56.98634 424
57.00645 393
57.02657 458
57.04668 445
57.0668 454
57.08691 416
57.10702 417
57.12714 432
57.14725 421
57.16736 418
57.18748 415
57.20759 438
57.22771 441
57.24782 432
57.26793 414
57.28805 456
57.30816 469
57.32827 414
57.34839 416
57.3685 422
57.38861 460
57.40873 440
57.42884 407
57.44896 427
57.46907 459
57.48918 432
57.5093 404
57.52941 408
57.54952 455
57.56964 409
57.58975 434
57.60987 443
57.62998 431
57.65009 451
57.67021 457
57.69032 407
57.71043 447
57.73055 478
57.75066 414
57.77078 453
57.79089 475
57.811 466
57.83112 471
57.85123 407
57.87134 478
57.89146 445
57.91157 436
57.93168 494
57.9518 420
57.97191 462
57.99203 487
58.01214 460
58.03225 460
58.05237 461
58.07248 462
58.09259 452
58.11271 386
58.13282 445
58.15294 446
58.17305 465
58.19316 430
58.21328 447
58.23339 478
58.2535 431
58.27362 417
58.29373 432
58.31385 445
58.33396 425
58.35407 406
58.37419 431
58.3943 409
58.41441 430
58.43453 460
58.45464 432
58.47475 464
58.49487 480
58.51498 439
58.5351 471
58.55521 461
58.57532 460
58.59544 447
58.61555 445
58.63566 454
58.65578 433
58.67589 462
58.69601 428
58.71612 445
58.73623 449
58.75635 431
58.77646 437
58.79657 423
58.81669 417
58.8368 460
58.85691 422
58.87703 404
58.89714 401
58.91726 447
58.93737 432
58.95748 420
58.9776 454
58.99771 427
59.01782 415
59.03794 418
59.05805 396
59.07817 449
59.09828 451
59.11839 423
59.13851 438
59.15862 413
59.17873 420
59.19885 414
59.21896 432
59.23908 420
59.25919 458
59.2793 446
59.29942 437
59.31953 409
59.33964 461
59.35976 443
59.37987 515
59.39998 466
59.4201 455
59.44021 478
59.46033 430
59.48044 476
59.50055 447
59.52067 499
59.54078 485
59.56089 501
59.58101 472
59.60112 484
59.62124 504
59.64135 503
59.66146 511
59.68158 543
59.70169 527
59.7218 573
59.74192 673
59.76203 710
59.78215 671
59.80226 811
59.82237 940
59.84249 916
59.8626 1039
59.88271 1143
59.90283 1174
59.92294 1197
59.94305 1013
59.96317 937
59.98328 840
60.0034 816
60.02351 832
60.04362 848
60.06374 802
60.08385 759
60.10396 731
60.12408 608
60.14419 548
60.16431 517
60.18442 479
60.20453 444
60.22465 479
60.24476 461
60.26487 456
60.28499 466
60.3051 468
60.32522 452
60.34533 478
60.36544 456
60.38556 425
60.40567 440
60.42578 436
60.4459 403
60.46601 443
60.48612 442
60.50624 455
60.52635 446
60.54647 438
60.56658 411
60.58669 447
60.60681 417
60.62692 410
60.64703 391
60.66715 397
60.68726 415
60.70738 417
60.72749 437
60.7476 405
60.76772 421
60.78783 407
60.80794 420
60.82806 356
60.84817 372
60.86828 419
60.8884 402
60.90851 408
60.92863 419
60.94874 392
60.96885 391
60.98897 386
61.00908 376
61.02919 408
61.04931 412
61.06942 413
61.08954 401
61.10965 417
61.12976 406
61.14988 392
61.16999 427
61.1901 428
61.21022 440
61.23033 426
61.25045 405
61.27056 404
61.29067 410
61.31079 389
61.3309 426
61.35101 420
61.37113 410
61.39124 439
61.41135 414
61.43147 429
61.45158 452
61.4717 474
61.49181 437
61.51192 452
61.53204 426
61.55215 420
61.57226 428
61.59238 408
61.61249 428
61.63261 434
61.65272 403
61.67283 445
61.69295 461
61.71306 416
61.73317 426
61.75329 425
61.7734 468
61.79352 436
61.81363 419
61.83374 433
61.85386 446
61.87397 408
61.89408 439
61.9142 461
61.93431 455
61.95442 438
61.97454 461
61.99465 448
62.01477 448
62.03488 460
62.05499 441
62.07511 476
62.09522 460
62.11533 491
62.13545 470
62.15556 508
62.17568 557
62.19579 539
62.2159 517
62.23602 535
62.25613 563
62.27624 519
62.29636 513
62.31647 527
62.33659 520
62.3567 512
62.37681 537
62.39693 535
62.41704 505
62.43715 538
62.45727 486
62.47738 579
62.49749 561
62.51761 530
62.53772 491
62.55784 491
62.57795 508
62.59806 457
62.61818 473
62.63829 445
62.6584 443
62.67852 445
62.69863 430
62.71875 428
62.73886 438
62.75897 443
62.77909 435
62.7992 423
62.81931 447
62.83943 417
62.85954 437
62.87965 416
62.89977 396
62.91988 424
62.94 422
62.96011 409
62.98022 436
63.00034 415
63.02045 410
63.04056 419
63.06068 428
63.08079 430
63.10091 415
63.12102 444
63.14113 418
63.16125 451
63.18136 389
63.20147 423
63.22159 439
63.2417 412
63.26182 450
63.28193 432
63.30204 446
63.32216 445
63.34227 436
63.36238 433
63.3825 448
63.40261 450
63.42272 439
63.44284 456
63.46295 448
63.48307 475
63.50318 458
63.52329 456
63.54341 437
63.56352 459
63.58363 433
63.60375 459
63.62386 509
63.64398 516
63.66409 496
63.6842 534
63.70432 533
63.72443 571
63.74454 587
63.76466 580
63.78477 547
63.80489 524
63.825 563
63.84511 596
63.86523 576
63.88534 589
63.90545 590
63.92557 555
63.94568 642
63.96579 612
63.98591 638
64.00602 549
64.02614 572
64.04625 526
64.06636 494
64.08648 484
64.10659 494
64.1267 476
64.14682 526
64.16693 496
64.18705 498
64.20716 489
64.22727 419
64.24739 455
64.2675 479
64.28761 420
64.30773 414
64.32784 416
64.34796 390
64.36807 380
64.38818 399
64.4083 438
64.42841 425
64.44852 441
64.46864 440
64.48875 408
64.50886 426
64.52898 464
64.54909 429
64.56921 484
64.58932 440
64.60943 465
64.62955 450
64.64966 457
64.66977 434
64.68989 439
64.71 441
64.73012 458
64.75023 391
64.77034 425
64.79046 459
64.81057 438
64.83068 427
64.8508 435
64.87091 408
64.89102 387
64.91114 376
64.93125 412
64.95137 394
64.97148 440
64.99159 394
65.01171 385
65.03182 399
65.05193 428
65.07205 398
65.09216 384
65.11228 422
65.13239 383
65.1525 371
65.17262 381
65.19273 377
65.21284 385
65.23296 386
65.25307 359
65.27319 411
65.2933 368
65.31341 408
65.33353 363
65.35364 388
65.37375 388
65.39387 402
65.41398 361
65.43409 372
65.45421 432
65.47432 390
65.49444 387
65.51455 417
65.53466 357
65.55478 421
65.57489 395
65.595 399
65.61512 401
65.63523 422
65.65535 404
65.67546 440
65.69557 448
65.71569 430
65.7358 466
65.75591 408
65.77603 408
65.79614 423
65.81626 393
65.83637 385
65.85648 409
65.8766 416
65.89671 409
65.91682 428
65.93694 428
65.95705 407
65.97716 462
65.99728 432
66.01739 485
66.03751 437
66.05762 465
66.07773 464
66.09785 436
66.11796 435
66.13807 453
66.15819 460
66.1783 433
66.19842 425
66.21853 422
66.23864 444
66.25876 444
66.27887 409
66.29898 404
66.3191 412
66.33921 454
66.35933 425
66.37944 392
66.39955 425
66.41967 424
66.43978 422
66.45989 421
66.48001 451
66.50012 406
66.52023 420
66.54035 434
66.56046 456
66.58058 463
66.60069 446
66.6208 409
66.64092 456
66.66103 402
66.68114 450
66.70126 427
66.72137 392
66.74149 432
66.7616 432
66.78171 457
66.80183 425
66.82194 418
66.84205 385
66.86217 442
66.88228 443
66.90239 422
66.92251 378
66.94262 377
66.96274 395
66.98285 422
67.00296 386
67.02308 391
67.04319 398
67.0633 388
67.08342 383
67.10353 367
67.12365 411
67.14376 393
67.16387 384
67.18399 379
67.2041 371
67.22421 385
67.24433 407
67.26444 413
67.28456 421
67.30467 386
67.32478 423
67.3449 439
67.36501 405
67.38512 397
67.40524 416
67.42535 450
67.44546 456
67.46558 422
67.48569 476
67.50581 505
67.52592 489
67.54603 488
67.56615 561
67.58626 616
67.60637 646
67.62649 680
67.6466 747
67.66672 791
67.68683 829
67.70694 800
67.72706 728
67.74717 686
67.76728 598
67.7874 617
67.80751 604
67.82763 606
67.84774 687
67.86785 651
67.88797 666
67.90808 673
67.92819 677
67.94831 680
67.96842 668
67.98853 686
68.00865 770
68.02876 828
68.04888 910
68.06899 912
68.0891 999
68.10922 914
68.12933 895
68.14944 862
68.16956 786
68.18967 774
68.20979 843
68.2299 885
68.25001 931
68.27013 861
68.29024 897
68.31035 781
68.33047 685
68.35058 657
68.3707 587
68.39081 523
68.41092 558
68.43104 550
68.45115 586
68.47126 502
68.49138 488
68.51149 493
68.5316 453
68.55172 396
68.57183 447
68.59195 424
68.61206 395
68.63217 429
68.65229 396
68.6724 385
68.69251 418
68.71263 432
68.73274 378
68.75286 411
68.77297 401
68.79308 412
68.8132 404
68.83331 432
68.85342 411
68.87354 408
68.89365 413
68.91376 399
68.93388 434
68.95399 406
68.97411 366
68.99422 386
69.01433 393
69.03445 396
69.05456 406
69.07467 365
69.09479 393
69.1149 388
69.13502 387
69.15513 396
69.17524 407
69.19536 387
69.21547 421
69.23558 388
69.2557 383
69.27581 378
69.29593 423
69.31604 391
69.33615 394
69.35627 352
69.37638 377
69.39649 379
69.41661 341
69.43672 410
69.45683 402
69.47695 397
69.49706 381
69.51718 371
69.53729 371
69.5574 362
69.57752 404
69.59763 421
69.61774 372
69.63786 399
69.65797 368
69.67809 392
69.6982 367
69.71831 368
69.73843 399
69.75854 364
69.77865 396
69.79877 415
69.81888 387
69.839 381
69.85911 410
69.87922 349
69.89934 417
69.91945 338
69.93956 368
69.95968 400
69.97979 382
69.9999 381
70.02002 363
70.04013 357
70.06025 389
70.08036 353
70.10047 371
70.12059 374
70.1407 361
70.16081 416
70.18093 354
70.20104 342
70.22116 383
70.24127 400
70.26138 362
70.2815 345
70.30161 424
70.32172 357
70.34184 381
70.36195 388
70.38207 389
70.40218 407
70.42229 406
70.44241 379
70.46252 360
70.48263 342
70.50275 370
70.52286 361
70.54297 390
70.56309 361
70.5832 377
70.60332 370
70.62343 367
70.64354 385
70.66366 349
70.68377 409
70.70388 412
70.724 388
70.74411 406
70.76423 372
70.78434 349
70.80445 365
70.82457 374
70.84468 397
70.86479 385
70.88491 382
70.90502 395
70.92513 382
70.94525 346
70.96536 379
70.98548 360
71.00559 381
71.0257 379
71.04582 338
71.06593 385
71.08604 330
71.10616 345
71.12627 336
71.14639 378
71.1665 376
71.18661 383
71.20673 353
71.22684 386
71.24695 369
71.26707 380
71.28718 351
71.3073 358
71.32741 333
71.34752 383
71.36764 351
71.38775 401
71.40786 361
71.42798 343
71.44809 423
71.4682 378
71.48832 371
71.50843 385
71.52855 383
71.54866 363
71.56877 356
71.58889 361
71.609 367
71.62911 400
71.64923 373
71.66934 387
71.68946 372
71.70957 404
71.72968 407
71.7498 388
71.76991 337
71.79002 388
71.81014 401
71.83025 374
71.85037 384
71.87048 369
71.89059 378
71.91071 376
71.93082 353
71.95093 350
71.97105 359
71.99116 353
72.01127 361
72.03139 340
72.0515 356
72.07162 388
72.09173 396
72.11184 353
72.13196 345
72.15207 356
72.17218 371
72.1923 353
72.21241 363
72.23253 379
72.25264 375
72.27275 412
72.29287 323
72.31298 366
72.33309 348
72.35321 387
72.37332 370
72.39344 381
72.41355 357
72.43366 349
72.45378 367
72.47389 359
72.494 359
72.51412 358
72.53423 366
72.55434 333
72.57446 358
72.59457 324
72.61469 355
72.6348 342
72.65491 374
72.67503 352
72.69514 361
72.71525 377
72.73537 352
72.75548 327
72.7756 379
72.79571 363
72.81582 342
72.83594 343
72.85605 351
72.87616 344
72.89628 346
72.91639 344
72.9365 366
72.95662 359
72.97673 341
72.99685 332
73.01696 354
73.03707 359
73.05719 339
73.0773 356
73.09741 332
73.11753 372
73.13764 367
73.15776 359
73.17787 341
73.19798 405
73.2181 395
73.23821 332
73.25832 352
73.27844 401
73.29855 422
73.31867 415
73.33878 440
73.35889 470
73.37901 479
73.39912 457
73.41923 494
73.43935 489
73.45946 436
73.47957 437
73.49969 388
73.5198 410
73.53992 399
73.56003 457
73.58014 379
73.60026 417
73.62037 428
73.64048 416
73.6606 446
73.68071 386
73.70083 389
73.72094 349
73.74105 369
73.76117 398
73.78128 351
73.80139 384
73.82151 345
73.84162 338
73.86174 313
73.88185 346
73.90196 337
73.92208 322
73.94219 343
73.9623 356
73.98242 368
74.00253 322
74.02264 372
74.04276 320
74.06287 372
74.08299 369
74.1031 340
74.12321 336
74.14333 359
74.16344 328
74.18355 331
74.20367 346
74.22378 347
74.2439 346
74.26401 358
74.28412 350
74.30424 354
74.32435 356
74.34446 329
74.36458 354
74.38469 359
74.40481 356
74.42492 336
74.44503 344
74.46515 327
74.48526 356
74.50537 351
74.52549 361
74.5456 345
74.56571 318
74.58583 316
74.60594 306
74.62606 357
74.64617 366
74.66628 354
74.6864 349
74.70651 343
74.72662 332
74.74674 367
74.76685 344
74.78697 322
74.80708 300
74.82719 308
74.84731 312
74.86742 360
74.88753 351
74.90765 338
74.92776 346
74.94787 355
74.96799 320
74.9881 336
75.00822 340
