3.00117 17966
3.02128 16920
3.0414 17071
3.06151 16021
3.08162 15886
3.10174 15522
3.12185 14804
3.14197 14682
3.16208 13933
3.18219 13862
3.20231 13546
3.22242 12927
3.24253 12578
3.26265 12048
3.28276 12135
3.30288 11569
3.32299 10965
3.3431 10853
3.36322 10177
3.38333 9934
3.40344 9852
3.42356 9314
3.44367 9165
3.46379 8839
3.4839 8454
3.50401 8198
3.52413 7783
3.54424 7419
3.56435 7209
3.58447 7037
3.60458 6760
3.62469 6537
3.64481 6494
3.66492 6096
3.68504 5799
3.70515 5750
3.72526 5245
3.74538 5025
3.76549 4862
3.7856 4749
3.80572 4659
3.82583 4301
3.84595 4164
3.86606 3925
3.88617 3803
3.90629 3793
3.9264 3534
3.94651 3504
3.96663 3139
3.98674 3167
4.00686 3155
4.02697 2650
4.04708 2760
4.0672 2617
4.08731 2496
4.10742 2567
4.12754 2233
4.14765 2286
4.16776 2109
4.18788 2109
4.20799 2075
4.22811 1844
4.24822 1812
4.26833 1752
4.28845 1772
4.30856 1742
4.32867 1586
4.34879 1642
4.3689 1491
4.38902 1473
4.40913 1495
4.42924 1371
4.44936 1358
4.46947 1438
4.48958 1339
4.5097 1393
4.52981 1186
4.54992 1273
4.57004 1234
4.59015 1159
4.61027 1199
4.63038 1099
4.65049 1103
4.67061 1040
4.69072 1048
4.71083 1073
4.73095 936
4.75106 1046
4.77118 978
4.79129 945
4.8114 943
4.83152 938
4.85163 898
4.87174 863
4.89186 878
4.91197 791
4.93209 834
4.9522 828
4.97231 766
4.99243 717
5.01254 750
5.03265 727
5.05277 723
5.07288 741
5.09299 709
5.11311 672
5.13322 619
5.15334 589
5.17345 646
5.19356 609
5.21368 597
5.23379 590
5.2539 563
5.27402 575
5.29413 551
5.31425 560
5.33436 573
5.35447 474
5.37459 499
5.3947 500
5.41481 492
5.43493 476
5.45504 489
5.47516 471
5.49527 482
5.51538 429
5.5355 460
5.55561 413
5.57572 458
5.59584 437
5.61595 408
5.63606 404
5.65618 401
5.67629 395
5.69641 402
5.71652 394
5.73663 403
5.75675 391
5.77686 421
5.79697 381
5.81709 374
5.8372 358
5.85732 362
5.87743 405
5.89754 354
5.91766 388
5.93777 373
5.95788 359
5.978 365
5.99811 353
6.01823 337
6.03834 344
6.05845 318
6.07857 369
6.09868 317
6.11879 339
6.13891 341
6.15902 295
6.17913 285
6.19925 320
6.21936 317
6.23948 329
6.25959 340
6.2797 305
6.29982 281
6.31993 350
6.34004 271
6.36016 320
6.38027 301
6.40039 317
6.4205 290
6.44061 308
6.46073 324
6.48084 326
6.50095 280
6.52107 282
6.54118 303
6.56129 285
6.58141 267
6.60152 278
6.62164 317
6.64175 305
6.66186 308
6.68198 251
6.70209 297
6.7222 303
6.74232 300
6.76243 290
6.78255 291
6.80266 259
6.82277 254
6.84289 262
6.863 297
6.88311 271
6.90323 284
6.92334 263
6.94346 261
6.96357 289
6.98368 263
7.0038 280
7.02391 268
7.04402 284
7.06414 274
7.08425 290
7.10436 298
7.12448 280
7.14459 273
7.16471 264
7.18482 274
7.20493 259
7.22505 315
7.24516 291
7.26527 297
7.28539 274
7.3055 295
7.32562 295
7.34573 276
7.36584 294
7.38596 293
7.40607 268
7.42618 309
7.4463 285
7.46641 283
7.48653 270
7.50664 261
7.52675 311
7.54687 300
7.56698 311
7.58709 283
7.60721 308
7.62732 257
7.64743 274
7.66755 287
7.68766 289
7.70778 304
7.72789 301
7.748 281
7.76812 282
7.78823 274
7.80834 259
7.82846 310
7.84857 296
7.86869 286
7.8888 280
7.90891 280
7.92903 296
7.94914 293
7.96925 280
7.98937 259
8.00948 309
8.0296 286
8.04971 249
8.06982 287
8.08994 297
8.11005 272
8.13016 302
8.15028 355
8.17039 272
8.1905 282
8.21062 302
8.23073 292
8.25085 310
8.27096 284
8.29107 280
8.31119 263
8.3313 286
8.35141 291
8.37153 272
8.39164 275
8.41176 266
8.43187 309
8.45198 286
8.4721 301
8.49221 288
8.51232 300
8.53244 276
8.55255 287
8.57266 330
8.59278 310
8.61289 298
8.63301 285
8.65312 294
8.67323 283
8.69335 315
8.71346 293
8.73357 286
8.75369 272
8.7738 274
8.79392 335
8.81403 319
8.83414 346
8.85426 298
8.87437 295
8.89448 315
8.9146 295
8.93471 284
8.95483 311
8.97494 287
8.99505 296
9.01517 292
9.03528 307
9.05539 300
9.07551 264
9.09562 311
9.11573 299
9.13585 290
9.15596 257
9.17608 290
9.19619 305
9.2163 301
9.23642 286
9.25653 291
9.27664 273
9.29676 274
9.31687 307
9.33699 307
9.3571 258
9.37721 286
9.39733 279
9.41744 282
9.43755 301
9.45767 309
9.47778 259
9.4979 256
9.51801 279
9.53812 273
9.55824 244
9.57835 271
9.59846 256
9.61858 299
9.63869 280
9.6588 306
9.67892 302
9.69903 299
9.71915 305
9.73926 310
9.75937 262
9.77949 322
9.7996 280
9.81971 281
9.83983 248
9.85994 298
9.88006 296
9.90017 296
9.92028 230
9.9404 255
9.96051 249
9.98062 264
10.00074 281
10.02085 269
10.04097 270
10.06108 250
10.08119 300
10.10131 299
10.12142 261
10.14153 286
10.16165 255
10.18176 325
10.20187 272
10.22199 234
10.2421 277
10.26222 271
10.28233 256
10.30244 264
10.32256 287
10.34267 285
10.36278 257
10.3829 240
10.40301 278
10.42313 287
10.44324 308
10.46335 275
10.48347 302
10.50358 272
10.52369 275
10.54381 284
10.56392 275
10.58403 252
10.60415 293
10.62426 324
10.64438 276
10.66449 279
10.6846 295
10.70472 279
10.72483 271
10.74494 302
10.76506 245
10.78517 242
10.80529 271
10.8254 264
10.84551 254
10.86563 286
10.88574 282
10.90585 258
10.92597 302
10.94608 274
10.9662 290
10.98631 258
11.00642 294
11.02654 265
11.04665 304
11.06676 268
11.08688 251
11.10699 281
11.1271 263
11.14722 272
11.16733 300
11.18745 275
11.20756 285
11.22767 279
11.24779 318
11.2679 245
11.28801 273
11.30813 279
11.32824 277
11.34836 309
11.36847 312
11.38858 273
11.4087 289
11.42881 296
11.44892 305
11.46904 292
11.48915 313
11.50927 299
11.52938 272
11.54949 286
11.56961 288
11.58972 294
11.60983 289
11.62995 327
11.65006 306
11.67017 293
11.69029 270
11.7104 312
11.73052 326
11.75063 305
11.77074 264
11.79086 294
11.81097 273
11.83108 305
11.8512 271
11.87131 317
11.89143 293
11.91154 296
11.93165 307
11.95177 333
11.97188 354
11.99199 317
12.01211 319
12.03222 291
12.05234 336
12.07245 322
12.09256 292
12.11268 310
12.13279 310
12.1529 284
12.17302 330
12.19313 298
12.21324 384
12.23336 330
12.25347 340
12.27359 347
12.2937 354
12.31381 346
12.33393 358
12.35404 340
12.37415 349
12.39427 349
12.41438 365
12.4345 314
12.45461 294
12.47472 280
12.49484 322
12.51495 338
12.53506 289
12.55518 256
12.57529 295
12.5954 262
12.61552 265
12.63563 253
12.65575 285
12.67586 258
12.69597 263
12.71609 268
12.7362 266
12.75631 276
12.77643 278
12.79654 260
12.81666 282
12.83677 251
12.85688 251
12.877 256
12.89711 241
12.91722 225
12.93734 284
12.95745 261
12.97757 262
12.99768 276
13.01779 246
13.03791 261
13.05802 287
13.07813 298
13.09825 276
13.11836 291
13.13847 302
13.15859 272
13.1787 294
13.19882 259
13.21893 277
13.23904 274
13.25916 253
13.27927 275
13.29938 277
13.3195 244
13.33961 240
13.35973 282
13.37984 256
13.39995 239
13.42007 238
13.44018 264
13.46029 274
13.48041 276
13.50052 295
13.52064 231
13.54075 288
13.56086 281
13.58098 325
13.60109 351
13.6212 303
13.64132 305
13.66143 332
13.68154 317
13.70166 268
13.72177 249
13.74189 264
13.762 229
13.78211 283
13.80223 260
13.82234 279
13.84245 239
13.86257 252
13.88268 257
13.9028 236
13.92291 228
13.94302 227
13.96314 221
13.98325 222
14.00336 258
14.02348 261
14.04359 230
14.06371 204
14.08382 220
14.10393 241
14.12405 255
14.14416 242
14.16427 260
14.18439 252
14.2045 235
14.22461 233
14.24473 214
14.26484 199
14.28496 210
14.30507 211
14.32518 241
14.3453 236
14.36541 246
14.38552 249
14.40564 240
14.42575 235
14.44587 244
14.46598 239
14.48609 216
14.50621 219
14.52632 227
14.54643 247
14.56655 220
14.58666 213
14.60677 224
14.62689 242
14.647 229
14.66712 213
14.68723 237
14.70734 253
14.72746 232
14.74757 249
14.76768 222
14.7878 246
14.80791 224
14.82803 292
14.84814 239
14.86825 229
14.88837 255
14.90848 286
14.92859 274
14.94871 279
14.96882 236
14.98894 257
15.00905 255
15.02916 255
15.04928 240
15.06939 220
15.0895 269
15.10962 222
15.12973 252
15.14984 262
15.16996 233
15.19007 249
15.21019 241
15.2303 234
15.25041 228
15.27053 217
15.29064 206
15.31075 232
15.33087 243
15.35098 230
15.3711 191
15.39121 206
15.41132 203
15.43144 215
15.45155 219
15.47166 218
15.49178 221
15.51189 221
15.53201 222
15.55212 220
15.57223 218
15.59235 238
15.61246 221
15.63257 225
15.65269 215
15.6728 225
15.69291 225
15.71303 222
15.73314 234
15.75326 235
15.77337 194
15.79348 219
15.8136 237
15.83371 236
15.85382 225
15.87394 229
15.89405 218
15.91417 231
15.93428 225
15.95439 214
15.97451 206
15.99462 207
16.01473 202
16.03485 195
16.05496 243
16.07508 226
16.09519 224
16.1153 226
16.13542 231
16.15553 216
16.17564 228
16.19576 223
16.21587 211
16.23598 224
16.2561 225
16.27621 234
16.29633 219
16.31644 219
16.33655 222
16.35667 192
16.37678 205
16.39689 206
16.41701 189
16.43712 222
16.45724 232
16.47735 209
16.49746 226
16.51758 218
16.53769 219
16.5578 206
16.57792 234
16.59803 198
16.61814 220
16.63826 204
16.65837 209
16.67849 202
16.6986 218
16.71871 225
16.73883 202
16.75894 215
16.77905 200
16.79917 237
16.81928 229
16.8394 210
16.85951 207
16.87962 237
16.89974 230
16.91985 210
16.93996 214
16.96008 206
16.98019 217
17.00031 225
17.02042 224
17.04053 215
17.06065 217
17.08076 210
17.10087 212
17.12099 194
17.1411 213
17.16121 238
17.18133 226
17.20144 238
17.22156 213
17.24167 225
17.26178 196
17.2819 193
17.30201 205
17.32212 217
17.34224 206
17.36235 197
17.38247 192
17.40258 230
17.42269 204
17.44281 188
17.46292 219
17.48303 214
17.50315 240
17.52326 213
17.54338 196
17.56349 226
17.5836 218
17.60372 236
17.62383 203
17.64394 240
17.66406 189
17.68417 211
17.70428 213
17.7244 228
17.74451 214
17.76463 213
17.78474 219
17.80485 222
17.82497 227
17.84508 233
17.86519 242
17.88531 235
17.90542 219
17.92554 223
17.94565 224
17.96576 220
17.98588 231
18.00599 224
18.0261 211
18.04622 210
18.06633 222
18.08645 210
18.10656 204
18.12667 209
18.14679 202
18.1669 192
18.18701 183
18.20713 200
18.22724 222
18.24735 211
18.26747 193
18.28758 220
18.3077 230
18.32781 236
18.34792 202
18.36804 226
18.38815 202
18.40826 217
18.42838 207
18.44849 220
18.46861 195
18.48872 196
18.50883 219
18.52895 229
18.54906 228
18.56917 219
18.58929 215
18.6094 229
18.62951 194
18.64963 240
18.66974 233
18.68986 217
18.70997 233
18.73008 222
18.7502 212
18.77031 217
18.79042 229
18.81054 241
18.83065 215
18.85077 202
18.87088 217
18.89099 236
18.91111 230
18.93122 237
18.95133 226
18.97145 233
18.99156 221
19.01168 209
19.03179 211
19.0519 233
19.07202 237
19.09213 248
19.11224 219
19.13236 232
19.15247 239
19.17258 243
19.1927 247
19.21281 235
19.23293 236
19.25304 257
19.27315 276
19.29327 237
19.31338 282
19.33349 268
19.35361 268
19.37372 261
19.39384 254
19.41395 267
19.43406 260
19.45418 242
19.47429 252
19.4944 264
19.51452 285
19.53463 293
19.55475 296
19.57486 295
19.59497 293
19.61509 314
19.6352 323
19.65531 335
19.67543 344
19.69554 356
19.71565 377
19.73577 395
19.75588 410
19.776 373
19.79611 405
19.81622 462
19.83634 439
19.85645 453
19.87656 454
19.89668 447
19.91679 463
19.93691 459
19.95702 440
19.97713 471
19.99725 476
20.01736 438
20.03747 422
20.05759 421
20.0777 427
20.09782 432
20.11793 420
20.13804 453
20.15816 461
20.17827 425
20.19838 421
20.2185 432
20.23861 408
20.25872 436
20.27884 465
20.29895 442
20.31907 413
20.33918 440
20.35929 408
20.37941 451
20.39952 479
20.41963 459
20.43975 437
20.45986 485
20.47998 477
20.50009 495
20.5202 508
20.54032 490
20.56043 537
20.58054 534
20.60066 515
20.62077 578
20.64088 675
20.661 693
20.68111 820
20.70123 1110
20.72134 1421
20.74145 1875
20.76157 2551
20.78168 3323
20.80179 4233
20.82191 5040
20.84202 5331
20.86214 5512
20.88225 4690
20.90236 3786
20.92248 2793
20.94259 2017
20.9627 1460
20.98282 1251
21.00293 1112
21.02305 991
21.04316 921
21.06327 826
21.08339 725
21.1035 621
21.12361 554
21.14373 478
21.16384 503
21.18395 470
21.20407 460
21.22418 422
21.2443 425
21.26441 429
21.28452 381
21.30464 429
21.32475 413
21.34486 387
21.36498 374
21.38509 366
21.40521 403
21.42532 348
21.44543 386
21.46555 408
21.48566 385
21.50577 346
21.52589 321
21.546 375
21.56612 373
21.58623 303
21.60634 352
21.62646 371
21.64657 379
21.66668 334
21.6868 360
21.70691 341
21.72702 328
21.74714 316
21.76725 326
21.78737 335
21.80748 339
21.82759 330
21.84771 299
21.86782 325
21.88793 364
21.90805 334
21.92816 337
21.94828 356
21.96839 386
21.9885 369
22.00862 396
22.02873 404
22.04884 341
22.06896 367
22.08907 343
22.10919 327
22.1293 296
22.14941 355
22.16953 318
22.18964 353
22.20975 338
22.22987 321
22.24998 357
22.27009 358
22.29021 367
22.31032 411
22.33044 390
22.35055 418
22.37066 402
22.39078 384
22.41089 357
22.431 347
22.45112 352
22.47123 322
22.49135 353
22.51146 338
22.53157 349
22.55169 375
22.5718 342
22.59191 335
22.61203 352
22.63214 352
22.65225 378
22.67237 314
22.69248 344
22.7126 293
22.73271 304
22.75282 305
22.77294 318
22.79305 300
22.81316 303
22.83328 299
22.85339 340
22.87351 299
22.89362 318
22.91373 296
22.93385 313
22.95396 328
22.97407 310
22.99419 346
23.0143 371
23.03442 345
23.05453 378
23.07464 398
23.09476 362
23.11487 402
23.13498 404
23.1551 421
23.17521 435
23.19532 495
23.21544 443
23.23555 465
23.25567 439
23.27578 400
23.29589 393
23.31601 355
23.33612 397
23.35623 389
23.37635 340
23.39646 390
23.41658 359
23.43669 415
23.4568 399
23.47692 399
23.49703 414
23.51714 384
23.53726 400
23.55737 413
23.57749 438
23.5976 403
23.61771 384
23.63783 414
23.65794 405
23.67805 376
23.69817 368
23.71828 408
23.73839 371
23.75851 387
23.77862 388
23.79874 374
23.81885 380
23.83896 431
23.85908 436
23.87919 476
23.8993 464
23.91942 484
23.93953 477
23.95965 476
23.97976 502
23.99987 474
24.01999 428
24.0401 414
24.06021 409
24.08033 390
24.10044 344
24.12056 354
24.14067 327
24.16078 357
24.1809 353
24.20101 361
24.22112 325
24.24124 383
24.26135 372
24.28146 399
24.30158 357
24.32169 387
24.34181 379
24.36192 410
24.38203 347
24.40215 341
24.42226 354
24.44237 354
24.46249 337
24.4826 339
24.50272 347
24.52283 329
24.54294 330
24.56306 337
24.58317 351
24.60328 372
24.6234 396
24.64351 409
24.66362 379
24.68374 398
24.70385 409
24.72397 400
24.74408 386
24.76419 436
24.78431 375
24.80442 368
24.82453 405
24.84465 377
24.86476 389
24.88488 406
24.90499 381
24.9251 425
24.94522 360
24.96533 394
24.98544 384
25.00556 330
25.02567 366
25.04579 365
25.0659 354
25.08601 355
25.10613 402
25.12624 335
25.14635 337
25.16647 356
25.18658 385
25.20669 379
25.22681 364
25.24692 354
25.26704 386
25.28715 397
25.30726 415
25.32738 393
25.34749 409
25.3676 393
25.38772 404
25.40783 425
25.42795 421
25.44806 478
25.46817 517
25.48829 537
25.5084 591
25.52851 587
25.54863 675
25.56874 682
25.58886 627
25.60897 715
25.62908 673
25.6492 652
25.66931 645
25.68942 602
25.70954 566
25.72965 519
25.74976 558
25.76988 515
25.78999 494
25.81011 457
25.83022 456
25.85033 487
25.87045 458
25.89056 496
25.91067 436
25.93079 476
25.9509 501
25.97102 501
25.99113 507
26.01124 493
26.03136 560
26.05147 566
26.07158 532
26.0917 557
26.11181 565
26.13193 632
26.15204 679
26.17215 658
26.19227 773
26.21238 808
26.23249 810
26.25261 878
26.27272 960
26.29283 965
26.31295 1050
26.33306 1232
26.35318 1284
26.37329 1495
26.3934 1697
26.41352 2157
26.43363 2590
26.45374 3295
26.47386 4357
26.49397 5954
26.51409 8257
26.5342 11154
26.55431 14673
26.57443 18497
26.59454 21651
26.61465 23519
26.63477 22753
26.65488 20008
26.67499 16110
26.69511 12035
26.71522 8870
26.73534 5905
26.75545 3679
26.77556 2512
26.79568 1785
26.81579 1462
26.8359 1361
26.85602 1226
26.87613 1242
26.89625 1158
26.91636 1047
26.93647 1040
26.95659 1009
26.9767 1015
26.99681 1053
27.01693 1062
27.03704 1021
27.05716 1002
27.07727 977
27.09738 894
27.1175 828
27.13761 809
27.15772 779
27.17784 731
27.19795 707
27.21806 677
27.23818 595
27.25829 700
27.27841 718
27.29852 739
27.31863 770
27.33875 841
27.35886 930
27.37897 968
27.39909 1088
27.4192 1166
27.43932 1282
27.45943 1206
27.47954 1185
27.49966 1104
27.51977 1035
27.53988 911
27.56 773
27.58011 690
27.60023 605
27.62034 518
27.64045 461
27.66057 460
27.68068 433
27.70079 435
27.72091 397
27.74102 386
27.76113 397
27.78125 422
27.80136 402
27.82148 410
27.84159 401
27.8617 403
27.88182 387
27.90193 407
27.92204 432
27.94216 380
27.96227 381
27.98239 379
28.0025 357
28.02261 345
28.04273 334
28.06284 337
28.08295 327
28.10307 332
28.12318 329
28.1433 328
28.16341 286
28.18352 329
28.20364 337
28.22375 351
28.24386 305
28.26398 329
28.28409 320
28.3042 327
28.32432 303
28.34443 338
28.36455 290
28.38466 292
28.40477 288
28.42489 294
28.445 333
28.46511 311
28.48523 279
28.50534 309
28.52546 304
28.54557 287
28.56568 286
28.5858 297
28.60591 301
28.62602 317
28.64614 318
28.66625 259
28.68636 283
28.70648 279
28.72659 307
28.74671 266
28.76682 270
28.78693 340
28.80705 290
28.82716 275
28.84727 282
28.86739 314
28.8875 260
28.90762 291
28.92773 286
28.94784 267
28.96796 259
28.98807 289
29.00818 275
29.0283 274
29.04841 299
29.06853 289
29.08864 264
29.10875 260
29.12887 281
29.14898 288
29.16909 288
29.18921 271
29.20932 268
29.22943 306
29.24955 318
29.26966 287
29.28978 305
29.30989 338
29.33 332
29.35012 354
29.37023 330
29.39034 374
29.41046 408
29.43057 353
29.45069 371
29.4708 386
29.49091 352
29.51103 371
29.53114 352
29.55125 345
29.57137 366
29.59148 331
29.6116 345
29.63171 308
29.65182 345
29.67194 312
29.69205 331
29.71216 342
29.73228 340
29.75239 309
29.7725 317
29.79262 342
29.81273 349
29.83285 408
29.85296 380
29.87307 360
29.89319 322
29.9133 354
29.93341 347
29.95353 328
29.97364 373
29.99376 367
30.01387 374
30.03398 387
30.0541 384
30.07421 391
30.09432 366
30.11444 431
30.13455 391
30.15467 427
30.17478 393
30.19489 396
30.21501 393
30.23512 361
30.25523 353
30.27535 366
30.29546 290
30.31557 342
30.33569 327
30.3558 320
30.37592 304
30.39603 286
30.41614 294
30.43626 313
30.45637 304
30.47648 289
30.4966 323
30.51671 329
30.53683 307
30.55694 329
30.57705 309
30.59717 335
30.61728 332
30.63739 334
30.65751 346
30.67762 393
30.69773 400
30.71785 411
30.73796 457
30.75808 457
30.77819 456
30.7983 443
30.81842 466
30.83853 435
30.85864 432
30.87876 379
30.89887 363
30.91899 313
30.9391 360
30.95921 335
30.97933 337
30.99944 288
31.01955 254
31.03967 259
31.05978 283
31.0799 251
31.10001 260
31.12012 273
31.14024 275
31.16035 271
31.18046 268
31.20058 265
31.22069 242
31.2408 246
31.26092 256
31.28103 259
31.30115 244
31.32126 236
31.34137 211
31.36149 264
31.3816 228
31.40171 227
31.42183 250
31.44194 212
31.46206 263
31.48217 259
31.50228 254
31.5224 239
31.54251 242
31.56262 254
31.58274 233
31.60285 246
31.62297 231
31.64308 233
31.66319 232
31.68331 262
31.70342 227
31.72353 250
31.74365 230
31.76376 230
31.78387 241
31.80399 231
31.8241 224
31.84422 252
31.86433 260
31.88444 248
31.90456 255
31.92467 227
31.94478 262
31.9649 253
31.98501 244
32.00513 265
32.02524 287
32.04535 275
32.06547 268
32.08558 296
32.10569 310
32.12581 272
32.14592 272
32.16604 307
32.18615 300
32.20626 272
32.22638 300
32.24649 291
32.2666 322
32.28672 298
32.30683 295
32.32694 282
32.34706 295
32.36717 304
32.38729 301
32.4074 327
32.42751 308
32.44763 325
32.46774 275
32.48785 284
32.50797 282
32.52808 285
32.5482 281
32.56831 293
32.58842 282
32.60854 258
32.62865 235
32.64876 235
32.66888 247
32.68899 256
32.7091 252
32.72922 255
32.74933 227
32.76945 253
32.78956 284
32.80967 264
32.82979 265
32.8499 247
32.87001 269
32.89013 257
32.91024 261
32.93036 271
32.95047 231
32.97058 283
32.9907 260
33.01081 238
33.03092 287
33.05104 248
33.07115 273
33.09127 235
33.11138 237
33.13149 278
33.15161 276
33.17172 258
33.19183 276
33.21195 249
33.23206 246
33.25217 242
33.27229 281
33.2924 250
33.31252 248
33.33263 235
33.35274 275
33.37286 280
33.39297 271
33.41308 245
33.4332 259
33.45331 236
33.47343 248
33.49354 223
33.51365 223
33.53377 257
33.55388 251
33.57399 260
33.59411 253
33.61422 205
33.63434 278
33.65445 251
33.67456 241
33.69468 228
33.71479 239
33.7349 234
33.75502 227
33.77513 206
33.79524 222
33.81536 250
33.83547 231
33.85559 233
33.8757 249
33.89581 233
33.91593 246
33.93604 240
33.95615 241
33.97627 254
33.99638 270
34.0165 260
34.03661 277
34.05672 283
34.07684 291
34.09695 268
34.11706 283
34.13718 292
34.15729 338
34.17741 303
34.19752 321
34.21763 352
34.23775 364
34.25786 321
34.27797 361
34.29809 337
34.3182 317
34.33831 325
34.35843 342
34.37854 309
34.39866 305
34.41877 312
34.43888 369
34.459 333
34.47911 315
34.49922 348
34.51934 363
34.53945 353
34.55957 326
34.57968 344
34.59979 355
34.61991 353
34.64002 336
34.66013 375
34.68025 365
34.70036 309
34.72047 372
34.74059 394
34.7607 390
34.78082 379
34.80093 419
34.82104 378
34.84116 405
34.86127 423
34.88138 390
34.9015 407
34.92161 398
34.94173 413
34.96184 400
34.98195 389
35.00207 384
35.02218 428
35.04229 400
35.06241 393
35.08252 382
35.10264 359
35.12275 376
35.14286 377
35.16298 345
35.18309 396
35.2032 397
35.22332 366
35.24343 390
35.26354 378
35.28366 370
35.30377 353
35.32389 365
35.344 369
35.36411 381
35.38423 407
35.40434 377
35.42445 366
35.44457 390
35.46468 398
35.4848 395
35.50491 386
35.52502 409
35.54514 406
35.56525 402
35.58536 380
35.60548 395
35.62559 397
35.64571 353
35.66582 354
35.68593 368
35.70605 358
35.72616 349
35.74627 348
35.76639 353
35.7865 361
35.80661 341
35.82673 320
35.84684 306
35.86696 331
35.88707 320
35.90718 358
35.9273 319
35.94741 304
35.96752 295
35.98764 311
36.00775 340
36.02787 337
36.04798 322
36.06809 287
36.08821 323
36.10832 300
36.12843 320
36.14855 315
36.16866 337
36.18878 349
36.20889 316
36.229 305
36.24912 360
36.26923 404
36.28934 425
36.30946 390
36.32957 434
36.34968 521
36.3698 564
36.38991 732
36.41003 864
36.43014 1015
36.45025 1342
36.47037 1562
36.49048 1609
36.51059 1785
36.53071 1729
36.55082 1614
36.57094 1380
36.59105 1218
36.61116 1031
36.63128 895
36.65139 753
36.6715 563
36.69162 514
36.71173 372
36.73184 367
36.75196 370
36.77207 347
36.79219 369
36.8123 366
36.83241 330
36.85253 345
36.87264 313
36.89275 348
36.91287 295
36.93298 370
36.9531 307
36.97321 319
36.99332 341
37.01344 320
37.03355 332
37.05366 285
37.07378 308
37.09389 309
37.11401 313
37.13412 323
37.15423 327
37.17435 322
37.19446 291
37.21457 273
37.23469 287
37.2548 282
37.27491 284
37.29503 288
37.31514 278
37.33526 279
37.35537 300
37.37548 309
37.3956 290
37.41571 294
37.43582 285
37.45594 289
37.47605 317
37.49617 311
37.51628 254
37.53639 266
37.55651 285
37.57662 278
37.59673 297
37.61685 296
37.63696 319
37.65708 279
37.67719 295
37.6973 266
37.71742 297
37.73753 304
37.75764 255
37.77776 291
37.79787 270
37.81798 279
37.8381 288
37.85821 252
37.87833 240
37.89844 284
37.91855 270
37.93867 288
37.95878 246
37.97889 259
37.99901 280
38.01912 291
38.03924 305
38.05935 297
38.07946 258
38.09958 246
38.11969 256
38.1398 281
38.15992 280
38.18003 282
38.20015 302
38.22026 311
38.24037 296
38.26049 291
38.2806 304
38.30071 280
38.32083 327
38.34094 291
38.36105 298
38.38117 328
38.40128 333
38.4214 288
38.44151 310
38.46162 308
38.48174 288
38.50185 329
38.52196 322
38.54208 332
38.56219 346
38.58231 317
38.60242 343
38.62253 332
38.64265 327
38.66276 342
38.68287 274
38.70299 258
38.7231 285
38.74321 296
38.76333 305
38.78344 278
38.80356 290
38.82367 285
38.84378 276
38.8639 291
38.88401 288
38.90412 265
38.92424 293
38.94435 252
38.96447 298
38.98458 266
39.00469 312
39.02481 268
39.04492 276
39.06503 286
39.08515 301
39.10526 300
39.12538 307
39.14549 322
39.1656 323
39.18572 329
39.20583 348
39.22594 402
39.24606 440
39.26617 531
39.28628 579
39.3064 675
39.32651 773
39.34663 989
39.36674 1185
39.38685 1282
39.40697 1479
39.42708 1641
39.44719 1615
39.46731 1519
39.48742 1289
39.50754 1098
39.52765 1038
39.54776 905
39.56788 776
39.58799 582
39.6081 459
39.62822 385
39.64833 324
39.66845 319
39.68856 305
39.70867 304
39.72879 271
39.7489 286
39.76901 275
39.78913 255
39.80924 286
39.82935 241
39.84947 260
39.86958 292
39.8897 273
39.90981 249
39.92992 259
39.95004 265
39.97015 294
39.99026 254
40.01038 292
40.03049 325
40.05061 310
40.07072 345
40.09083 367
40.11095 400
40.13106 447
40.15117 525
40.17129 574
40.1914 698
40.21152 810
40.23163 929
40.25174 902
40.27186 899
40.29197 832
40.31208 729
40.3322 664
40.35231 620
40.37242 576
40.39254 493
40.41265 429
40.43277 332
40.45288 311
40.47299 302
40.49311 280
40.51322 235
40.53333 269
40.55345 251
40.57356 265
40.59368 280
40.61379 232
40.6339 262
40.65402 262
40.67413 264
40.69424 279
40.71436 256
40.73447 253
40.75458 252
40.7747 261
40.79481 288
40.81493 259
40.83504 263
40.85515 242
40.87527 236
40.89538 241
40.91549 250
40.93561 257
40.95572 270
40.97584 268
40.99595 241
41.01606 230
41.03618 251
41.05629 251
41.0764 244
41.09652 253
41.11663 244
41.13675 262
41.15686 227
41.17697 251
41.19709 225
41.2172 246
41.23731 272
41.25743 253
41.27754 242
41.29765 222
41.31777 268
41.33788 273
41.358 272
41.37811 278
41.39822 254
41.41834 253
41.43845 270
41.45856 251
41.47868 224
41.49879 239
41.51891 299
41.53902 261
41.55913 270
41.57925 285
41.59936 276
41.61947 290
41.63959 284
41.6597 341
41.67982 346
41.69993 360
41.72004 373
41.74016 393
41.76027 390
41.78038 353
41.8005 394
41.82061 371
41.84072 375
41.86084 359
41.88095 353
41.90107 344
41.92118 308
41.94129 313
41.96141 298
41.98152 255
42.00163 282
42.02175 255
42.04186 278
42.06198 288
42.08209 270
42.1022 258
42.12232 257
42.14243 296
42.16254 305
42.18266 324
42.20277 337
42.22289 386
42.243 406
42.26311 458
42.28323 529
42.30334 660
42.32345 733
42.34357 872
42.36368 1035
42.38379 1140
42.40391 1154
42.42402 1244
42.44414 1140
42.46425 1018
42.48436 854
42.50448 810
42.52459 727
42.5447 696
42.56482 536
42.58493 489
42.60505 368
42.62516 329
42.64527 334
42.66539 255
42.6855 312
42.70561 308
42.72573 270
42.74584 279
42.76595 277
42.78607 267
42.80618 258
42.8263 257
42.84641 250
42.86652 262
42.88664 264
42.90675 237
42.92686 242
42.94698 212
42.96709 221
42.98721 237
43.00732 199
43.02743 228
43.04755 239
43.06766 227
43.08777 211
43.10789 207
43.128 242
43.14812 236
43.16823 218
43.18834 249
43.20846 235
43.22857 229
43.24868 193
43.2688 224
43.28891 221
43.30902 220
43.32914 206
43.34925 218
43.36937 227
43.38948 246
43.40959 246
43.42971 239
43.44982 215
43.46993 233
43.49005 197
43.51016 234
43.53028 257
43.55039 243
43.5705 240
43.59062 220
43.61073 258
43.63084 233
43.65096 210
43.67107 229
43.69119 213
43.7113 235
43.73141 232
43.75153 229
43.77164 220
43.79175 205
43.81187 209
43.83198 223
43.85209 219
43.87221 216
43.89232 209
43.91244 225
43.93255 219
43.95266 227
43.97278 207
43.99289 227
44.013 214
44.03312 221
44.05323 224
44.07335 225
44.09346 240
44.11357 217
44.13369 236
44.1538 199
44.17391 254
44.19403 233
44.21414 232
44.23426 233
44.25437 221
44.27448 205
44.2946 212
44.31471 215
44.33482 223
44.35494 203
44.37505 186
44.39516 198
44.41528 193
44.43539 229
44.45551 204
44.47562 204
44.49573 230
44.51585 254
44.53596 229
44.55607 231
44.57619 245
44.5963 222
44.61642 226
44.63653 219
44.65664 214
44.67676 218
44.69687 222
44.71698 215
44.7371 215
44.75721 217
44.77732 229
44.79744 210
44.81755 219
44.83767 222
44.85778 231
44.87789 228
44.89801 254
44.91812 225
44.93823 247
44.95835 238
44.97846 235
44.99858 213
45.01869 219
45.0388 227
45.05892 280
45.07903 225
45.09914 245
45.11926 228
45.13937 244
45.15949 235
45.1796 221
45.19971 269
45.21983 208
45.23994 236
45.26005 263
45.28017 272
45.30028 231
45.32039 245
45.34051 249
45.36062 245
45.38074 255
45.40085 278
45.42096 265
45.44108 269
45.46119 313
45.4813 288
45.50142 326
45.52153 339
45.54165 319
45.56176 341
45.58187 394
45.60199 409
45.6221 438
45.64221 498
45.66233 576
45.68244 625
45.70256 728
45.72267 809
45.74278 874
45.7629 926
45.78301 798
45.80312 733
45.82324 645
45.84335 597
45.86346 579
45.88358 518
45.90369 488
45.92381 426
45.94392 354
45.96403 295
45.98415 323
46.00426 250
46.02437 278
46.04449 261
46.0646 240
46.08472 279
46.10483 241
46.12494 231
46.14506 260
46.16517 250
46.18528 243
46.2054 262
46.22551 252
46.24563 232
46.26574 244
46.28585 232
46.30597 232
46.32608 219
46.34619 238
46.36631 219
46.38642 213
46.40653 220
46.42665 233
46.44676 211
46.46688 216
46.48699 187
46.5071 209
46.52722 207
46.54733 197
46.56744 208
46.58756 200
46.60767 226
46.62779 208
46.6479 220
46.66801 206
46.68813 203
46.70824 191
46.72835 219
46.74847 235
46.76858 236
46.78869 195
46.80881 216
46.82892 237
46.84904 212
46.86915 229
46.88926 220
46.90938 224
46.92949 237
46.9496 236
46.96972 247
46.98983 205
47.00995 238
47.03006 251
47.05017 248
47.07029 245
47.0904 274
47.11051 235
47.13063 255
47.15074 254
47.17086 244
47.19097 256
47.21108 252
47.2312 226
47.25131 235
47.27142 221
47.29154 256
47.31165 261
47.33176 224
47.35188 239
47.37199 275
47.39211 256
47.41222 242
47.43233 246
47.45245 239
47.47256 241
47.49267 252
47.51279 220
47.5329 206
47.55302 228
47.57313 233
47.59324 190
47.61336 221
47.63347 226
47.65358 225
47.6737 178
47.69381 208
47.71393 223
47.73404 228
47.75415 213
47.77427 220
47.79438 213
47.81449 228
47.83461 216
47.85472 192
47.87483 225
47.89495 197
47.91506 217
47.93518 200
47.95529 243
47.9754 208
47.99552 215
48.01563 208
48.03574 239
48.05586 213
48.07597 214
48.09609 241
48.1162 204
48.13631 212
48.15643 216
48.17654 247
48.19665 208
48.21677 188
48.23688 173
48.257 205
48.27711 185
48.29722 219
48.31734 218
48.33745 205
48.35756 229
48.37768 215
48.39779 204
48.4179 227
48.43802 210
48.45813 213
48.47825 235
48.49836 220
48.51847 225
48.53859 216
48.5587 211
48.57881 245
48.59893 241
48.61904 244
48.63916 229
48.65927 213
48.67938 234
48.6995 228
48.71961 231
48.73972 213
48.75984 232
48.77995 277
48.80006 264
48.82018 233
48.84029 250
48.86041 252
48.88052 233
48.90063 253
48.92075 281
48.94086 251
48.96097 256
48.98109 249
49.0012 261
49.02132 280
49.04143 266
49.06154 253
49.08166 278
49.10177 263
49.12188 239
49.142 275
49.16211 251
49.18223 251
49.20234 241
49.22245 257
49.24257 235
49.26268 223
49.28279 244
49.30291 213
49.32302 233
49.34313 269
49.36325 256
49.38336 243
49.40348 256
49.42359 297
49.4437 226
49.46382 242
49.48393 258
49.50404 257
49.52416 240
49.54427 266
49.56439 247
49.5845 258
49.60461 285
49.62473 254
49.64484 268
49.66495 293
49.68507 284
49.70518 252
49.7253 301
49.74541 297
49.76552 329
49.78564 356
49.80575 351
49.82586 379
49.84598 454
49.86609 478
49.8862 484
49.90632 592
49.92643 741
49.94655 865
49.96666 1008
49.98677 1204
50.00689 1465
50.027 1787
50.04711 2111
50.06723 2291
50.08734 2506
50.10746 2563
50.12757 2321
50.14768 1945
50.1678 1803
50.18791 1565
50.20802 1493
50.22814 1476
50.24825 1324
50.26837 1053
50.28848 899
50.30859 646
50.32871 486
50.34882 417
50.36893 409
50.38905 414
50.40916 367
50.42927 414
50.44939 370
50.4695 422
50.48962 438
50.50973 447
50.52984 472
50.54996 445
50.57007 437
50.59018 422
50.6103 408
50.63041 401
50.65053 394
50.67064 362
50.69075 395
50.71087 339
50.73098 321
50.75109 329
50.77121 337
50.79132 313
50.81143 338
50.83155 295
50.85166 291
50.87178 308
50.89189 279
50.912 228
50.93212 230
50.95223 249
50.97234 273
50.99246 277
51.01257 253
51.03269 223
51.0528 249
51.07291 222
51.09303 232
51.11314 246
51.13325 247
51.15337 222
51.17348 244
51.1936 216
51.21371 225
51.23382 198
51.25394 230
51.27405 240
51.29416 196
51.31428 214
51.33439 226
51.3545 197
51.37462 209
51.39473 204
51.41485 207
51.43496 214
51.45507 200
51.47519 225
51.4953 194
51.51541 218
51.53553 206
51.55564 193
51.57576 188
51.59587 200
51.61598 214
51.6361 199
51.65621 198
51.67632 204
51.69644 192
51.71655 215
51.73667 181
51.75678 181
51.77689 179
51.79701 220
51.81712 204
51.83723 205
51.85735 191
51.87746 213
51.89757 176
51.91769 209
51.9378 184
51.95792 180
51.97803 216
51.99814 172
52.01826 202
52.03837 182
52.05848 206
52.0786 181
52.09871 209
52.11883 181
52.13894 182
52.15905 221
52.17917 208
52.19928 208
52.21939 190
52.23951 200
52.25962 198
52.27974 192
52.29985 196
52.31996 189
52.34008 197
52.36019 185
52.3803 200
52.40042 223
52.42053 190
52.44064 196
52.46076 184
52.48087 200
52.50099 203
52.5211 202
52.54121 196
52.56133 214
52.58144 205
52.60155 214
52.62167 203
52.64178 229
52.6619 211
52.68201 225
52.70212 223
52.72224 203
52.74235 188
52.76246 213
52.78258 214
52.80269 200
52.8228 227
52.84292 214
52.86303 229
52.88315 217
52.90326 255
52.92337 184
52.94349 234
52.9636 202
52.98371 222
53.00383 231
53.02394 220
53.04406 232
53.06417 216
53.08428 241
53.1044 201
53.12451 230
53.14462 196
53.16474 191
53.18485 228
53.20497 215
53.22508 229
53.24519 219
53.26531 207
53.28542 187
53.30553 238
53.32565 219
53.34576 201
53.36587 224
53.38599 215
53.4061 230
53.42622 191
53.44633 232
53.46644 236
53.48656 207
53.50667 235
53.52678 220
53.5469 212
53.56701 214
53.58713 246
53.60724 266
53.62735 234
53.64747 230
53.66758 228
53.68769 227
53.70781 261
53.72792 269
53.74804 278
53.76815 249
53.78826 241
53.80838 240
53.82849 226
53.8486 237
53.86872 233
53.88883 251
53.90894 255
53.92906 248
53.94917 249
53.96929 236
53.9894 230
54.00951 253
54.02963 243
54.04974 243
54.06985 255
54.08997 276
54.11008 259
54.1302 251
54.15031 249
54.17042 275
54.19054 265
54.21065 235
54.23076 250
54.25088 237
54.27099 262
54.29111 257
54.31122 259
54.33133 262
54.35145 272
54.37156 295
54.39167 262
54.41179 248
54.4319 265
54.45201 259
54.47213 258
54.49224 236
54.51236 280
54.53247 268
54.55258 306
54.5727 315
54.59281 316
54.61292 354
54.63304 319
54.65315 359
54.67327 441
54.69338 461
54.71349 491
54.73361 563
54.75372 688
54.77383 766
54.79395 807
54.81406 858
54.83417 894
54.85429 817
54.8744 683
54.89452 667
54.91463 622
54.93474 562
54.95486 582
54.97497 599
54.99508 531
55.0152 464
55.03531 434
55.05543 379
55.07554 343
55.09565 331
55.11577 349
55.13588 364
55.15599 394
55.17611 391
55.19622 435
55.21634 453
55.23645 432
55.25656 505
55.27668 534
55.29679 555
55.3169 497
55.33702 478
55.35713 410
55.37724 415
55.39736 388
55.41747 380
55.43759 378
55.4577 371
55.47781 335
55.49793 322
55.51804 268
55.53815 269
55.55827 260
55.57838 233
55.5985 237
55.61861 257
55.63872 223
55.65884 251
55.67895 264
55.69906 247
55.71918 244
55.73929 211
55.75941 250
55.77952 226
55.79963 252
55.81975 243
55.83986 221
55.85997 229
55.88009 254
55.9002 261
55.92031 225
55.94043 230
55.96054 234
55.98066 225
56.00077 229
56.02088 230
56.041 216
56.06111 219
56.08122 231
56.10134 227
56.12145 248
56.14157 220
56.16168 209
56.18179 211
56.20191 216
56.22202 214
56.24213 233
56.26225 223
56.28236 222
56.30248 219
56.32259 221
56.3427 223
56.36282 198
56.38293 223
56.40304 211
56.42316 226
56.44327 208
56.46338 241
56.4835 223
56.50361 246
56.52373 196
56.54384 220
56.56395 214
56.58407 223
56.60418 227
56.62429 219
56.64441 241
56.66452 235
56.68464 238
56.70475 212
56.72486 241
56.74498 232
56.76509 252
56.7852 218
56.80532 227
56.82543 215
56.84554 237
56.86566 195
56.88577 232
56.90589 219
56.926 232
56.94611 235
56.96623 245
56.98634 211
57.00645 204
57.02657 212
57.04668 223
57.0668 224
57.08691 227
57.10702 231
57.12714 232
57.14725 235
57.16736 255
57.18748 240
57.20759 222
57.22771 246
57.24782 243
57.26793 252
57.28805 234
57.30816 270
57.32827 242
57.34839 240
57.3685 225
57.38861 214
57.40873 209
57.42884 199
57.44896 219
57.46907 176
57.48918 218
57.5093 232
57.52941 198
57.54952 226
57.56964 206
57.58975 235
57.60987 205
57.62998 212
57.65009 219
57.67021 222
57.69032 230
57.71043 197
57.73055 204
57.75066 220
57.77078 201
57.79089 204
57.811 205
57.83112 227
57.85123 211
57.87134 200
57.89146 219
57.91157 208
57.93168 205
57.9518 216
57.97191 218
57.99203 195
58.01214 209
58.03225 201
58.05237 227
58.07248 213
58.09259 199
58.11271 218
58.13282 203
58.15294 191
58.17305 184
58.19316 189
58.21328 221
58.23339 211
58.2535 220
58.27362 213
58.29373 185
58.31385 227
58.33396 192
58.35407 217
58.37419 226
58.3943 208
58.41441 221
58.43453 215
58.45464 230
58.47475 236
58.49487 225
58.51498 231
58.5351 241
58.55521 242
58.57532 246
58.59544 214
58.61555 223
58.63566 238
58.65578 203
58.67589 224
58.69601 267
58.71612 226
58.73623 201
58.75635 223
58.77646 221
58.79657 208
58.81669 205
58.8368 231
58.85691 196
58.87703 199
58.89714 204
58.91726 223
58.93737 192
58.95748 200
58.9776 213
58.99771 208
59.01782 183
59.03794 206
59.05805 218
59.07817 211
59.09828 218
59.11839 220
59.13851 201
59.15862 207
59.17873 214
59.19885 203
59.21896 211
59.23908 204
59.25919 235
59.2793 200
59.29942 216
59.31953 228
59.33964 251
59.35976 247
59.37987 224
59.39998 258
59.4201 256
59.44021 259
59.46033 244
59.48044 258
59.50055 248
59.52067 278
59.54078 264
59.56089 285
59.58101 302
59.60112 306
59.62124 355
59.64135 358
59.66146 393
59.68158 369
59.70169 432
59.7218 515
59.74192 569
59.76203 690
59.78215 799
59.80226 972
59.82237 1082
59.84249 1293
59.8626 1469
59.88271 1631
59.90283 1690
59.92294 1701
59.94305 1506
59.96317 1355
59.98328 1118
60.0034 1030
60.02351 932
60.04362 951
60.06374 975
60.08385 909
60.10396 826
60.12408 672
60.14419 518
60.16431 430
60.18442 392
60.20453 326
60.22465 296
60.24476 310
60.26487 271
60.28499 277
60.3051 251
60.32522 248
60.34533 258
60.36544 233
60.38556 245
60.40567 225
60.42578 200
60.4459 250
60.46601 233
60.48612 242
60.50624 214
60.52635 222
60.54647 229
60.56658 243
60.58669 226
60.60681 228
60.62692 206
60.64703 213
60.66715 239
60.68726 222
60.70738 201
60.72749 195
60.7476 198
60.76772 224
60.78783 219
60.80794 240
60.82806 210
60.84817 248
60.86828 218
60.8884 196
60.90851 210
60.92863 217
60.94874 242
60.96885 217
60.98897 232
61.00908 237
61.02919 208
61.04931 218
61.06942 256
61.08954 239
61.10965 251
61.12976 240
61.14988 234
61.16999 260
61.1901 243
61.21022 242
61.23033 232
61.25045 215
61.27056 238
61.29067 262
61.31079 256
61.3309 251
61.35101 256
61.37113 228
61.39124 219
61.41135 247
61.43147 246
61.45158 229
61.4717 215
61.49181 239
61.51192 230
61.53204 253
61.55215 245
61.57226 226
61.59238 240
61.61249 254
61.63261 245
61.65272 232
61.67283 278
61.69295 245
61.71306 242
61.73317 241
61.75329 246
61.7734 245
61.79352 277
61.81363 243
61.83374 244
61.85386 259
61.87397 285
61.89408 258
61.9142 269
61.93431 256
61.95442 257
61.97454 270
61.99465 283
62.01477 281
62.03488 287
62.05499 269
62.07511 252
62.09522 253
62.11533 260
62.13545 264
62.15556 305
62.17568 303
62.19579 307
62.2159 304
62.23602 259
62.25613 287
62.27624 265
62.29636 267
62.31647 295
62.33659 269
62.3567 279
62.37681 284
62.39693 257
62.41704 286
62.43715 273
62.45727 262
62.47738 251
62.49749 237
62.51761 234
62.53772 239
62.55784 265
62.57795 232
62.59806 252
62.61818 269
62.63829 248
62.6584 239
62.67852 237
62.69863 252
62.71875 234
62.73886 237
62.75897 230
62.77909 235
62.7992 219
62.81931 230
62.83943 226
62.85954 240
62.87965 240
62.89977 209
62.91988 233
62.94 215
62.96011 231
62.98022 262
63.00034 258
63.02045 251
63.04056 244
63.06068 215
63.08079 232
63.10091 224
63.12102 222
63.14113 217
63.16125 227
63.18136 212
63.20147 218
63.22159 226
63.2417 257
63.26182 215
63.28193 227
63.30204 222
63.32216 232
63.34227 232
63.36238 232
63.3825 245
63.40261 213
63.42272 223
63.44284 221
63.46295 243
63.48307 209
63.50318 257
63.52329 228
63.54341 244
63.56352 236
63.58363 247
63.60375 239
63.62386 217
63.64398 246
63.66409 255
63.6842 257
63.70432 225
63.72443 277
63.74454 272
63.76466 291
63.78477 315
63.80489 289
63.825 330
63.84511 360
63.86523 337
63.88534 414
63.90545 432
63.92557 416
63.94568 483
63.96579 511
63.98591 503
64.00602 516
64.02614 469
64.04625 430
64.06636 404
64.08648 368
64.10659 358
64.1267 322
64.14682 390
64.16693 356
64.18705 385
64.20716 294
64.22727 310
64.24739 289
64.2675 284
64.28761 251
64.30773 221
64.32784 256
64.34796 245
64.36807 235
64.38818 229
64.4083 217
64.42841 216
64.44852 233
64.46864 206
64.48875 226
64.50886 204
64.52898 187
64.54909 193
64.56921 194
64.58932 209
64.60943 208
64.62955 196
64.64966 219
64.66977 198
64.68989 207
64.71 185
64.73012 223
64.75023 219
64.77034 216
64.79046 197
64.81057 227
64.83068 213
64.8508 194
64.87091 204
64.89102 229
64.91114 218
64.93125 163
64.95137 203
64.97148 203
64.99159 235
65.01171 207
65.03182 228
65.05193 222
65.07205 221
65.09216 205
65.11228 230
65.13239 219
65.1525 221
65.17262 238
65.19273 215
65.21284 228
65.23296 215
65.25307 211
65.27319 216
65.2933 260
65.31341 238
65.33353 231
65.35364 236
65.37375 208
65.39387 230
65.41398 207
65.43409 221
65.45421 219
65.47432 227
65.49444 200
65.51455 191
65.53466 246
65.55478 222
65.57489 217
65.595 215
65.61512 225
65.63523 242
65.65535 239
65.67546 259
65.69557 264
65.71569 294
65.7358 262
65.75591 281
65.77603 260
65.79614 231
65.81626 263
65.83637 233
65.85648 228
65.8766 233
65.89671 256
65.91682 212
65.93694 233
65.95705 239
65.97716 211
65.99728 190
66.01739 219
66.03751 232
66.05762 219
66.07773 210
66.09785 206
66.11796 193
66.13807 203
66.15819 232
66.1783 211
66.19842 242
66.21853 234
66.23864 209
66.25876 218
66.27887 214
66.29898 218
66.3191 212
66.33921 218
66.35933 234
66.37944 202
66.39955 216
66.41967 225
66.43978 210
66.45989 212
66.48001 224
66.50012 222
66.52023 194
66.54035 202
66.56046 203
66.58058 201
66.60069 207
66.6208 201
66.64092 227
66.66103 205
66.68114 193
66.70126 205
66.72137 203
66.74149 199
66.7616 207
66.78171 221
66.80183 214
66.82194 213
66.84205 219
66.86217 215
66.88228 208
66.90239 210
66.92251 207
66.94262 219
66.96274 206
66.98285 218
67.00296 223
67.02308 217
67.04319 229
67.0633 230
67.08342 204
67.10353 239
67.12365 251
67.14376 238
67.16387 215
67.18399 233
67.2041 229
67.22421 239
67.24433 247
67.26444 254
67.28456 247
67.30467 249
67.32478 259
67.3449 266
67.36501 257
67.38512 284
67.40524 271
67.42535 322
67.44546 316
67.46558 332
67.48569 395
67.50581 420
67.52592 475
67.54603 527
67.56615 597
67.58626 656
67.60637 799
67.62649 892
67.6466 904
67.66672 996
67.68683 1071
67.70694 1041
67.72706 904
67.74717 884
67.76728 727
67.7874 672
67.80751 706
67.82763 743
67.84774 755
67.86785 773
67.88797 848
67.90808 809
67.92819 847
67.94831 787
67.96842 808
67.98853 899
68.00865 960
68.02876 1088
68.04888 1208
68.06899 1272
68.0891 1420
68.10922 1402
68.12933 1330
68.14944 1233
68.16956 1176
68.18967 1104
68.20979 1177
68.2299 1186
68.25001 1241
68.27013 1243
68.29024 1247
68.31035 1133
68.33047 985
68.35058 791
68.3707 705
68.39081 652
68.41092 616
68.43104 589
68.45115 556
68.47126 515
68.49138 449
68.51149 447
68.5316 371
68.55172 334
68.57183 295
68.59195 275
68.61206 283
68.63217 266
68.65229 258
68.6724 224
68.69251 225
68.71263 267
68.73274 256
68.75286 235
68.77297 218
68.79308 230
68.8132 235
68.83331 197
68.85342 214
68.87354 221
68.89365 219
68.91376 215
68.93388 196
68.95399 227
68.97411 209
68.99422 194
69.01433 193
69.03445 214
69.05456 194
69.07467 211
69.09479 175
69.1149 194
69.13502 198
69.15513 192
69.17524 202
69.19536 243
69.21547 181
69.23558 207
69.2557 196
69.27581 202
69.29593 216
69.31604 227
69.33615 193
69.35627 213
69.37638 202
69.39649 189
69.41661 183
69.43672 190
69.45683 205
69.47695 181
69.49706 204
69.51718 212
69.53729 231
69.5574 208
69.57752 191
69.59763 193
69.61774 220
69.63786 183
69.65797 215
69.67809 195
69.6982 190
69.71831 174
69.73843 213
69.75854 187
69.77865 190
69.79877 192
69.81888 196
69.839 222
69.85911 201
69.87922 197
69.89934 195
69.91945 206
69.93956 209
69.95968 176
69.97979 194
69.9999 192
70.02002 178
70.04013 201
70.06025 186
70.08036 198
70.10047 194
70.12059 195
70.1407 217
70.16081 215
70.18093 214
70.20104 183
70.22116 217
70.24127 195
70.26138 182
70.2815 210
70.30161 191
70.32172 204
70.34184 178
70.36195 177
70.38207 191
70.40218 181
70.42229 218
70.44241 188
70.46252 187
70.48263 199
70.50275 188
70.52286 196
70.54297 169
70.56309 216
70.5832 204
70.60332 191
70.62343 200
70.64354 203
70.66366 225
70.68377 186
70.70388 194
70.724 176
70.74411 212
70.76423 189
70.78434 188
70.80445 190
70.82457 177
70.84468 178
70.86479 177
70.88491 183
70.90502 196
70.92513 202
70.94525 199
70.96536 154
70.98548 195
71.00559 200
71.0257 200
71.04582 203
71.06593 205
71.08604 200
71.10616 170
71.12627 162
71.14639 190
71.1665 184
71.18661 190
71.20673 194
71.22684 196
71.24695 209
71.26707 188
71.28718 190
71.3073 198
71.32741 182
71.34752 209
71.36764 218
71.38775 204
71.40786 207
71.42798 208
71.44809 206
71.4682 213
71.48832 204
71.50843 203
71.52855 200
71.54866 250
71.56877 232
71.58889 198
71.609 201
71.62911 210
71.64923 201
71.66934 206
71.68946 191
71.70957 196
71.72968 211
71.7498 240
71.76991 194
71.79002 215
71.81014 184
71.83025 235
71.85037 200
71.87048 199
71.89059 199
71.91071 202
71.93082 233
71.95093 211
71.97105 221
71.99116 211
72.01127 224
72.03139 220
72.0515 223
72.07162 229
72.09173 211
72.11184 205
72.13196 201
72.15207 234
72.17218 234
72.1923 221
72.21241 220
72.23253 191
72.25264 191
72.27275 214
72.29287 221
72.31298 227
72.33309 216
72.35321 217
72.37332 232
72.39344 239
72.41355 176
72.43366 216
72.45378 184
72.47389 215
72.494 208
72.51412 216
72.53423 207
72.55434 215
72.57446 196
72.59457 207
72.61469 187
72.6348 198
72.65491 196
72.67503 193
72.69514 220
72.71525 211
72.73537 175
72.75548 196
72.7756 198
72.79571 199
72.81582 193
72.83594 202
72.85605 216
72.87616 216
72.89628 223
72.91639 198
72.9365 240
72.95662 248
72.97673 213
72.99685 242
73.01696 245
73.03707 212
73.05719 264
73.0773 255
73.09741 245
73.11753 247
73.13764 234
73.15776 258
73.17787 262
73.19798 261
73.2181 245
73.23821 298
73.25832 305
73.27844 310
73.29855 361
73.31867 394
73.33878 403
73.35889 483
73.37901 457
73.39912 478
73.41923 510
73.43935 449
73.45946 460
73.47957 421
73.49969 375
73.5198 376
73.53992 349
73.56003 344
73.58014 355
73.60026 349
73.62037 368
73.64048 353
73.6606 329
73.68071 321
73.70083 304
73.72094 261
73.74105 227
73.76117 256
73.78128 211
73.80139 213
73.82151 251
73.84162 214
73.86174 234
73.88185 193
73.90196 219
73.92208 217
73.94219 195
73.9623 242
73.98242 208
74.00253 212
74.02264 201
74.04276 199
74.06287 200
74.08299 206
74.1031 171
74.12321 194
74.14333 199
74.16344 213
74.18355 204
74.20367 210
74.22378 219
74.2439 206
74.26401 197
74.28412 194
74.30424 235
74.32435 194
74.34446 249
74.36458 212
74.38469 207
74.40481 186
74.42492 202
74.44503 191
74.46515 206
74.48526 210
74.50537 226
74.52549 208
74.5456 213
74.56571 220
74.58583 213
74.60594 221
74.62606 207
74.64617 206
74.66628 216
74.6864 201
74.70651 230
74.72662 211
74.74674 204
74.76685 193
74.78697 194
74.80708 233
74.82719 223
74.84731 216
74.86742 196
74.88753 208
74.90765 222
74.92776 203
74.94787 208
74.96799 213
74.9881 216
75.00822 226
