3.00117 21905
3.02128 21333
3.0414 20437
3.06151 20468
3.08162 19264
3.10174 19182
3.12185 18958
3.14197 17757
3.16208 17737
3.18219 16877
3.20231 16811
3.22242 16355
3.24253 15283
3.26265 15216
3.28276 14480
3.30288 14217
3.32299 13843
3.3431 13070
3.36322 12996
3.38333 12246
3.40344 12030
3.42356 11489
3.44367 11272
3.46379 10845
3.4839 10185
3.50401 10111
3.52413 10106
3.54424 9037
3.56435 9188
3.58447 8446
3.60458 8295
3.62469 8113
3.64481 7581
3.66492 7548
3.68504 7085
3.70515 6918
3.72526 6599
3.74538 6304
3.76549 6091
3.7856 5636
3.80572 5601
3.82583 5479
3.84595 4896
3.86606 4798
3.88617 4601
3.90629 4475
3.9264 4225
3.94651 3838
3.96663 3909
3.98674 3554
4.00686 3489
4.02697 3402
4.04708 3145
4.0672 3136
4.08731 2890
4.10742 2803
4.12754 2653
4.14765 2459
4.16776 2459
4.18788 2188
4.20799 2181
4.22811 2191
4.24822 1829
4.26833 1957
4.28845 1803
4.30856 1833
4.32867 1767
4.34879 1611
4.3689 1653
4.38902 1587
4.40913 1495
4.42924 1561
4.44936 1364
4.46947 1342
4.48958 1240
4.5097 1325
4.52981 1363
4.54992 1139
4.57004 1187
4.59015 1145
4.61027 1120
4.63038 1170
4.65049 935
4.67061 996
4.69072 1033
4.71083 1006
4.73095 1027
4.75106 940
4.77118 836
4.79129 867
4.8114 819
4.83152 906
4.85163 783
4.87174 759
4.89186 774
4.91197 733
4.93209 738
4.9522 686
4.97231 685
4.99243 665
5.01254 597
5.03265 672
5.05277 642
5.07288 567
5.09299 581
5.11311 534
5.13322 560
5.15334 503
5.17345 575
5.19356 489
5.21368 484
5.23379 477
5.2539 461
5.27402 490
5.29413 439
5.31425 463
5.33436 451
5.35447 394
5.37459 406
5.3947 351
5.41481 395
5.43493 374
5.45504 373
5.47516 327
5.49527 337
5.51538 377
5.5355 316
5.55561 289
5.57572 299
5.59584 285
5.61595 283
5.63606 263
5.65618 306
5.67629 283
5.69641 255
5.71652 256
5.73663 230
5.75675 249
5.77686 243
5.79697 217
5.81709 252
5.8372 222
5.85732 228
5.87743 216
5.89754 227
5.91766 213
5.93777 210
5.95788 199
5.978 226
5.99811 204
6.01823 193
6.03834 182
6.05845 184
6.07857 194
6.09868 212
6.11879 202
6.13891 209
6.15902 187
6.17913 204
6.19925 200
6.21936 182
6.23948 176
6.25959 176
6.2797 166
6.29982 190
6.31993 170
6.34004 175
6.36016 170
6.38027 166
6.40039 171
6.4205 138
6.44061 166
6.46073 193
6.48084 170
6.50095 162
6.52107 175
6.54118 143
6.56129 167
6.58141 148
6.60152 152
6.62164 163
6.64175 164
6.66186 129
6.68198 165
6.70209 179
6.7222 150
6.74232 182
6.76243 168
6.78255 189
6.80266 175
6.82277 172
6.84289 161
6.863 138
6.88311 164
6.90323 169
6.92334 175
6.94346 178
6.96357 154
6.98368 149
7.0038 172
7.02391 171
7.04402 162
7.06414 161
7.08425 171
7.10436 131
7.12448 164
7.14459 153
7.16471 184
7.18482 155
7.20493 150
7.22505 172
7.24516 149
7.26527 182
7.28539 153
7.3055 170
7.32562 167
7.34573 172
7.36584 158
7.38596 154
7.40607 190
7.42618 159
7.4463 197
7.46641 213
7.48653 155
7.50664 183
7.52675 177
7.54687 160
7.56698 187
7.58709 178
7.60721 207
7.62732 159
7.64743 181
7.66755 164
7.68766 154
7.70778 158
7.72789 193
7.748 175
7.76812 194
7.78823 176
7.80834 183
7.82846 200
7.84857 189
7.86869 190
7.8888 185
7.90891 178
7.92903 193
7.94914 162
7.96925 166
7.98937 186
8.00948 155
8.0296 180
8.04971 197
8.06982 179
8.08994 144
8.11005 197
8.13016 173
8.15028 194
8.17039 171
8.1905 179
8.21062 202
8.23073 192
8.25085 207
8.27096 215
8.29107 183
8.31119 173
8.3313 206
8.35141 190
8.37153 230
8.39164 176
8.41176 200
8.43187 212
8.45198 195
8.4721 205
8.49221 199
8.51232 182
8.53244 203
8.55255 210
8.57266 210
8.59278 189
8.61289 194
8.63301 221
8.65312 180
8.67323 202
8.69335 198
8.71346 213
8.73357 199
8.75369 216
8.7738 220
8.79392 209
8.81403 239
8.83414 214
8.85426 205
8.87437 194
8.89448 233
8.9146 234
8.93471 198
8.95483 222
8.97494 208
8.99505 206
9.01517 225
9.03528 179
9.05539 215
9.07551 202
9.09562 209
9.11573 212
9.13585 193
9.15596 214
9.17608 218
9.19619 197
9.2163 210
9.23642 214
9.25653 190
9.27664 185
9.29676 203
9.31687 168
9.33699 202
9.3571 178
9.37721 190
9.39733 207
9.41744 203
9.43755 217
9.45767 185
9.47778 207
9.4979 201
9.51801 194
9.53812 207
9.55824 170
9.57835 197
9.59846 222
9.61858 178
9.63869 196
9.6588 197
9.67892 182
9.69903 185
9.71915 211
9.73926 193
9.75937 210
9.77949 194
9.7996 195
9.81971 190
9.83983 187
9.85994 191
9.88006 193
9.90017 189
9.92028 203
9.9404 208
9.96051 217
9.98062 180
10.00074 224
10.02085 182
10.04097 203
10.06108 213
10.08119 201
10.10131 196
10.12142 205
10.14153 180
10.16165 182
10.18176 195
10.20187 184
10.22199 175
10.2421 184
10.26222 208
10.28233 202
10.30244 210
10.32256 162
10.34267 198
10.36278 198
10.3829 192
10.40301 234
10.42313 209
10.44324 208
10.46335 188
10.48347 172
10.50358 197
10.52369 234
10.54381 204
10.56392 201
10.58403 188
10.60415 215
10.62426 186
10.64438 203
10.66449 168
10.6846 213
10.70472 211
10.72483 179
10.74494 189
10.76506 199
10.78517 207
10.80529 189
10.8254 186
10.84551 178
10.86563 197
10.88574 200
10.90585 215
10.92597 189
10.94608 196
10.9662 204
10.98631 208
11.00642 166
11.02654 198
11.04665 217
11.06676 210
11.08688 191
11.10699 173
11.1271 185
11.14722 193
11.16733 210
11.18745 225
11.20756 179
11.22767 203
11.24779 165
11.2679 192
11.28801 201
11.30813 200
11.32824 212
11.34836 195
11.36847 192
11.38858 199
11.4087 180
11.42881 212
11.44892 158
11.46904 198
11.48915 197
11.50927 195
11.52938 191
11.54949 207
11.56961 174
11.58972 222
11.60983 196
11.62995 227
11.65006 188
11.67017 213
11.69029 226
11.7104 178
11.73052 197
11.75063 192
11.77074 194
11.79086 209
11.81097 178
11.83108 181
11.8512 194
11.87131 212
11.89143 205
11.91154 193
11.93165 220
11.95177 202
11.97188 192
11.99199 222
12.01211 184
12.03222 196
12.05234 183
12.07245 188
12.09256 202
12.11268 209
12.13279 209
12.1529 200
12.17302 197
12.19313 220
12.21324 224
12.23336 223
12.25347 224
12.27359 204
12.2937 225
12.31381 242
12.33393 226
12.35404 178
12.37415 231
12.39427 205
12.41438 218
12.4345 191
12.45461 201
12.47472 195
12.49484 196
12.51495 196
12.53506 203
12.55518 193
12.57529 175
12.5954 175
12.61552 174
12.63563 185
12.65575 173
12.67586 182
12.69597 173
12.71609 189
12.7362 202
12.75631 190
12.77643 170
12.79654 206
12.81666 214
12.83677 170
12.85688 173
12.877 167
12.89711 165
12.91722 172
12.93734 171
12.95745 185
12.97757 163
12.99768 178
13.01779 183
13.03791 188
13.05802 192
13.07813 174
13.09825 165
13.11836 189
13.13847 185
13.15859 200
13.1787 185
13.19882 179
13.21893 191
13.23904 167
13.25916 172
13.27927 189
13.29938 168
13.3195 187
13.33961 199
13.35973 175
13.37984 180
13.39995 191
13.42007 174
13.44018 171
13.46029 187
13.48041 177
13.50052 191
13.52064 180
13.54075 189
13.56086 193
13.58098 213
13.60109 201
13.6212 197
13.64132 203
13.66143 192
13.68154 204
13.70166 171
13.72177 212
13.74189 181
13.762 212
13.78211 223
13.80223 232
13.82234 236
13.84245 194
13.86257 245
13.88268 221
13.9028 203
13.92291 184
13.94302 195
13.96314 216
13.98325 166
14.00336 174
14.02348 173
14.04359 180
14.06371 169
14.08382 152
14.10393 167
14.12405 201
14.14416 172
14.16427 169
14.18439 173
14.2045 170
14.22461 160
14.24473 196
14.26484 177
14.28496 161
14.30507 150
14.32518 162
14.3453 171
14.36541 177
14.38552 198
14.40564 182
14.42575 179
14.44587 172
14.46598 146
14.48609 171
14.50621 165
14.52632 168
14.54643 183
14.56655 181
14.58666 159
14.60677 163
14.62689 193
14.647 178
14.66712 160
14.68723 156
14.70734 139
14.72746 163
14.74757 171
14.76768 161
14.7878 197
14.80791 167
14.82803 152
14.84814 192
14.86825 151
14.88837 148
14.90848 160
14.92859 180
14.94871 200
14.96882 163
14.98894 177
15.00905 175
15.02916 171
15.04928 193
15.06939 182
15.0895 157
15.10962 142
15.12973 203
15.14984 203
15.16996 171
15.19007 177
15.21019 162
15.2303 180
15.25041 147
15.27053 166
15.29064 177
15.31075 155
15.33087 190
15.35098 141
15.3711 155
15.39121 161
15.41132 148
15.43144 154
15.45155 185
15.47166 139
15.49178 162
15.51189 182
15.53201 168
15.55212 163
15.57223 139
15.59235 170
15.61246 162
15.63257 173
15.65269 155
15.6728 176
15.69291 178
15.71303 161
15.73314 170
15.75326 158
15.77337 176
15.79348 168
15.8136 140
15.83371 156
15.85382 146
15.87394 170
15.89405 143
15.91417 136
15.93428 133
15.95439 148
15.97451 149
15.99462 136
16.01473 149
16.03485 148
16.05496 145
16.07508 161
16.09519 153
16.1153 149
16.13542 168
16.15553 169
16.17564 132
16.19576 137
16.21587 157
16.23598 165
16.2561 164
16.27621 153
16.29633 134
16.31644 154
16.33655 134
16.35667 146
16.37678 166
16.39689 139
16.41701 155
16.43712 158
16.45724 166
16.47735 159
16.49746 177
16.51758 153
16.53769 175
16.5578 159
16.57792 137
16.59803 158
16.61814 152
16.63826 129
16.65837 142
16.67849 148
16.6986 137
16.71871 151
16.73883 157
16.75894 160
16.77905 131
16.79917 153
16.81928 140
16.8394 135
16.85951 141
16.87962 153
16.89974 158
16.91985 125
16.93996 153
16.96008 167
16.98019 139
17.00031 154
17.02042 147
17.04053 151
17.06065 136
17.08076 134
17.10087 141
17.12099 172
17.1411 132
17.16121 140
17.18133 153
17.20144 145
17.22156 137
17.24167 158
17.26178 134
17.2819 154
17.30201 156
17.32212 155
17.34224 159
17.36235 150
17.38247 134
17.40258 142
17.42269 152
17.44281 158
17.46292 155
17.48303 143
17.50315 144
17.52326 166
17.54338 134
17.56349 169
17.5836 121
17.60372 138
17.62383 157
17.64394 156
17.66406 143
17.68417 173
17.70428 158
17.7244 144
17.74451 144
17.76463 132
17.78474 167
17.80485 148
17.82497 136
17.84508 171
17.86519 145
17.88531 157
17.90542 127
17.92554 127
17.94565 161
17.96576 160
17.98588 129
18.00599 138
18.0261 168
18.04622 156
18.06633 154
18.08645 147
18.10656 143
18.12667 131
18.14679 161
18.1669 131
18.18701 127
18.20713 133
18.22724 127
18.24735 170
18.26747 125
18.28758 145
18.3077 161
18.32781 163
18.34792 153
18.36804 156
18.38815 136
18.40826 137
18.42838 154
18.44849 134
18.46861 160
18.48872 156
18.50883 157
18.52895 129
18.54906 148
18.56917 145
18.58929 143
18.6094 154
18.62951 156
18.64963 146
18.66974 159
18.68986 158
18.70997 147
18.73008 175
18.7502 167
18.77031 177
18.79042 171
18.81054 161
18.83065 149
18.85077 152
18.87088 147
18.89099 173
18.91111 148
18.93122 150
18.95133 173
18.97145 176
18.99156 166
19.01168 149
19.03179 159
19.0519 141
19.07202 176
19.09213 151
19.11224 169
19.13236 151
19.15247 134
19.17258 145
19.1927 159
19.21281 153
19.23293 166
19.25304 155
19.27315 163
19.29327 165
19.31338 169
19.33349 170
19.35361 168
19.37372 173
19.39384 157
19.41395 161
19.43406 143
19.45418 160
19.47429 173
19.4944 164
19.51452 176
19.53463 172
19.55475 158
19.57486 192
19.59497 185
19.61509 179
19.6352 175
19.65531 162
19.67543 165
19.69554 186
19.71565 174
19.73577 179
19.75588 159
19.776 164
19.79611 202
19.81622 214
19.83634 195
19.85645 205
19.87656 183
19.89668 216
19.91679 197
19.93691 196
19.95702 193
19.97713 190
19.99725 181
20.01736 187
20.03747 200
20.05759 206
20.0777 205
20.09782 203
20.11793 230
20.13804 230
20.15816 195
20.17827 231
20.19838 229
20.2185 228
20.23861 253
20.25872 244
20.27884 250
20.29895 240
20.31907 263
20.33918 245
20.35929 292
20.37941 288
20.39952 279
20.41963 304
20.43975 279
20.45986 285
20.47998 289
20.50009 348
20.5202 306
20.54032 340
20.56043 326
20.58054 364
20.60066 389
20.62077 420
20.64088 480
20.661 538
20.68111 685
20.70123 925
20.72134 1176
20.74145 1814
20.76157 2624
20.78168 3929
20.80179 5501
20.82191 7381
20.84202 8869
20.86214 9506
20.88225 8687
20.90236 6927
20.92248 4922
20.94259 3077
20.9627 1896
20.98282 1126
21.00293 800
21.02305 683
21.04316 620
21.06327 621
21.08339 511
21.1035 470
21.12361 459
21.14373 367
21.16384 320
21.18395 322
21.20407 271
21.22418 262
21.2443 264
21.26441 254
21.28452 257
21.30464 237
21.32475 256
21.34486 235
21.36498 232
21.38509 233
21.40521 234
21.42532 214
21.44543 199
21.46555 219
21.48566 215
21.50577 209
21.52589 190
21.546 233
21.56612 201
21.58623 207
21.60634 224
21.62646 197
21.64657 215
21.66668 244
21.6868 204
21.70691 232
21.72702 219
21.74714 195
21.76725 211
21.78737 212
21.80748 213
21.82759 237
21.84771 230
21.86782 253
21.88793 240
21.90805 306
21.92816 356
21.94828 415
21.96839 459
21.9885 525
22.00862 509
22.02873 454
22.04884 368
22.06896 337
22.08907 302
22.10919 240
22.1293 213
22.14941 178
22.16953 205
22.18964 201
22.20975 227
22.22987 189
22.24998 228
22.27009 213
22.29021 228
22.31032 191
22.33044 214
22.35055 206
22.37066 244
22.39078 222
22.41089 220
22.431 193
22.45112 202
22.47123 233
22.49135 217
22.51146 194
22.53157 189
22.55169 206
22.5718 229
22.59191 207
22.61203 227
22.63214 208
22.65225 205
22.67237 195
22.69248 195
22.7126 202
22.73271 186
22.75282 163
22.77294 207
22.79305 200
22.81316 202
22.83328 205
22.85339 230
22.87351 224
22.89362 241
22.91373 277
22.93385 239
22.95396 242
22.97407 232
22.99419 228
23.0143 202
23.03442 230
23.05453 202
23.07464 202
23.09476 207
23.11487 205
23.13498 220
23.1551 208
23.17521 201
23.19532 205
23.21544 224
23.23555 243
23.25567 196
23.27578 215
23.29589 215
23.31601 221
23.33612 190
23.35623 199
23.37635 225
23.39646 207
23.41658 203
23.43669 210
23.4568 219
23.47692 235
23.49703 242
23.51714 276
23.53726 310
23.55737 289
23.57749 322
23.5976 346
23.61771 369
23.63783 378
23.65794 361
23.67805 315
23.69817 296
23.71828 292
23.73839 246
23.75851 262
23.77862 289
23.79874 289
23.81885 308
23.83896 312
23.85908 371
23.87919 389
23.8993 401
23.91942 362
23.93953 392
23.95965 348
23.97976 317
23.99987 335
24.01999 317
24.0401 297
24.06021 266
24.08033 242
24.10044 209
24.12056 191
24.14067 194
24.16078 188
24.1809 201
24.20101 218
24.22112 248
24.24124 247
24.26135 239
24.28146 279
24.30158 304
24.32169 334
24.34181 353
24.36192 331
24.38203 291
24.40215 286
24.42226 298
24.44237 261
24.46249 220
24.4826 222
24.50272 218
24.52283 206
24.54294 203
24.56306 191
24.58317 214
24.60328 211
24.6234 224
24.64351 233
24.66362 198
24.68374 206
24.70385 200
24.72397 228
24.74408 237
24.76419 182
24.78431 224
24.80442 211
24.82453 184
24.84465 220
24.86476 214
24.88488 212
24.90499 200
24.9251 199
24.94522 206
24.96533 189
24.98544 224
25.00556 178
25.02567 197
25.04579 217
25.0659 205
25.08601 204
25.10613 179
25.12624 222
25.14635 189
25.16647 202
25.18658 202
25.20669 218
25.22681 217
25.24692 203
25.26704 222
25.28715 214
25.30726 224
25.32738 213
25.34749 229
25.3676 210
25.38772 207
25.40783 227
25.42795 242
25.44806 243
25.46817 288
25.48829 274
25.5084 304
25.52851 328
25.54863 339
25.56874 410
25.58886 430
25.60897 382
25.62908 360
25.6492 395
25.66931 368
25.68942 386
25.70954 445
25.72965 433
25.74976 422
25.76988 437
25.78999 442
25.81011 436
25.83022 471
25.85033 408
25.87045 421
25.89056 449
25.91067 426
25.93079 474
25.9509 460
25.97102 468
25.99113 449
26.01124 485
26.03136 520
26.05147 537
26.07158 514
26.0917 576
26.11181 578
26.13193 571
26.15204 660
26.17215 683
26.19227 698
26.21238 740
26.23249 784
26.25261 949
26.27272 926
26.29283 1035
26.31295 1148
26.33306 1201
26.35318 1338
26.37329 1536
26.3934 1688
26.41352 2188
26.43363 2741
26.45374 3360
26.47386 4616
26.49397 6239
26.51409 8775
26.5342 12551
26.55431 17713
26.57443 25209
26.59454 33171
26.61465 39875
26.63477 42573
26.65488 39185
26.67499 31903
26.69511 25023
26.71522 18363
26.73534 12097
26.75545 6895
26.77556 3857
26.79568 2539
26.81579 1905
26.8359 1620
26.85602 1480
26.87613 1335
26.89625 1216
26.91636 1220
26.93647 1087
26.95659 1034
26.9767 924
26.99681 851
27.01693 797
27.03704 720
27.05716 717
27.07727 683
27.09738 623
27.1175 577
27.13761 563
27.15772 531
27.17784 539
27.19795 482
27.21806 465
27.23818 453
27.25829 462
27.27841 449
27.29852 430
27.31863 479
27.33875 480
27.35886 540
27.37897 518
27.39909 567
27.4192 601
27.43932 683
27.45943 666
27.47954 650
27.49966 660
27.51977 563
27.53988 574
27.56 513
27.58011 434
27.60023 437
27.62034 431
27.64045 455
27.66057 470
27.68068 520
27.70079 582
27.72091 641
27.74102 743
27.76113 956
27.78125 991
27.80136 956
27.82148 956
27.84159 834
27.8617 805
27.88182 712
27.90193 669
27.92204 599
27.94216 644
27.96227 697
27.98239 762
28.0025 765
28.02261 739
28.04273 620
28.06284 547
28.08295 484
28.10307 402
28.12318 359
28.1433 339
28.16341 327
28.18352 291
28.20364 291
28.22375 320
28.24386 314
28.26398 347
28.28409 349
28.3042 334
28.32432 410
28.34443 330
28.36455 315
28.38466 362
28.40477 320
28.42489 316
28.445 264
28.46511 277
28.48523 249
28.50534 282
28.52546 236
28.54557 262
28.56568 236
28.5858 247
28.60591 241
28.62602 229
28.64614 228
28.66625 247
28.68636 204
28.70648 209
28.72659 236
28.74671 230
28.76682 248
28.78693 226
28.80705 224
28.82716 222
28.84727 214
28.86739 242
28.8875 228
28.90762 213
28.92773 241
28.94784 240
28.96796 210
28.98807 225
29.00818 230
29.0283 204
29.04841 238
29.06853 242
29.08864 211
29.10875 205
29.12887 186
29.14898 218
29.16909 228
29.18921 188
29.20932 219
29.22943 217
29.24955 217
29.26966 205
29.28978 227
29.30989 235
29.33 243
29.35012 237
29.37023 251
29.39034 233
29.41046 245
29.43057 235
29.45069 250
29.4708 251
29.49091 237
29.51103 255
29.53114 211
29.55125 239
29.57137 237
29.59148 215
29.6116 243
29.63171 235
29.65182 260
29.67194 283
29.69205 282
29.71216 299
29.73228 312
29.75239 282
29.7725 282
29.79262 287
29.81273 269
29.83285 308
29.85296 239
29.87307 259
29.89319 263
29.9133 236
29.93341 221
29.95353 237
29.97364 216
29.99376 225
30.01387 220
30.03398 230
30.0541 233
30.07421 207
30.09432 233
30.11444 221
30.13455 212
30.15467 245
30.17478 244
30.19489 255
30.21501 277
30.23512 254
30.25523 284
30.27535 269
30.29546 248
30.31557 312
30.33569 288
30.3558 300
30.37592 292
30.39603 303
30.41614 299
30.43626 320
30.45637 285
30.47648 291
30.4966 312
30.51671 256
30.53683 234
30.55694 254
30.57705 232
30.59717 233
30.61728 233
30.63739 192
30.65751 199
30.67762 218
30.69773 228
30.71785 260
30.73796 243
30.75808 231
30.77819 264
30.7983 252
30.81842 251
30.83853 244
30.85864 223
30.87876 250
30.89887 223
30.91899 238
30.9391 208
30.95921 170
30.97933 174
30.99944 186
31.01955 164
31.03967 178
31.05978 188
31.0799 196
31.10001 173
31.12012 184
31.14024 189
31.16035 180
31.18046 159
31.20058 167
31.22069 177
31.2408 201
31.26092 174
31.28103 202
31.30115 214
31.32126 198
31.34137 214
31.36149 244
31.3816 226
31.40171 235
31.42183 245
31.44194 223
31.46206 226
31.48217 213
31.50228 196
31.5224 202
31.54251 208
31.56262 203
31.58274 190
31.60285 210
31.62297 193
31.64308 188
31.66319 171
31.68331 178
31.70342 157
31.72353 166
31.74365 168
31.76376 194
31.78387 160
31.80399 164
31.8241 172
31.84422 181
31.86433 149
31.88444 152
31.90456 172
31.92467 171
31.94478 130
31.9649 150
31.98501 192
32.00513 184
32.02524 149
32.04535 170
32.06547 174
32.08558 192
32.10569 162
32.12581 192
32.14592 199
32.16604 189
32.18615 191
32.20626 169
32.22638 210
32.24649 178
32.2666 222
32.28672 160
32.30683 194
32.32694 180
32.34706 173
32.36717 203
32.38729 179
32.4074 178
32.42751 153
32.44763 152
32.46774 183
32.48785 174
32.50797 179
32.52808 160
32.5482 141
32.56831 162
32.58842 157
32.60854 127
32.62865 182
32.64876 146
32.66888 129
32.68899 137
32.7091 134
32.72922 150
32.74933 154
32.76945 155
32.78956 147
32.80967 197
32.82979 155
32.8499 160
32.87001 159
32.89013 164
32.91024 144
32.93036 180
32.95047 168
32.97058 162
32.9907 161
33.01081 158
33.03092 157
33.05104 165
33.07115 168
33.09127 151
33.11138 165
33.13149 163
33.15161 170
33.17172 163
33.19183 166
33.21195 172
33.23206 151
33.25217 155
33.27229 146
33.2924 143
33.31252 162
33.33263 158
33.35274 140
33.37286 126
33.39297 173
33.41308 163
33.4332 171
33.45331 162
33.47343 159
33.49354 145
33.51365 124
33.53377 138
33.55388 140
33.57399 158
33.59411 142
33.61422 145
33.63434 127
33.65445 159
33.67456 174
33.69468 148
33.71479 170
33.7349 177
33.75502 178
33.77513 198
33.79524 185
33.81536 166
33.83547 202
33.85559 156
33.8757 165
33.89581 169
33.91593 181
33.93604 142
33.95615 154
33.97627 158
33.99638 149
34.0165 152
34.03661 150
34.05672 147
34.07684 167
34.09695 180
34.11706 173
34.13718 171
34.15729 177
34.17741 144
34.19752 160
34.21763 163
34.23775 198
34.25786 151
34.27797 175
34.29809 163
34.3182 167
34.33831 177
34.35843 194
34.37854 169
34.39866 181
34.41877 157
34.43888 162
34.459 163
34.47911 147
34.49922 173
34.51934 171
34.53945 142
34.55957 165
34.57968 198
34.59979 181
34.61991 178
34.64002 202
34.66013 161
34.68025 170
34.70036 200
34.72047 190
34.74059 179
34.7607 212
34.78082 197
34.80093 162
34.82104 186
34.84116 179
34.86127 158
34.88138 210
34.9015 189
34.92161 185
34.94173 138
34.96184 152
34.98195 183
35.00207 184
35.02218 179
35.04229 168
35.06241 177
35.08252 165
35.10264 180
35.12275 187
35.14286 199
35.16298 165
35.18309 189
35.2032 184
35.22332 222
35.24343 212
35.26354 223
35.28366 225
35.30377 218
35.32389 259
35.344 245
35.36411 293
35.38423 238
35.40434 242
35.42445 245
35.44457 272
35.46468 265
35.4848 268
35.50491 203
35.52502 247
35.54514 231
35.56525 224
35.58536 200
35.60548 241
35.62559 206
35.64571 221
35.66582 176
35.68593 200
35.70605 199
35.72616 189
35.74627 186
35.76639 196
35.7865 150
35.80661 165
35.82673 187
35.84684 183
35.86696 183
35.88707 176
35.90718 213
35.9273 181
35.94741 187
35.96752 198
35.98764 192
36.00775 239
36.02787 198
36.04798 237
36.06809 236
36.08821 236
36.10832 216
36.12843 257
36.14855 230
36.16866 256
36.18878 237
36.20889 240
36.229 212
36.24912 264
36.26923 292
36.28934 308
36.30946 335
36.32957 369
36.34968 448
36.3698 597
36.38991 681
36.41003 869
36.43014 1100
36.45025 1448
36.47037 1827
36.49048 2398
36.51059 2810
36.53071 2884
36.55082 2740
36.57094 2324
36.59105 1816
36.61116 1594
36.63128 1400
36.65139 1134
36.6715 783
36.69162 501
36.71173 355
36.73184 280
36.75196 245
36.77207 288
36.79219 230
36.8123 242
36.83241 241
36.85253 199
36.87264 226
36.89275 228
36.91287 236
36.93298 198
36.9531 229
36.97321 193
36.99332 229
37.01344 206
37.03355 232
37.05366 216
37.07378 179
37.09389 194
37.11401 180
37.13412 192
37.15423 178
37.17435 181
37.19446 164
37.21457 154
37.23469 147
37.2548 170
37.27491 172
37.29503 177
37.31514 178
37.33526 170
37.35537 174
37.37548 176
37.3956 193
37.41571 185
37.43582 152
37.45594 166
37.47605 154
37.49617 160
37.51628 168
37.53639 166
37.55651 153
37.57662 170
37.59673 174
37.61685 163
37.63696 147
37.65708 165
37.67719 190
37.6973 172
37.71742 213
37.73753 177
37.75764 154
37.77776 161
37.79787 162
37.81798 165
37.8381 172
37.85821 128
37.87833 177
37.89844 162
37.91855 136
37.93867 149
37.95878 153
37.97889 121
37.99901 145
38.01912 158
38.03924 182
38.05935 169
38.07946 171
38.09958 165
38.11969 150
38.1398 133
38.15992 137
38.18003 167
38.20015 156
38.22026 173
38.24037 154
38.26049 182
38.2806 175
38.30071 178
38.32083 151
38.34094 151
38.36105 148
38.38117 164
38.40128 189
38.4214 199
38.44151 171
38.46162 154
38.48174 159
38.50185 176
38.52196 164
38.54208 178
38.56219 163
38.58231 174
38.60242 161
38.62253 158
38.64265 162
38.66276 159
38.68287 147
38.70299 180
38.7231 182
38.74321 152
38.76333 131
38.78344 158
38.80356 130
38.82367 161
38.84378 170
38.8639 160
38.88401 188
38.90412 154
38.92424 139
38.94435 188
38.96447 151
38.98458 185
39.00469 190
39.02481 179
39.04492 208
39.06503 198
39.08515 217
39.10526 211
39.12538 247
39.14549 250
39.1656 252
39.18572 309
39.20583 318
39.22594 354
39.24606 409
39.26617 407
39.28628 486
39.3064 644
39.32651 828
39.34663 1025
39.36674 1342
39.38685 1669
39.40697 2049
39.42708 2433
39.44719 2540
39.46731 2515
39.48742 2085
39.50754 1686
39.52765 1445
39.54776 1369
39.56788 1173
39.58799 860
39.6081 604
39.62822 411
39.64833 319
39.66845 307
39.68856 256
39.70867 266
39.72879 265
39.7489 200
39.76901 189
39.78913 241
39.80924 221
39.82935 179
39.84947 247
39.86958 192
39.8897 188
39.90981 217
39.92992 198
39.95004 198
39.97015 223
39.99026 219
40.01038 228
40.03049 255
40.05061 262
40.07072 271
40.09083 329
40.11095 324
40.13106 377
40.15117 520
40.17129 608
40.1914 694
40.21152 911
40.23163 1065
40.25174 1260
40.27186 1386
40.29197 1255
40.31208 1062
40.3322 899
40.35231 789
40.37242 718
40.39254 673
40.41265 510
40.43277 352
40.45288 316
40.47299 258
40.49311 216
40.51322 204
40.53333 210
40.55345 160
40.57356 193
40.59368 194
40.61379 183
40.6339 171
40.65402 179
40.67413 164
40.69424 191
40.71436 163
40.73447 149
40.75458 160
40.7747 153
40.79481 174
40.81493 199
40.83504 153
40.85515 160
40.87527 158
40.89538 163
40.91549 164
40.93561 172
40.95572 160
40.97584 159
40.99595 168
41.01606 161
41.03618 196
41.05629 141
41.0764 139
41.09652 149
41.11663 185
41.13675 152
41.15686 168
41.17697 164
41.19709 190
41.2172 168
41.23731 195
41.25743 146
41.27754 136
41.29765 166
41.31777 151
41.33788 150
41.358 167
41.37811 168
41.39822 158
41.41834 174
41.43845 190
41.45856 163
41.47868 192
41.49879 195
41.51891 173
41.53902 192
41.55913 187
41.57925 155
41.59936 198
41.61947 172
41.63959 182
41.6597 213
41.67982 185
41.69993 197
41.72004 212
41.74016 227
41.76027 219
41.78038 224
41.8005 220
41.82061 234
41.84072 233
41.86084 196
41.88095 188
41.90107 218
41.92118 183
41.94129 173
41.96141 211
41.98152 174
42.00163 192
42.02175 233
42.04186 189
42.06198 156
42.08209 215
42.1022 196
42.12232 224
42.14243 260
42.16254 254
42.18266 281
42.20277 344
42.22289 339
42.243 393
42.26311 444
42.28323 524
42.30334 617
42.32345 771
42.34357 982
42.36368 1235
42.38379 1558
42.40391 1775
42.42402 1959
42.44414 1919
42.46425 1578
42.48436 1228
42.50448 1135
42.52459 1028
42.5447 1013
42.56482 811
42.58493 631
42.60505 405
42.62516 339
42.64527 271
42.66539 258
42.6855 224
42.70561 199
42.72573 217
42.74584 230
42.76595 224
42.78607 259
42.80618 226
42.8263 218
42.84641 206
42.86652 239
42.88664 194
42.90675 170
42.92686 219
42.94698 186
42.96709 165
42.98721 195
43.00732 160
43.02743 171
43.04755 187
43.06766 176
43.08777 173
43.10789 172
43.128 157
43.14812 155
43.16823 193
43.18834 160
43.20846 140
43.22857 181
43.24868 171
43.2688 159
43.28891 189
43.30902 152
43.32914 154
43.34925 148
43.36937 169
43.38948 155
43.40959 142
43.42971 145
43.44982 155
43.46993 165
43.49005 182
43.51016 165
43.53028 146
43.55039 116
43.5705 150
43.59062 175
43.61073 156
43.63084 129
43.65096 148
43.67107 126
43.69119 131
43.7113 180
43.73141 143
43.75153 133
43.77164 160
43.79175 110
43.81187 144
43.83198 165
43.85209 146
43.87221 130
43.89232 161
43.91244 136
43.93255 133
43.95266 147
43.97278 141
43.99289 130
44.013 140
44.03312 149
44.05323 137
44.07335 165
44.09346 149
44.11357 134
44.13369 162
44.1538 176
44.17391 155
44.19403 152
44.21414 144
44.23426 153
44.25437 158
44.27448 139
44.2946 121
44.31471 170
44.33482 140
44.35494 122
44.37505 180
44.39516 140
44.41528 151
44.43539 139
44.45551 133
44.47562 126
44.49573 141
44.51585 114
44.53596 141
44.55607 141
44.57619 143
44.5963 131
44.61642 150
44.63653 171
44.65664 156
44.67676 119
44.69687 173
44.71698 152
44.7371 164
44.75721 144
44.77732 149
44.79744 132
44.81755 169
44.83767 174
44.85778 166
44.87789 187
44.89801 142
44.91812 162
44.93823 164
44.95835 119
44.97846 137
44.99858 164
45.01869 167
45.0388 168
45.05892 154
45.07903 183
45.09914 145
45.11926 175
45.13937 161
45.15949 166
45.1796 149
45.19971 157
45.21983 140
45.23994 143
45.26005 176
45.28017 175
45.30028 157
45.32039 156
45.34051 146
45.36062 187
45.38074 170
45.40085 182
45.42096 187
45.44108 207
45.46119 190
45.4813 210
45.50142 262
45.52153 217
45.54165 236
45.56176 292
45.58187 320
45.60199 327
45.6221 348
45.64221 516
45.66233 582
45.68244 666
45.70256 780
45.72267 960
45.74278 1213
45.7629 1215
45.78301 1264
45.80312 1081
45.82324 910
45.84335 745
45.86346 688
45.88358 721
45.90369 621
45.92381 533
45.94392 436
45.96403 279
45.98415 216
46.00426 191
46.02437 191
46.04449 167
46.0646 160
46.08472 164
46.10483 148
46.12494 161
46.14506 153
46.16517 153
46.18528 139
46.2054 151
46.22551 133
46.24563 120
46.26574 139
46.28585 162
46.30597 129
46.32608 142
46.34619 146
46.36631 117
46.38642 129
46.40653 146
46.42665 127
46.44676 138
46.46688 129
46.48699 136
46.5071 136
46.52722 132
46.54733 121
46.56744 156
46.58756 144
46.60767 126
46.62779 127
46.6479 149
46.66801 124
46.68813 139
46.70824 119
46.72835 112
46.74847 129
46.76858 168
46.78869 125
46.80881 149
46.82892 131
46.84904 143
46.86915 139
46.88926 143
46.90938 124
46.92949 123
46.9496 134
46.96972 136
46.98983 135
47.00995 147
47.03006 144
47.05017 130
47.07029 134
47.0904 144
47.11051 120
47.13063 156
47.15074 154
47.17086 129
47.19097 170
47.21108 149
47.2312 156
47.25131 176
47.27142 135
47.29154 146
47.31165 159
47.33176 157
47.35188 145
47.37199 178
47.39211 149
47.41222 162
47.43233 160
47.45245 155
47.47256 142
47.49267 163
47.51279 168
47.5329 118
47.55302 130
47.57313 132
47.59324 168
47.61336 144
47.63347 108
47.65358 143
47.6737 137
47.69381 124
47.71393 103
47.73404 141
47.75415 123
47.77427 131
47.79438 129
47.81449 137
47.83461 141
47.85472 126
47.87483 130
47.89495 140
47.91506 126
47.93518 147
47.95529 142
47.9754 115
47.99552 105
48.01563 102
48.03574 127
48.05586 141
48.07597 130
48.09609 135
48.1162 119
48.13631 138
48.15643 122
48.17654 133
48.19665 127
48.21677 151
48.23688 155
48.257 159
48.27711 157
48.29722 151
48.31734 168
48.33745 153
48.35756 165
48.37768 150
48.39779 149
48.4179 165
48.43802 143
48.45813 161
48.47825 160
48.49836 165
48.51847 140
48.53859 143
48.5587 155
48.57881 138
48.59893 144
48.61904 132
48.63916 165
48.65927 167
48.67938 149
48.6995 165
48.71961 148
48.73972 158
48.75984 147
48.77995 139
48.80006 144
48.82018 157
48.84029 157
48.86041 145
48.88052 179
48.90063 140
48.92075 159
48.94086 158
48.96097 181
48.98109 176
49.0012 166
49.02132 174
49.04143 142
49.06154 176
49.08166 159
49.10177 166
49.12188 172
49.142 189
49.16211 179
49.18223 146
49.20234 195
49.22245 161
49.24257 164
49.26268 150
49.28279 149
49.30291 154
49.32302 150
49.34313 153
49.36325 144
49.38336 156
49.40348 148
49.42359 156
49.4437 141
49.46382 168
49.48393 148
49.50404 188
49.52416 170
49.54427 194
49.56439 203
49.5845 170
49.60461 189
49.62473 199
49.64484 215
49.66495 221
49.68507 229
49.70518 273
49.7253 287
49.74541 268
49.76552 350
49.78564 336
49.80575 389
49.82586 380
49.84598 496
49.86609 490
49.8862 567
49.90632 599
49.92643 752
49.94655 857
49.96666 1058
49.98677 1417
50.00689 1642
50.027 2108
50.04711 2523
50.06723 3268
50.08734 3783
50.10746 4126
50.12757 4001
50.14768 3526
50.1678 2667
50.18791 2182
50.20802 1993
50.22814 2098
50.24825 2080
50.26837 1897
50.28848 1390
50.30859 900
50.32871 601
50.34882 440
50.36893 343
50.38905 356
50.40916 288
50.42927 303
50.44939 273
50.4695 265
50.48962 320
50.50973 290
50.52984 308
50.54996 296
50.57007 322
50.59018 319
50.6103 294
50.63041 267
50.65053 269
50.67064 280
50.69075 275
50.71087 261
50.73098 282
50.75109 248
50.77121 250
50.79132 208
50.81143 208
50.83155 219
50.85166 243
50.87178 216
50.89189 178
50.912 161
50.93212 171
50.95223 180
50.97234 168
50.99246 156
51.01257 194
51.03269 162
51.0528 156
51.07291 147
51.09303 171
51.11314 171
51.13325 163
51.15337 146
51.17348 155
51.1936 159
51.21371 178
51.23382 137
51.25394 167
51.27405 170
51.29416 185
51.31428 173
51.33439 201
51.3545 198
51.37462 178
51.39473 167
51.41485 173
51.43496 173
51.45507 179
51.47519 164
51.4953 147
51.51541 164
51.53553 133
51.55564 146
51.57576 148
51.59587 150
51.61598 144
51.6361 158
51.65621 140
51.67632 142
51.69644 171
51.71655 122
51.73667 122
51.75678 162
51.77689 159
51.79701 137
51.81712 135
51.83723 135
51.85735 121
51.87746 141
51.89757 137
51.91769 161
51.9378 132
51.95792 111
51.97803 148
51.99814 157
52.01826 136
52.03837 137
52.05848 126
52.0786 104
52.09871 149
52.11883 155
52.13894 134
52.15905 133
52.17917 142
52.19928 128
52.21939 111
52.23951 176
52.25962 129
52.27974 133
52.29985 162
52.31996 123
52.34008 163
52.36019 145
52.3803 138
52.40042 124
52.42053 131
52.44064 106
52.46076 128
52.48087 175
52.50099 131
52.5211 147
52.54121 151
52.56133 172
52.58144 139
52.60155 169
52.62167 139
52.64178 144
52.6619 158
52.68201 159
52.70212 144
52.72224 161
52.74235 126
52.76246 134
52.78258 161
52.80269 130
52.8228 122
52.84292 159
52.86303 126
52.88315 148
52.90326 144
52.92337 140
52.94349 141
52.9636 171
52.98371 127
53.00383 164
53.02394 188
53.04406 167
53.06417 153
53.08428 149
53.1044 140
53.12451 138
53.14462 182
53.16474 143
53.18485 163
53.20497 182
53.22508 126
53.24519 141
53.26531 161
53.28542 130
53.30553 137
53.32565 169
53.34576 122
53.36587 182
53.38599 176
53.4061 146
53.42622 143
53.44633 152
53.46644 136
53.48656 142
53.50667 154
53.52678 129
53.5469 150
53.56701 157
53.58713 150
53.60724 153
53.62735 168
53.64747 172
53.66758 163
53.68769 144
53.70781 155
53.72792 134
53.74804 157
53.76815 143
53.78826 137
53.80838 129
53.82849 152
53.8486 153
53.86872 170
53.88883 125
53.90894 160
53.92906 188
53.94917 127
53.96929 166
53.9894 162
54.00951 147
54.02963 134
54.04974 169
54.06985 149
54.08997 154
54.11008 153
54.1302 153
54.15031 139
54.17042 144
54.19054 152
54.21065 139
54.23076 172
54.25088 136
54.27099 150
54.29111 161
54.31122 152
54.33133 177
54.35145 145
54.37156 148
54.39167 170
54.41179 172
54.4319 170
54.45201 185
54.47213 185
54.49224 196
54.51236 205
54.53247 206
54.55258 216
54.5727 234
54.59281 251
54.61292 254
54.63304 317
54.65315 308
54.67327 365
54.69338 406
54.71349 495
54.73361 592
54.75372 732
54.77383 842
54.79395 936
54.81406 1145
54.83417 1237
54.85429 1263
54.8744 1170
54.89452 920
54.91463 716
54.93474 693
54.95486 648
54.97497 676
54.99508 702
55.0152 658
55.03531 497
55.05543 448
55.07554 343
55.09565 333
55.11577 289
55.13588 294
55.15599 311
55.17611 363
55.19622 367
55.21634 429
55.23645 481
55.25656 540
55.27668 564
55.29679 597
55.3169 561
55.33702 532
55.35713 428
55.37724 419
55.39736 375
55.41747 388
55.43759 400
55.4577 387
55.47781 335
55.49793 297
55.51804 235
55.53815 210
55.55827 222
55.57838 171
55.5985 191
55.61861 173
55.63872 163
55.65884 158
55.67895 145
55.69906 164
55.71918 153
55.73929 170
55.75941 139
55.77952 151
55.79963 145
55.81975 119
55.83986 188
55.85997 165
55.88009 163
55.9002 158
55.92031 131
55.94043 132
55.96054 117
55.98066 134
56.00077 131
56.02088 144
56.041 133
56.06111 132
56.08122 123
56.10134 128
56.12145 145
56.14157 127
56.16168 121
56.18179 136
56.20191 132
56.22202 125
56.24213 134
56.26225 129
56.28236 110
56.30248 121
56.32259 132
56.3427 138
56.36282 125
56.38293 125
56.40304 113
56.42316 113
56.44327 128
56.46338 126
56.4835 133
56.50361 121
56.52373 136
56.54384 133
56.56395 134
56.58407 116
56.60418 118
56.62429 133
56.64441 148
56.66452 131
56.68464 146
56.70475 122
56.72486 133
56.74498 144
56.76509 126
56.7852 134
56.80532 150
56.82543 126
56.84554 115
56.86566 116
56.88577 115
56.90589 117
56.926 125
56.94611 135
56.96623 135
56.98634 112
57.00645 122
57.02657 137
57.04668 140
57.0668 135
57.08691 160
57.10702 170
57.12714 143
57.14725 161
57.16736 188
57.18748 176
57.20759 177
57.22771 185
57.24782 150
57.26793 177
57.28805 151
57.30816 153
57.32827 152
57.34839 172
57.3685 145
57.38861 184
57.40873 157
57.42884 131
57.44896 157
57.46907 145
57.48918 151
57.5093 126
57.52941 145
57.54952 115
57.56964 137
57.58975 140
57.60987 118
57.62998 135
57.65009 131
57.67021 126
57.69032 109
57.71043 161
57.73055 134
57.75066 143
57.77078 139
57.79089 128
57.811 115
57.83112 106
57.85123 119
57.87134 103
57.89146 115
57.91157 120
57.93168 137
57.9518 118
57.97191 116
57.99203 104
58.01214 122
58.03225 118
58.05237 110
58.07248 135
58.09259 120
58.11271 127
58.13282 133
58.15294 103
58.17305 142
58.19316 125
58.21328 134
58.23339 127
58.2535 129
58.27362 121
58.29373 157
58.31385 154
58.33396 115
58.35407 132
58.37419 165
58.3943 139
58.41441 138
58.43453 147
58.45464 152
58.47475 143
58.49487 127
58.51498 142
58.5351 139
58.55521 131
58.57532 147
58.59544 156
58.61555 139
58.63566 139
58.65578 154
58.67589 136
58.69601 151
58.71612 134
58.73623 147
58.75635 130
58.77646 122
58.79657 130
58.81669 120
58.8368 145
58.85691 160
58.87703 137
58.89714 138
58.91726 133
58.93737 148
58.95748 125
58.9776 120
58.99771 132
59.01782 161
59.03794 145
59.05805 124
59.07817 137
59.09828 137
59.11839 122
59.13851 138
59.15862 153
59.17873 126
59.19885 133
59.21896 144
59.23908 137
59.25919 135
59.2793 145
59.29942 162
59.31953 125
59.33964 141
59.35976 142
59.37987 169
59.39998 158
59.4201 170
59.44021 198
59.46033 186
59.48044 183
59.50055 169
59.52067 206
59.54078 206
59.56089 213
59.58101 263
59.60112 279
59.62124 296
59.64135 311
59.66146 351
59.68158 419
59.70169 451
59.7218 480
59.74192 605
59.76203 695
59.78215 828
59.80226 1071
59.82237 1243
59.84249 1519
59.8626 1781
59.88271 2168
59.90283 2369
59.92294 2499
59.94305 2358
59.96317 2080
59.98328 1564
60.0034 1400
60.02351 1216
60.04362 1274
60.06374 1307
60.08385 1292
60.10396 1227
60.12408 1005
60.14419 789
60.16431 507
60.18442 397
60.20453 326
60.22465 275
60.24476 240
60.26487 203
60.28499 183
60.3051 215
60.32522 190
60.34533 171
60.36544 196
60.38556 184
60.40567 182
60.42578 167
60.4459 163
60.46601 149
60.48612 143
60.50624 154
60.52635 144
60.54647 143
60.56658 163
60.58669 145
60.60681 149
60.62692 153
60.64703 154
60.66715 122
60.68726 127
60.70738 158
60.72749 149
60.7476 156
60.76772 152
60.78783 138
60.80794 134
60.82806 151
60.84817 136
60.86828 129
60.8884 136
60.90851 141
60.92863 128
60.94874 132
60.96885 139
60.98897 146
61.00908 140
61.02919 137
61.04931 134
61.06942 137
61.08954 134
61.10965 134
61.12976 130
61.14988 135
61.16999 131
61.1901 123
61.21022 136
61.23033 139
61.25045 144
61.27056 122
61.29067 150
61.31079 123
61.3309 140
61.35101 133
61.37113 139
61.39124 116
61.41135 116
61.43147 131
61.45158 128
61.4717 127
61.49181 125
61.51192 113
61.53204 129
61.55215 128
61.57226 127
61.59238 111
61.61249 126
61.63261 129
61.65272 125
61.67283 137
61.69295 115
61.71306 121
61.73317 146
61.75329 131
61.7734 109
61.79352 143
61.81363 110
61.83374 139
61.85386 123
61.87397 126
61.89408 114
61.9142 129
61.93431 124
61.95442 127
61.97454 131
61.99465 118
62.01477 134
62.03488 145
62.05499 126
62.07511 131
62.09522 143
62.11533 110
62.13545 118
62.15556 159
62.17568 150
62.19579 134
62.2159 132
62.23602 124
62.25613 88
62.27624 136
62.29636 129
62.31647 127
62.33659 130
62.3567 135
62.37681 105
62.39693 147
62.41704 138
62.43715 140
62.45727 136
62.47738 140
62.49749 136
62.51761 119
62.53772 118
62.55784 130
62.57795 152
62.59806 129
62.61818 140
62.63829 137
62.6584 136
62.67852 119
62.69863 150
62.71875 141
62.73886 104
62.75897 113
62.77909 134
62.7992 109
62.81931 138
62.83943 132
62.85954 136
62.87965 127
62.89977 139
62.91988 131
62.94 118
62.96011 124
62.98022 106
63.00034 125
63.02045 116
63.04056 106
63.06068 115
63.08079 122
63.10091 138
63.12102 132
63.14113 124
63.16125 106
63.18136 121
63.20147 116
63.22159 112
63.2417 143
63.26182 112
63.28193 122
63.30204 130
63.32216 147
63.34227 102
63.36238 125
63.3825 127
63.40261 125
63.42272 148
63.44284 113
63.46295 104
63.48307 137
63.50318 126
63.52329 151
63.54341 145
63.56352 144
63.58363 121
63.60375 155
63.62386 130
63.64398 160
63.66409 160
63.6842 141
63.70432 172
63.72443 148
63.74454 152
63.76466 186
63.78477 200
63.80489 219
63.825 243
63.84511 231
63.86523 265
63.88534 321
63.90545 398
63.92557 385
63.94568 455
63.96579 517
63.98591 541
64.00602 545
64.02614 568
64.04625 441
64.06636 360
64.08648 305
64.10659 336
64.1267 327
64.14682 318
64.16693 359
64.18705 329
64.20716 301
64.22727 269
64.24739 207
64.2675 184
64.28761 159
64.30773 139
64.32784 136
64.34796 142
64.36807 123
64.38818 132
64.4083 154
64.42841 124
64.44852 130
64.46864 116
64.48875 139
64.50886 120
64.52898 104
64.54909 133
64.56921 128
64.58932 127
64.60943 112
64.62955 110
64.64966 118
64.66977 148
64.68989 136
64.71 125
64.73012 125
64.75023 133
64.77034 127
64.79046 109
64.81057 135
64.83068 119
64.8508 117
64.87091 122
64.89102 116
64.91114 124
64.93125 128
64.95137 135
64.97148 130
64.99159 133
65.01171 142
65.03182 136
65.05193 124
65.07205 116
65.09216 130
65.11228 129
65.13239 116
65.1525 111
65.17262 136
65.19273 128
65.21284 149
65.23296 158
65.25307 147
65.27319 119
65.2933 121
65.31341 147
65.33353 157
65.35364 140
65.37375 127
65.39387 139
65.41398 130
65.43409 161
65.45421 150
65.47432 171
65.49444 145
65.51455 151
65.53466 159
65.55478 152
65.57489 159
65.595 191
65.61512 172
65.63523 172
65.65535 208
65.67546 187
65.69557 183
65.71569 236
65.7358 220
65.75591 237
65.77603 237
65.79614 187
65.81626 173
65.83637 190
65.85648 157
65.8766 182
65.89671 202
65.91682 192
65.93694 190
65.95705 203
65.97716 173
65.99728 145
66.01739 171
66.03751 140
66.05762 142
66.07773 150
66.09785 137
66.11796 137
66.13807 149
66.15819 147
66.1783 142
66.19842 148
66.21853 137
66.23864 131
66.25876 145
66.27887 140
66.29898 144
66.3191 143
66.33921 143
66.35933 153
66.37944 129
66.39955 152
66.41967 142
66.43978 133
66.45989 132
66.48001 157
66.50012 156
66.52023 139
66.54035 144
66.56046 168
66.58058 123
66.60069 144
66.6208 119
66.64092 152
66.66103 148
66.68114 149
66.70126 137
66.72137 149
66.74149 139
66.7616 143
66.78171 134
66.80183 175
66.82194 128
66.84205 166
66.86217 186
66.88228 151
66.90239 158
66.92251 167
66.94262 167
66.96274 142
66.98285 176
67.00296 131
67.02308 149
67.04319 158
67.0633 149
67.08342 145
67.10353 174
67.12365 154
67.14376 158
67.16387 155
67.18399 165
67.2041 157
67.22421 181
67.24433 166
67.26444 183
67.28456 191
67.30467 201
67.32478 203
67.3449 212
67.36501 214
67.38512 218
67.40524 240
67.42535 240
67.44546 265
67.46558 321
67.48569 361
67.50581 386
67.52592 451
67.54603 528
67.56615 601
67.58626 730
67.60637 820
67.62649 920
67.6466 1185
67.66672 1341
67.68683 1424
67.70694 1475
67.72706 1432
67.74717 1253
67.76728 1019
67.7874 833
67.80751 813
67.82763 845
67.84774 908
67.86785 965
67.88797 1039
67.90808 1074
67.92819 1019
67.94831 1008
67.96842 995
67.98853 972
68.00865 1177
68.02876 1256
68.04888 1548
68.06899 1648
68.0891 1903
68.10922 2013
68.12933 1915
68.14944 1773
68.16956 1566
68.18967 1454
68.20979 1532
68.2299 1580
68.25001 1766
68.27013 1831
68.29024 1865
68.31035 1713
68.33047 1463
68.35058 1148
68.3707 884
68.39081 767
68.41092 658
68.43104 719
68.45115 712
68.47126 662
68.49138 610
68.51149 491
68.5316 386
68.55172 352
68.57183 281
68.59195 241
68.61206 215
68.63217 222
68.65229 211
68.6724 209
68.69251 207
68.71263 176
68.73274 204
68.75286 168
68.77297 188
68.79308 174
68.8132 157
68.83331 171
68.85342 181
68.87354 131
68.89365 158
68.91376 184
68.93388 155
68.95399 151
68.97411 152
68.99422 163
69.01433 150
69.03445 163
69.05456 158
69.07467 121
69.09479 152
69.1149 143
69.13502 147
69.15513 154
69.17524 162
69.19536 156
69.21547 167
69.23558 152
69.2557 136
69.27581 155
69.29593 143
69.31604 149
69.33615 142
69.35627 148
69.37638 158
69.39649 163
69.41661 154
69.43672 153
69.45683 158
69.47695 152
69.49706 130
69.51718 134
69.53729 143
69.5574 157
69.57752 164
69.59763 135
69.61774 165
69.63786 126
69.65797 154
69.67809 123
69.6982 164
69.71831 139
69.73843 140
69.75854 132
69.77865 162
69.79877 137
69.81888 132
69.839 177
69.85911 135
69.87922 143
69.89934 180
69.91945 127
69.93956 145
69.95968 135
69.97979 133
69.9999 131
70.02002 152
70.04013 137
70.06025 122
70.08036 131
70.10047 116
70.12059 121
70.1407 135
70.16081 142
70.18093 126
70.20104 141
70.22116 137
70.24127 137
70.26138 147
70.2815 123
70.30161 114
70.32172 137
70.34184 140
70.36195 131
70.38207 146
70.40218 130
70.42229 134
70.44241 129
70.46252 139
70.48263 140
70.50275 162
70.52286 142
70.54297 140
70.56309 145
70.5832 115
70.60332 123
70.62343 117
70.64354 126
70.66366 129
70.68377 134
70.70388 142
70.724 144
70.74411 148
70.76423 127
70.78434 125
70.80445 135
70.82457 148
70.84468 144
70.86479 116
70.88491 147
70.90502 111
70.92513 137
70.94525 142
70.96536 136
70.98548 131
71.00559 131
71.0257 138
71.04582 143
71.06593 143
71.08604 144
71.10616 142
71.12627 139
71.14639 134
71.1665 139
71.18661 139
71.20673 118
71.22684 140
71.24695 115
71.26707 158
71.28718 127
71.3073 140
71.32741 150
71.34752 128
71.36764 148
71.38775 118
71.40786 126
71.42798 140
71.44809 127
71.4682 135
71.48832 142
71.50843 130
71.52855 118
71.54866 153
71.56877 130
71.58889 140
71.609 163
71.62911 138
71.64923 125
71.66934 137
71.68946 129
71.70957 138
71.72968 155
71.7498 142
71.76991 115
71.79002 150
71.81014 116
71.83025 126
71.85037 130
71.87048 124
71.89059 126
71.91071 115
71.93082 81
71.95093 141
71.97105 134
71.99116 118
72.01127 125
72.03139 146
72.0515 111
72.07162 108
72.09173 135
72.11184 124
72.13196 102
72.15207 145
72.17218 98
72.1923 144
72.21241 146
72.23253 129
72.25264 108
72.27275 124
72.29287 127
72.31298 130
72.33309 146
72.35321 103
72.37332 94
72.39344 127
72.41355 130
72.43366 100
72.45378 144
72.47389 111
72.494 124
72.51412 139
72.53423 106
72.55434 112
72.57446 102
72.59457 120
72.61469 123
72.6348 137
72.65491 112
72.67503 112
72.69514 121
72.71525 135
72.73537 125
72.75548 156
72.7756 112
72.79571 127
72.81582 159
72.83594 120
72.85605 143
72.87616 133
72.89628 139
72.91639 122
72.9365 145
72.95662 113
72.97673 155
72.99685 166
73.01696 155
73.03707 132
73.05719 172
73.0773 154
73.09741 169
73.11753 190
73.13764 165
73.15776 187
73.17787 205
73.19798 167
73.2181 201
73.23821 241
73.25832 203
73.27844 280
73.29855 301
73.31867 366
73.33878 422
73.35889 437
73.37901 508
73.39912 518
73.41923 612
73.43935 586
73.45946 530
73.47957 488
73.49969 396
73.5198 320
73.53992 357
73.56003 288
73.58014 315
73.60026 328
73.62037 348
73.64048 324
73.6606 333
73.68071 302
73.70083 249
73.72094 238
73.74105 154
73.76117 183
73.78128 162
73.80139 141
73.82151 146
73.84162 161
73.86174 140
73.88185 149
73.90196 152
73.92208 136
73.94219 139
73.9623 127
73.98242 137
74.00253 154
74.02264 128
74.04276 150
74.06287 130
74.08299 143
74.1031 140
74.12321 135
74.14333 125
74.16344 124
74.18355 134
74.20367 152
74.22378 124
74.2439 115
74.26401 116
74.28412 124
74.30424 97
74.32435 128
74.34446 117
74.36458 112
74.38469 112
74.40481 116
74.42492 139
74.44503 151
74.46515 125
74.48526 115
74.50537 138
74.52549 122
74.5456 130
74.56571 124
74.58583 107
74.60594 121
74.62606 128
74.64617 106
74.66628 119
74.6864 140
74.70651 114
74.72662 139
74.74674 138
74.76685 122
74.78697 120
74.80708 143
74.82719 99
74.84731 144
74.86742 131
74.88753 140
74.90765 128
74.92776 149
74.94787 117
74.96799 102
74.9881 136
75.00822 93
