3.00117 20765
3.02128 20064
3.0414 19571
3.06151 19105
3.08162 18472
3.10174 17840
3.12185 17295
3.14197 17405
3.16208 16299
3.18219 16075
3.20231 15572
3.22242 14972
3.24253 14825
3.26265 14042
3.28276 13830
3.30288 13495
3.32299 12941
3.3431 12517
3.36322 12206
3.38333 11675
3.40344 11297
3.42356 10876
3.44367 10673
3.46379 10207
3.4839 9821
3.50401 9546
3.52413 9074
3.54424 8907
3.56435 8466
3.58447 8327
3.60458 8147
3.62469 7573
3.64481 7398
3.66492 7107
3.68504 6815
3.70515 6504
3.72526 6155
3.74538 6051
3.76549 5753
3.7856 5530
3.80572 5140
3.82583 4900
3.84595 4788
3.86606 4734
3.88617 4402
3.90629 4255
3.9264 4049
3.94651 3914
3.96663 3801
3.98674 3628
4.00686 3352
4.02697 3155
4.04708 3153
4.0672 2925
4.08731 2778
4.10742 2709
4.12754 2458
4.14765 2553
4.16776 2370
4.18788 2222
4.20799 2204
4.22811 2111
4.24822 1951
4.26833 1947
4.28845 1797
4.30856 1644
4.32867 1574
4.34879 1640
4.3689 1647
4.38902 1454
4.40913 1549
4.42924 1442
4.44936 1449
4.46947 1476
4.48958 1346
4.5097 1341
4.52981 1235
4.54992 1248
4.57004 1262
4.59015 1172
4.61027 1240
4.63038 1067
4.65049 1085
4.67061 1151
4.69072 971
4.71083 1039
4.73095 949
4.75106 996
4.77118 969
4.79129 889
4.8114 887
4.83152 828
4.85163 820
4.87174 808
4.89186 808
4.91197 794
4.93209 759
4.9522 686
4.97231 782
4.99243 646
5.01254 654
5.03265 660
5.05277 695
5.07288 702
5.09299 597
5.11311 621
5.13322 594
5.15334 577
5.17345 599
5.19356 549
5.21368 587
5.23379 546
5.2539 517
5.27402 534
5.29413 448
5.31425 484
5.33436 487
5.35447 470
5.37459 454
5.3947 435
5.41481 410
5.43493 440
5.45504 413
5.47516 401
5.49527 421
5.51538 368
5.5355 380
5.55561 353
5.57572 378
5.59584 346
5.61595 311
5.63606 390
5.65618 355
5.67629 312
5.69641 299
5.71652 280
5.73663 334
5.75675 326
5.77686 323
5.79697 279
5.81709 273
5.8372 285
5.85732 292
5.87743 256
5.89754 249
5.91766 271
5.93777 256
5.95788 235
5.978 257
5.99811 240
6.01823 266
6.03834 247
6.05845 261
6.07857 200
6.09868 258
6.11879 258
6.13891 240
6.15902 216
6.17913 217
6.19925 196
6.21936 203
6.23948 207
6.25959 220
6.2797 205
6.29982 230
6.31993 194
6.34004 204
6.36016 201
6.38027 202
6.40039 232
6.4205 187
6.44061 218
6.46073 221
6.48084 204
6.50095 191
6.52107 207
6.54118 226
6.56129 220
6.58141 205
6.60152 220
6.62164 215
6.64175 204
6.66186 236
6.68198 180
6.70209 218
6.7222 201
6.74232 200
6.76243 183
6.78255 164
6.80266 200
6.82277 191
6.84289 235
6.863 221
6.88311 222
6.90323 203
6.92334 211
6.94346 202
6.96357 212
6.98368 199
7.0038 236
7.02391 199
7.04402 209
7.06414 196
7.08425 192
7.10436 220
7.12448 176
7.14459 200
7.16471 196
7.18482 215
7.20493 218
7.22505 204
7.24516 174
7.26527 207
7.28539 204
7.3055 227
7.32562 207
7.34573 189
7.36584 202
7.38596 213
7.40607 226
7.42618 207
7.4463 195
7.46641 192
7.48653 222
7.50664 212
7.52675 219
7.54687 212
7.56698 229
7.58709 211
7.60721 192
7.62732 212
7.64743 224
7.66755 235
7.68766 203
7.70778 225
7.72789 214
7.748 206
7.76812 201
7.78823 229
7.80834 231
7.82846 210
7.84857 215
7.86869 235
7.8888 235
7.90891 222
7.92903 225
7.94914 214
7.96925 193
7.98937 201
8.00948 246
8.0296 222
8.04971 213
8.06982 235
8.08994 216
8.11005 216
8.13016 218
8.15028 227
8.17039 250
8.1905 214
8.21062 238
8.23073 204
8.25085 218
8.27096 207
8.29107 231
8.31119 220
8.3313 230
8.35141 237
8.37153 208
8.39164 229
8.41176 224
8.43187 228
8.45198 226
8.4721 237
8.49221 233
8.51232 243
8.53244 234
8.55255 246
8.57266 251
8.59278 260
8.61289 254
8.63301 296
8.65312 261
8.67323 252
8.69335 282
8.71346 250
8.73357 266
8.75369 269
8.7738 253
8.79392 256
8.81403 282
8.83414 281
8.85426 250
8.87437 251
8.89448 276
8.9146 255
8.93471 254
8.95483 256
8.97494 242
8.99505 240
9.01517 209
9.03528 246
9.05539 230
9.07551 222
9.09562 243
9.11573 237
9.13585 229
9.15596 215
9.17608 242
9.19619 211
9.2163 219
9.23642 233
9.25653 241
9.27664 236
9.29676 217
9.31687 231
9.33699 223
9.3571 216
9.37721 212
9.39733 242
9.41744 237
9.43755 229
9.45767 205
9.47778 237
9.4979 210
9.51801 202
9.53812 229
9.55824 221
9.57835 216
9.59846 236
9.61858 223
9.63869 223
9.6588 221
9.67892 256
9.69903 235
9.71915 212
9.73926 217
9.75937 230
9.77949 196
9.7996 201
9.81971 245
9.83983 236
9.85994 196
9.88006 246
9.90017 227
9.92028 222
9.9404 203
9.96051 228
9.98062 209
10.00074 199
10.02085 230
10.04097 208
10.06108 237
10.08119 240
10.10131 214
10.12142 209
10.14153 248
10.16165 243
10.18176 223
10.20187 221
10.22199 231
10.2421 242
10.26222 206
10.28233 213
10.30244 236
10.32256 245
10.34267 266
10.36278 215
10.3829 246
10.40301 238
10.42313 179
10.44324 252
10.46335 211
10.48347 192
10.50358 227
10.52369 230
10.54381 223
10.56392 252
10.58403 218
10.60415 229
10.62426 248
10.64438 243
10.66449 217
10.6846 241
10.70472 234
10.72483 237
10.74494 240
10.76506 212
10.78517 231
10.80529 216
10.8254 222
10.84551 244
10.86563 218
10.88574 226
10.90585 207
10.92597 204
10.94608 248
10.9662 228
10.98631 209
11.00642 212
11.02654 224
11.04665 247
11.06676 242
11.08688 220
11.10699 217
11.1271 251
11.14722 223
11.16733 209
11.18745 224
11.20756 234
11.22767 213
11.24779 232
11.2679 250
11.28801 225
11.30813 213
11.32824 237
11.34836 228
11.36847 257
11.38858 242
11.4087 204
11.42881 248
11.44892 222
11.46904 243
11.48915 240
11.50927 243
11.52938 210
11.54949 225
11.56961 230
11.58972 262
11.60983 246
11.62995 249
11.65006 235
11.67017 265
11.69029 227
11.7104 217
11.73052 281
11.75063 254
11.77074 242
11.79086 252
11.81097 269
11.83108 272
11.8512 269
11.87131 271
11.89143 256
11.91154 288
11.93165 286
11.95177 275
11.97188 266
11.99199 295
12.01211 266
12.03222 292
12.05234 295
12.07245 277
12.09256 352
12.11268 311
12.13279 351
12.1529 302
12.17302 300
12.19313 320
12.21324 350
12.23336 352
12.25347 313
12.27359 339
12.2937 349
12.31381 314
12.33393 326
12.35404 308
12.37415 314
12.39427 308
12.41438 315
12.4345 288
12.45461 279
12.47472 324
12.49484 322
12.51495 273
12.53506 269
12.55518 281
12.57529 253
12.5954 273
12.61552 254
12.63563 257
12.65575 254
12.67586 241
12.69597 224
12.71609 246
12.7362 245
12.75631 220
12.77643 233
12.79654 189
12.81666 216
12.83677 238
12.85688 202
12.877 218
12.89711 232
12.91722 206
12.93734 222
12.95745 210
12.97757 243
12.99768 234
13.01779 247
13.03791 223
13.05802 262
13.07813 248
13.09825 264
13.11836 272
13.13847 270
13.15859 280
13.1787 299
13.19882 276
13.21893 226
13.23904 232
13.25916 265
13.27927 234
13.29938 245
13.3195 249
13.33961 242
13.35973 192
13.37984 218
13.39995 241
13.42007 229
13.44018 226
13.46029 222
13.48041 241
13.50052 233
13.52064 260
13.54075 296
13.56086 330
13.58098 367
13.60109 372
13.6212 372
13.64132 351
13.66143 312
13.68154 320
13.70166 312
13.72177 271
13.74189 232
13.762 253
13.78211 281
13.80223 268
13.82234 237
13.84245 274
13.86257 266
13.88268 257
13.9028 206
13.92291 258
13.94302 211
13.96314 241
13.98325 209
14.00336 196
14.02348 237
14.04359 213
14.06371 220
14.08382 197
14.10393 188
14.12405 192
14.14416 199
14.16427 185
14.18439 199
14.2045 210
14.22461 198
14.24473 222
14.26484 170
14.28496 214
14.30507 217
14.32518 189
14.3453 195
14.36541 177
14.38552 213
14.40564 178
14.42575 190
14.44587 186
14.46598 186
14.48609 207
14.50621 195
14.52632 214
14.54643 192
14.56655 198
14.58666 188
14.60677 167
14.62689 187
14.647 201
14.66712 185
14.68723 200
14.70734 191
14.72746 199
14.74757 207
14.76768 223
14.7878 199
14.80791 223
14.82803 213
14.84814 287
14.86825 272
14.88837 279
14.90848 267
14.92859 257
14.94871 266
14.96882 257
14.98894 240
15.00905 244
15.02916 249
15.04928 214
15.06939 238
15.0895 212
15.10962 234
15.12973 258
15.14984 223
15.16996 206
15.19007 224
15.21019 196
15.2303 224
15.25041 226
15.27053 226
15.29064 226
15.31075 193
15.33087 198
15.35098 196
15.3711 193
15.39121 201
15.41132 175
15.43144 196
15.45155 164
15.47166 192
15.49178 178
15.51189 180
15.53201 179
15.55212 195
15.57223 185
15.59235 167
15.61246 170
15.63257 173
15.65269 176
15.6728 190
15.69291 172
15.71303 166
15.73314 175
15.75326 183
15.77337 208
15.79348 177
15.8136 198
15.83371 195
15.85382 192
15.87394 157
15.89405 177
15.91417 177
15.93428 172
15.95439 196
15.97451 179
15.99462 145
16.01473 179
16.03485 166
16.05496 173
16.07508 185
16.09519 161
16.1153 175
16.13542 190
16.15553 185
16.17564 172
16.19576 192
16.21587 189
16.23598 182
16.2561 168
16.27621 178
16.29633 165
16.31644 178
16.33655 157
16.35667 163
16.37678 189
16.39689 166
16.41701 163
16.43712 188
16.45724 179
16.47735 172
16.49746 172
16.51758 185
16.53769 177
16.5578 221
16.57792 163
16.59803 171
16.61814 168
16.63826 190
16.65837 158
16.67849 192
16.6986 173
16.71871 173
16.73883 191
16.75894 212
16.77905 177
16.79917 181
16.81928 171
16.8394 189
16.85951 178
16.87962 169
16.89974 171
16.91985 173
16.93996 179
16.96008 176
16.98019 192
17.00031 182
17.02042 182
17.04053 150
17.06065 183
17.08076 209
17.10087 164
17.12099 153
17.1411 195
17.16121 164
17.18133 164
17.20144 195
17.22156 156
17.24167 170
17.26178 160
17.2819 186
17.30201 183
17.32212 177
17.34224 175
17.36235 168
17.38247 165
17.40258 162
17.42269 182
17.44281 186
17.46292 181
17.48303 193
17.50315 168
17.52326 180
17.54338 177
17.56349 173
17.5836 186
17.60372 184
17.62383 167
17.64394 176
17.66406 172
17.68417 172
17.70428 176
17.7244 167
17.74451 191
17.76463 172
17.78474 178
17.80485 174
17.82497 183
17.84508 171
17.86519 197
17.88531 171
17.90542 157
17.92554 161
17.94565 185
17.96576 149
17.98588 168
18.00599 174
18.0261 164
18.04622 185
18.06633 158
18.08645 177
18.10656 180
18.12667 171
18.14679 166
18.1669 165
18.18701 177
18.20713 173
18.22724 153
18.24735 173
18.26747 186
18.28758 157
18.3077 186
18.32781 168
18.34792 181
18.36804 165
18.38815 169
18.40826 149
18.42838 153
18.44849 174
18.46861 187
18.48872 173
18.50883 164
18.52895 179
18.54906 195
18.56917 181
18.58929 175
18.6094 186
18.62951 174
18.64963 154
18.66974 194
18.68986 175
18.70997 191
18.73008 162
18.7502 168
18.77031 181
18.79042 158
18.81054 178
18.83065 169
18.85077 192
18.87088 186
18.89099 182
18.91111 194
18.93122 190
18.95133 188
18.97145 192
18.99156 169
19.01168 167
19.03179 178
19.0519 182
19.07202 174
19.09213 181
19.11224 157
19.13236 222
19.15247 196
19.17258 217
19.1927 218
19.21281 205
19.23293 267
19.25304 252
19.27315 255
19.29327 260
19.31338 194
19.33349 224
19.35361 209
19.37372 187
19.39384 189
19.41395 213
19.43406 234
19.45418 193
19.47429 199
19.4944 194
19.51452 220
19.53463 203
19.55475 219
19.57486 221
19.59497 245
19.61509 230
19.6352 221
19.65531 238
19.67543 281
19.69554 241
19.71565 285
19.73577 269
19.75588 278
19.776 277
19.79611 336
19.81622 362
19.83634 323
19.85645 317
19.87656 364
19.89668 335
19.91679 320
19.93691 332
19.95702 349
19.97713 294
19.99725 318
20.01736 350
20.03747 339
20.05759 310
20.0777 318
20.09782 297
20.11793 311
20.13804 309
20.15816 333
20.17827 316
20.19838 311
20.2185 311
20.23861 313
20.25872 305
20.27884 315
20.29895 360
20.31907 306
20.33918 336
20.35929 359
20.37941 355
20.39952 354
20.41963 359
20.43975 357
20.45986 390
20.47998 370
20.50009 370
20.5202 344
20.54032 403
20.56043 382
20.58054 424
20.60066 495
20.62077 519
20.64088 595
20.661 711
20.68111 875
20.70123 1084
20.72134 1458
20.74145 1830
20.76157 2307
20.78168 2971
20.80179 3292
20.82191 3558
20.84202 3574
20.86214 3240
20.88225 2753
20.90236 2211
20.92248 1852
20.94259 1502
20.9627 1422
20.98282 1378
21.00293 1334
21.02305 1267
21.04316 1141
21.06327 992
21.08339 861
21.1035 677
21.12361 508
21.14373 510
21.16384 431
21.18395 384
21.20407 398
21.22418 350
21.2443 352
21.26441 324
21.28452 329
21.30464 339
21.32475 324
21.34486 297
21.36498 307
21.38509 270
21.40521 311
21.42532 278
21.44543 292
21.46555 313
21.48566 282
21.50577 246
21.52589 253
21.546 298
21.56612 273
21.58623 274
21.60634 276
21.62646 303
21.64657 271
21.66668 301
21.6868 292
21.70691 286
21.72702 275
21.74714 278
21.76725 316
21.78737 314
21.80748 308
21.82759 345
21.84771 387
21.86782 410
21.88793 459
21.90805 511
21.92816 510
21.94828 599
21.96839 612
21.9885 581
22.00862 511
22.02873 476
22.04884 440
22.06896 391
22.08907 322
22.10919 311
22.1293 333
22.14941 338
22.16953 354
22.18964 344
22.20975 415
22.22987 398
22.24998 447
22.27009 496
22.29021 429
22.31032 472
22.33044 421
22.35055 411
22.37066 361
22.39078 357
22.41089 335
22.431 330
22.45112 324
22.47123 315
22.49135 313
22.51146 340
22.53157 386
22.55169 337
22.5718 338
22.59191 335
22.61203 318
22.63214 354
22.65225 326
22.67237 324
22.69248 308
22.7126 296
22.73271 281
22.75282 294
22.77294 298
22.79305 311
22.81316 312
22.83328 314
22.85339 328
22.87351 345
22.89362 345
22.91373 398
22.93385 409
22.95396 383
22.97407 402
22.99419 437
23.0143 430
23.03442 426
23.05453 525
23.07464 482
23.09476 600
23.11487 596
23.13498 607
23.1551 699
23.17521 642
23.19532 621
23.21544 537
23.23555 538
23.25567 450
23.27578 473
23.29589 394
23.31601 407
23.33612 379
23.35623 428
23.37635 332
23.39646 399
23.41658 408
23.43669 375
23.4568 392
23.47692 431
23.49703 423
23.51714 476
23.53726 488
23.55737 480
23.57749 467
23.5976 488
23.61771 500
23.63783 427
23.65794 454
23.67805 427
23.69817 401
23.71828 425
23.73839 378
23.75851 407
23.77862 423
23.79874 439
23.81885 491
23.83896 577
23.85908 615
23.87919 655
23.8993 715
23.91942 694
23.93953 766
23.95965 820
23.97976 730
23.99987 654
24.01999 663
24.0401 587
24.06021 492
24.08033 489
24.10044 404
24.12056 426
24.14067 418
24.16078 417
24.1809 438
24.20101 450
24.22112 451
24.24124 529
24.26135 525
24.28146 576
24.30158 547
24.32169 510
24.34181 496
24.36192 427
24.38203 446
24.40215 391
24.42226 356
24.44237 357
24.46249 352
24.4826 354
24.50272 372
24.52283 355
24.54294 405
24.56306 389
24.58317 428
24.60328 419
24.6234 435
24.64351 484
24.66362 436
24.68374 456
24.70385 456
24.72397 447
24.74408 423
24.76419 408
24.78431 405
24.80442 477
24.82453 361
24.84465 422
24.86476 405
24.88488 387
24.90499 397
24.9251 392
24.94522 362
24.96533 397
24.98544 327
25.00556 329
25.02567 383
25.04579 347
25.0659 301
25.08601 350
25.10613 334
25.12624 329
25.14635 338
25.16647 302
25.18658 333
25.20669 344
25.22681 333
25.24692 319
25.26704 336
25.28715 357
25.30726 369
25.32738 412
25.34749 415
25.3676 449
25.38772 532
25.40783 643
25.42795 665
25.44806 771
25.46817 841
25.48829 930
25.5084 981
25.52851 959
25.54863 983
25.56874 899
25.58886 981
25.60897 863
25.62908 825
25.6492 734
25.66931 746
25.68942 619
25.70954 577
25.72965 492
25.74976 480
25.76988 424
25.78999 442
25.81011 390
25.83022 369
25.85033 377
25.87045 395
25.89056 380
25.91067 366
25.93079 354
25.9509 379
25.97102 413
25.99113 436
26.01124 400
26.03136 422
26.05147 522
26.07158 487
26.0917 421
26.11181 572
26.13193 569
26.15204 577
26.17215 580
26.19227 639
26.21238 709
26.23249 813
26.25261 843
26.27272 1009
26.29283 1102
26.31295 1282
26.33306 1458
26.35318 1601
26.37329 1856
26.3934 2195
26.41352 2523
26.43363 3011
26.45374 3875
26.47386 5115
26.49397 6566
26.51409 8616
26.5342 10704
26.55431 12954
26.57443 14639
26.59454 15296
26.61465 15270
26.63477 13849
26.65488 11451
26.67499 8708
26.69511 6402
26.71522 4291
26.73534 2816
26.75545 1980
26.77556 1358
26.79568 1136
26.81579 1073
26.8359 1045
26.85602 984
26.87613 996
26.89625 1010
26.91636 1074
26.93647 1150
26.95659 1185
26.9767 1305
26.99681 1401
27.01693 1379
27.03704 1370
27.05716 1382
27.07727 1288
27.09738 1078
27.1175 985
27.13761 932
27.15772 871
27.17784 781
27.19795 771
27.21806 841
27.23818 917
27.25829 1068
27.27841 1213
27.29852 1390
27.31863 1605
27.33875 1898
27.35886 2158
27.37897 2288
27.39909 2291
27.4192 2343
27.43932 2298
27.45943 2106
27.47954 1849
27.49966 1617
27.51977 1410
27.53988 1147
27.56 999
27.58011 802
27.60023 774
27.62034 698
27.64045 693
27.66057 777
27.68068 760
27.70079 844
27.72091 861
27.74102 875
27.76113 893
27.78125 969
27.80136 926
27.82148 957
27.84159 920
27.8617 967
27.88182 954
27.90193 962
27.92204 906
27.94216 837
27.96227 831
27.98239 720
28.0025 647
28.02261 579
28.04273 558
28.06284 431
28.08295 401
28.10307 410
28.12318 363
28.1433 373
28.16341 380
28.18352 377
28.20364 406
28.22375 404
28.24386 427
28.26398 432
28.28409 417
28.3042 365
28.32432 336
28.34443 320
28.36455 275
28.38466 297
28.40477 273
28.42489 298
28.445 246
28.46511 272
28.48523 265
28.50534 251
28.52546 210
28.54557 270
28.56568 261
28.5858 229
28.60591 228
28.62602 232
28.64614 223
28.66625 254
28.68636 238
28.70648 243
28.72659 275
28.74671 241
28.76682 250
28.78693 244
28.80705 284
28.82716 236
28.84727 230
28.86739 211
28.8875 214
28.90762 239
28.92773 226
28.94784 253
28.96796 233
28.98807 237
29.00818 252
29.0283 265
29.04841 273
29.06853 269
29.08864 271
29.10875 279
29.12887 292
29.14898 285
29.16909 277
29.18921 237
29.20932 290
29.22943 312
29.24955 323
29.26966 351
29.28978 370
29.30989 371
29.33 418
29.35012 414
29.37023 482
29.39034 498
29.41046 465
29.43057 480
29.45069 472
29.4708 423
29.49091 388
29.51103 400
29.53114 390
29.55125 309
29.57137 341
29.59148 344
29.6116 345
29.63171 340
29.65182 339
29.67194 347
29.69205 363
29.71216 362
29.73228 407
29.75239 408
29.7725 383
29.79262 338
29.81273 392
29.83285 366
29.85296 367
29.87307 379
29.89319 401
29.9133 349
29.93341 350
29.95353 409
29.97364 376
29.99376 405
30.01387 447
30.03398 475
30.0541 445
30.07421 501
30.09432 561
30.11444 543
30.13455 614
30.15467 628
30.17478 645
30.19489 646
30.21501 607
30.23512 599
30.25523 546
30.27535 557
30.29546 493
30.31557 502
30.33569 436
30.3558 461
30.37592 408
30.39603 432
30.41614 420
30.43626 363
30.45637 390
30.47648 359
30.4966 377
30.51671 371
30.53683 343
30.55694 377
30.57705 384
30.59717 415
30.61728 427
30.63739 472
30.65751 535
30.67762 548
30.69773 590
30.71785 663
30.73796 579
30.75808 612
30.77819 601
30.7983 589
30.81842 574
30.83853 555
30.85864 506
30.87876 476
30.89887 383
30.91899 389
30.9391 340
30.95921 354
30.97933 281
30.99944 249
31.01955 265
31.03967 271
31.05978 232
31.0799 246
31.10001 229
31.12012 209
31.14024 227
31.16035 226
31.18046 218
31.20058 235
31.22069 258
31.2408 210
31.26092 254
31.28103 285
31.30115 280
31.32126 302
31.34137 303
31.36149 256
31.3816 275
31.40171 275
31.42183 255
31.44194 203
31.46206 233
31.48217 243
31.50228 211
31.5224 226
31.54251 217
31.56262 197
31.58274 229
31.60285 220
31.62297 190
31.64308 205
31.66319 212
31.68331 213
31.70342 207
31.72353 231
31.74365 211
31.76376 211
31.78387 219
31.80399 200
31.8241 204
31.84422 211
31.86433 180
31.88444 205
31.90456 228
31.92467 247
31.94478 233
31.9649 227
31.98501 235
32.00513 278
32.02524 266
32.04535 303
32.06547 306
32.08558 298
32.10569 313
32.12581 267
32.14592 292
32.16604 310
32.18615 319
32.20626 309
32.22638 253
32.24649 288
32.2666 292
32.28672 328
32.30683 311
32.32694 296
32.34706 322
32.36717 349
32.38729 335
32.4074 330
32.42751 362
32.44763 351
32.46774 339
32.48785 311
32.50797 261
32.52808 266
32.5482 246
32.56831 243
32.58842 225
32.60854 246
32.62865 209
32.64876 204
32.66888 227
32.68899 210
32.7091 213
32.72922 194
32.74933 220
32.76945 221
32.78956 185
32.80967 195
32.82979 209
32.8499 201
32.87001 190
32.89013 201
32.91024 240
32.93036 188
32.95047 151
32.97058 184
32.9907 195
33.01081 184
33.03092 171
33.05104 188
33.07115 194
33.09127 186
33.11138 178
33.13149 165
33.15161 209
33.17172 197
33.19183 166
33.21195 205
33.23206 216
33.25217 187
33.27229 214
33.2924 197
33.31252 208
33.33263 211
33.35274 172
33.37286 159
33.39297 177
33.41308 203
33.4332 174
33.45331 188
33.47343 184
33.49354 195
33.51365 186
33.53377 163
33.55388 191
33.57399 205
33.59411 214
33.61422 188
33.63434 212
33.65445 176
33.67456 187
33.69468 203
33.71479 227
33.7349 229
33.75502 231
33.77513 251
33.79524 289
33.81536 252
33.83547 248
33.85559 211
33.8757 221
33.89581 225
33.91593 263
33.93604 263
33.95615 282
33.97627 292
33.99638 256
34.0165 285
34.03661 310
34.05672 354
34.07684 342
34.09695 367
34.11706 440
34.13718 444
34.15729 469
34.17741 511
34.19752 483
34.21763 448
34.23775 410
34.25786 386
34.27797 363
34.29809 354
34.3182 317
34.33831 344
34.35843 310
34.37854 314
34.39866 318
34.41877 271
34.43888 273
34.459 300
34.47911 316
34.49922 334
34.51934 338
34.53945 376
34.55957 355
34.57968 369
34.59979 349
34.61991 376
34.64002 373
34.66013 347
34.68025 361
34.70036 368
34.72047 348
34.74059 322
34.7607 395
34.78082 378
34.80093 382
34.82104 384
34.84116 390
34.86127 372
34.88138 422
34.9015 370
34.92161 356
34.94173 366
34.96184 364
34.98195 374
35.00207 376
35.02218 372
35.04229 382
35.06241 396
35.08252 365
35.10264 383
35.12275 381
35.14286 388
35.16298 396
35.18309 450
35.2032 426
35.22332 435
35.24343 471
35.26354 460
35.28366 462
35.30377 439
35.32389 430
35.344 484
35.36411 419
35.38423 423
35.40434 454
35.42445 469
35.44457 435
35.46468 475
35.4848 484
35.50491 500
35.52502 489
35.54514 522
35.56525 418
35.58536 441
35.60548 400
35.62559 397
35.64571 368
35.66582 382
35.68593 363
35.70605 340
35.72616 335
35.74627 318
35.76639 301
35.7865 306
35.80661 336
35.82673 343
35.84684 305
35.86696 327
35.88707 291
35.90718 305
35.9273 299
35.94741 300
35.96752 284
35.98764 298
36.00775 302
36.02787 289
36.04798 286
36.06809 290
36.08821 295
36.10832 297
36.12843 275
36.14855 308
36.16866 308
36.18878 278
36.20889 330
36.229 337
36.24912 344
36.26923 358
36.28934 358
36.30946 351
36.32957 443
36.34968 491
36.3698 584
36.38991 705
36.41003 845
36.43014 978
36.45025 1087
36.47037 1162
36.49048 1183
36.51059 1135
36.53071 1067
36.55082 990
36.57094 844
36.59105 698
36.61116 628
36.63128 543
36.65139 444
36.6715 376
36.69162 345
36.71173 305
36.73184 327
36.75196 295
36.77207 311
36.79219 301
36.8123 336
36.83241 332
36.85253 345
36.87264 389
36.89275 386
36.91287 356
36.93298 374
36.9531 438
36.97321 388
36.99332 387
37.01344 361
37.03355 334
37.05366 361
37.07378 310
37.09389 269
37.11401 271
37.13412 298
37.15423 267
37.17435 283
37.19446 290
37.21457 264
37.23469 250
37.2548 268
37.27491 270
37.29503 274
37.31514 258
37.33526 231
37.35537 260
37.37548 264
37.3956 225
37.41571 271
37.43582 269
37.45594 253
37.47605 277
37.49617 258
37.51628 280
37.53639 261
37.55651 271
37.57662 285
37.59673 273
37.61685 263
37.63696 247
37.65708 250
37.67719 240
37.6973 254
37.71742 233
37.73753 228
37.75764 223
37.77776 213
37.79787 250
37.81798 213
37.8381 261
37.85821 243
37.87833 252
37.89844 212
37.91855 250
37.93867 219
37.95878 232
37.97889 239
37.99901 220
38.01912 222
38.03924 221
38.05935 261
38.07946 231
38.09958 242
38.11969 222
38.1398 244
38.15992 235
38.18003 210
38.20015 220
38.22026 210
38.24037 251
38.26049 225
38.2806 269
38.30071 255
38.32083 257
38.34094 284
38.36105 313
38.38117 306
38.40128 351
38.4214 330
38.44151 368
38.46162 379
38.48174 328
38.50185 369
38.52196 355
38.54208 359
38.56219 322
38.58231 295
38.60242 286
38.62253 283
38.64265 284
38.66276 285
38.68287 264
38.70299 264
38.7231 232
38.74321 233
38.76333 252
38.78344 222
38.80356 231
38.82367 243
38.84378 210
38.8639 261
38.88401 238
38.90412 257
38.92424 254
38.94435 234
38.96447 230
38.98458 265
39.00469 255
39.02481 245
39.04492 272
39.06503 293
39.08515 298
39.10526 300
39.12538 305
39.14549 321
39.1656 304
39.18572 322
39.20583 315
39.22594 372
39.24606 413
39.26617 436
39.28628 547
39.3064 654
39.32651 712
39.34663 869
39.36674 970
39.38685 1088
39.40697 1151
39.42708 1041
39.44719 1032
39.46731 966
39.48742 817
39.50754 694
39.52765 631
39.54776 582
39.56788 431
39.58799 373
39.6081 305
39.62822 274
39.64833 231
39.66845 262
39.68856 213
39.70867 212
39.72879 233
39.7489 226
39.76901 222
39.78913 210
39.80924 240
39.82935 212
39.84947 234
39.86958 243
39.8897 245
39.90981 221
39.92992 224
39.95004 224
39.97015 247
39.99026 232
40.01038 265
40.03049 241
40.05061 333
40.07072 315
40.09083 334
40.11095 378
40.13106 394
40.15117 476
40.17129 521
40.1914 580
40.21152 642
40.23163 669
40.25174 665
40.27186 606
40.29197 581
40.31208 553
40.3322 495
40.35231 392
40.37242 380
40.39254 311
40.41265 309
40.43277 273
40.45288 244
40.47299 261
40.49311 230
40.51322 236
40.53333 220
40.55345 243
40.57356 228
40.59368 223
40.61379 204
40.6339 178
40.65402 190
40.67413 203
40.69424 239
40.71436 222
40.73447 201
40.75458 224
40.7747 198
40.79481 212
40.81493 208
40.83504 221
40.85515 204
40.87527 199
40.89538 193
40.91549 190
40.93561 188
40.95572 203
40.97584 177
40.99595 200
41.01606 192
41.03618 197
41.05629 208
41.0764 213
41.09652 217
41.11663 206
41.13675 220
41.15686 214
41.17697 198
41.19709 249
41.2172 216
41.23731 227
41.25743 230
41.27754 224
41.29765 197
41.31777 230
41.33788 224
41.358 250
41.37811 222
41.39822 249
41.41834 226
41.43845 236
41.45856 278
41.47868 259
41.49879 276
41.51891 289
41.53902 308
41.55913 293
41.57925 315
41.59936 319
41.61947 370
41.63959 394
41.6597 471
41.67982 488
41.69993 561
41.72004 528
41.74016 559
41.76027 594
41.78038 593
41.8005 526
41.82061 522
41.84072 483
41.86084 431
41.88095 363
41.90107 373
41.92118 365
41.94129 299
41.96141 291
41.98152 258
42.00163 261
42.02175 245
42.04186 229
42.06198 224
42.08209 228
42.1022 244
42.12232 249
42.14243 262
42.16254 282
42.18266 325
42.20277 336
42.22289 347
42.243 410
42.26311 448
42.28323 507
42.30334 538
42.32345 671
42.34357 748
42.36368 845
42.38379 837
42.40391 839
42.42402 780
42.44414 789
42.46425 627
42.48436 635
42.50448 525
42.52459 484
42.5447 438
42.56482 390
42.58493 330
42.60505 330
42.62516 284
42.64527 330
42.66539 281
42.6855 277
42.70561 314
42.72573 293
42.74584 315
42.76595 277
42.78607 259
42.80618 279
42.8263 268
42.84641 254
42.86652 295
42.88664 241
42.90675 262
42.92686 244
42.94698 260
42.96709 222
42.98721 248
43.00732 233
43.02743 222
43.04755 223
43.06766 231
43.08777 215
43.10789 230
43.128 197
43.14812 218
43.16823 200
43.18834 192
43.20846 180
43.22857 232
43.24868 180
43.2688 193
43.28891 192
43.30902 204
43.32914 215
43.34925 203
43.36937 217
43.38948 235
43.40959 179
43.42971 199
43.44982 203
43.46993 225
43.49005 227
43.51016 241
43.53028 228
43.55039 217
43.5705 209
43.59062 197
43.61073 184
43.63084 197
43.65096 184
43.67107 213
43.69119 189
43.7113 201
43.73141 205
43.75153 157
43.77164 176
43.79175 193
43.81187 188
43.83198 179
43.85209 209
43.87221 201
43.89232 192
43.91244 193
43.93255 199
43.95266 229
43.97278 208
43.99289 199
44.013 217
44.03312 221
44.05323 209
44.07335 212
44.09346 216
44.11357 195
44.13369 214
44.1538 243
44.17391 233
44.19403 202
44.21414 214
44.23426 244
44.25437 209
44.27448 218
44.2946 193
44.31471 203
44.33482 168
44.35494 208
44.37505 194
44.39516 201
44.41528 191
44.43539 188
44.45551 208
44.47562 218
44.49573 210
44.51585 212
44.53596 211
44.55607 231
44.57619 219
44.5963 228
44.61642 221
44.63653 202
44.65664 184
44.67676 200
44.69687 186
44.71698 191
44.7371 204
44.75721 190
44.77732 199
44.79744 192
44.81755 199
44.83767 178
44.85778 192
44.87789 185
44.89801 200
44.91812 192
44.93823 185
44.95835 192
44.97846 183
44.99858 193
45.01869 192
45.0388 186
45.05892 182
45.07903 206
45.09914 203
45.11926 200
45.13937 183
45.15949 227
45.1796 200
45.19971 187
45.21983 213
45.23994 215
45.26005 208
45.28017 224
45.30028 218
45.32039 260
45.34051 247
45.36062 260
45.38074 322
45.40085 274
45.42096 305
45.44108 334
45.46119 296
45.4813 332
45.50142 357
45.52153 379
45.54165 363
45.56176 413
45.58187 404
45.60199 471
45.6221 485
45.64221 546
45.66233 614
45.68244 655
45.70256 678
45.72267 711
45.74278 688
45.7629 681
45.78301 610
45.80312 544
45.82324 510
45.84335 496
45.86346 410
45.88358 361
45.90369 354
45.92381 314
45.94392 259
45.96403 232
45.98415 227
46.00426 229
46.02437 219
46.04449 203
46.0646 251
46.08472 221
46.10483 217
46.12494 249
46.14506 224
46.16517 236
46.18528 244
46.2054 239
46.22551 222
46.24563 226
46.26574 240
46.28585 236
46.30597 218
46.32608 227
46.34619 208
46.36631 219
46.38642 218
46.40653 218
46.42665 220
46.44676 192
46.46688 173
46.48699 193
46.5071 175
46.52722 178
46.54733 188
46.56744 190
46.58756 187
46.60767 186
46.62779 198
46.6479 195
46.66801 215
46.68813 188
46.70824 194
46.72835 182
46.74847 202
46.76858 216
46.78869 228
46.80881 226
46.82892 196
46.84904 223
46.86915 205
46.88926 201
46.90938 213
46.92949 226
46.9496 280
46.96972 241
46.98983 235
47.00995 272
47.03006 261
47.05017 256
47.07029 286
47.0904 292
47.11051 284
47.13063 287
47.15074 305
47.17086 262
47.19097 265
47.21108 255
47.2312 236
47.25131 267
47.27142 269
47.29154 242
47.31165 251
47.33176 246
47.35188 260
47.37199 243
47.39211 271
47.41222 220
47.43233 293
47.45245 241
47.47256 279
47.49267 280
47.51279 267
47.5329 248
47.55302 224
47.57313 236
47.59324 277
47.61336 226
47.63347 239
47.65358 207
47.6737 211
47.69381 186
47.71393 182
47.73404 194
47.75415 201
47.77427 185
47.79438 183
47.81449 175
47.83461 173
47.85472 163
47.87483 186
47.89495 181
47.91506 167
47.93518 194
47.95529 198
47.9754 178
47.99552 181
48.01563 203
48.03574 167
48.05586 189
48.07597 174
48.09609 176
48.1162 165
48.13631 187
48.15643 197
48.17654 187
48.19665 200
48.21677 226
48.23688 186
48.257 210
48.27711 202
48.29722 194
48.31734 209
48.33745 206
48.35756 214
48.37768 205
48.39779 214
48.4179 183
48.43802 190
48.45813 188
48.47825 209
48.49836 185
48.51847 188
48.53859 187
48.5587 209
48.57881 224
48.59893 216
48.61904 225
48.63916 238
48.65927 240
48.67938 299
48.6995 266
48.71961 282
48.73972 253
48.75984 244
48.77995 249
48.80006 241
48.82018 243
48.84029 253
48.86041 263
48.88052 305
48.90063 275
48.92075 274
48.94086 282
48.96097 274
48.98109 287
49.0012 290
49.02132 294
49.04143 248
49.06154 272
49.08166 270
49.10177 246
49.12188 286
49.142 287
49.16211 239
49.18223 231
49.20234 207
49.22245 233
49.24257 215
49.26268 220
49.28279 207
49.30291 213
49.32302 196
49.34313 203
49.36325 203
49.38336 182
49.40348 200
49.42359 201
49.4437 240
49.46382 206
49.48393 230
49.50404 236
49.52416 230
49.54427 225
49.56439 224
49.5845 236
49.60461 245
49.62473 276
49.64484 262
49.66495 294
49.68507 276
49.70518 290
49.7253 303
49.74541 357
49.76552 352
49.78564 353
49.80575 405
49.82586 397
49.84598 495
49.86609 478
49.8862 547
49.90632 615
49.92643 694
49.94655 805
49.96666 945
49.98677 1087
50.00689 1391
50.027 1547
50.04711 1678
50.06723 1665
50.08734 1779
50.10746 1518
50.12757 1471
50.14768 1286
50.1678 1148
50.18791 1002
50.20802 963
50.22814 878
50.24825 830
50.26837 622
50.28848 579
50.30859 476
50.32871 392
50.34882 441
50.36893 480
50.38905 527
50.40916 557
50.42927 561
50.44939 611
50.4695 617
50.48962 600
50.50973 591
50.52984 568
50.54996 560
50.57007 538
50.59018 451
50.6103 495
50.63041 465
50.65053 489
50.67064 427
50.69075 419
50.71087 360
50.73098 331
50.75109 336
50.77121 336
50.79132 317
50.81143 330
50.83155 317
50.85166 327
50.87178 313
50.89189 288
50.912 285
50.93212 291
50.95223 255
50.97234 264
50.99246 251
51.01257 254
51.03269 259
51.0528 257
51.07291 285
51.09303 232
51.11314 258
51.13325 233
51.15337 258
51.17348 224
51.1936 254
51.21371 248
51.23382 224
51.25394 240
51.27405 246
51.29416 233
51.31428 209
51.33439 226
51.3545 249
51.37462 223
51.39473 188
51.41485 184
51.43496 192
51.45507 198
51.47519 176
51.4953 202
51.51541 215
51.53553 169
51.55564 174
51.57576 190
51.59587 155
51.61598 177
51.6361 160
51.65621 174
51.67632 177
51.69644 177
51.71655 173
51.73667 171
51.75678 162
51.77689 159
51.79701 162
51.81712 159
51.83723 188
51.85735 165
51.87746 178
51.89757 146
51.91769 164
51.9378 140
51.95792 155
51.97803 159
51.99814 178
52.01826 167
52.03837 153
52.05848 160
52.0786 180
52.09871 165
52.11883 185
52.13894 170
52.15905 168
52.17917 156
52.19928 173
52.21939 163
52.23951 167
52.25962 192
52.27974 184
52.29985 170
52.31996 193
52.34008 196
52.36019 182
52.3803 190
52.40042 189
52.42053 187
52.44064 166
52.46076 203
52.48087 213
52.50099 204
52.5211 231
52.54121 202
52.56133 225
52.58144 207
52.60155 192
52.62167 218
52.64178 232
52.6619 209
52.68201 233
52.70212 252
52.72224 195
52.74235 220
52.76246 227
52.78258 229
52.80269 199
52.8228 218
52.84292 231
52.86303 192
52.88315 205
52.90326 199
52.92337 183
52.94349 177
52.9636 177
52.98371 183
53.00383 170
53.02394 191
53.04406 209
53.06417 190
53.08428 194
53.1044 204
53.12451 186
53.14462 161
53.16474 193
53.18485 194
53.20497 201
53.22508 172
53.24519 183
53.26531 191
53.28542 190
53.30553 191
53.32565 200
53.34576 211
53.36587 168
53.38599 208
53.4061 190
53.42622 200
53.44633 195
53.46644 192
53.48656 187
53.50667 186
53.52678 198
53.5469 162
53.56701 178
53.58713 177
53.60724 173
53.62735 189
53.64747 163
53.66758 202
53.68769 180
53.70781 198
53.72792 185
53.74804 185
53.76815 204
53.78826 182
53.80838 213
53.82849 188
53.8486 199
53.86872 198
53.88883 227
53.90894 199
53.92906 231
53.94917 212
53.96929 239
53.9894 228
54.00951 227
54.02963 219
54.04974 208
54.06985 209
54.08997 200
54.11008 204
54.1302 222
54.15031 216
54.17042 209
54.19054 244
54.21065 212
54.23076 203
54.25088 233
54.27099 203
54.29111 216
54.31122 218
54.33133 234
54.35145 198
54.37156 199
54.39167 215
54.41179 231
54.4319 202
54.45201 215
54.47213 228
54.49224 243
54.51236 230
54.53247 238
54.55258 231
54.5727 242
54.59281 277
54.61292 271
54.63304 302
54.65315 304
54.67327 374
54.69338 385
54.71349 430
54.73361 468
54.75372 540
54.77383 607
54.79395 627
54.81406 581
54.83417 576
54.85429 602
54.8744 494
54.89452 458
54.91463 436
54.93474 393
54.95486 448
54.97497 422
54.99508 357
55.0152 325
55.03531 308
55.05543 272
55.07554 261
55.09565 240
55.11577 236
55.13588 288
55.15599 341
55.17611 328
55.19622 355
55.21634 384
55.23645 437
55.25656 446
55.27668 410
55.29679 387
55.3169 387
55.33702 339
55.35713 333
55.37724 320
55.39736 342
55.41747 308
55.43759 367
55.4577 300
55.47781 264
55.49793 236
55.51804 270
55.53815 273
55.55827 240
55.57838 226
55.5985 219
55.61861 216
55.63872 232
55.65884 234
55.67895 229
55.69906 205
55.71918 218
55.73929 198
55.75941 197
55.77952 193
55.79963 207
55.81975 208
55.83986 206
55.85997 208
55.88009 212
55.9002 188
55.92031 173
55.94043 187
55.96054 188
55.98066 191
56.00077 170
56.02088 183
56.041 203
56.06111 193
56.08122 184
56.10134 175
56.12145 194
56.14157 195
56.16168 197
56.18179 189
56.20191 171
56.22202 170
56.24213 192
56.26225 175
56.28236 192
56.30248 162
56.32259 181
56.3427 151
56.36282 191
56.38293 178
56.40304 195
56.42316 207
56.44327 192
56.46338 174
56.4835 183
56.50361 183
56.52373 176
56.54384 173
56.56395 200
56.58407 185
56.60418 197
56.62429 207
56.64441 180
56.66452 205
56.68464 207
56.70475 206
56.72486 217
56.74498 222
56.76509 205
56.7852 189
56.80532 225
56.82543 203
56.84554 212
56.86566 165
56.88577 197
56.90589 198
56.926 206
56.94611 214
56.96623 202
56.98634 201
57.00645 197
57.02657 207
57.04668 204
57.0668 200
57.08691 199
57.10702 202
57.12714 206
57.14725 203
57.16736 209
57.18748 208
57.20759 201
57.22771 217
57.24782 226
57.26793 225
57.28805 222
57.30816 209
57.32827 230
57.34839 220
57.3685 251
57.38861 204
57.40873 225
57.42884 211
57.44896 218
57.46907 200
57.48918 210
57.5093 199
57.52941 184
57.54952 172
57.56964 185
57.58975 218
57.60987 199
57.62998 183
57.65009 184
57.67021 179
57.69032 197
57.71043 185
57.73055 184
57.75066 204
57.77078 185
57.79089 165
57.811 192
57.83112 177
57.85123 167
57.87134 154
57.89146 188
57.91157 199
57.93168 191
57.9518 182
57.97191 215
57.99203 179
58.01214 188
58.03225 175
58.05237 193
58.07248 189
58.09259 149
58.11271 198
58.13282 188
58.15294 232
58.17305 181
58.19316 170
58.21328 195
58.23339 179
58.2535 205
58.27362 191
58.29373 195
58.31385 172
58.33396 225
58.35407 213
58.37419 217
58.3943 184
58.41441 223
58.43453 214
58.45464 205
58.47475 216
58.49487 207
58.51498 237
58.5351 236
58.55521 227
58.57532 235
58.59544 240
58.61555 212
58.63566 215
58.65578 215
58.67589 216
58.69601 222
58.71612 219
58.73623 204
58.75635 202
58.77646 192
58.79657 175
58.81669 183
58.8368 158
58.85691 193
58.87703 179
58.89714 168
58.91726 164
58.93737 186
58.95748 177
58.9776 148
58.99771 169
59.01782 172
59.03794 167
59.05805 178
59.07817 182
59.09828 169
59.11839 184
59.13851 188
59.15862 187
59.17873 189
59.19885 188
59.21896 191
59.23908 200
59.25919 191
59.2793 179
59.29942 183
59.31953 215
59.33964 234
59.35976 220
59.37987 204
59.39998 218
59.4201 210
59.44021 216
59.46033 243
59.48044 244
59.50055 250
59.52067 272
59.54078 246
59.56089 259
59.58101 268
59.60112 286
59.62124 293
59.64135 334
59.66146 365
59.68158 423
59.70169 387
59.7218 450
59.74192 559
59.76203 617
59.78215 722
59.80226 814
59.82237 949
59.84249 981
59.8626 1150
59.88271 1242
59.90283 1125
59.92294 1068
59.94305 889
59.96317 822
59.98328 709
60.0034 704
60.02351 670
60.04362 680
60.06374 634
60.08385 589
60.10396 495
60.12408 445
60.14419 341
60.16431 283
60.18442 269
60.20453 259
60.22465 235
60.24476 236
60.26487 257
60.28499 241
60.3051 204
60.32522 227
60.34533 223
60.36544 186
60.38556 200
60.40567 205
60.42578 217
60.4459 177
60.46601 213
60.48612 219
60.50624 191
60.52635 203
60.54647 180
60.56658 225
60.58669 209
60.60681 190
60.62692 199
60.64703 194
60.66715 203
60.68726 207
60.70738 201
60.72749 184
60.7476 213
60.76772 220
60.78783 202
60.80794 198
60.82806 201
60.84817 210
60.86828 185
60.8884 207
60.90851 198
60.92863 237
60.94874 245
60.96885 237
60.98897 217
61.00908 241
61.02919 248
61.04931 264
61.06942 253
61.08954 264
61.10965 278
61.12976 274
61.14988 245
61.16999 242
61.1901 254
61.21022 240
61.23033 247
61.25045 207
61.27056 218
61.29067 215
61.31079 228
61.3309 195
61.35101 213
61.37113 203
61.39124 182
61.41135 221
61.43147 186
61.45158 185
61.4717 184
61.49181 185
61.51192 199
61.53204 185
61.55215 179
61.57226 177
61.59238 196
61.61249 181
61.63261 180
61.65272 210
61.67283 197
61.69295 192
61.71306 191
61.73317 188
61.75329 196
61.7734 191
61.79352 200
61.81363 206
61.83374 194
61.85386 224
61.87397 199
61.89408 183
61.9142 197
61.93431 189
61.95442 215
61.97454 188
61.99465 235
62.01477 225
62.03488 209
62.05499 205
62.07511 221
62.09522 229
62.11533 206
62.13545 234
62.15556 209
62.17568 241
62.19579 220
62.2159 232
62.23602 220
62.25613 225
62.27624 251
62.29636 241
62.31647 243
62.33659 214
62.3567 245
62.37681 237
62.39693 252
62.41704 199
62.43715 212
62.45727 225
62.47738 222
62.49749 226
62.51761 229
62.53772 223
62.55784 214
62.57795 202
62.59806 243
62.61818 211
62.63829 223
62.6584 224
62.67852 201
62.69863 242
62.71875 236
62.73886 225
62.75897 226
62.77909 227
62.7992 216
62.81931 242
62.83943 221
62.85954 258
62.87965 246
62.89977 261
62.91988 245
62.94 225
62.96011 244
62.98022 237
63.00034 284
63.02045 295
63.04056 259
63.06068 245
63.08079 273
63.10091 303
63.12102 268
63.14113 262
63.16125 243
63.18136 234
63.20147 257
63.22159 238
63.2417 251
63.26182 216
63.28193 241
63.30204 225
63.32216 214
63.34227 223
63.36238 222
63.3825 216
63.40261 207
63.42272 212
63.44284 216
63.46295 236
63.48307 221
63.50318 243
63.52329 226
63.54341 260
63.56352 253
63.58363 218
63.60375 254
63.62386 276
63.64398 266
63.66409 319
63.6842 291
63.70432 303
63.72443 276
63.74454 326
63.76466 293
63.78477 317
63.80489 346
63.825 317
63.84511 378
63.86523 366
63.88534 403
63.90545 422
63.92557 439
63.94568 484
63.96579 449
63.98591 430
64.00602 398
64.02614 361
64.04625 349
64.06636 307
64.08648 349
64.10659 290
64.1267 288
64.14682 285
64.16693 281
64.18705 275
64.20716 202
64.22727 213
64.24739 206
64.2675 188
64.28761 190
64.30773 212
64.32784 169
64.34796 174
64.36807 178
64.38818 182
64.4083 185
64.42841 186
64.44852 162
64.46864 149
64.48875 176
64.50886 165
64.52898 167
64.54909 162
64.56921 164
64.58932 170
64.60943 163
64.62955 152
64.64966 148
64.66977 147
64.68989 175
64.71 172
64.73012 165
64.75023 203
64.77034 185
64.79046 203
64.81057 195
64.83068 191
64.8508 193
64.87091 184
64.89102 211
64.91114 198
64.93125 231
64.95137 215
64.97148 204
64.99159 239
65.01171 224
65.03182 206
65.05193 218
65.07205 209
65.09216 234
65.11228 203
65.13239 237
65.1525 229
65.17262 214
65.19273 249
65.21284 267
65.23296 249
65.25307 231
65.27319 249
65.2933 227
65.31341 274
65.33353 260
65.35364 241
65.37375 220
65.39387 243
65.41398 211
65.43409 213
65.45421 216
65.47432 216
65.49444 229
65.51455 208
65.53466 224
65.55478 211
65.57489 187
65.595 184
65.61512 216
65.63523 192
65.65535 222
65.67546 206
65.69557 234
65.71569 175
65.7358 204
65.75591 186
65.77603 180
65.79614 191
65.81626 175
65.83637 167
65.85648 159
65.8766 204
65.89671 170
65.91682 202
65.93694 182
65.95705 165
65.97716 190
65.99728 180
66.01739 188
66.03751 188
66.05762 174
66.07773 219
66.09785 194
66.11796 192
66.13807 214
66.15819 198
66.1783 200
66.19842 232
66.21853 216
66.23864 214
66.25876 239
66.27887 248
66.29898 239
66.3191 219
66.33921 225
66.35933 209
66.37944 221
66.39955 225
66.41967 217
66.43978 206
66.45989 210
66.48001 233
66.50012 199
66.52023 171
66.54035 173
66.56046 191
66.58058 196
66.60069 196
66.6208 192
66.64092 192
66.66103 173
66.68114 196
66.70126 182
66.72137 206
66.74149 202
66.7616 179
66.78171 182
66.80183 206
66.82194 179
66.84205 200
66.86217 202
66.88228 210
66.90239 187
66.92251 181
66.94262 193
66.96274 192
66.98285 198
67.00296 209
67.02308 197
67.04319 191
67.0633 193
67.08342 191
67.10353 200
67.12365 217
67.14376 197
67.16387 201
67.18399 195
67.2041 202
67.22421 208
67.24433 206
67.26444 203
67.28456 213
67.30467 227
67.32478 243
67.3449 228
67.36501 233
67.38512 248
67.40524 263
67.42535 244
67.44546 282
67.46558 303
67.48569 336
67.50581 355
67.52592 393
67.54603 437
67.56615 484
67.58626 564
67.60637 628
67.62649 702
67.6466 747
67.66672 768
67.68683 758
67.70694 743
67.72706 622
67.74717 619
67.76728 551
67.7874 525
67.80751 531
67.82763 563
67.84774 636
67.86785 626
67.88797 638
67.90808 645
67.92819 644
67.94831 624
67.96842 636
67.98853 737
68.00865 767
68.02876 827
68.04888 960
68.06899 930
68.0891 917
68.10922 939
68.12933 895
68.14944 846
68.16956 832
68.18967 864
68.20979 874
68.2299 923
68.25001 884
68.27013 877
68.29024 787
68.31035 738
68.33047 585
68.35058 486
68.3707 461
68.39081 441
68.41092 429
68.43104 406
68.45115 392
68.47126 354
68.49138 321
68.51149 292
68.5316 263
68.55172 234
68.57183 236
68.59195 207
68.61206 217
68.63217 187
68.65229 208
68.6724 181
68.69251 204
68.71263 200
68.73274 173
68.75286 215
68.77297 205
68.79308 193
68.8132 219
68.83331 185
68.85342 202
68.87354 194
68.89365 187
68.91376 194
68.93388 176
68.95399 197
68.97411 211
68.99422 191
69.01433 175
69.03445 182
69.05456 179
69.07467 172
69.09479 196
69.1149 175
69.13502 164
69.15513 169
69.17524 178
69.19536 166
69.21547 204
69.23558 185
69.2557 162
69.27581 191
69.29593 186
69.31604 175
69.33615 189
69.35627 176
69.37638 157
69.39649 193
69.41661 179
69.43672 174
69.45683 159
69.47695 155
69.49706 174
69.51718 178
69.53729 171
69.5574 181
69.57752 184
69.59763 153
69.61774 191
69.63786 161
69.65797 176
69.67809 152
69.6982 183
69.71831 160
69.73843 206
69.75854 185
69.77865 192
69.79877 189
69.81888 176
69.839 160
69.85911 175
69.87922 190
69.89934 180
69.91945 203
69.93956 173
69.95968 168
69.97979 168
69.9999 169
70.02002 173
70.04013 183
70.06025 163
70.08036 185
70.10047 146
70.12059 159
70.1407 156
70.16081 192
70.18093 185
70.20104 169
70.22116 186
70.24127 148
70.26138 171
70.2815 132
70.30161 163
70.32172 150
70.34184 175
70.36195 170
70.38207 197
70.40218 156
70.42229 164
70.44241 170
70.46252 177
70.48263 169
70.50275 188
70.52286 176
70.54297 161
70.56309 165
70.5832 185
70.60332 191
70.62343 180
70.64354 197
70.66366 189
70.68377 184
70.70388 173
70.724 178
70.74411 162
70.76423 166
70.78434 178
70.80445 186
70.82457 198
70.84468 179
70.86479 185
70.88491 169
70.90502 174
70.92513 170
70.94525 153
70.96536 176
70.98548 180
71.00559 173
71.0257 166
71.04582 166
71.06593 182
71.08604 161
71.10616 181
71.12627 165
71.14639 176
71.1665 177
71.18661 197
71.20673 168
71.22684 188
71.24695 187
71.26707 160
71.28718 191
71.3073 216
71.32741 201
71.34752 177
71.36764 196
71.38775 207
71.40786 208
71.42798 211
71.44809 221
71.4682 199
71.48832 230
71.50843 224
71.52855 185
71.54866 215
71.56877 193
71.58889 170
71.609 197
71.62911 220
71.64923 182
71.66934 197
71.68946 188
71.70957 186
71.72968 199
71.7498 168
71.76991 189
71.79002 202
71.81014 172
71.83025 180
71.85037 193
71.87048 194
71.89059 207
71.91071 198
71.93082 189
71.95093 196
71.97105 204
71.99116 202
72.01127 211
72.03139 192
72.0515 223
72.07162 194
72.09173 195
72.11184 196
72.13196 219
72.15207 201
72.17218 211
72.1923 227
72.21241 186
72.23253 206
72.25264 208
72.27275 228
72.29287 192
72.31298 186
72.33309 167
72.35321 174
72.37332 183
72.39344 181
72.41355 218
72.43366 193
72.45378 207
72.47389 219
72.494 183
72.51412 190
72.53423 175
72.55434 180
72.57446 171
72.59457 161
72.61469 138
72.6348 158
72.65491 167
72.67503 174
72.69514 173
72.71525 169
72.73537 174
72.75548 183
72.7756 186
72.79571 196
72.81582 174
72.83594 205
72.85605 171
72.87616 174
72.89628 209
72.91639 196
72.9365 231
72.95662 222
72.97673 203
72.99685 202
73.01696 223
73.03707 219
73.05719 235
73.0773 236
73.09741 226
73.11753 235
73.13764 249
73.15776 251
73.17787 215
73.19798 247
73.2181 249
73.23821 280
73.25832 308
73.27844 323
73.29855 321
73.31867 318
73.33878 385
73.35889 349
73.37901 391
73.39912 423
73.41923 353
73.43935 334
73.45946 307
73.47957 286
73.49969 288
73.5198 242
73.53992 291
73.56003 322
73.58014 287
73.60026 284
73.62037 287
73.64048 258
73.6606 244
73.68071 237
73.70083 213
73.72094 236
73.74105 211
73.76117 193
73.78128 200
73.80139 181
73.82151 190
73.84162 181
73.86174 182
73.88185 204
73.90196 177
73.92208 184
73.94219 150
73.9623 187
73.98242 165
74.00253 168
74.02264 162
74.04276 177
74.06287 161
74.08299 174
74.1031 184
74.12321 162
74.14333 174
74.16344 197
74.18355 166
74.20367 162
74.22378 191
74.2439 180
74.26401 180
74.28412 179
74.30424 174
74.32435 180
74.34446 169
74.36458 172
74.38469 183
74.40481 188
74.42492 213
74.44503 198
74.46515 199
74.48526 195
74.50537 191
74.52549 206
74.5456 218
74.56571 188
74.58583 192
74.60594 191
74.62606 202
74.64617 195
74.66628 198
74.6864 184
74.70651 202
74.72662 188
74.74674 194
74.76685 191
74.78697 172
74.80708 201
74.82719 210
74.84731 176
74.86742 195
74.88753 217
74.90765 192
74.92776 186
74.94787 172
74.96799 186
74.9881 197
75.00822 190
