3.00117 18289
3.02128 17856
3.0414 17458
3.06151 16953
3.08162 16907
3.10174 15908
3.12185 15872
3.14197 14941
3.16208 14698
3.18219 14486
3.20231 13824
3.22242 13683
3.24253 12721
3.26265 12458
3.28276 12386
3.30288 11722
3.32299 11464
3.3431 11127
3.36322 10838
3.38333 10427
3.40344 9980
3.42356 9691
3.44367 9311
3.46379 9114
3.4839 8696
3.50401 8324
3.52413 8287
3.54424 7782
3.56435 7563
3.58447 7141
3.60458 6971
3.62469 6951
3.64481 6501
3.66492 6321
3.68504 6024
3.70515 5635
3.72526 5635
3.74538 5243
3.76549 5028
3.7856 5050
3.80572 4622
3.82583 4329
3.84595 4249
3.86606 4203
3.88617 4127
3.90629 3549
3.9264 3658
3.94651 3403
3.96663 3358
3.98674 3168
4.00686 2981
4.02697 2923
4.04708 2855
4.0672 2717
4.08731 2674
4.10742 2264
4.12754 2229
4.14765 2182
4.16776 2113
4.18788 2064
4.20799 1894
4.22811 1902
4.24822 1721
4.26833 1760
4.28845 1828
4.30856 1615
4.32867 1614
4.34879 1549
4.3689 1540
4.38902 1584
4.40913 1413
4.42924 1409
4.44936 1440
4.46947 1215
4.48958 1333
4.5097 1119
4.52981 1222
4.54992 1177
4.57004 1233
4.59015 1173
4.61027 1089
4.63038 1021
4.65049 1033
4.67061 1012
4.69072 974
4.71083 967
4.73095 904
4.75106 933
4.77118 894
4.79129 927
4.8114 808
4.83152 849
4.85163 845
4.87174 862
4.89186 796
4.91197 780
4.93209 701
4.9522 726
4.97231 709
4.99243 725
5.01254 669
5.03265 670
5.05277 654
5.07288 624
5.09299 640
5.11311 598
5.13322 604
5.15334 639
5.17345 536
5.19356 602
5.21368 569
5.23379 470
5.2539 548
5.27402 517
5.29413 492
5.31425 493
5.33436 448
5.35447 518
5.37459 492
5.3947 446
5.41481 476
5.43493 415
5.45504 404
5.47516 409
5.49527 386
5.51538 416
5.5355 380
5.55561 357
5.57572 424
5.59584 374
5.61595 364
5.63606 363
5.65618 298
5.67629 361
5.69641 331
5.71652 322
5.73663 328
5.75675 306
5.77686 316
5.79697 291
5.81709 320
5.8372 273
5.85732 298
5.87743 317
5.89754 275
5.91766 286
5.93777 279
5.95788 268
5.978 311
5.99811 269
6.01823 271
6.03834 260
6.05845 244
6.07857 274
6.09868 279
6.11879 279
6.13891 271
6.15902 228
6.17913 261
6.19925 215
6.21936 241
6.23948 285
6.25959 205
6.2797 237
6.29982 244
6.31993 216
6.34004 229
6.36016 238
6.38027 240
6.40039 245
6.4205 225
6.44061 242
6.46073 246
6.48084 246
6.50095 250
6.52107 254
6.54118 271
6.56129 195
6.58141 240
6.60152 227
6.62164 232
6.64175 228
6.66186 234
6.68198 219
6.70209 203
6.7222 230
6.74232 247
6.76243 228
6.78255 207
6.80266 214
6.82277 220
6.84289 217
6.863 207
6.88311 237
6.90323 202
6.92334 243
6.94346 205
6.96357 195
6.98368 200
7.0038 218
7.02391 216
7.04402 211
7.06414 249
7.08425 210
7.10436 221
7.12448 224
7.14459 230
7.16471 212
7.18482 240
7.20493 223
7.22505 222
7.24516 231
7.26527 212
7.28539 214
7.3055 226
7.32562 224
7.34573 250
7.36584 229
7.38596 228
7.40607 246
7.42618 191
7.4463 242
7.46641 217
7.48653 243
7.50664 232
7.52675 195
7.54687 227
7.56698 215
7.58709 217
7.60721 247
7.62732 194
7.64743 194
7.66755 221
7.68766 235
7.70778 257
7.72789 209
7.748 193
7.76812 265
7.78823 222
7.80834 175
7.82846 200
7.84857 237
7.86869 242
7.8888 215
7.90891 220
7.92903 220
7.94914 223
7.96925 242
7.98937 233
8.00948 216
8.0296 249
8.04971 220
8.06982 237
8.08994 212
8.11005 215
8.13016 243
8.15028 259
8.17039 215
8.1905 217
8.21062 198
8.23073 254
8.25085 218
8.27096 225
8.29107 205
8.31119 225
8.3313 264
8.35141 208
8.37153 237
8.39164 242
8.41176 233
8.43187 239
8.45198 239
8.4721 238
8.49221 255
8.51232 263
8.53244 229
8.55255 261
8.57266 243
8.59278 231
8.61289 249
8.63301 243
8.65312 263
8.67323 227
8.69335 252
8.71346 271
8.73357 183
8.75369 243
8.7738 263
8.79392 256
8.81403 249
8.83414 276
8.85426 237
8.87437 245
8.89448 241
8.9146 227
8.93471 223
8.95483 266
8.97494 253
8.99505 279
9.01517 256
9.03528 259
9.05539 215
9.07551 235
9.09562 277
9.11573 227
9.13585 264
9.15596 238
9.17608 252
9.19619 248
9.2163 252
9.23642 240
9.25653 239
9.27664 225
9.29676 233
9.31687 275
9.33699 229
9.3571 256
9.37721 223
9.39733 226
9.41744 225
9.43755 242
9.45767 255
9.47778 239
9.4979 225
9.51801 247
9.53812 234
9.55824 235
9.57835 228
9.59846 243
9.61858 212
9.63869 238
9.6588 268
9.67892 220
9.69903 245
9.71915 235
9.73926 277
9.75937 215
9.77949 224
9.7996 249
9.81971 235
9.83983 257
9.85994 212
9.88006 227
9.90017 255
9.92028 245
9.9404 243
9.96051 202
9.98062 242
10.00074 205
10.02085 216
10.04097 206
10.06108 255
10.08119 236
10.10131 205
10.12142 229
10.14153 221
10.16165 228
10.18176 205
10.20187 216
10.22199 263
10.2421 220
10.26222 246
10.28233 238
10.30244 224
10.32256 222
10.34267 215
10.36278 230
10.3829 216
10.40301 243
10.42313 242
10.44324 243
10.46335 258
10.48347 222
10.50358 257
10.52369 238
10.54381 256
10.56392 249
10.58403 246
10.60415 244
10.62426 233
10.64438 228
10.66449 217
10.6846 277
10.70472 241
10.72483 268
10.74494 220
10.76506 205
10.78517 225
10.80529 255
10.8254 242
10.84551 227
10.86563 238
10.88574 256
10.90585 251
10.92597 231
10.94608 210
10.9662 229
10.98631 226
11.00642 234
11.02654 250
11.04665 220
11.06676 216
11.08688 248
11.10699 218
11.1271 247
11.14722 240
11.16733 238
11.18745 225
11.20756 225
11.22767 235
11.24779 218
11.2679 237
11.28801 229
11.30813 223
11.32824 225
11.34836 256
11.36847 226
11.38858 235
11.4087 233
11.42881 201
11.44892 253
11.46904 221
11.48915 265
11.50927 237
11.52938 253
11.54949 234
11.56961 238
11.58972 252
11.60983 240
11.62995 238
11.65006 256
11.67017 247
11.69029 250
11.7104 242
11.73052 240
11.75063 243
11.77074 244
11.79086 255
11.81097 259
11.83108 242
11.8512 238
11.87131 229
11.89143 251
11.91154 193
11.93165 256
11.95177 231
11.97188 245
11.99199 274
12.01211 256
12.03222 261
12.05234 262
12.07245 250
12.09256 245
12.11268 184
12.13279 238
12.1529 246
12.17302 227
12.19313 272
12.21324 268
12.23336 241
12.25347 278
12.27359 280
12.2937 305
12.31381 269
12.33393 260
12.35404 275
12.37415 259
12.39427 293
12.41438 266
12.4345 247
12.45461 264
12.47472 263
12.49484 271
12.51495 238
12.53506 232
12.55518 250
12.57529 233
12.5954 237
12.61552 258
12.63563 252
12.65575 275
12.67586 192
12.69597 202
12.71609 218
12.7362 205
12.75631 235
12.77643 197
12.79654 222
12.81666 232
12.83677 226
12.85688 192
12.877 207
12.89711 203
12.91722 190
12.93734 191
12.95745 212
12.97757 210
12.99768 219
13.01779 199
13.03791 176
13.05802 221
13.07813 205
13.09825 208
13.11836 227
13.13847 216
13.15859 229
13.1787 216
13.19882 217
13.21893 224
13.23904 209
13.25916 219
13.27927 234
13.29938 207
13.3195 206
13.33961 186
13.35973 206
13.37984 207
13.39995 211
13.42007 206
13.44018 217
13.46029 197
13.48041 203
13.50052 179
13.52064 214
13.54075 219
13.56086 222
13.58098 181
13.60109 215
13.6212 223
13.64132 183
13.66143 234
13.68154 191
13.70166 210
13.72177 186
13.74189 220
13.762 220
13.78211 218
13.80223 224
13.82234 198
13.84245 229
13.86257 203
13.88268 204
13.9028 224
13.92291 212
13.94302 200
13.96314 205
13.98325 219
14.00336 202
14.02348 174
14.04359 216
14.06371 184
14.08382 218
14.10393 205
14.12405 188
14.14416 219
14.16427 199
14.18439 211
14.2045 210
14.22461 211
14.24473 209
14.26484 187
14.28496 176
14.30507 205
14.32518 195
14.3453 199
14.36541 189
14.38552 166
14.40564 175
14.42575 199
14.44587 194
14.46598 181
14.48609 190
14.50621 224
14.52632 213
14.54643 194
14.56655 162
14.58666 178
14.60677 195
14.62689 197
14.647 171
14.66712 189
14.68723 169
14.70734 210
14.72746 200
14.74757 218
14.76768 194
14.7878 198
14.80791 214
14.82803 185
14.84814 183
14.86825 198
14.88837 190
14.90848 197
14.92859 193
14.94871 168
14.96882 182
14.98894 215
15.00905 186
15.02916 194
15.04928 172
15.06939 178
15.0895 176
15.10962 168
15.12973 165
15.14984 192
15.16996 184
15.19007 204
15.21019 189
15.2303 181
15.25041 167
15.27053 172
15.29064 192
15.31075 184
15.33087 170
15.35098 206
15.3711 185
15.39121 195
15.41132 196
15.43144 199
15.45155 201
15.47166 161
15.49178 181
15.51189 179
15.53201 155
15.55212 176
15.57223 183
15.59235 174
15.61246 186
15.63257 198
15.65269 197
15.6728 182
15.69291 222
15.71303 204
15.73314 168
15.75326 162
15.77337 166
15.79348 188
15.8136 166
15.83371 194
15.85382 183
15.87394 178
15.89405 158
15.91417 169
15.93428 168
15.95439 158
15.97451 160
15.99462 149
16.01473 176
16.03485 160
16.05496 187
16.07508 194
16.09519 203
16.1153 196
16.13542 179
16.15553 166
16.17564 195
16.19576 175
16.21587 174
16.23598 170
16.2561 173
16.27621 208
16.29633 177
16.31644 167
16.33655 203
16.35667 164
16.37678 169
16.39689 176
16.41701 170
16.43712 210
16.45724 182
16.47735 193
16.49746 147
16.51758 170
16.53769 168
16.5578 190
16.57792 216
16.59803 151
16.61814 189
16.63826 160
16.65837 172
16.67849 159
16.6986 168
16.71871 151
16.73883 191
16.75894 126
16.77905 190
16.79917 154
16.81928 161
16.8394 158
16.85951 158
16.87962 167
16.89974 178
16.91985 171
16.93996 192
16.96008 160
16.98019 192
17.00031 176
17.02042 181
17.04053 188
17.06065 171
17.08076 178
17.10087 171
17.12099 188
17.1411 175
17.16121 158
17.18133 193
17.20144 169
17.22156 175
17.24167 157
17.26178 172
17.2819 169
17.30201 169
17.32212 191
17.34224 149
17.36235 178
17.38247 164
17.40258 183
17.42269 186
17.44281 173
17.46292 165
17.48303 162
17.50315 178
17.52326 181
17.54338 168
17.56349 176
17.5836 167
17.60372 164
17.62383 153
17.64394 201
17.66406 179
17.68417 144
17.70428 183
17.7244 175
17.74451 182
17.76463 146
17.78474 165
17.80485 189
17.82497 161
17.84508 170
17.86519 207
17.88531 184
17.90542 166
17.92554 171
17.94565 163
17.96576 165
17.98588 164
18.00599 166
18.0261 170
18.04622 182
18.06633 191
18.08645 174
18.10656 161
18.12667 161
18.14679 163
18.1669 169
18.18701 182
18.20713 205
18.22724 176
18.24735 183
18.26747 165
18.28758 200
18.3077 182
18.32781 171
18.34792 197
18.36804 148
18.38815 182
18.40826 169
18.42838 190
18.44849 169
18.46861 184
18.48872 166
18.50883 162
18.52895 171
18.54906 190
18.56917 176
18.58929 177
18.6094 165
18.62951 166
18.64963 172
18.66974 182
18.68986 186
18.70997 189
18.73008 184
18.7502 179
18.77031 152
18.79042 184
18.81054 189
18.83065 204
18.85077 196
18.87088 166
18.89099 171
18.91111 142
18.93122 157
18.95133 191
18.97145 186
18.99156 157
19.01168 159
19.03179 195
19.0519 180
19.07202 167
19.09213 162
19.11224 173
19.13236 155
19.15247 168
19.17258 182
19.1927 174
19.21281 163
19.23293 204
19.25304 187
19.27315 164
19.29327 176
19.31338 178
19.33349 187
19.35361 215
19.37372 173
19.39384 175
19.41395 196
19.43406 181
19.45418 180
19.47429 188
19.4944 191
19.51452 192
19.53463 231
19.55475 170
19.57486 224
19.59497 192
19.61509 237
19.6352 225
19.65531 222
19.67543 218
19.69554 244
19.71565 275
19.73577 223
19.75588 243
19.776 259
19.79611 264
19.81622 262
19.83634 255
19.85645 287
19.87656 293
19.89668 283
19.91679 275
19.93691 262
19.95702 267
19.97713 264
19.99725 296
20.01736 287
20.03747 293
20.05759 254
20.0777 274
20.09782 261
20.11793 280
20.13804 313
20.15816 291
20.17827 288
20.19838 302
20.2185 292
20.23861 291
20.25872 351
20.27884 319
20.29895 285
20.31907 292
20.33918 334
20.35929 360
20.37941 372
20.39952 341
20.41963 358
20.43975 415
20.45986 392
20.47998 388
20.50009 366
20.5202 401
20.54032 461
20.56043 438
20.58054 440
20.60066 470
20.62077 510
20.64088 599
20.661 765
20.68111 992
20.70123 1313
20.72134 1901
20.74145 2828
20.76157 3892
20.78168 5356
20.80179 7150
20.82191 8438
20.84202 9185
20.86214 8416
20.88225 6812
20.90236 4950
20.92248 3189
20.94259 1806
20.9627 1047
20.98282 739
21.00293 604
21.02305 549
21.04316 491
21.06327 504
21.08339 449
21.1035 409
21.12361 407
21.14373 396
21.16384 386
21.18395 341
21.20407 337
21.22418 314
21.2443 314
21.26441 351
21.28452 313
21.30464 273
21.32475 303
21.34486 272
21.36498 258
21.38509 280
21.40521 281
21.42532 207
21.44543 256
21.46555 249
21.48566 262
21.50577 288
21.52589 273
21.546 255
21.56612 242
21.58623 247
21.60634 235
21.62646 229
21.64657 248
21.66668 255
21.6868 261
21.70691 282
21.72702 287
21.74714 216
21.76725 246
21.78737 219
21.80748 236
21.82759 255
21.84771 215
21.86782 248
21.88793 225
21.90805 226
21.92816 208
21.94828 233
21.96839 231
21.9885 236
22.00862 236
22.02873 230
22.04884 223
22.06896 235
22.08907 228
22.10919 246
22.1293 211
22.14941 233
22.16953 210
22.18964 226
22.20975 233
22.22987 224
22.24998 226
22.27009 216
22.29021 210
22.31032 195
22.33044 215
22.35055 218
22.37066 230
22.39078 204
22.41089 215
22.431 219
22.45112 214
22.47123 219
22.49135 207
22.51146 228
22.53157 241
22.55169 250
22.5718 209
22.59191 223
22.61203 192
22.63214 245
22.65225 230
22.67237 220
22.69248 191
22.7126 224
22.73271 220
22.75282 214
22.77294 234
22.79305 202
22.81316 230
22.83328 204
22.85339 210
22.87351 216
22.89362 213
22.91373 223
22.93385 200
22.95396 197
22.97407 231
22.99419 207
23.0143 201
23.03442 237
23.05453 190
23.07464 223
23.09476 207
23.11487 199
23.13498 215
23.1551 235
23.17521 208
23.19532 230
23.21544 214
23.23555 220
23.25567 210
23.27578 210
23.29589 209
23.31601 225
23.33612 203
23.35623 211
23.37635 198
23.39646 202
23.41658 218
23.43669 213
23.4568 225
23.47692 215
23.49703 205
23.51714 192
23.53726 222
23.55737 217
23.57749 197
23.5976 206
23.61771 218
23.63783 203
23.65794 249
23.67805 229
23.69817 204
23.71828 211
23.73839 219
23.75851 232
23.77862 221
23.79874 225
23.81885 215
23.83896 244
23.85908 230
23.87919 223
23.8993 249
23.91942 250
23.93953 283
23.95965 306
23.97976 289
23.99987 308
24.01999 315
24.0401 270
24.06021 271
24.08033 241
24.10044 248
24.12056 235
24.14067 214
24.16078 194
24.1809 191
24.20101 208
24.22112 217
24.24124 229
24.26135 181
24.28146 223
24.30158 216
24.32169 230
24.34181 220
24.36192 203
24.38203 195
24.40215 201
24.42226 175
24.44237 193
24.46249 204
24.4826 229
24.50272 196
24.52283 235
24.54294 200
24.56306 210
24.58317 242
24.60328 198
24.6234 218
24.64351 218
24.66362 210
24.68374 233
24.70385 227
24.72397 213
24.74408 251
24.76419 229
24.78431 248
24.80442 228
24.82453 257
24.84465 247
24.86476 247
24.88488 254
24.90499 242
24.9251 248
24.94522 254
24.96533 226
24.98544 208
25.00556 239
25.02567 210
25.04579 220
25.0659 247
25.08601 228
25.10613 241
25.12624 224
25.14635 255
25.16647 240
25.18658 227
25.20669 273
25.22681 240
25.24692 245
25.26704 237
25.28715 225
25.30726 247
25.32738 222
25.34749 249
25.3676 255
25.38772 255
25.40783 261
25.42795 263
25.44806 256
25.46817 228
25.48829 270
25.5084 275
25.52851 218
25.54863 258
25.56874 316
25.58886 310
25.60897 307
25.62908 297
25.6492 338
25.66931 364
25.68942 347
25.70954 399
25.72965 402
25.74976 414
25.76988 459
25.78999 446
25.81011 461
25.83022 452
25.85033 446
25.87045 436
25.89056 492
25.91067 478
25.93079 460
25.9509 419
25.97102 487
25.99113 540
26.01124 484
26.03136 548
26.05147 522
26.07158 522
26.0917 556
26.11181 623
26.13193 633
26.15204 719
26.17215 776
26.19227 783
26.21238 860
26.23249 913
26.25261 1003
26.27272 1009
26.29283 1163
26.31295 1176
26.33306 1276
26.35318 1458
26.37329 1714
26.3934 2032
26.41352 2571
26.43363 3421
26.45374 4394
26.47386 6067
26.49397 8734
26.51409 12692
26.5342 18011
26.55431 24651
26.57443 31571
26.59454 37923
26.61465 41597
26.63477 39941
26.65488 32917
26.67499 25120
26.69511 18576
26.71522 12935
26.73534 7553
26.75545 3987
26.77556 2475
26.79568 1914
26.81579 1602
26.8359 1431
26.85602 1358
26.87613 1189
26.89625 1074
26.91636 1030
26.93647 864
26.95659 869
26.9767 759
26.99681 724
27.01693 663
27.03704 598
27.05716 567
27.07727 564
27.09738 462
27.1175 486
27.13761 412
27.15772 481
27.17784 477
27.19795 430
27.21806 395
27.23818 439
27.25829 412
27.27841 452
27.29852 384
27.31863 422
27.33875 440
27.35886 372
27.37897 412
27.39909 403
27.4192 431
27.43932 451
27.45943 411
27.47954 405
27.49966 412
27.51977 381
27.53988 396
27.56 334
27.58011 322
27.60023 380
27.62034 360
27.64045 314
27.66057 323
27.68068 352
27.70079 320
27.72091 329
27.74102 350
27.76113 316
27.78125 353
27.80136 335
27.82148 318
27.84159 320
27.8617 324
27.88182 342
27.90193 290
27.92204 307
27.94216 312
27.96227 332
27.98239 294
28.0025 303
28.02261 299
28.04273 260
28.06284 275
28.08295 308
28.10307 261
28.12318 251
28.1433 270
28.16341 269
28.18352 304
28.20364 320
28.22375 313
28.24386 251
28.26398 258
28.28409 290
28.3042 272
28.32432 235
28.34443 235
28.36455 259
28.38466 253
28.40477 237
28.42489 240
28.445 240
28.46511 240
28.48523 276
28.50534 237
28.52546 273
28.54557 270
28.56568 267
28.5858 240
28.60591 276
28.62602 262
28.64614 246
28.66625 253
28.68636 230
28.70648 225
28.72659 244
28.74671 245
28.76682 256
28.78693 247
28.80705 223
28.82716 258
28.84727 231
28.86739 264
28.8875 228
28.90762 226
28.92773 227
28.94784 233
28.96796 209
28.98807 228
29.00818 226
29.0283 242
29.04841 229
29.06853 243
29.08864 231
29.10875 230
29.12887 244
29.14898 205
29.16909 239
29.18921 225
29.20932 213
29.22943 211
29.24955 218
29.26966 225
29.28978 232
29.30989 202
29.33 198
29.35012 233
29.37023 235
29.39034 235
29.41046 252
29.43057 191
29.45069 246
29.4708 223
29.49091 205
29.51103 239
29.53114 219
29.55125 211
29.57137 235
29.59148 233
29.6116 193
29.63171 244
29.65182 214
29.67194 202
29.69205 208
29.71216 212
29.73228 216
29.75239 225
29.7725 212
29.79262 216
29.81273 216
29.83285 213
29.85296 242
29.87307 222
29.89319 243
29.9133 203
29.93341 233
29.95353 196
29.97364 202
29.99376 236
30.01387 221
30.03398 203
30.0541 214
30.07421 232
30.09432 211
30.11444 234
30.13455 215
30.15467 212
30.17478 227
30.19489 229
30.21501 209
30.23512 202
30.25523 214
30.27535 202
30.29546 197
30.31557 216
30.33569 217
30.3558 211
30.37592 209
30.39603 220
30.41614 199
30.43626 202
30.45637 219
30.47648 190
30.4966 205
30.51671 196
30.53683 228
30.55694 212
30.57705 205
30.59717 191
30.61728 191
30.63739 210
30.65751 228
30.67762 211
30.69773 215
30.71785 197
30.73796 215
30.75808 219
30.77819 198
30.7983 243
30.81842 193
30.83853 212
30.85864 208
30.87876 209
30.89887 186
30.91899 193
30.9391 220
30.95921 203
30.97933 174
30.99944 207
31.01955 205
31.03967 191
31.05978 194
31.0799 191
31.10001 166
31.12012 184
31.14024 157
31.16035 191
31.18046 214
31.20058 196
31.22069 187
31.2408 202
31.26092 208
31.28103 196
31.30115 196
31.32126 180
31.34137 209
31.36149 173
31.3816 186
31.40171 198
31.42183 200
31.44194 186
31.46206 205
31.48217 172
31.50228 180
31.5224 179
31.54251 192
31.56262 199
31.58274 191
31.60285 201
31.62297 173
31.64308 177
31.66319 176
31.68331 181
31.70342 168
31.72353 178
31.74365 169
31.76376 150
31.78387 184
31.80399 178
31.8241 174
31.84422 160
31.86433 206
31.88444 185
31.90456 189
31.92467 176
31.94478 168
31.9649 202
31.98501 167
32.00513 167
32.02524 180
32.04535 195
32.06547 193
32.08558 197
32.10569 152
32.12581 173
32.14592 191
32.16604 188
32.18615 186
32.20626 160
32.22638 186
32.24649 155
32.2666 153
32.28672 186
32.30683 171
32.32694 210
32.34706 150
32.36717 148
32.38729 175
32.4074 155
32.42751 185
32.44763 160
32.46774 197
32.48785 184
32.50797 166
32.52808 161
32.5482 189
32.56831 182
32.58842 141
32.60854 187
32.62865 225
32.64876 172
32.66888 188
32.68899 184
32.7091 181
32.72922 165
32.74933 154
32.76945 159
32.78956 153
32.80967 183
32.82979 164
32.8499 171
32.87001 176
32.89013 159
32.91024 152
32.93036 174
32.95047 169
32.97058 176
32.9907 189
33.01081 177
33.03092 182
33.05104 184
33.07115 170
33.09127 189
33.11138 189
33.13149 187
33.15161 195
33.17172 170
33.19183 166
33.21195 186
33.23206 151
33.25217 189
33.27229 176
33.2924 183
33.31252 170
33.33263 159
33.35274 152
33.37286 181
33.39297 157
33.41308 179
33.4332 167
33.45331 156
33.47343 172
33.49354 167
33.51365 172
33.53377 187
33.55388 149
33.57399 185
33.59411 148
33.61422 167
33.63434 186
33.65445 148
33.67456 136
33.69468 189
33.71479 174
33.7349 171
33.75502 167
33.77513 163
33.79524 154
33.81536 177
33.83547 153
33.85559 179
33.8757 166
33.89581 157
33.91593 148
33.93604 176
33.95615 166
33.97627 166
33.99638 176
34.0165 157
34.03661 155
34.05672 145
34.07684 167
34.09695 154
34.11706 158
34.13718 173
34.15729 186
34.17741 165
34.19752 164
34.21763 166
34.23775 166
34.25786 153
34.27797 182
34.29809 175
34.3182 154
34.33831 168
34.35843 196
34.37854 167
34.39866 172
34.41877 172
34.43888 170
34.459 179
34.47911 173
34.49922 180
34.51934 175
34.53945 172
34.55957 185
34.57968 210
34.59979 178
34.61991 157
34.64002 192
34.66013 176
34.68025 199
34.70036 187
34.72047 204
34.74059 208
34.7607 220
34.78082 220
34.80093 242
34.82104 202
34.84116 237
34.86127 216
34.88138 198
34.9015 197
34.92161 219
34.94173 205
34.96184 199
34.98195 198
35.00207 208
35.02218 215
35.04229 201
35.06241 199
35.08252 192
35.10264 205
35.12275 200
35.14286 205
35.16298 192
35.18309 224
35.2032 217
35.22332 199
35.24343 207
35.26354 221
35.28366 252
35.30377 220
35.32389 194
35.344 202
35.36411 198
35.38423 215
35.40434 205
35.42445 205
35.44457 215
35.46468 223
35.4848 207
35.50491 231
35.52502 224
35.54514 216
35.56525 198
35.58536 200
35.60548 186
35.62559 201
35.64571 224
35.66582 233
35.68593 209
35.70605 208
35.72616 205
35.74627 232
35.76639 208
35.7865 208
35.80661 209
35.82673 241
35.84684 188
35.86696 212
35.88707 212
35.90718 191
35.9273 212
35.94741 200
35.96752 207
35.98764 237
36.00775 235
36.02787 228
36.04798 218
36.06809 231
36.08821 237
36.10832 237
36.12843 221
36.14855 239
36.16866 256
36.18878 263
36.20889 262
36.229 281
36.24912 293
36.26923 316
36.28934 385
36.30946 417
36.32957 490
36.34968 629
36.3698 716
36.38991 901
36.41003 1216
36.43014 1475
36.45025 1893
36.47037 2183
36.49048 2626
36.51059 2787
36.53071 2759
36.55082 2360
36.57094 1826
36.59105 1551
36.61116 1432
36.63128 1163
36.65139 910
36.6715 525
36.69162 421
36.71173 323
36.73184 290
36.75196 258
36.77207 274
36.79219 288
36.8123 241
36.83241 219
36.85253 231
36.87264 215
36.89275 219
36.91287 192
36.93298 189
36.9531 215
36.97321 204
36.99332 199
37.01344 195
37.03355 196
37.05366 173
37.07378 188
37.09389 200
37.11401 180
37.13412 191
37.15423 161
37.17435 191
37.19446 174
37.21457 200
37.23469 198
37.2548 181
37.27491 184
37.29503 198
37.31514 200
37.33526 177
37.35537 214
37.37548 175
37.3956 180
37.41571 186
37.43582 180
37.45594 196
37.47605 212
37.49617 192
37.51628 173
37.53639 179
37.55651 193
37.57662 192
37.59673 186
37.61685 183
37.63696 182
37.65708 175
37.67719 187
37.6973 189
37.71742 183
37.73753 184
37.75764 175
37.77776 204
37.79787 187
37.81798 174
37.8381 191
37.85821 188
37.87833 184
37.89844 178
37.91855 179
37.93867 205
37.95878 155
37.97889 183
37.99901 162
38.01912 177
38.03924 177
38.05935 182
38.07946 169
38.09958 193
38.11969 167
38.1398 198
38.15992 206
38.18003 176
38.20015 214
38.22026 199
38.24037 192
38.26049 187
38.2806 203
38.30071 201
38.32083 216
38.34094 204
38.36105 196
38.38117 199
38.40128 203
38.4214 192
38.44151 200
38.46162 212
38.48174 218
38.50185 219
38.52196 212
38.54208 194
38.56219 219
38.58231 201
38.60242 216
38.62253 171
38.64265 173
38.66276 181
38.68287 197
38.70299 192
38.7231 194
38.74321 184
38.76333 193
38.78344 205
38.80356 181
38.82367 202
38.84378 200
38.8639 208
38.88401 196
38.90412 193
38.92424 202
38.94435 209
38.96447 210
38.98458 213
39.00469 216
39.02481 219
39.04492 202
39.06503 232
39.08515 233
39.10526 271
39.12538 248
39.14549 297
39.1656 271
39.18572 337
39.20583 351
39.22594 423
39.24606 473
39.26617 556
39.28628 630
39.3064 796
39.32651 1069
39.34663 1244
39.36674 1630
39.38685 1962
39.40697 2299
39.42708 2500
39.44719 2478
39.46731 2216
39.48742 1738
39.50754 1586
39.52765 1354
39.54776 1206
39.56788 1073
39.58799 704
39.6081 455
39.62822 320
39.64833 330
39.66845 255
39.68856 245
39.70867 253
39.72879 232
39.7489 225
39.76901 246
39.78913 209
39.80924 210
39.82935 221
39.84947 194
39.86958 226
39.8897 245
39.90981 230
39.92992 251
39.95004 228
39.97015 244
39.99026 250
40.01038 244
40.03049 270
40.05061 284
40.07072 327
40.09083 363
40.11095 417
40.13106 511
40.15117 612
40.17129 770
40.1914 874
40.21152 1089
40.23163 1263
40.25174 1403
40.27186 1248
40.29197 1120
40.31208 965
40.3322 798
40.35231 776
40.37242 660
40.39254 593
40.41265 422
40.43277 316
40.45288 264
40.47299 220
40.49311 248
40.51322 201
40.53333 226
40.55345 174
40.57356 166
40.59368 197
40.61379 199
40.6339 199
40.65402 197
40.67413 179
40.69424 212
40.71436 203
40.73447 190
40.75458 181
40.7747 163
40.79481 185
40.81493 168
40.83504 185
40.85515 192
40.87527 182
40.89538 200
40.91549 179
40.93561 179
40.95572 191
40.97584 171
40.99595 189
41.01606 190
41.03618 189
41.05629 195
41.0764 188
41.09652 185
41.11663 187
41.13675 180
41.15686 195
41.17697 197
41.19709 178
41.2172 174
41.23731 171
41.25743 195
41.27754 170
41.29765 160
41.31777 187
41.33788 188
41.358 189
41.37811 170
41.39822 195
41.41834 197
41.43845 163
41.45856 207
41.47868 186
41.49879 168
41.51891 180
41.53902 184
41.55913 155
41.57925 153
41.59936 173
41.61947 181
41.63959 194
41.6597 188
41.67982 174
41.69993 208
41.72004 204
41.74016 181
41.76027 191
41.78038 185
41.8005 202
41.82061 193
41.84072 181
41.86084 193
41.88095 198
41.90107 197
41.92118 209
41.94129 211
41.96141 171
41.98152 203
42.00163 204
42.02175 208
42.04186 204
42.06198 206
42.08209 205
42.1022 230
42.12232 243
42.14243 275
42.16254 274
42.18266 285
42.20277 316
42.22289 358
42.243 418
42.26311 502
42.28323 612
42.30334 738
42.32345 980
42.34357 1153
42.36368 1455
42.38379 1698
42.40391 1809
42.42402 1846
42.44414 1653
42.46425 1284
42.48436 1184
42.50448 993
42.52459 965
42.5447 874
42.56482 620
42.58493 476
42.60505 320
42.62516 289
42.64527 249
42.66539 224
42.6855 231
42.70561 202
42.72573 194
42.74584 199
42.76595 193
42.78607 205
42.80618 158
42.8263 192
42.84641 181
42.86652 197
42.88664 167
42.90675 157
42.92686 160
42.94698 217
42.96709 164
42.98721 183
43.00732 179
43.02743 170
43.04755 147
43.06766 184
43.08777 178
43.10789 169
43.128 184
43.14812 186
43.16823 169
43.18834 175
43.20846 169
43.22857 157
43.24868 159
43.2688 150
43.28891 152
43.30902 178
43.32914 158
43.34925 174
43.36937 183
43.38948 187
43.40959 166
43.42971 167
43.44982 169
43.46993 203
43.49005 156
43.51016 127
43.53028 168
43.55039 174
43.5705 168
43.59062 159
43.61073 143
43.63084 139
43.65096 168
43.67107 162
43.69119 149
43.7113 154
43.73141 152
43.75153 143
43.77164 153
43.79175 159
43.81187 183
43.83198 166
43.85209 161
43.87221 138
43.89232 163
43.91244 175
43.93255 148
43.95266 135
43.97278 165
43.99289 143
44.013 144
44.03312 175
44.05323 159
44.07335 150
44.09346 174
44.11357 169
44.13369 163
44.1538 144
44.17391 159
44.19403 163
44.21414 143
44.23426 172
44.25437 175
44.27448 157
44.2946 159
44.31471 149
44.33482 155
44.35494 140
44.37505 140
44.39516 157
44.41528 177
44.43539 165
44.45551 156
44.47562 155
44.49573 154
44.51585 174
44.53596 142
44.55607 172
44.57619 184
44.5963 162
44.61642 153
44.63653 140
44.65664 141
44.67676 137
44.69687 152
44.71698 160
44.7371 160
44.75721 174
44.77732 148
44.79744 166
44.81755 163
44.83767 151
44.85778 171
44.87789 154
44.89801 155
44.91812 152
44.93823 164
44.95835 161
44.97846 147
44.99858 195
45.01869 169
45.0388 139
45.05892 157
45.07903 178
45.09914 185
45.11926 160
45.13937 152
45.15949 164
45.1796 156
45.19971 154
45.21983 153
45.23994 166
45.26005 183
45.28017 158
45.30028 168
45.32039 176
45.34051 175
45.36062 193
45.38074 182
45.40085 206
45.42096 187
45.44108 204
45.46119 209
45.4813 236
45.50142 223
45.52153 253
45.54165 285
45.56176 318
45.58187 341
45.60199 395
45.6221 457
45.64221 542
45.66233 625
45.68244 828
45.70256 982
45.72267 1121
45.74278 1196
45.7629 1293
45.78301 1159
45.80312 925
45.82324 827
45.84335 691
45.86346 742
45.88358 664
45.90369 543
45.92381 425
45.94392 324
45.96403 260
45.98415 222
46.00426 223
46.02437 201
46.04449 212
46.0646 181
46.08472 173
46.10483 159
46.12494 149
46.14506 170
46.16517 182
46.18528 172
46.2054 167
46.22551 154
46.24563 161
46.26574 158
46.28585 142
46.30597 168
46.32608 148
46.34619 153
46.36631 163
46.38642 144
46.40653 156
46.42665 139
46.44676 171
46.46688 147
46.48699 146
46.5071 165
46.52722 161
46.54733 158
46.56744 144
46.58756 148
46.60767 157
46.62779 150
46.6479 159
46.66801 126
46.68813 153
46.70824 161
46.72835 121
46.74847 133
46.76858 146
46.78869 156
46.80881 147
46.82892 149
46.84904 149
46.86915 156
46.88926 137
46.90938 155
46.92949 154
46.9496 137
46.96972 130
46.98983 142
47.00995 138
47.03006 144
47.05017 144
47.07029 143
47.0904 155
47.11051 146
47.13063 152
47.15074 170
47.17086 151
47.19097 136
47.21108 154
47.2312 149
47.25131 134
47.27142 142
47.29154 151
47.31165 145
47.33176 158
47.35188 133
47.37199 144
47.39211 136
47.41222 138
47.43233 146
47.45245 166
47.47256 158
47.49267 130
47.51279 169
47.5329 159
47.55302 132
47.57313 138
47.59324 163
47.61336 129
47.63347 156
47.65358 156
47.6737 137
47.69381 139
47.71393 151
47.73404 162
47.75415 145
47.77427 155
47.79438 150
47.81449 147
47.83461 139
47.85472 142
47.87483 157
47.89495 157
47.91506 151
47.93518 155
47.95529 146
47.9754 155
47.99552 151
48.01563 156
48.03574 148
48.05586 141
48.07597 144
48.09609 154
48.1162 137
48.13631 123
48.15643 147
48.17654 139
48.19665 158
48.21677 151
48.23688 163
48.257 166
48.27711 144
48.29722 153
48.31734 169
48.33745 152
48.35756 160
48.37768 162
48.39779 163
48.4179 166
48.43802 148
48.45813 147
48.47825 156
48.49836 151
48.51847 161
48.53859 160
48.5587 149
48.57881 142
48.59893 155
48.61904 158
48.63916 135
48.65927 166
48.67938 146
48.6995 148
48.71961 153
48.73972 164
48.75984 175
48.77995 169
48.80006 158
48.82018 143
48.84029 140
48.86041 163
48.88052 175
48.90063 162
48.92075 165
48.94086 159
48.96097 171
48.98109 181
49.0012 168
49.02132 166
49.04143 154
49.06154 164
49.08166 154
49.10177 149
49.12188 164
49.142 156
49.16211 176
49.18223 167
49.20234 148
49.22245 161
49.24257 175
49.26268 157
49.28279 196
49.30291 158
49.32302 157
49.34313 164
49.36325 173
49.38336 191
49.40348 174
49.42359 156
49.4437 164
49.46382 181
49.48393 166
49.50404 205
49.52416 166
49.54427 179
49.56439 215
49.5845 204
49.60461 221
49.62473 216
49.64484 238
49.66495 241
49.68507 262
49.70518 273
49.7253 261
49.74541 286
49.76552 299
49.78564 348
49.80575 389
49.82586 429
49.84598 477
49.86609 566
49.8862 615
49.90632 743
49.92643 865
49.94655 1050
49.96666 1355
49.98677 1695
50.00689 2065
50.027 2662
50.04711 3133
50.06723 3614
50.08734 3983
50.10746 4108
50.12757 3703
50.14768 2928
50.1678 2445
50.18791 2153
50.20802 2105
50.22814 2105
50.24825 1945
50.26837 1535
50.28848 1031
50.30859 674
50.32871 516
50.34882 387
50.36893 362
50.38905 289
50.40916 302
50.42927 270
50.44939 259
50.4695 272
50.48962 223
50.50973 239
50.52984 289
50.54996 276
50.57007 297
50.59018 274
50.6103 259
50.63041 268
50.65053 270
50.67064 221
50.69075 197
50.71087 191
50.73098 169
50.75109 227
50.77121 214
50.79132 190
50.81143 167
50.83155 172
50.85166 180
50.87178 160
50.89189 162
50.912 159
50.93212 140
50.95223 156
50.97234 166
50.99246 160
51.01257 169
51.03269 160
51.0528 178
51.07291 173
51.09303 152
51.11314 168
51.13325 159
51.15337 163
51.17348 134
51.1936 152
51.21371 147
51.23382 152
51.25394 186
51.27405 128
51.29416 148
51.31428 138
51.33439 124
51.3545 140
51.37462 163
51.39473 142
51.41485 125
51.43496 155
51.45507 180
51.47519 150
51.4953 163
51.51541 146
51.53553 153
51.55564 148
51.57576 143
51.59587 140
51.61598 153
51.6361 124
51.65621 132
51.67632 153
51.69644 153
51.71655 146
51.73667 133
51.75678 153
51.77689 124
51.79701 153
51.81712 152
51.83723 127
51.85735 153
51.87746 133
51.89757 148
51.91769 149
51.9378 121
51.95792 147
51.97803 149
51.99814 141
52.01826 134
52.03837 134
52.05848 140
52.0786 153
52.09871 159
52.11883 151
52.13894 131
52.15905 138
52.17917 144
52.19928 134
52.21939 162
52.23951 131
52.25962 129
52.27974 127
52.29985 161
52.31996 144
52.34008 149
52.36019 133
52.3803 135
52.40042 139
52.42053 126
52.44064 143
52.46076 138
52.48087 155
52.50099 145
52.5211 138
52.54121 139
52.56133 139
52.58144 135
52.60155 141
52.62167 145
52.64178 126
52.6619 138
52.68201 141
52.70212 143
52.72224 127
52.74235 133
52.76246 145
52.78258 172
52.80269 131
52.8228 136
52.84292 136
52.86303 119
52.88315 152
52.90326 129
52.92337 139
52.94349 151
52.9636 159
52.98371 150
53.00383 133
53.02394 138
53.04406 160
53.06417 144
53.08428 143
53.1044 131
53.12451 153
53.14462 153
53.16474 139
53.18485 184
53.20497 155
53.22508 156
53.24519 146
53.26531 171
53.28542 145
53.30553 174
53.32565 149
53.34576 151
53.36587 148
53.38599 168
53.4061 176
53.42622 159
53.44633 151
53.46644 160
53.48656 176
53.50667 168
53.52678 164
53.5469 173
53.56701 151
53.58713 144
53.60724 189
53.62735 156
53.64747 181
53.66758 179
53.68769 161
53.70781 152
53.72792 152
53.74804 161
53.76815 157
53.78826 168
53.80838 174
53.82849 159
53.8486 168
53.86872 150
53.88883 144
53.90894 154
53.92906 158
53.94917 168
53.96929 167
53.9894 175
54.00951 164
54.02963 168
54.04974 166
54.06985 163
54.08997 180
54.11008 168
54.1302 173
54.15031 180
54.17042 149
54.19054 183
54.21065 177
54.23076 188
54.25088 184
54.27099 179
54.29111 176
54.31122 190
54.33133 177
54.35145 174
54.37156 200
54.39167 181
54.41179 182
54.4319 225
54.45201 205
54.47213 209
54.49224 196
54.51236 214
54.53247 243
54.55258 239
54.5727 270
54.59281 280
54.61292 283
54.63304 360
54.65315 383
54.67327 457
54.69338 502
54.71349 579
54.73361 643
54.75372 792
54.77383 973
54.79395 1130
54.81406 1232
54.83417 1259
54.85429 1216
54.8744 1028
54.89452 862
54.91463 778
54.93474 674
54.95486 699
54.97497 703
54.99508 678
55.0152 589
55.03531 442
55.05543 368
55.07554 314
55.09565 305
55.11577 326
55.13588 305
55.15599 381
55.17611 393
55.19622 449
55.21634 468
55.23645 572
55.25656 613
55.27668 614
55.29679 590
55.3169 560
55.33702 477
55.35713 462
55.37724 393
55.39736 397
55.41747 409
55.43759 407
55.4577 321
55.47781 310
55.49793 242
55.51804 212
55.53815 202
55.55827 169
55.57838 168
55.5985 202
55.61861 161
55.63872 187
55.65884 163
55.67895 182
55.69906 154
55.71918 154
55.73929 155
55.75941 166
55.77952 162
55.79963 142
55.81975 155
55.83986 157
55.85997 165
55.88009 141
55.9002 151
55.92031 154
55.94043 135
55.96054 170
55.98066 141
56.00077 151
56.02088 133
56.041 174
56.06111 169
56.08122 129
56.10134 168
56.12145 149
56.14157 142
56.16168 151
56.18179 135
56.20191 127
56.22202 161
56.24213 136
56.26225 136
56.28236 171
56.30248 140
56.32259 134
56.3427 144
56.36282 154
56.38293 182
56.40304 141
56.42316 141
56.44327 144
56.46338 161
56.4835 137
56.50361 139
56.52373 137
56.54384 173
56.56395 158
56.58407 144
56.60418 124
56.62429 153
56.64441 150
56.66452 156
56.68464 134
56.70475 151
56.72486 149
56.74498 163
56.76509 134
56.7852 137
56.80532 167
56.82543 151
56.84554 151
56.86566 158
56.88577 133
56.90589 140
56.926 130
56.94611 144
56.96623 151
56.98634 149
57.00645 142
57.02657 135
57.04668 170
57.0668 164
57.08691 169
57.10702 189
57.12714 200
57.14725 208
57.16736 238
57.18748 199
57.20759 212
57.22771 182
57.24782 187
57.26793 169
57.28805 186
57.30816 156
57.32827 154
57.34839 161
57.3685 137
57.38861 169
57.40873 160
57.42884 143
57.44896 156
57.46907 130
57.48918 166
57.5093 139
57.52941 126
57.54952 127
57.56964 153
57.58975 130
57.60987 164
57.62998 125
57.65009 134
57.67021 138
57.69032 117
57.71043 137
57.73055 148
57.75066 138
57.77078 143
57.79089 144
57.811 138
57.83112 149
57.85123 150
57.87134 139
57.89146 163
57.91157 129
57.93168 158
57.9518 138
57.97191 147
57.99203 135
58.01214 153
58.03225 141
58.05237 172
58.07248 156
58.09259 160
58.11271 157
58.13282 153
58.15294 153
58.17305 135
58.19316 138
58.21328 122
58.23339 145
58.2535 166
58.27362 147
58.29373 138
58.31385 163
58.33396 140
58.35407 147
58.37419 140
58.3943 146
58.41441 109
58.43453 157
58.45464 150
58.47475 149
58.49487 170
58.51498 172
58.5351 154
58.55521 150
58.57532 136
58.59544 141
58.61555 153
58.63566 166
58.65578 155
58.67589 158
58.69601 167
58.71612 137
58.73623 153
58.75635 154
58.77646 152
58.79657 141
58.81669 143
58.8368 151
58.85691 165
58.87703 152
58.89714 162
58.91726 154
58.93737 148
58.95748 137
58.9776 140
58.99771 138
59.01782 172
59.03794 154
59.05805 169
59.07817 183
59.09828 148
59.11839 150
59.13851 134
59.15862 173
59.17873 173
59.19885 173
59.21896 154
59.23908 177
59.25919 168
59.2793 159
59.29942 178
59.31953 188
59.33964 172
59.35976 176
59.37987 172
59.39998 190
59.4201 176
59.44021 203
59.46033 207
59.48044 208
59.50055 231
59.52067 226
59.54078 240
59.56089 258
59.58101 288
59.60112 326
59.62124 339
59.64135 352
59.66146 401
59.68158 472
59.70169 512
59.7218 639
59.74192 747
59.76203 896
59.78215 1049
59.80226 1301
59.82237 1576
59.84249 1860
59.8626 2213
59.88271 2401
59.90283 2580
59.92294 2529
59.94305 2319
59.96317 1891
59.98328 1493
60.0034 1310
60.02351 1284
60.04362 1362
60.06374 1336
60.08385 1279
60.10396 1178
60.12408 887
60.14419 659
60.16431 443
60.18442 309
60.20453 278
60.22465 279
60.24476 235
60.26487 229
60.28499 205
60.3051 183
60.32522 211
60.34533 185
60.36544 189
60.38556 194
60.40567 171
60.42578 182
60.4459 160
60.46601 175
60.48612 161
60.50624 174
60.52635 178
60.54647 172
60.56658 149
60.58669 141
60.60681 163
60.62692 145
60.64703 148
60.66715 169
60.68726 156
60.70738 168
60.72749 131
60.7476 161
60.76772 153
60.78783 154
60.80794 147
60.82806 143
60.84817 155
60.86828 148
60.8884 159
60.90851 121
60.92863 147
60.94874 136
60.96885 130
60.98897 156
61.00908 160
61.02919 166
61.04931 138
61.06942 160
61.08954 146
61.10965 174
61.12976 121
61.14988 145
61.16999 144
61.1901 139
61.21022 148
61.23033 167
61.25045 173
61.27056 130
61.29067 126
61.31079 138
61.3309 159
61.35101 159
61.37113 154
61.39124 157
61.41135 141
61.43147 138
61.45158 153
61.4717 149
61.49181 144
61.51192 142
61.53204 161
61.55215 123
61.57226 171
61.59238 142
61.61249 147
61.63261 137
61.65272 159
61.67283 146
61.69295 167
61.71306 161
61.73317 158
61.75329 168
61.7734 162
61.79352 130
61.81363 147
61.83374 166
61.85386 174
61.87397 145
61.89408 165
61.9142 151
61.93431 169
61.95442 169
61.97454 160
61.99465 187
62.01477 147
62.03488 164
62.05499 151
62.07511 139
62.09522 173
62.11533 172
62.13545 188
62.15556 151
62.17568 169
62.19579 156
62.2159 142
62.23602 163
62.25613 182
62.27624 173
62.29636 154
62.31647 155
62.33659 134
62.3567 173
62.37681 180
62.39693 162
62.41704 159
62.43715 163
62.45727 172
62.47738 161
62.49749 161
62.51761 150
62.53772 154
62.55784 144
62.57795 150
62.59806 149
62.61818 131
62.63829 132
62.6584 167
62.67852 139
62.69863 138
62.71875 141
62.73886 149
62.75897 150
62.77909 141
62.7992 146
62.81931 162
62.83943 145
62.85954 144
62.87965 128
62.89977 127
62.91988 157
62.94 164
62.96011 148
62.98022 153
63.00034 144
63.02045 142
63.04056 131
63.06068 121
63.08079 127
63.10091 125
63.12102 157
63.14113 145
63.16125 141
63.18136 145
63.20147 150
63.22159 149
63.2417 131
63.26182 119
63.28193 124
63.30204 146
63.32216 120
63.34227 137
63.36238 145
63.3825 138
63.40261 178
63.42272 124
63.44284 127
63.46295 139
63.48307 143
63.50318 141
63.52329 153
63.54341 128
63.56352 151
63.58363 162
63.60375 152
63.62386 150
63.64398 170
63.66409 163
63.6842 178
63.70432 178
63.72443 165
63.74454 182
63.76466 215
63.78477 231
63.80489 251
63.825 236
63.84511 312
63.86523 308
63.88534 354
63.90545 437
63.92557 449
63.94568 483
63.96579 563
63.98591 568
64.00602 595
64.02614 469
64.04625 410
64.06636 371
64.08648 328
64.10659 280
64.1267 337
64.14682 349
64.16693 335
64.18705 314
64.20716 318
64.22727 272
64.24739 191
64.2675 221
64.28761 162
64.30773 171
64.32784 149
64.34796 133
64.36807 127
64.38818 143
64.4083 139
64.42841 152
64.44852 159
64.46864 128
64.48875 151
64.50886 139
64.52898 133
64.54909 121
64.56921 164
64.58932 151
64.60943 160
64.62955 141
64.64966 129
64.66977 134
64.68989 129
64.71 146
64.73012 125
64.75023 143
64.77034 126
64.79046 147
64.81057 132
64.83068 143
64.8508 137
64.87091 134
64.89102 137
64.91114 139
64.93125 124
64.95137 133
64.97148 128
64.99159 127
65.01171 153
65.03182 123
65.05193 143
65.07205 144
65.09216 139
65.11228 152
65.13239 133
65.1525 138
65.17262 134
65.19273 132
65.21284 135
65.23296 161
65.25307 149
65.27319 158
65.2933 158
65.31341 140
65.33353 153
65.35364 176
65.37375 165
65.39387 173
65.41398 142
65.43409 131
65.45421 153
65.47432 129
65.49444 135
65.51455 180
65.53466 167
65.55478 180
65.57489 187
65.595 170
65.61512 201
65.63523 190
65.65535 220
65.67546 208
65.69557 250
65.71569 215
65.7358 253
65.75591 250
65.77603 225
65.79614 224
65.81626 197
65.83637 194
65.85648 187
65.8766 198
65.89671 211
65.91682 218
65.93694 187
65.95705 199
65.97716 191
65.99728 182
66.01739 135
66.03751 150
66.05762 159
66.07773 161
66.09785 167
66.11796 154
66.13807 149
66.15819 149
66.1783 135
66.19842 143
66.21853 149
66.23864 161
66.25876 148
66.27887 144
66.29898 156
66.3191 156
66.33921 158
66.35933 138
66.37944 140
66.39955 143
66.41967 151
66.43978 164
66.45989 152
66.48001 139
66.50012 186
66.52023 145
66.54035 141
66.56046 166
66.58058 142
66.60069 146
66.6208 169
66.64092 143
66.66103 158
66.68114 140
66.70126 161
66.72137 154
66.74149 167
66.7616 160
66.78171 152
66.80183 155
66.82194 151
66.84205 126
66.86217 152
66.88228 154
66.90239 156
66.92251 174
66.94262 158
66.96274 154
66.98285 154
67.00296 177
67.02308 165
67.04319 181
67.0633 152
67.08342 170
67.10353 162
67.12365 190
67.14376 183
67.16387 166
67.18399 180
67.2041 190
67.22421 191
67.24433 161
67.26444 184
67.28456 208
67.30467 227
67.32478 250
67.3449 236
67.36501 241
67.38512 298
67.40524 289
67.42535 287
67.44546 365
67.46558 348
67.48569 398
67.50581 506
67.52592 574
67.54603 602
67.56615 713
67.58626 896
67.60637 994
67.62649 1205
67.6466 1326
67.66672 1556
67.68683 1604
67.70694 1640
67.72706 1477
67.74717 1285
67.76728 1026
67.7874 908
67.80751 956
67.82763 951
67.84774 1053
67.86785 1098
67.88797 1150
67.90808 1145
67.92819 1137
67.94831 1138
67.96842 1130
67.98853 1125
68.00865 1377
68.02876 1482
68.04888 1783
68.06899 2022
68.0891 2114
68.10922 2227
68.12933 2054
68.14944 1792
68.16956 1603
68.18967 1617
68.20979 1634
68.2299 1824
68.25001 1947
68.27013 1970
68.29024 1973
68.31035 1663
68.33047 1340
68.35058 1042
68.3707 836
68.39081 768
68.41092 769
68.43104 773
68.45115 690
68.47126 682
68.49138 604
68.51149 464
68.5316 398
68.55172 303
68.57183 282
68.59195 243
68.61206 214
68.63217 212
68.65229 190
68.6724 203
68.69251 215
68.71263 197
68.73274 174
68.75286 176
68.77297 164
68.79308 177
68.8132 167
68.83331 172
68.85342 187
68.87354 175
68.89365 146
68.91376 177
68.93388 165
68.95399 154
68.97411 160
68.99422 144
69.01433 142
69.03445 152
69.05456 129
69.07467 148
69.09479 148
69.1149 162
69.13502 142
69.15513 138
69.17524 161
69.19536 142
69.21547 154
69.23558 141
69.2557 186
69.27581 158
69.29593 138
69.31604 140
69.33615 161
69.35627 162
69.37638 141
69.39649 140
69.41661 133
69.43672 153
69.45683 138
69.47695 123
69.49706 145
69.51718 149
69.53729 139
69.5574 131
69.57752 130
69.59763 158
69.61774 146
69.63786 159
69.65797 127
69.67809 144
69.6982 139
69.71831 132
69.73843 137
69.75854 132
69.77865 161
69.79877 149
69.81888 139
69.839 144
69.85911 157
69.87922 131
69.89934 143
69.91945 151
69.93956 126
69.95968 132
69.97979 135
69.9999 126
70.02002 144
70.04013 137
70.06025 133
70.08036 144
70.10047 136
70.12059 126
70.1407 126
70.16081 144
70.18093 154
70.20104 125
70.22116 117
70.24127 136
70.26138 132
70.2815 134
70.30161 137
70.32172 125
70.34184 126
70.36195 133
70.38207 123
70.40218 140
70.42229 132
70.44241 130
70.46252 141
70.48263 133
70.50275 143
70.52286 131
70.54297 139
70.56309 144
70.5832 144
70.60332 123
70.62343 141
70.64354 129
70.66366 146
70.68377 138
70.70388 153
70.724 127
70.74411 127
70.76423 124
70.78434 142
70.80445 137
70.82457 140
70.84468 135
70.86479 107
70.88491 131
70.90502 137
70.92513 141
70.94525 124
70.96536 139
70.98548 138
71.00559 134
71.0257 123
71.04582 145
71.06593 144
71.08604 125
71.10616 132
71.12627 131
71.14639 107
71.1665 121
71.18661 109
71.20673 119
71.22684 131
71.24695 129
71.26707 129
71.28718 129
71.3073 115
71.32741 142
71.34752 135
71.36764 142
71.38775 131
71.40786 132
71.42798 120
71.44809 142
71.4682 140
71.48832 140
71.50843 137
71.52855 145
71.54866 141
71.56877 123
71.58889 144
71.609 124
71.62911 126
71.64923 143
71.66934 125
71.68946 118
71.70957 130
71.72968 146
71.7498 132
71.76991 132
71.79002 108
71.81014 132
71.83025 136
71.85037 137
71.87048 139
71.89059 141
71.91071 130
71.93082 132
71.95093 137
71.97105 130
71.99116 131
72.01127 139
72.03139 125
72.0515 118
72.07162 129
72.09173 130
72.11184 128
72.13196 161
72.15207 135
72.17218 137
72.1923 129
72.21241 145
72.23253 136
72.25264 121
72.27275 135
72.29287 154
72.31298 143
72.33309 137
72.35321 138
72.37332 152
72.39344 126
72.41355 125
72.43366 147
72.45378 137
72.47389 144
72.494 135
72.51412 145
72.53423 122
72.55434 141
72.57446 148
72.59457 145
72.61469 133
72.6348 136
72.65491 143
72.67503 149
72.69514 143
72.71525 156
72.73537 140
72.75548 149
72.7756 141
72.79571 160
72.81582 145
72.83594 132
72.85605 169
72.87616 144
72.89628 144
72.91639 167
72.9365 124
72.95662 139
72.97673 151
72.99685 151
73.01696 126
73.03707 141
73.05719 153
73.0773 166
73.09741 188
73.11753 171
73.13764 194
73.15776 192
73.17787 215
73.19798 198
73.2181 231
73.23821 256
73.25832 284
73.27844 301
73.29855 344
73.31867 423
73.33878 484
73.35889 505
73.37901 552
73.39912 614
73.41923 600
73.43935 605
73.45946 533
73.47957 481
73.49969 383
73.5198 339
73.53992 323
73.56003 309
73.58014 361
73.60026 349
73.62037 356
73.64048 345
73.6606 338
73.68071 332
73.70083 264
73.72094 189
73.74105 204
73.76117 180
73.78128 161
73.80139 151
73.82151 144
73.84162 150
73.86174 156
73.88185 136
73.90196 165
73.92208 150
73.94219 136
73.9623 140
73.98242 134
74.00253 126
74.02264 126
74.04276 128
74.06287 143
74.08299 137
74.1031 136
74.12321 129
74.14333 149
74.16344 146
74.18355 151
74.20367 152
74.22378 137
74.2439 137
74.26401 105
74.28412 143
74.30424 131
74.32435 126
74.34446 131
74.36458 148
74.38469 131
74.40481 157
74.42492 135
74.44503 144
74.46515 146
74.48526 133
74.50537 125
74.52549 126
74.5456 137
74.56571 142
74.58583 139
74.60594 124
74.62606 138
74.64617 122
74.66628 144
74.6864 139
74.70651 126
74.72662 147
74.74674 143
74.76685 141
74.78697 138
74.80708 120
74.82719 135
74.84731 128
74.86742 146
74.88753 109
74.90765 135
74.92776 122
74.94787 133
74.96799 124
74.9881 137
75.00822 130
