3.00117 21290.4083746954
3.02128 20540.3585658149
3.0414 20315
3.06151 19536.7553683088
3.08162 19346.604992905
3.10174 18663.9300213172
3.12185 18325.2784635537
3.14197 17460.5159937369
3.16208 16741.1710555534
3.18219 16819.1091841379
3.20231 16147.6377151906
3.22242 15635.586364114
3.24253 15212.382268249
3.26265 14813.0182539255
3.28276 14397.8938834814
3.30288 13894.5594494398
3.32299 13360.2052684512
3.3431 13010
3.36322 12550.7462060636
3.38333 12416.5253383596
3.40344 11856.8978459565
3.42356 11493.4643628608
3.44367 11217.6413249217
3.46379 10693.2221810613
3.4839 10374
3.50401 10002.8153199054
3.52413 9663.50446442168
3.54424 9300.19014881798
3.56435 8932.57582267476
3.58447 8742.50656931481
3.60458 8332.20888103196
3.62469 8247.15272634851
3.64481 7675.73665729993
3.66492 7423.95658346983
3.68504 7381.6458430155
3.70515 7007.77700503081
3.72526 6609.33827908125
3.74538 6526.27083874205
3.76549 6103.12853238571
3.7856 6069
3.80572 5822.68332545096
3.82583 5576.79595425283
3.84595 5418.13712462704
3.86606 5011.33895047054
3.88617 5042.14708673591
3.90629 4727.14225306069
3.9264 4591
3.94651 4349.7995418748
3.96663 3984.85767216218
3.98674 4123.21025647976
4.00686 4006.52243041861
4.02697 3742.29465034444
4.04708 3631.07310548167
4.0672 3517
4.08731 3333.95920924799
4.10742 3274.78694906243
4.12754 3003.89693968583
4.14765 3081.39613409234
4.16776 2721.31564336098
4.18788 2823.98029632546
4.20799 2646.07225342803
4.22811 2606.95518087646
4.24822 2445.90570374442
4.26833 2405.80074929797
4.28845 2261.18316647968
4.30856 2442.10493143481
4.32867 2159.25265352338
4.34879 2221.96599163637
4.3689 2161
4.38902 2107.98343239683
4.40913 2079.8835380067
4.42924 1956.75194193398
4.44936 1900.91998692162
4.46947 1976.96331552519
4.48958 1943.01197918634
4.5097 1944
4.52981 1811.96095027263
4.54992 1810.99085995228
4.57004 1760.924517525
4.59015 1771.89104374616
4.61027 1765.18673484486
4.63038 1605.04333310773
4.65049 1656.01410521828
4.67061 1525.9603449668
4.69072 1564.07129895756
4.71083 1555.82504225044
4.73095 1399.76306717112
4.75106 1389.99786887963
4.77118 1393.92680417852
4.79129 1518.9545647535
4.8114 1501
4.83152 1380.96611845904
4.85163 1413.99020593026
4.87174 1337.86222133392
4.89186 1323.97266761675
4.91197 1325.03623141944
4.93209 1276.03005410158
4.9522 1234
4.97231 1221.96343156339
4.99243 1153.08684209883
5.01254 1259.91143429628
5.03265 1088.18428644371
5.05277 1192.79065483037
5.07288 1213.11141571424
5.09299 1083.01082197533
5.11311 1145.99878160002
5.13322 1043.91456117145
5.15334 1023.9605969684
5.17345 1001.08949684404
5.19356 1088.86025284347
5.21368 1085.06524441245
5.23379 1017.01175031431
5.2539 1029
5.27402 985.963161065377
5.29413 981.018465638861
5.31425 989.99890345222
5.33436 971.080300472639
5.35447 935.999903932988
5.37459 972.977231704676
5.3947 987
5.41481 925.967151779141
5.43493 881.96919041312
5.45504 889.075261700545
5.47516 915.063040255011
5.49527 851.037737090465
5.51538 873.990609192994
5.5355 852
5.55561 854.985534323464
5.57572 798.966721171331
5.59584 811.061871732056
5.61595 836.943409960393
5.63606 830.129969083735
5.65618 748.027800179343
5.67629 798.958333592449
5.69641 831.9725279079
5.71652 729.930341261431
5.73663 730.044191714034
5.75675 754.058782200758
5.77686 771.00261868175
5.79697 756.018726098212
5.81709 735.028118769905
5.8372 677
5.85732 715.992584657642
5.87743 674.02807015628
5.89754 749.063167322885
5.91766 710.074689029023
5.93777 709.002212455811
5.95788 700.98359889983
5.978 719
5.99811 651.987552321512
6.01823 700.116277569388
6.03834 739.954629054185
6.05845 705.922476258128
6.07857 786.941833879457
6.09868 736.096119616524
6.11879 669.003189283093
6.13891 704.01295107314
6.15902 695.983220477539
6.17913 693.012643160782
6.19925 712.077322097387
6.21936 730.043502461838
6.23948 670.069351471872
6.25959 631.996675633569
6.2797 668
6.29982 679.989972675264
6.31993 671.01859485418
6.34004 712.112393353433
6.36016 737.080546993281
6.38027 663.062382264684
6.40039 672.992392035133
6.4205 656
6.44061 634.014684460504
6.46073 689.031945499419
6.48084 650.871389623252
6.50095 618.932219894856
6.52107 675.953996321488
6.54118 650.056969134116
6.56129 599.016256686497
6.58141 606.027826838868
6.60152 661.997943610871
6.62164 616.970361649138
6.64175 653.087592071593
6.66186 648.065483689576
6.68198 615.017542283962
6.70209 613.000825310559
6.7222 602
6.74232 609.048427303986
6.76243 670.036081018245
6.78255 641.883629849933
6.80266 613.015370365329
6.82277 613.013271521511
6.84289 595.005281883612
6.863 613
6.88311 653.991122338903
6.90323 601.980568659849
6.92334 648.104362570352
6.94346 652.092885957656
6.96357 601.01025916345
6.98368 613.042935414151
7.0038 545
7.02391 626.01731266134
7.04402 568.921076633767
7.06414 532.001285733475
7.08425 557.891871812914
7.10436 595.965799840446
7.12448 595.997977182723
7.14459 594.015573329896
7.16471 548.99119308712
7.18482 556.991257677394
7.20493 541.042967963033
7.22505 594.012066498119
7.24516 557.994711118033
7.26527 598.005089522717
7.28539 540.021170636642
7.3055 548
7.32562 562.013900949343
7.34573 575.002217875256
7.36584 561.960128804197
7.38596 537.069601288928
7.40607 514.971271985449
7.42618 564.958561792546
7.4463 569
7.46641 537.986262305624
7.48653 542.079586876819
7.50664 605.030881370142
7.52675 548.240647793999
7.54687 492.946400204582
7.56698 576.960785710659
7.58709 544.020022591474
7.60721 552.023187657209
7.62732 582.970886915617
7.64743 504.894207622119
7.66755 489.077489358034
7.68766 537.910669071812
7.70778 558.004216222898
7.72789 544.004877533829
7.748 538
7.76812 527.024975518601
7.78823 570.018365365947
7.80834 542.946973254351
7.82846 547.943927106579
7.84857 570.007504048501
7.86869 542.012846901096
7.8888 535
7.90891 528.986794271521
7.92903 509.037165157982
7.94914 563.058237736428
7.96925 547.069362195501
7.98937 527.038395779925
8.00948 509.980316446736
8.0296 545
8.04971 508.987916456566
8.06982 522.027756508253
8.08994 539.005316294224
8.11005 542.053136895369
8.13016 577.943179678679
8.15028 567.060565212015
8.17039 510.992959954586
8.1905 556
8.21062 468.975858893638
8.23073 536.09937630223
8.25085 533.881869661428
8.27096 510.904014044645
8.29107 589.966108616561
8.31119 534.034559743873
8.3313 506
8.35141 508.990726356564
8.37153 476.976534994908
8.39164 507.150983357844
8.41176 566.042077469064
8.43187 497.032636711604
8.45198 540.967032642201
8.4721 522
8.49221 502.997544776272
8.51232 515.034145908726
8.53244 548.00530650172
8.55255 520.074084545637
8.57266 498.066293359624
8.59278 476.966059895433
8.61289 547.976822728721
8.63301 533.975429273768
8.65312 496.99805164323
8.67323 522.031929317113
8.69335 519.963273621103
8.71346 505.02623342375
8.73357 506.957249375672
8.75369 539.998305040436
8.7738 516
8.79392 525.012349686203
8.81403 526.997748222668
8.83414 522.975319389477
8.85426 507.01735053239
8.87437 517.951644921051
8.89448 537.030806771784
8.9146 470
8.93471 467.014941969127
8.95483 502.04196509587
8.97494 512.990784179156
8.99505 503.016279147405
9.01517 502.998693698884
9.03528 486.047676193026
9.05539 434.007996183274
9.07551 473.036369697221
9.09562 519.981636110173
9.11573 451.906567283376
9.13585 437.050166604537
9.15596 458.000185948518
9.17608 450.978096138033
9.19619 487.99905037771
9.2163 444
9.23642 435.041160488871
9.25653 491.039108654921
9.27664 485.007047116863
9.29676 505.991119691585
9.31687 483.041012984234
9.33699 469.002765849703
9.3571 472
9.37721 477.982983005469
9.39733 438.027131247355
9.41744 499.049664626617
9.43755 467.076703298173
9.45767 471.97409871597
9.47778 481.993693223466
9.4979 483
9.51801 465.992253614388
9.53812 461.005973397295
9.55824 476.043016818857
9.57835 488.978837041336
9.59846 461.064382981677
9.61858 463.937181626021
9.63869 529.008186450521
9.6588 458
9.67892 516.037516627153
9.69903 486.926628906965
9.71915 468.037484992661
9.73926 487.021982501976
9.75937 446.055133607604
9.77949 448.977769917329
9.7996 493
9.81971 461.999042038858
9.83983 505.066790032084
9.85994 505.909708180739
9.88006 456.019689370641
9.90017 463.064897488161
9.92028 404.968990945704
9.9404 508
9.96051 466.971015748184
9.98062 458.02979850589
10.00074 495.044856238493
10.02085 492.045101315243
10.04097 463.068635683413
10.06108 438.957101858955
10.08119 510.99144697917
10.10131 471.993700952796
10.12142 502.006616076663
10.14153 466.95648203704
10.16165 464.997876344108
10.18176 444.071919419568
10.20187 433.921574725991
10.22199 515.979381422394
10.2421 496
10.26222 475.967721870997
10.28233 431.95509817461
10.30244 428.017858278712
10.32256 442.946291811963
10.34267 463.018087888372
10.36278 442.97840541201
10.3829 494
10.40301 465.987616739178
10.42313 464.991919219907
10.44324 453.014862418721
10.46335 481.934670149991
10.48347 489.007045935487
10.50358 490.980414293295
10.52369 505.012977360781
10.54381 457.992943817177
10.56392 473.989993534508
10.58403 436.986939165522
10.60415 464.038130026361
10.62426 466.926238532623
10.64438 514.013819256924
10.66449 459.002595769546
10.6846 505
10.70472 453.959989001661
10.72483 471.076971157236
10.74494 508.997911349935
10.76506 474.075782853259
10.78517 451.03030114301
10.80529 449.976491182895
10.8254 516
10.84551 487.981154136219
10.86563 475.003651450527
10.88574 470.954397888625
10.90585 466.838571837403
10.92597 546.017852916514
10.94608 454.055049861841
10.9662 484
10.98631 490.989246588158
11.00642 466.988562896618
11.02654 485.099022860336
11.04665 519.078689452052
11.06676 453.038501581486
11.08688 507.925050967617
11.10699 538.013450171832
11.1271 499
11.14722 530.982090008219
11.16733 466.954747474029
11.18745 500.116261708473
11.20756 514.03143122614
11.22767 488.029570059542
11.24779 482.99902466619
11.2679 488
11.28801 495.994661832775
11.30813 480.010433125234
11.32824 502.001878413761
11.34836 483.997424187943
11.36847 506.986661706548
11.38858 497.99492874041
11.4087 519
11.42881 509.000799266793
11.44892 530.019964318757
11.46904 528.956280481287
11.48915 522.884086980423
11.50927 583.003890913214
11.52938 527.023562534113
11.54949 551.99795486116
11.56961 504.970802839765
11.58972 503.083431432809
11.60983 594.990234021424
11.62995 520.989376453868
11.65006 592.964895360442
11.67017 537.027642617507
11.69029 584.984094219952
11.7104 560
11.73052 548.018569087504
11.75063 579.034071714032
11.77074 590.031703248193
11.79086 631.857156353619
11.81097 678.058972563182
11.83108 600.009061510311
11.8512 661
11.87131 630.000583766002
11.89143 679.037235068305
11.91154 654.947488569891
11.93165 660.934132315772
11.95177 683.988852628881
11.97188 691.963449671478
11.99199 746.982864215393
12.01211 738.983359425022
12.03222 722.024304366498
12.05234 761.003636321255
12.07245 740.054466307665
12.09256 814.856808061299
12.11268 854.965576087116
12.13279 881.006105589274
12.1529 871
12.17302 965.013618416458
12.19313 921.048055426284
12.21324 1039.15973118173
12.23336 1033.03474711163
12.25347 1054.94452105812
12.27359 1088.9817412264
12.2937 1127
12.31381 1139.99411972475
12.33393 1096.88827359406
12.35404 1026.9446670541
12.37415 1020.11043445186
12.39427 956.010565541477
12.41438 995.002706215001
12.4345 915
12.45461 825.957586254797
12.47472 759.980885492973
12.49484 775.018492249622
12.51495 731.259203491422
12.53506 637.011790500342
12.55518 696.975245140516
12.57529 642.039002889328
12.5954 597
12.61552 583.949461507731
12.63563 526.001917305939
12.65575 579.077341674207
12.67586 555.07687618358
12.69597 528.044032411039
12.71609 493.014588565984
12.7362 481
12.75631 500.013520356662
12.77643 505.940915592505
12.79654 458.009915176161
12.81666 505.961437827259
12.83677 467.083162832183
12.85688 427.033281829851
12.877 426
12.89711 507.003696045922
12.91722 439.945846819365
12.93734 432.977054915951
12.95745 408.980985560863
12.97757 444.974740725688
12.99768 417.050873704441
13.01779 383.99767906995
13.03791 408.002650333457
13.05802 394.003920400137
13.07813 427.053835508356
13.09825 441.989192577837
13.11836 424.054794131649
13.13847 402.007940493637
13.15859 411.993699356343
13.1787 407
13.19882 380.012787880187
13.21893 417.013635442324
13.23904 391.972772344066
13.25916 404.981064285532
13.27927 397.014002417475
13.29938 396.996028378111
13.3195 387
13.33961 347.99773553712
13.35973 373.019207006112
13.37984 361.98977630422
13.39995 374.966279772766
13.42007 382.979327198323
13.44018 389.026827694305
13.46029 352.997931470284
13.48041 384.999086286295
13.50052 348.99108651401
13.52064 380.045493147657
13.54075 365.920799627885
13.56086 345.994785562226
13.58098 361.990462358986
13.60109 362.994993254715
13.6212 378
13.64132 368.012380500379
13.66143 396.009282862922
13.68154 375.973050554957
13.70166 385.964489238511
13.72177 392.014705454222
13.74189 380.996675277661
13.762 392
13.78211 345.978109293498
13.80223 339.050828464366
13.82234 371.971900238035
13.84245 323.062834172886
13.86257 344.94876354055
13.88268 364.98619477944
13.9028 365
13.92291 325.994206862417
13.94302 359.058219117423
13.96314 390.945227861547
13.98325 334.057411979281
14.00336 373.862617128981
14.02348 409.028030255638
14.04359 344.022892050639
14.06371 339.001070885905
14.08382 334.007307972287
14.10393 350.002278648484
14.12405 329.936273929948
14.14416 323.954321270925
14.16427 357.973329290461
14.18439 348.01106961757
14.2045 341
14.22461 372.006702356838
14.24473 352.943022008695
14.26484 319.966618553485
14.28496 333.904354260956
14.30507 372.029227234403
14.32518 315.02614666717
14.3453 336
14.36541 326.99819634565
14.38552 338.004069158331
14.40564 345.082193764193
14.42575 380.107662600642
14.44587 293.035940164229
14.46598 353.939259082324
14.48609 366.999018362271
14.50621 372.994067679285
14.52632 348.991715181222
14.54643 345.946681025006
14.56655 294.972834253458
14.58666 333.913880576682
14.60677 349.000592323797
14.62689 339.013223274526
14.647 321
14.66712 364.010402514237
14.68723 348.024202364068
14.70734 388.99985547091
14.72746 340.078633403362
14.74757 338.987357465628
14.76768 333.015305462059
14.7878 319
14.80791 314.994508887648
14.82803 312.044921682135
14.84814 352.003608848638
14.86825 325.988446104123
14.88837 359.994750696691
14.90848 331.003460379609
14.92859 365.98595929272
14.94871 356.984381566652
14.96882 330.992430170193
14.98894 331.97387387207
15.00905 317.044846769844
15.02916 355.974442277825
15.04928 342.991703620281
15.06939 371.999146555604
15.0895 339
15.10962 349.037624205575
15.12973 367.94448198888
15.14984 310.993412663824
15.16996 357.959834272573
15.19007 333.017415836891
15.21019 349.000349000886
15.2303 333
15.25041 361.990906571692
15.27053 318.02032114658
15.29064 375.006572075142
15.31075 319.058553131705
15.33087 349.976273372557
15.35098 331.003896351417
15.3711 340
15.39121 295.008649034902
15.41132 355.005925586334
15.43144 304.977171995923
15.45155 341.005110497306
15.47166 304.960717425814
15.49178 374.975736339211
15.51189 326.026884431451
15.53201 315.005861709732
15.55212 324.000865492224
15.57223 317.99059070503
15.59235 317.008406951599
15.61246 325.966847540351
15.63257 333.03298183986
15.65269 305.994048833038
15.6728 346
15.69291 318.987256395019
15.71303 326.043886218734
15.73314 353.019961602995
15.75326 335.08416646913
15.77337 299.999528401608
15.79348 336.953523009175
15.8136 357
15.83371 321.986589180892
15.85382 322.018988342756
15.87394 345.039131013853
15.89405 343.08611730108
15.91417 301.019490986964
15.93428 324.967568941197
15.95439 339.001654026661
15.97451 332.00087930643
15.99462 336.990321050137
16.01473 310.961264351933
16.03485 312.09632805804
16.05496 360.958757045461
16.07508 351.005048375523
16.09519 356.007678822939
16.1153 323
16.13542 330.005914426813
16.15553 320.980982896067
16.17564 321.035993540621
16.19576 342.987625693323
16.21587 327.03752328825
16.23598 311.99863815738
16.2561 327
16.27621 348.014096969012
16.29633 361.958228407026
16.31644 323.016746731567
16.33655 368.962440487764
16.35667 336.044589276423
16.37678 337.988720883242
16.39689 319.033066516713
16.41701 267.020769639965
16.43712 367.043464761722
16.45724 330.950515416882
16.47735 338.9307514386
16.49746 292.955661349965
16.51758 354.016044912653
16.53769 277.002696333332
16.5578 357
16.57792 326.969187521055
16.59803 336.021686239225
16.61814 332.981610306852
16.63826 321.044537778407
16.65837 310.950903903256
16.67849 365.987343220417
16.6986 342
16.71871 321.002999700706
16.73883 343.030632621971
16.75894 348.991576855426
16.77905 336.06072306524
16.79917 317.986483432896
16.81928 340.000006858853
16.8394 323
16.85951 344.995282013698
16.87962 304.97782540667
16.89974 325.077290637539
16.91985 347.018013314934
16.93996 320.049852624102
16.96008 318.976780780708
16.98019 343.998215683484
17.00031 329.997711847166
17.02042 336.993897603395
17.04053 318.994116463519
17.06065 338.062373982313
17.08076 343.048452825275
17.10087 326.941527015195
17.12099 387.998917456648
17.1411 322
17.16121 308.004434993699
17.18133 318.022546294043
17.20144 348.101029105081
17.22156 380.064358645197
17.24167 313.039813766256
17.26178 347.957595836094
17.2819 343
17.30201 289.999298546696
17.32212 330.020438575041
17.34224 325.048049164943
17.36235 361.060095101306
17.38247 299.008136843594
17.40258 357.963681403396
17.42269 336.014607368361
17.44281 342.016405059257
17.46292 376.017358687247
17.48303 368.967327880386
17.50315 343.935456498074
17.52326 337.935024377406
17.54338 386.975788449098
17.56349 368.019817863988
17.5836 346
17.60372 364.982580124121
17.62383 321.978759610719
17.64394 349.05326047858
17.66406 355.982038859849
17.68417 364.026935779442
17.70428 333.005615209153
17.7244 363
17.74451 378.996913714111
17.76463 377.04389891137
17.78474 418.011400490776
17.80485 388.047711459856
17.82497 392.010360679134
17.84508 365.021847131936
17.86519 355.008096205914
17.88531 336.000044254882
17.90542 358.024870845606
17.92554 371.009709247394
17.94565 377.03101767873
17.96576 387.01351730569
17.98588 370.006326128826
18.00599 387.982510042735
18.0261 392
18.04622 315.019194810374
18.06633 409.063708273012
18.08645 359.861465377183
18.10656 357.945822770511
18.12667 374.016315541198
18.14679 358.990193506392
18.1669 405
18.18701 396.997140302853
18.20713 417.050843659312
18.22724 437.984939964574
18.24735 420.979644891166
18.26747 460.934713108535
18.28758 462.059777105056
18.3077 385
18.32781 421.030591334047
18.34792 446.971169248493
18.36804 390.928838397043
18.38815 388.011763419362
18.40826 373.992153352239
18.42838 391.002249735417
18.44849 365.010845622025
18.46861 363.002708836848
18.48872 361.991030285884
18.50883 348.982960736041
18.52895 353.069135314134
18.54906 382.001779922507
18.56917 358.014124656418
18.58929 372.994242240534
18.6094 380
18.62951 402.980976470041
18.64963 324.93840443077
18.66974 341.035468512155
18.68986 334.999991514504
18.70997 352.973040612648
18.73008 363.985308125192
18.7502 375
18.77031 341.982015008227
18.79042 331.02371142577
18.81054 370.049608806891
18.83065 372.001745207512
18.85077 380.984053081177
18.87088 379.020912499832
18.89099 354.00374380737
18.91111 359.997038050549
18.93122 356.037139796251
18.95133 397.956319892459
18.97145 325.973509848882
18.99156 386.922817612915
19.01168 362.036498352615
19.03179 361.98358510107
19.0519 394
19.07202 370.991659300161
19.09213 387.018037095487
19.11224 385.003874910321
19.13236 393.997899366971
19.15247 398.946682859356
19.17258 430.035935287656
19.1927 360
19.21281 426.027625669528
19.23293 426.979958450626
19.25304 424.990559316162
19.27315 413.023533455386
19.29327 424.936402337249
19.31338 469.990226175939
19.33349 449.004824673649
19.35361 463.003938339887
19.37372 460.010919538588
19.39384 478.992473099715
19.41395 452.95738287572
19.43406 468.916165908982
19.45418 503.001500352682
19.47429 471.014875733793
19.4944 473
19.51452 522.058183339876
19.53463 566.020801162052
19.55475 565.036374586309
19.57486 612.864663967855
19.59497 678.918265157053
19.61509 707.002451883192
19.6352 692
19.65531 737.039165984371
19.67543 830.141915977075
19.69554 880.945614863073
19.71565 844.85342167828
19.73577 998.783392672864
19.75588 1065.97636248263
19.776 1108
19.79611 1215.03731428553
19.81622 1233.99081946287
19.83634 1258.18121485011
19.85645 1356.96702723956
19.87656 1276.18033023056
19.89668 1253.96019777359
19.91679 1306.98841947654
19.93691 1267.95470614784
19.95702 1191.99598662423
19.97713 1221.95437985362
19.99725 1156.04478430585
20.01736 1229.0403572404
20.03747 1133.00915107452
20.05759 1227.97967084709
20.0777 1176
20.09782 1189.95841874228
20.11793 1073.83425593524
20.13804 1045.10246388502
20.15816 1120.90946444628
20.17827 1116.03166079295
20.19838 1106.00555210482
20.2185 1103
20.23861 1119.01319788475
20.25872 1122.94955921713
20.27884 1056.98041203572
20.29895 1102.92564289505
20.31907 1092.00716229408
20.33918 1117.96595248995
20.35929 1109.04032064398
20.37941 1016.99366147905
20.39952 1087.06597374226
20.41963 1084.9271857633
20.43975 1026.87227639747
20.45986 1000.99489896405
20.47998 1022.97070163446
20.50009 1055.97780942193
20.5202 1105
20.54032 1102.94416582367
20.56043 1024.91967073201
20.58054 1038.15296909534
20.60066 1111.9864727366
20.62077 1060.05787198409
20.64088 1082.93926756812
20.661 1133
20.68111 1134.01901095508
20.70123 1234.20432418754
20.72134 1368.23134122826
20.74145 1509.44384860016
20.76157 1764.73452165345
20.78168 1883.81342061738
20.80179 2122.92751422102
20.82191 2132.98856492219
20.84202 2117.93172533327
20.86214 1967.60596397329
20.88225 1773.57338470912
20.90236 1610.37269226396
20.92248 1390.2275612906
20.94259 1221.03231235882
20.9627 1206
20.98282 1061.84398940617
21.00293 979.01547409172
21.02305 1018.96693657387
21.04316 957.045843441522
21.06327 978.025633292887
21.08339 927.997447369828
21.1035 976
21.12361 911.992382404501
21.14373 944.96681343639
21.16384 865.931685513624
21.18395 907.879904036368
21.20407 919.995274501018
21.22418 925.009815297311
21.2443 895
21.26441 897.03999768303
21.28452 1000.03193704479
21.30464 957.947924731679
21.32475 963.094670498568
21.34486 888.061955168436
21.36498 905.011948503798
21.38509 867.990412504633
21.40521 928.001831064981
21.42532 869.971895148452
21.44543 892.002344277284
21.46555 852.927087241882
21.48566 856.978479593793
21.50577 846.05187888886
21.52589 813.00179781833
21.546 836
21.56612 829.978134301295
21.58623 803.959308858515
21.60634 782.980220830749
21.62646 790.944465351847
21.64657 816.999648170368
21.66668 780.061277678694
21.6868 728
21.70691 753.031702095463
21.72702 802.990897125609
21.74714 746.909667379241
21.76725 741.980283132571
21.78737 742.001551180903
21.80748 744.994793698803
21.82759 735.020336963838
21.84771 674.974321845943
21.86782 664.034302574111
21.88793 724.090893888237
21.90805 735.844755569676
21.92816 655.03557519197
21.94828 703.961661662231
21.96839 687.019992563432
21.9885 664
22.00862 689.03688018191
22.02873 695.918401783127
22.04884 636.044582465726
22.06896 732.850312549243
22.08907 705.174504880782
22.10919 595.010422568247
22.1293 665
22.14941 692.996471131315
22.16953 678.984882999137
22.18964 670.963462184312
22.20975 665.889587461686
22.22987 721.013984795556
22.24998 647.06305631245
22.27009 627.009580233481
22.29021 595.993740634515
22.31032 610.018588833232
22.33044 618.007591092417
22.35055 631.072433867882
22.37066 649.054289012522
22.39078 609.98317928832
22.41089 681.970961420322
22.431 678
22.45112 626.962229481978
22.47123 599.946643924939
22.49135 582.114646706215
22.51146 660.932401037668
22.53157 629.062043266331
22.55169 609.011798112164
22.5718 595
22.59191 653.008966160609
22.61203 618.948310507056
22.63214 614.007427737325
22.65225 616.966064358495
22.67237 627.028950595877
22.69248 588.022717787082
22.7126 606
22.73271 629.979270426312
22.75282 562.990041629722
22.77294 614.067682632442
22.79305 606.985669176189
22.81316 641.947020004938
22.83328 624.060705602941
22.85339 572.994719104363
22.87351 615.997165291221
22.89362 563.985056441048
22.91373 610.071790226326
22.93385 611.916266173122
22.95396 577.024351029607
22.97407 588.979169387517
22.99419 587.006744920935
23.0143 589
23.03442 618.948397801748
23.05453 527.975814297924
23.07464 600.120254658323
23.09476 587.096258848982
23.11487 564.958347953129
23.13498 623.95288377187
23.1551 633
23.17521 606.977373187191
23.19532 570.006121930139
23.21544 599.999999005109
23.23555 552.148430734508
23.25567 521.992471480753
23.27578 562.928194764604
23.29589 606.020794659589
23.31601 523.989232835737
23.33612 576.038462880911
23.35623 555.944385841446
23.37635 544.036079125929
23.39646 568.963989186814
23.41658 578.982229571039
23.43669 598.001272439176
23.4568 573
23.47692 565.005818423493
23.49703 570.994306263139
23.51714 570.048555468424
23.53726 595.043489776184
23.55737 540.040468663807
23.57749 547.006963469315
23.5976 516
23.61771 576.028124920865
23.63783 594.999468756862
23.65794 589.973800706196
23.67805 567.076278279166
23.69817 544.002811475542
23.71828 557.989026874068
23.73839 564.989656185847
23.75851 587.997879774547
23.77862 561.987238666865
23.79874 578.051156868499
23.81885 593.007312171608
23.83896 595.967456068408
23.85908 601.044201760385
23.87919 549.98828071464
23.8993 624
23.91942 575.978684686995
23.93953 607.023977554381
23.95965 578.915099783359
23.97976 578.927535555424
23.99987 613.014079864663
24.01999 574.006612677805
24.0401 607
24.06021 621.989538080426
24.08033 596.009804470889
24.10044 620.984041580974
24.12056 574.079691469762
24.14067 570.972291349847
24.16078 586.99535850927
24.1809 591
24.20101 612.991008474691
24.22112 566.977473808977
24.24124 588.067362666231
24.26135 612.938141819779
24.28146 626.039129308686
24.30158 595.996904320989
24.32169 624.997981348584
24.34181 605.003867154764
24.36192 651.042788514113
24.38203 646.919406294709
24.40215 589.974799248896
24.42226 620.966969484876
24.44237 603.025863005881
24.46249 627.963377133917
24.4826 699
24.50272 662.988643040841
24.52283 694.030183608316
24.54294 690.022576561365
24.56306 710.035154115767
24.58317 672.987743105067
24.60328 748.899160147472
24.6234 813
24.64351 800.01316471773
24.66362 853.007880521731
24.68374 834.087057739255
24.70385 913.008083149159
24.72397 847.98351150754
24.74408 964.886180729035
24.76419 1001.00471236449
24.78431 995.006792300329
24.80442 1015.99989062742
24.82453 1016.07426268528
24.84465 1083.0056341089
24.86476 1013.13433909513
24.88488 1021.91529319707
24.90499 1100.00616129705
24.9251 1016
24.94522 1015.97379058137
24.96533 945.922961636373
24.98544 923.914497862122
25.00556 870.00802879975
25.02567 895.040843841241
25.04579 829.004477627009
25.0659 875
25.08601 832.002461733721
25.10613 888.023930854887
25.12624 852.986910325378
25.14635 889.960040128125
25.16647 887.929500845745
25.18658 944.043064460012
25.20669 834.01769692161
25.22681 923.060851651389
25.24692 982.993064935616
25.26704 947.96093654111
25.28715 940.899716055727
25.30726 866.128128801967
25.32738 825.049107239317
25.34749 756.033912741776
25.3676 711
25.38772 722.045928650243
25.40783 760.978157083833
25.42795 696.843162404663
25.44806 680.946078334303
25.46817 705.031275999237
25.48829 646.023812945595
25.5084 641
25.52851 656.999570081535
25.54863 639.970137986384
25.56874 622.958045646836
25.58886 609.971306585712
25.60897 636.991755855495
25.62908 629.976464760248
25.6492 667
25.66931 616.989406388349
25.68942 638.008602251613
25.70954 614.961335555904
25.72965 624.925511631332
25.74976 658.937223368509
25.76988 665.035842733774
25.78999 616.008082278739
25.81011 623.988986882057
25.83022 576.987738768417
25.85033 605.021879063783
25.87045 582.928954186224
25.89056 577.962930648076
25.91067 613.929692246371
25.93079 647.000050920601
25.9509 619
25.97102 618.039383028953
25.99113 659.994540018372
26.01124 623.985518899259
26.03136 640.053986347699
26.05147 578.033009000531
26.07158 618.948093946175
26.0917 653
26.11181 684.996050266347
26.13193 641.940637890442
26.15204 635.034370755963
26.17215 662.916967835034
26.19227 707.898842843695
26.21238 759.016483925257
26.23249 694.021460147968
26.25261 726.044806431639
26.27272 798.997805499833
26.29283 751.994698400176
26.31295 810.124061266546
26.33306 824.955125009075
26.35318 881.925013847404
26.37329 943.98362250638
26.3934 1015
26.41352 1282.21166028189
26.43363 1440.34574216727
26.45374 1806.86311411179
26.47386 2256.048731673
26.49397 2780.14577000428
26.51409 3501.518860735
26.5342 4556
26.55431 5292.43221925657
26.57443 6208.89136327157
26.59454 6400.12499145433
26.61465 6415.56509046671
26.63477 5855.17868509673
26.65488 4990.88273911154
26.67499 4113.44008999759
26.69511 3234.58235528368
26.71522 2486.36789066894
26.73534 1945.03312232845
26.75545 1501.06514211869
26.77556 1204.46182295655
26.79568 1018.14273633458
26.81579 904.046961750423
26.8359 836
26.85602 823.95467957282
26.87613 744.90148448921
26.89625 719.994662960637
26.91636 703.101379873315
26.93647 651.001213603805
26.95659 678.010574477532
26.9767 617
26.99681 663.02018994291
27.01693 647.920256355863
27.03704 602.986274666218
27.05716 618.01770955751
27.07727 593.976908885242
27.09738 627.026142584318
27.1175 553
27.13761 576.002621556663
27.15772 547.996815661447
27.17784 568.973395503993
27.19795 519.074538800339
27.21806 529.967228636508
27.23818 527.011799662188
27.25829 522.995020014181
27.27841 537.000877415835
27.29852 537.024796466939
27.31863 577.02784983869
27.33875 566.975675265459
27.35886 564.036553141809
27.37897 526.059023455196
27.39909 534.955487003236
27.4192 638
27.43932 562.925287237143
27.45943 544.001903928733
27.47954 540.002015474008
27.49966 546.992802661443
27.51977 541.018672000913
27.53988 535.986626104266
27.56 545
27.58011 492.987575657987
27.60023 502.000496325149
27.62034 479.969045555007
27.64045 478.02483229664
27.66057 461.99750804751
27.68068 483.978952655454
27.70079 484.010071907091
27.72091 466.002939616823
27.74102 486.00264854405
27.76113 472.002005439216
27.78125 489.002685206411
27.80136 464.058682746181
27.82148 459.970115268359
27.84159 492.003389184091
27.8617 451
27.88182 467.050300297109
27.90193 517.038034026704
27.92204 498.886933688695
27.94216 446.021420983779
27.96227 478.939705969164
27.98239 488.012334570191
28.0025 447
28.02261 434.005606970128
28.04273 457.032925470659
28.06284 459.956937248814
28.08295 431.033030882514
28.10307 440.973218121902
28.12318 455.983636553436
28.1433 471
28.16341 456.980837600977
28.18352 425.009773446454
28.20364 459.010661967063
28.22375 425.928593115062
28.24386 437.90785592201
28.26398 483.982679138985
28.28409 460.024754374685
28.3042 418
28.32432 425.009916162227
28.34443 433.031964639731
28.36455 459.015957308975
28.38466 447.010217876628
28.40477 449.023639194902
28.42489 415.013600019592
28.445 419
28.46511 456.004754779929
28.48523 448.020246801752
28.50534 479.010702770304
28.52546 451.051442686484
28.54557 447.992238999716
28.56568 445.012909425201
28.5858 444
28.60591 485.99847146368
28.62602 428.932712375539
28.64614 392.989471001286
28.66625 410.91389148398
28.68636 440.9788311275
28.70648 433.010876447632
28.72659 420.014866089773
28.74671 398.012710424509
28.76682 443.99976714526
28.78693 397.962856738726
28.80705 419.062428733976
28.82716 416.042772628165
28.84727 407.958556231259
28.86739 433.019325141928
28.8875 367
28.90762 442.046472992082
28.92773 429.9955533485
28.94784 449.978857547375
28.96796 406.052025530927
28.98807 420.957464158055
29.00818 422.039653460142
29.0283 378
29.04841 423.017061603682
29.06853 417.970996319458
29.08864 413.026887748171
29.10875 433.967126197768
29.12887 429.027631434342
29.14898 412.005050277563
29.16909 409.010567827855
29.18921 393.016488348993
29.20932 452.017683095405
29.22943 417.955938595281
29.24955 425.048604072157
29.26966 429.031071503479
29.28978 398.037914329501
29.30989 372.001465411039
29.33 404
29.35012 448.962706134662
29.37023 367.960847694928
29.39034 420.111520896323
29.41046 426.047713177134
29.43057 408.990142191814
29.45069 426.999821476932
29.4708 400
29.49091 376.994875909453
29.51103 379.019771419587
29.53114 398.040543803256
29.55125 409.012045166953
29.57137 400.98823309302
29.59148 425.975948360993
29.6116 428
29.63171 392.985599212254
29.65182 388.019306289114
29.67194 415.034609924605
29.69205 415.987197615248
29.71216 400.082627404525
29.73228 369.966685738147
29.75239 455.962560102379
29.7725 475
29.79262 441.960840959279
29.81273 421.022339979524
29.83285 458.068911545517
29.85296 449.083001952962
29.87307 401.047473972059
29.89319 398.990667174517
29.9133 410
29.93341 381.997762489998
29.95353 412.060291575972
29.97364 428.967717677454
29.99376 403.004740773518
30.01387 426.97024681726
30.03398 419.029103097721
30.0541 382
30.07421 372.019711661061
30.09432 429.020299162042
30.11444 397.91344304383
30.13455 374.027588942905
30.15467 371.984754838961
30.17478 382.005812535827
30.19489 381.978500299619
30.21501 443.007861279673
30.23512 391.923722688829
30.25523 354.035773827706
30.27535 416.132261865911
30.29546 421.071249945271
30.31557 393.964490688421
30.33569 436.007355736097
30.3558 376
30.37592 403.992880869582
30.39603 364.016243422605
30.41614 423.041913787851
30.43626 385.063431397186
30.45637 389.988671138118
30.47648 386.992508270497
30.4966 401
30.51671 379.995324585428
30.53683 385.99612850874
30.55694 381.045200979309
30.57705 412.025801793559
30.59717 374.998914112783
30.61728 415.980933774281
30.63739 398.00408973355
30.65751 417.008295913153
30.67762 413.989486825437
30.69773 404.984453590861
30.71785 392.973180064412
30.73796 379.048162670794
30.75808 357.997200025518
30.77819 378.993621574061
30.7983 381
30.81842 402.999435779097
30.83853 383.994336847228
30.85864 402.025711185465
30.87876 399.005761051021
30.89887 393.042305623601
30.91899 362.995795263425
30.9391 405
30.95921 394.982948904195
30.97933 375.024952480615
30.99944 409.019138169695
31.01955 395.980745868142
31.03967 414.038339015226
31.05978 358.018578970248
31.0799 388
31.10001 373.989137840848
31.12012 373.020190368724
31.14024 386.959483512059
31.16035 352.996815384058
31.18046 395.915841136847
31.20058 399.032113474939
31.22069 370.994040149662
31.2408 419
31.26092 426.979116157699
31.28103 401.983098510082
31.30115 406.008478738705
31.32126 403.992732979191
31.34137 412.00006797525
31.36149 399.009145123914
31.3816 379
31.40171 352.99104209661
31.42183 352.024600977694
31.44194 379.060062594094
31.46206 390.046288790155
31.48217 348.045118498425
31.50228 352.96716191509
31.5224 384
31.54251 360.983425284871
31.56262 352.031103681312
31.58274 398.03854895588
31.60285 374.105838962811
31.62297 356.958337140978
31.64308 399.991468058507
31.66319 361.024869285635
31.68331 343.010163931718
31.70342 376.013227997562
31.72353 361.974988421501
31.74365 360.014470866471
31.76376 373.94174592597
31.78387 400.004625153215
31.80399 373.009757671549
31.8241 378
31.84422 388.002349171996
31.86433 373.944653196322
31.88444 342.015780965605
31.90456 375.977757648299
31.92467 349.047498925776
31.94478 337.99792343332
31.9649 361
31.98501 412.992634255863
32.00513 352.963777341825
32.02524 393.104348266628
32.04535 401.102982833112
32.06547 348.032651897202
32.08558 366.973507174808
32.10569 375.001806312916
32.12581 365.992501891379
32.14592 357.009886472349
32.16604 371.986775468638
32.18615 353.01104618123
32.20626 386.933065213894
32.22638 398.004219974899
32.24649 386.009739201272
32.2666 374
32.28672 389.989306927861
32.30683 362.998936984527
32.32694 387.009595152689
32.34706 374.965433701708
32.36717 410.007946737443
32.38729 376.994871634968
32.4074 421
32.42751 371.993356498975
32.44763 393.963349409025
32.46774 331.98240030743
32.48785 400.80030420754
32.50797 423.059163304201
32.52808 372.008249850772
32.5482 396
32.56831 355.997104743687
32.58842 389.010823784086
32.60854 355.924567581269
32.62865 358.874176658964
32.64876 410.004878976601
32.66888 363.027995103883
32.68899 377.990598768125
32.7091 380
32.72922 380.976043134335
32.74933 351.008500042169
32.76945 390.071082445826
32.78956 379.07157177234
32.80967 345.029396104398
32.82979 352.981794498937
32.8499 394
32.87001 378.980341964619
32.89013 343.98188056605
32.91024 360.06232017053
32.93036 388.957137443201
32.95047 394.023614420111
32.97058 370.015027856945
32.9907 376
33.01081 395.000691369409
33.03092 379.984303018332
33.05104 372.991539859083
33.07115 374.955987077007
33.09127 395.996451023089
33.11138 369.044794078628
33.13149 347.983214310934
33.15161 407.011865751131
33.17172 379.966831519463
33.19183 374.015821130843
33.21195 393.074726472816
33.23206 411.039454773883
33.25217 376.002839562805
33.27229 402.998450742099
33.2924 380
33.31252 415.026831090971
33.33263 398.921522211149
33.35274 359.030489872614
33.37286 413.928600790336
33.39297 404.036197434301
33.41308 398.983921775247
33.4332 414
33.45331 396.008386370605
33.47343 436.013583000607
33.49354 390.863258315686
33.51365 347.002123525611
33.53377 384.918656379763
33.55388 414.016119422432
33.57399 380.002224435349
33.59411 407.006451085409
33.61422 388.979575774432
33.63434 389.030311956305
33.65445 398.974168072309
33.67456 379.007236722614
33.69468 395.984043208146
33.71479 397.003235795761
33.7349 397
33.75502 411.999467349416
33.77513 387.943286090819
33.79524 367.035001537128
33.81536 395.022731211581
33.83547 349.038868513472
33.85559 365.985904342584
33.8757 376
33.89581 373.009019419304
33.91593 396.995268087448
33.93604 380.030585901537
33.95615 420.966599997244
33.97627 394.040583686108
33.99638 394.982791771353
34.0165 407
34.03661 394.997495621176
34.05672 401.005205543233
34.07684 410.057992425468
34.09695 431.079033292654
34.11706 368.055750193015
34.13718 384.99469375788
34.15729 371.990690145751
34.17741 418.009293790108
34.19752 399.990462543192
34.21763 420.038515140837
34.23775 418.908457317223
34.25786 389.937601262717
34.27797 454.970821044398
34.29809 413.019933997198
34.3182 420
34.33831 438.987511145587
34.35843 406.033836215681
34.37854 468.043498702738
34.39866 430.075293504024
34.41877 437.940887759209
34.43888 480.967944899103
34.459 496
34.47911 488.984759392048
34.49922 463.017852522736
34.51934 511.049809428497
34.53945 520.862222465879
34.55957 582.050908102479
34.57968 493.00226217375
34.59979 582.977275650784
34.61991 552.999885294488
34.64002 612.042301712428
34.66013 606.987970404934
34.68025 625.071817203766
34.70036 657.910274485596
34.72047 693.008469074148
34.74059 648.02587915556
34.7607 642
34.78082 735.069383083623
34.80093 760.020898745945
34.82104 774.988526366664
34.84116 744.076798617866
34.86127 724.984448537609
34.88138 757.961522081985
34.9015 795
34.92161 807.966037663582
34.94173 710.964437206167
34.96184 767.082254117702
34.98195 753.038531770436
35.00207 758.009815640617
35.02218 745.979248538043
35.04229 787.993543887381
35.06241 742.959361550695
35.08252 677.983925880191
35.10264 706.070761237139
35.12275 710.932064512968
35.14286 681.002419839382
35.16298 706.979705927849
35.18309 701.010115108983
35.2032 675
35.22332 641.983554656977
35.24343 651.043705457504
35.26354 673.990885431794
35.28366 640.086765480271
35.30377 609.023386910531
35.32389 635.953182436338
35.344 739
35.36411 686.971492427793
35.38423 660.94958898207
35.40434 614.952777250412
35.42445 631.896720003113
35.44457 670.961926185495
35.46468 672.023290516349
35.4848 657
35.50491 717.026567000576
35.52502 716.940288396612
35.54514 649.971294586825
35.56525 691.894309607332
35.58536 693.052988896118
35.60548 665.016672324415
35.62559 678.974348063534
35.64571 730.002665113947
35.66582 688.957066173187
35.68593 673.999044805244
35.70605 675.009360783731
35.72616 688.939591939087
35.74627 730.936467714395
35.76639 741.022172097261
35.7865 687
35.80661 745.020447530392
35.82673 741.994964777615
35.84684 760.034955416784
35.86696 764.001901081476
35.88707 763.007234554564
35.90718 748.027465466048
35.9273 726
35.94741 738.991673959738
35.96752 695.972669701596
35.98764 697.001471693091
36.00775 685.020873986051
36.02787 700.933136574146
36.04798 736.01786591113
36.06809 681.016261188802
36.08821 688.002291743129
36.10832 670.984233045168
36.12843 666.993778429781
36.14855 650.931449919677
36.16866 620.052221357598
36.18878 611.984191121344
36.20889 632.000711355896
36.229 606
36.24912 619.074580867438
36.26923 716.087269640459
36.28934 708.921706560818
36.30946 681.01172948332
36.32957 690.986170601364
36.34968 685.019023678619
36.3698 696
36.38991 809.030819351832
36.41003 817.048990082918
36.43014 907.201475136965
36.45025 982.852856464105
36.47037 1003.07590446461
36.49048 934.002235451585
36.51059 988.991314448074
36.53071 931.963456547354
36.55082 884.96467284778
36.57094 845.91535768071
36.59105 804.91450773577
36.61116 758.165427454564
36.63128 681.004333302352
36.65139 723.002396798239
36.6715 654
36.69162 637.978880850919
36.71173 605.997065773264
36.73184 625.986685389938
36.75196 599.978482983031
36.77207 648.951479431525
36.79219 643.005781309622
36.8123 629
36.83241 574.995799054933
36.85253 615.056521149431
36.87264 624.00744112243
36.89275 637.960304067762
36.91287 646.998057438908
36.93298 632.038871802744
36.9531 592
36.97321 615.013768761603
36.99332 630.013093069033
37.01344 637.977409520965
37.03355 626.942405968571
37.05366 656.054255388767
37.07378 590.024323896899
37.09389 626.981180914549
37.11401 619.981656860923
37.13412 595.013649324376
37.15423 630.018138208362
37.17435 604.918887664119
37.19446 591.991147195384
37.21457 591.040171530077
37.23469 564.988850295547
37.2548 620
37.27491 601.996006525316
37.29503 627.043349259959
37.31514 622.909720988064
37.33526 576.000511313786
37.35537 607.001710091804
37.37548 561.039635930314
37.3956 570
37.41571 622.012517021011
37.43582 607.964028542206
37.45594 587.028872487635
37.47605 616.987576235312
37.49617 602.980011454415
37.51628 638.992798478033
37.53639 608.013510665388
37.55651 613.011631327519
37.57662 643.038445261321
37.59673 662.958209841229
37.61685 628.070250875002
37.63696 691.996127931911
37.65708 639.003307636582
37.67719 688.998941461222
37.6973 636
37.71742 662.976097398188
37.73753 603.016161450846
37.75764 685.094220825243
37.77776 656.081667351161
37.79787 653.964501454436
37.81798 668.018132268526
37.8381 635
37.85821 655.004988753233
37.87833 646.000814678771
37.89844 644.916084089656
37.91855 578.087760666124
37.93867 607.89155535087
37.95878 657.018486980338
37.97889 604.004968238256
37.99901 651.020079909676
38.01912 645.97447591679
38.03924 629.998545212852
38.05935 648.086522134948
38.07946 674.013049682347
38.09958 651.996816541146
38.11969 687.982275691279
38.1398 698
38.15992 694.013162076735
38.18003 700.945959504068
38.20015 641.938758543703
38.22026 683.834108045605
38.24037 733.053831741692
38.26049 664.997711572555
38.2806 735
38.30071 687.98521799501
38.32083 713.043983611956
38.34094 725.045159175613
38.36105 757.964092334104
38.38117 755.981610541769
38.40128 775.012737125832
38.4214 736
38.44151 747.006207293688
38.46162 754.02485773301
38.48174 783.997235939959
38.50185 748.092365471865
38.52196 726.047379027381
38.54208 692.035397570591
38.56219 664.009894920002
38.58231 640.98114041583
38.60242 605.997536501637
38.62253 644.085135615193
38.64265 675.960658606836
38.66276 627.088531489338
38.68287 608.014621540657
38.70299 599.998695418372
38.7231 600
38.74321 579.016568622856
38.76333 644.035144575688
38.78344 592.828634072913
38.80356 540.975466794062
38.82367 591.948643345056
38.84378 585.017652871435
38.8639 577
38.88401 563.994223757605
38.90412 567.024776868031
38.92424 581.932242970416
38.94435 531.983874649651
38.96447 593.934051699137
38.98458 585.023902824378
39.00469 570.009971290372
39.02481 547.996628215139
39.04492 555.002191165406
39.06503 555.028286159344
39.08515 585.030075551638
39.10526 576.008779340772
39.12538 588.982594732321
39.14549 597.999791023152
39.1656 593
39.18572 590.004161037528
39.20583 600.017098060275
39.22594 603.98399041088
39.24606 592.00635689663
39.26617 605.959864363246
39.28628 636.969610371692
39.3064 678
39.32651 745.012747674125
39.34663 751.073959714946
39.36674 838.110566917734
39.38685 827.108883250095
39.40697 818.906974084594
39.42708 902.978132840154
39.44719 841.041706515639
39.46731 781.975326364714
39.48742 729.949431785691
39.50754 681.906252910877
39.52765 627.833838091415
39.54776 561.095278347027
39.56788 538.010801582364
39.58799 530.999392544151
39.6081 524
39.62822 476.981145253857
39.64833 487.001560306407
39.66845 463.939322312321
39.68856 451.022350192457
39.70867 446.972343947368
39.72879 461.016444226771
39.7489 408
39.76901 454.01235672926
39.78913 435.981712109534
39.80924 453.042610744262
39.82935 468.936996725051
39.84947 479.067132315844
39.86958 411.018932974289
39.8897 453
39.90981 466.006430576056
39.92992 477.980643120517
39.95004 436.955771005347
39.97015 441.006204296044
39.99026 431.965500573478
40.01038 467.986230090742
40.03049 460.992830850435
40.05061 505.019620921246
40.07072 514.989769389751
40.09083 512.03386764202
40.11095 553.083796566506
40.13106 568.973723107697
40.15117 573.039970865674
40.17129 538.997927971537
40.1914 586
40.21152 595.970766700675
40.23163 578.066411561472
40.25174 639.967537593089
40.27186 551.118470814858
40.29197 554.004271632904
40.31208 529.991962357814
40.3322 573
40.35231 552.975893218379
40.37242 507.971648795472
40.39254 504.03098109948
40.41265 511.061379669785
40.43277 468.036947391717
40.45288 472.990524357112
40.47299 468.006634758027
40.49311 461.00390891221
40.51322 466.979008750175
40.53333 429.975248019893
40.55345 440.016504245451
40.57356 422.067172721702
40.59368 412.952735896563
40.61379 474.998765494242
40.6339 429
40.65402 461.995483332132
40.67413 412.968789681334
40.69424 438.032917463486
40.71436 428.00046358343
40.73447 440.014386968154
40.75458 426.96424936583
40.7747 490
40.79481 441.973427933202
40.81493 432.036089387403
40.83504 452.979596239668
40.85515 420.047120648079
40.87527 433.956494164667
40.89538 452.998744608947
40.91549 450.991597650179
40.93561 472.995569039194
40.95572 447.006631496984
40.97584 484.030638593044
40.99595 458.918687889586
41.01606 429.097790789912
41.03618 380.00716923899
41.05629 414.982223626017
41.0764 425
41.09652 431.015102095839
41.11663 455.044865229182
41.13675 464.916539425872
41.15686 418.013271004983
41.17697 457.94096886019
41.19709 456.018618248987
41.2172 413
41.23731 424.020085569314
41.25743 459.001785103208
41.27754 437.993231770314
41.29765 447.058347945176
41.31777 410.975503279124
41.33788 452.027406471499
41.358 371
41.37811 429.030720387406
41.39822 431.96179404713
41.41834 401.015614008491
41.43845 440.916136004966
41.45856 433.093259037536
41.47868 398.972114200256
41.49879 456.996787469811
41.51891 409.989727746298
41.53902 434.007294865624
41.55913 407.977832244577
41.57925 415.995589777204
41.59936 399.00996589231
41.61947 410.989736695684
41.63959 401.008166567094
41.6597 392
41.67982 408.030014957094
41.69993 433.000769203595
41.72004 406.929436958081
41.74016 384.010803462181
41.76027 397.954562748627
41.78038 426.98749953778
41.8005 414
41.82061 388.000423409441
41.84072 407.008198871702
41.86084 410.064042368028
41.88095 450.02028013968
41.90107 400.044250277483
41.92118 407.999441949954
41.94129 390.001260964494
41.96141 405.000252718331
41.98152 391.003417613164
42.00163 419.041625828967
42.02175 422.95237324456
42.04186 401.010343908341
42.06198 407.007821092277
42.08209 391.9951773943
42.1022 419
42.12232 390.967414079743
42.14243 377.000134544545
42.16254 394.082649313662
42.18266 439.95559715275
42.20277 430.034711558224
42.22289 414.003593435131
42.243 418
42.26311 447.02077022396
42.28323 491.053561251106
42.30334 520.066937468874
42.32345 560.902965233395
42.34357 587.979358190442
42.36368 599.977351807882
42.38379 626.993995165883
42.40391 618.993038966372
42.42402 608.989976004656
42.44414 596.976677827069
42.46425 580.932644352672
42.48436 547.058868603377
42.50448 526.019081530909
42.52459 498.020255393205
42.5447 460
42.56482 457.98448531815
42.58493 423.955488642358
42.60505 411.992541614591
42.62516 413.976522161089
42.64527 422.021200508074
42.66539 397.002881065362
42.6855 401
42.70561 357.995763992926
42.72573 386.022096225546
42.74584 361.922353270672
42.76595 346.939586614273
42.78607 381.001548578138
42.80618 345.025720769935
42.8263 356
42.84641 377.00221111787
42.86652 369.994879574578
42.88664 370.996346732497
42.90675 365.998735666324
42.92686 370.006330288815
42.94698 352.029521103755
42.96709 341.981150446891
42.98721 389.995977380887
43.00732 347.009265630288
43.02743 405.024080510765
43.04755 356.889750414415
43.06766 357.959595501688
43.08777 371.98761569367
43.10789 373.004200608659
43.128 367
43.14812 371.963529493116
43.16823 324.010413358457
43.18834 375.036163515913
43.20846 348.015077049284
43.22857 370.004200903104
43.24868 338.010875545146
43.2688 370
43.28891 383.981766098072
43.30902 335.998206829984
43.32914 374.027985303556
43.34925 348.045662431127
43.36937 352.009900317824
43.38948 339.979162735172
43.40959 379.996670986365
43.42971 354.998721809768
43.44982 385.01863210601
43.46993 372.972408368702
43.49005 369.018137836666
43.51016 370.038923021303
43.53028 335.03081671365
43.55039 336.977914417517
43.5705 388
43.59062 366.996562705541
43.61073 380.971176245685
43.63084 337.986987433634
43.65096 374.945862774805
43.67107 370.009689707875
43.69119 378.99466613138
43.7113 382
43.73141 387.007432446851
43.75153 400.996472184585
43.77164 376.929015068708
43.79175 342.078366806042
43.81187 330.964034212605
43.83198 365.993164117802
43.85209 340.012140409469
43.87221 349.019775108495
43.89232 389.012331568901
43.91244 374.977184552333
43.93255 378.001524173127
43.95266 375.976218457419
43.97278 393.003459299738
43.99289 365.015388368184
44.013 351
44.03312 357.002067318797
44.05323 369.066437855684
44.07335 407.932513574539
44.09346 333.086852375391
44.11357 351.948918136629
44.13369 358.009090959156
44.1538 336
44.17391 349.013665261797
44.19403 366.988249705815
44.21414 339.953888207802
44.23426 355.86624704486
44.25437 418.017660727349
44.27448 351.034103961786
44.2946 378
44.31471 369.988309735338
44.33482 363.020273890674
44.35494 381.956201510377
44.37505 327.099204012106
44.39516 335.912768451565
44.41528 375.988781064459
44.43539 360.008345818093
44.45551 359.002400786612
44.47562 359.997461260013
44.49573 353.985611081471
44.51585 351.035214442371
44.53596 378.944758906573
44.55607 387.026044932599
44.57619 365.998392922344
44.5963 392
44.61642 384.975966853575
44.63653 368.007709114595
44.65664 386.013205417725
44.67676 378.003370093856
44.69687 381.022140353346
44.71698 352.016737845791
44.7371 365
44.75721 386.992857879974
44.77732 359.005328004716
44.79744 398.051956601516
44.81755 390.041806553891
44.83767 375.041675281564
44.85778 357.967629339815
44.87789 409.998735630588
44.89801 362.986315275239
44.91812 392.053444247791
44.93823 432.029307238395
44.95835 422.901734860516
44.97846 380.034416643007
44.99858 386.998892530296
45.01869 375.001063999798
45.0388 387
45.05892 392.023396225063
45.07903 419.996409662716
45.09914 381.912050991538
45.11926 374.912178444146
45.13937 440.933244729938
45.15949 425.036195297938
45.1796 364
45.19971 433.017301349998
45.21983 405.957098317945
45.23994 414.046717783073
45.26005 438.916666408923
45.28017 452.065370907225
45.30028 394.989985317265
45.32039 453.995439835734
45.34051 402.988795345454
45.36062 436.027024166456
45.38074 435.019450459287
45.40085 455.984852407207
45.42096 423.042289875001
45.44108 432.977832841657
45.46119 450.992007313305
45.4813 469
45.50142 475.973149415354
45.52153 442.008041859755
45.54165 467.954277213615
45.56176 423.97195145558
45.58187 491.949034433396
45.60199 481.988205296357
45.6221 547
45.64221 534.99568715038
45.66233 554.029495111965
45.68244 567.050859003312
45.70256 605.933262653356
45.72267 610.046392546843
45.74278 571.013900812599
45.7629 564
45.78301 495.996917962656
45.80312 560.063875565703
45.82324 558.876806874289
45.84335 488.079535356805
45.86346 497.985261950675
45.88358 473.042275870836
45.90369 444.998197435686
45.92381 458.992968704275
45.94392 423.989872435207
45.96403 437.988046485092
45.98415 399.925352297153
46.00426 407.924365842718
46.02437 433.034272928029
46.04449 389.001370166941
46.0646 427
46.08472 420.032054551137
46.10483 465.958815411396
46.12494 383.939532612344
46.14506 414.013568567656
46.16517 363.007880591642
46.18528 415.966675619345
46.2054 406
46.22551 428.000284510078
46.24563 394.946456158621
46.26574 396.093869036291
46.28585 446.99280455375
46.30597 401.06563100653
46.32608 385.012982834928
46.34619 373.992463890073
46.36631 406.007639002024
46.38642 397.995363243115
46.40653 409.01844853038
46.42665 409.977984927926
46.44676 393.049260092249
46.46688 380.979040618061
46.48699 419.989390374126
46.5071 414
46.52722 422.013879341153
46.54733 421.963361137582
46.56744 395.006279615142
46.58756 431.91729594136
46.60767 443.038327804247
46.62779 409.00376417091
46.6479 418
46.66801 370.985085802357
46.68813 390.082361158316
46.70824 436.008501487117
46.72835 403.082231071342
46.74847 393.996837571302
46.76858 391.011430564948
46.78869 379.000561786443
46.80881 384.998985314449
46.82892 384.024158440878
46.84904 408.954061152407
46.86915 355.959191178586
46.88926 396.895558407476
46.90938 423.989817832172
46.92949 407.031483421251
46.9496 345
46.96972 407.038891234305
46.98983 390.963100479144
47.00995 386.999742231246
47.03006 380.015477282465
47.05017 384.962346624228
47.07029 411.998649181644
47.0904 387
47.11051 377.006189377157
47.13063 401.033274805367
47.15074 415.024509052502
47.17086 406.112011568537
47.19097 342.008948587935
47.21108 381.99225444031
47.2312 347
47.25131 383.017338320555
47.27142 388.996418731706
47.29154 383.965202879298
47.31165 360.032913741109
47.33176 370.937215598493
47.35188 401.98719808491
47.37199 395.005428082425
47.39211 390.998898435177
47.41222 383.986812707732
47.43233 377.019769718024
47.45245 403.043263976324
47.47256 397.045377635157
47.49267 378.001768975732
47.51279 391.993839658956
47.5329 394
47.55302 388.980120857884
47.57313 365.994373662585
47.59324 387.058233726404
47.61336 403.99891572344
47.63347 396.006974264408
47.65358 404.979019381232
47.6737 419
47.69381 396.998937894405
47.71393 410.992977595482
47.73404 382.95768078758
47.75415 386.955891960206
47.77427 397.011368288402
47.79438 395.960378194065
47.81449 443.006893793667
47.83461 385.992961191589
47.85472 428.025552688928
47.87483 411.983903054246
47.89495 423.006432800049
47.91506 410.011024175725
47.93518 416.998405061039
47.95529 410.998931101386
47.9754 427
47.99552 432.984772039359
48.01563 410.990117757377
48.03574 408.940024111183
48.05586 371.979310567688
48.07597 414.989796066609
48.09609 380.006646667003
48.1162 410
48.13631 404.981066062491
48.15643 363.974111846765
48.17654 379.059136113793
48.19665 397.999177826008
48.21677 383.028664914877
48.23688 364.02534421157
48.257 340
48.27711 356.016399805173
48.29722 378.993019396678
48.31734 348.948191016086
48.33745 350.060686477003
48.35756 374.987438674019
48.37768 362.013803287925
48.39779 359.99791940417
48.4179 359
48.43802 356.03121758504
48.45813 403.027625422705
48.47825 384.953493775182
48.49836 388.971574464254
48.51847 388.043796898133
48.53859 357.994873880992
48.5587 391
48.57881 339.973909368221
48.59893 321.004243998801
48.61904 341.087986957965
48.63916 389.946708076897
48.65927 383.038575601814
48.67938 358.019190588165
48.6995 352
48.71961 357.989765562198
48.73972 331.009263595649
48.75984 370.038775721042
48.77995 357.023085830716
48.80006 361.018753280235
48.82018 343.991902918141
48.84029 375.989181631787
48.86041 369.991500592336
48.88052 361.001628363345
48.90063 360.975442356869
48.92075 341.010281696855
48.94086 361.994182965844
48.96097 344.010323092653
48.98109 356.995221946699
49.0012 348
49.02132 329.98752230976
49.04143 325.00106534162
49.06154 340.079178675
49.08166 380.984534009964
49.10177 357.030256458216
49.12188 361.983862741214
49.142 375
49.16211 367.982265664753
49.18223 339.037763689207
49.20234 388.995560800074
49.22245 334.077219729022
49.24257 344.012566153959
49.26268 312.001143772088
49.28279 354.977207425202
49.30291 370.9974540707
49.32302 365.004649423011
49.34313 374.997711104348
49.36325 352.913688046173
49.38336 334.959391716291
49.40348 371.989829119628
49.42359 351.006545133707
49.4437 371
49.46382 394.987626605248
49.48393 357.95700918937
49.50404 357.027544631481
49.52416 368.987371690169
49.54427 368.009501425527
49.56439 362.999427106331
49.5845 370
49.60461 372.998939015014
49.62473 365.983240027438
49.64484 367.057935147417
49.66495 401.993633370086
49.68507 374.027623153819
49.70518 388.967812088283
49.7253 402
49.74541 365.001772348775
49.76552 398.000801123245
49.78564 356.938332983427
49.80575 363.046052606317
49.82586 381.936982949552
49.84598 421.968695511738
49.86609 434.000724017259
49.8862 444
49.90632 502.043594374539
49.92643 517.004739684166
49.94655 539.135784294398
49.96666 606.904846262513
49.98677 643.898048022058
50.00689 746.950924467572
50.027 816
50.04711 881.045270599592
50.06723 939.93244797987
50.08734 848.986947492097
50.10746 922.959914059349
50.12757 827.209210489024
50.14768 727.047079879683
50.1678 720
50.18791 702.971491652528
50.20802 633.963224872499
50.22814 630.978733005006
50.24825 591.121391549862
50.26837 542.090507984243
50.28848 477.050310575373
50.30859 457.994638279924
50.32871 467.990216865661
50.34882 416.945046548259
50.36893 379.965152777903
50.38905 375.056685071653
50.40916 401.009677262846
50.42927 368.036575184313
50.44939 377.983215380983
50.4695 399
50.48962 366.000480711343
50.50973 392.996723321143
50.52984 362.998099635273
50.54996 386.029850549961
50.57007 340.012059226258
50.59018 382.962249154387
50.6103 379
50.63041 361.001252393157
50.65053 378.020236452016
50.67064 374.970395439732
50.69075 358.034512476053
50.71087 353.988730648744
50.73098 366.989469791049
50.75109 369.002417048964
50.77121 365.001431389307
50.79132 366.987412806572
50.81143 348.999518747361
50.83155 368.042528832031
50.85166 369.016176429515
50.87178 358.014570579118
50.89189 348.996661018453
50.912 368
50.93212 368.982339167027
50.95223 349.998834607542
50.97234 364.011970292114
50.99246 357.004488259707
51.01257 362.999980926806
51.03269 351.007821824113
51.0528 346
51.07291 369.011009884008
51.09303 373.97540412819
51.11314 348.967519327807
51.13325 347.990465405959
51.15337 357.958149899175
51.17348 385.005067710498
51.1936 352
51.21371 353.00547015181
51.23382 346.966596848193
51.25394 306.970634523474
51.27405 320.963716130873
51.29416 330.943541735448
51.31428 358.017155886154
51.33439 311.009543043497
51.3545 332
51.37462 318.979716152775
51.39473 314.017521530804
51.41485 330.016147902557
51.43496 324.015367674941
51.45507 334.941275373423
51.47519 375.996949992258
51.4953 337
51.51541 302.001522814262
51.53553 329.032228658349
51.55564 329.988857115041
51.57576 329.992496424714
51.59587 334.991751719773
51.61598 336.007826453199
51.6361 323
51.65621 331.01638755681
51.67632 354.974356750886
51.69644 303.978132478604
51.71655 338.946249704123
51.73667 322.031997598388
51.75678 322.983938992171
51.77689 336.999100219082
51.79701 333.0033205687
51.81712 342.989567279066
51.83723 322.00326484717
51.85735 341.997216546317
51.87746 318.0192423492
51.89757 328.003109280966
51.91769 310.002914498527
51.9378 328
51.95792 339.993841197671
51.97803 322.976396938128
51.99814 322.030920986991
52.01826 337.008777399248
52.03837 318.014950995946
52.05848 332.967809961477
52.0786 355
52.09871 320.982859876687
52.11883 305.999020070913
52.13894 305.984303305676
52.15905 304.927724771717
52.17917 352.95154973764
52.19928 356.005718449029
52.21939 352.006187554781
52.23951 325.982845032692
52.25962 310.024305796326
52.27974 349.011657473182
52.29985 325.999369093821
52.31996 344.039238875168
52.34008 301.992837091053
52.36019 347.99866137168
52.3803 308
52.40042 354.014518667061
52.42053 326.997272137222
52.44064 362.033859818301
52.46076 345.024167266303
52.48087 356.975279774195
52.50099 357.009001836803
52.5211 341
52.54121 370.012733800057
52.56133 364.942742345348
52.58144 323.979610244954
52.60155 348.922468384862
52.62167 363.991869524417
52.64178 358.025726387901
52.6619 328
52.68201 334.998261168345
52.70212 317.99388058872
52.72224 331.032220335045
52.74235 332.041246996918
52.76246 314.995788521511
52.78258 339.968291916368
52.80269 361.994337325532
52.8228 364
52.84292 351.980165042654
52.86303 344.037527734103
52.88315 383.031115442138
52.90326 356.077723519806
52.92337 338.982308656317
52.94349 361.995314086038
52.9636 348
52.98371 331.995335506515
53.00383 335.031427440403
53.02394 363.036302655392
53.04406 363.020028673995
53.06417 353.011995680419
53.08428 345.011740267825
53.1044 339
53.12451 361.003361486949
53.14462 344.977759258479
53.16474 337.021328144377
53.18485 353.984139033012
53.20497 356.964716128445
53.22508 388.996091139195
53.24519 372.99562102728
53.26531 394.98942338286
53.28542 351.010081239727
53.30553 410.038854075355
53.32565 376.90874139515
53.34576 373.974436539048
53.36587 382.994786482619
53.38599 387.992427917785
53.4061 399
53.42622 380.026330050689
53.44633 437.036988988931
53.46644 410.934344825622
53.48656 392.05473272583
53.50667 362.00541727957
53.52678 395.946515775661
53.5469 428
53.56701 388.989625249326
53.58713 412.073157268457
53.60724 443.979576244429
53.62735 402.093600129943
53.64747 395.974564009594
53.66758 418.979817290715
53.68769 428.999576672838
53.70781 425.998677808153
53.72792 428.006763610623
53.74804 425.951080114396
53.76815 406.063338921959
53.78826 461.939468562113
53.80838 444.033357970205
53.82849 415.018514970149
53.8486 388
53.86872 434.036354824713
53.88883 446.019826459326
53.90894 473.054555669449
53.92906 484.018020666389
53.94917 453.07654282442
53.96929 419.988904115091
53.9894 465
54.00951 426.002012328569
54.02963 483.059729968843
54.04974 467.923260730319
54.06985 445.991631505485
54.08997 463.980126390239
54.11008 476.963794344067
54.1302 507
54.15031 440.987901046563
54.17042 480.04624733703
54.19054 489.970638712231
54.21065 479.968905376491
54.23076 506.968654360029
54.25088 491.042078757956
54.27099 467.981834443909
54.29111 531.007960440774
54.31122 496.986354450669
54.33133 521.013513289605
54.35145 488.883617307914
54.37156 468.955762029239
54.39167 510.964021705549
54.41179 510.996245352966
54.4319 516
54.45201 468.010277315253
54.47213 537.029447589444
54.49224 489.931949968938
54.51236 499.987937316292
54.53247 477.043115127646
54.55258 473.968711578283
54.5727 523
54.59281 529.986494224044
54.61292 501.001662100933
54.63304 533.058963804048
54.65315 555.889785717965
54.67327 593.040790996498
54.69338 531.009475749826
54.71349 587.975080593252
54.73361 596.002094025318
54.75372 621.032017959886
54.77383 641.003037284067
54.79395 632.988997510971
54.81406 640.968990179709
54.83417 645.03273308281
54.85429 611.008778419481
54.8744 614
54.89452 591.962875476358
54.91463 566.008658574607
54.93474 585.992606911063
54.95486 569.958168474754
54.97497 606.030323170057
54.99508 549.002296822768
55.0152 601
55.03531 550.975900741927
55.05543 556.066823158624
55.07554 589.972884354405
55.09565 539.101654518751
55.11577 538.963609851614
55.13588 552.017711804125
55.15599 526.994542906676
55.17611 570.013824305313
55.19622 564.991787563245
55.21634 565.986570300911
55.23645 564.08018613058
55.25656 603.022472479386
55.27668 544.04700459558
55.29679 550.97802476468
55.3169 576
55.33702 507.961314032446
55.35713 522.040893837204
55.37724 518.924661438241
55.39736 478.015228389744
55.41747 511.928638044195
55.43759 525.021201211347
55.4577 447
55.47781 428.020105620263
55.49793 500.103893834047
55.51804 515.89013397626
55.53815 432.129540294008
55.55827 435.963956098019
55.57838 448.993686472075
55.5985 447
55.61861 428.999834270844
55.63872 450.026760247725
55.65884 459.971491227128
55.67895 430.072863139193
55.69906 418.982592857706
55.71918 424.023736188845
55.73929 393.994129238768
55.75941 446.021144112237
55.77952 449.986110909223
55.79963 442.001991627822
55.81975 460.096419093824
55.83986 483.066437524019
55.85997 411.078104287692
55.88009 420.971932283345
55.9002 474
55.92031 441.972445990012
55.94043 401.985245120511
55.96054 414.022182865519
55.98066 415.985619873444
56.00077 440.939114437798
56.02088 460.038237424616
56.041 402
56.06111 448.00864825884
56.08122 406.949275932898
56.10134 394.049157124946
56.12145 429.948039409841
56.14157 414.072341698883
56.16168 375.988884915715
56.18179 419.989295014268
56.20191 402.991964394094
56.22202 414.025083606396
56.24213 433.007923688069
56.26225 427.988702964032
56.28236 426.016040343226
56.30248 421.981251422658
56.32259 444.006671033596
56.3427 400
56.36282 397.999826900718
56.38293 405.069856726107
56.40304 461.004242193399
56.42316 410.079524207376
56.44327 408.0013891792
56.46338 389.019172568207
56.4835 395
56.50361 433.999133278752
56.52373 402.987955291336
56.54384 420.990620188304
56.56395 397.970283340056
56.58407 437.988313020876
56.60418 410.006976814746
56.62429 431.998965627628
56.64441 393.975504306795
56.66452 373.017895352911
56.68464 422.122370210418
56.70475 447.902530676278
56.72486 383.042781455617
56.74498 418.961569161749
56.76509 425.003488974644
56.7852 419
56.80532 400.977252438259
56.82543 386.004493990293
56.84554 393.979902463765
56.86566 369.026664720485
56.88577 383.949465167701
56.90589 414.992115457805
56.926 410
56.94611 377.975120508264
56.96623 351.063233623281
56.98634 422.025733877979
57.00645 366.121202762052
57.02657 367.969973147081
57.04668 390.957120627163
57.0668 431
57.08691 392.988747754626
57.10702 403.010135199828
57.12714 389.945805688907
57.14725 371.985399154146
57.16736 402.914777623442
57.18748 427.012136622416
57.20759 385.023794888706
57.22771 361.002757767646
57.24782 393.049477863299
57.26793 414.936504837131
57.28805 348.970582384401
57.30816 389.970259160927
57.32827 354.049268521915
57.34839 353.995536851905
57.3685 355
57.38861 359.002861378155
57.40873 365.010335519818
57.42884 363.963194276052
57.44896 344.985761699138
57.46907 370.983550820424
57.48918 362.99710675725
57.5093 380
57.52941 361.988568867681
57.54952 356.015620285836
57.56964 374.998425843379
57.58975 348.09018091174
57.60987 341.92989805312
57.62998 400.993011348879
57.65009 355.017786395204
57.67021 360.006435807957
57.69032 359.998936875955
57.71043 352.955686092346
57.73055 321.006924680716
57.75066 359.92170640834
57.77078 371.010384522423
57.79089 357.003222912298
57.811 361
57.83112 368.014107046764
57.85123 379.990996080213
57.87134 369.025610684891
57.89146 394.007110973732
57.91157 360.038370317771
57.93168 366.974867127017
57.9518 389
57.97191 379.983766624927
57.99203 333.931185995828
58.01214 319.068157822974
58.03225 375.913814335145
58.05237 372.021261089255
58.07248 363.016505791808
58.09259 350.991231133729
58.11271 375.992514771084
58.13282 335.997466660881
58.15294 373.032681612099
58.17305 351.961280929231
58.19316 358.992297963839
58.21328 354.990894134952
58.23339 376.993303335941
58.2535 372
58.27362 360.986484234466
58.29373 350.000456524119
58.31385 358.008535428843
58.33396 354.004074341819
58.35407 356.001853699715
58.37419 352.997986177415
58.3943 367
58.41441 374.994920967681
58.43453 363.01614698085
58.45464 378.95830281953
58.47475 334.034121039447
58.49487 366.940368967092
58.51498 367.046825343379
58.5351 320
58.55521 370.012869910325
58.57532 350.981932227371
58.59544 351.985738318617
58.61555 336.987885346377
58.63566 363.952914327453
58.65578 373.988475515075
58.67589 380.010932088136
58.69601 343.99324611589
58.71612 352.995390318473
58.73623 335.007501398556
58.75635 365.051555710879
58.77646 370.960652180401
58.79657 386.055207917909
58.81669 319.01361223223
58.8368 342
58.85691 330.001434719051
58.87703 358.033073223175
58.89714 356.97869917794
58.91726 351.994691641589
58.93737 360.981959065648
58.95748 368.003005398725
58.9776 352
58.99771 337.008878438065
59.01782 374.021512949489
59.03794 373.007091873365
59.05805 386.99243400969
59.07817 371.032427242522
59.09828 361.991168495417
59.11839 365.015844623015
59.13851 324.002322943819
59.15862 373.037149690087
59.17873 368.971323144618
59.19885 352.948970995921
59.21896 335.995210039174
59.23908 362.959203745573
59.25919 392.997747062384
59.2793 376
59.29942 371.009608742725
59.31953 383.003634851797
59.33964 375.991078363307
59.35976 373.028654677548
59.37987 350.023596420369
59.39998 356.970620544288
59.4201 383
59.44021 370.011526337489
59.46033 418.023548021829
59.48044 385.922987402643
59.50055 378.945207195942
59.52067 402.997457327395
59.54078 389.995698592435
59.56089 409.999052883197
59.58101 395.001563569455
59.60112 415.000598406046
59.62124 400.018675735108
59.64135 429.010307588117
59.66146 419.932808862352
59.68158 482.977532085722
59.70169 458.004916087283
59.7218 483
59.74192 485.023184453285
59.76203 529.041863664926
59.78215 548.132939746456
59.80226 626.897560800074
59.82237 638.980820522696
59.84249 681.969138225954
59.8626 741
59.88271 761.999093324015
59.90283 741.948188007317
59.92294 708.963493768876
59.94305 692.103147522494
59.96317 628.086995333657
59.98328 603.989550799755
60.0034 612
60.02351 555.986635529998
60.04362 564.998473283514
60.06374 539.969951317101
60.08385 548.965408432982
60.10396 536.104273776629
60.12408 472.03476100869
60.14419 464.011944122699
60.16431 419.987583221953
60.18442 436.039791238883
60.20453 451.941679632517
60.22465 384.908011863583
60.24476 400.932150619487
60.26487 413.022865049915
60.28499 382.014724837423
60.3051 363
60.32522 353.007700924334
60.34533 366.996089711561
60.36544 360.047093083642
60.38556 393.028231147902
60.40567 341.035988013727
60.42578 363.976789253482
60.4459 367
60.46601 375.98870106337
60.48612 336.991985157541
60.50624 364.038027155387
60.52635 363.969060683052
60.54647 376.049320099794
60.56658 330.979081379281
60.58669 403.98379195692
60.60681 366.978514108768
60.62692 359.005312982371
60.64703 354.978815729105
60.66715 343.008535147431
60.68726 357.981261304855
60.70738 355.005162845194
60.72749 349.007780782852
60.7476 341
60.76772 379.002453801966
60.78783 345.968834326703
60.80794 357.030417022022
60.82806 359.996620193983
60.84817 357.033056109385
60.86828 331.99700005551
60.8884 353
60.90851 335.00714044164
60.92863 369.9935819045
60.94874 324.945169740349
60.96885 343.9096195247
60.98897 363.005688975614
61.00908 357.979045758739
61.02919 393.993812681947
61.04931 366.978242948552
61.06942 341.003556206998
61.08954 364.040905128599
61.10965 363.957765723738
61.12976 354.959646891107
61.14988 381.013032334593
61.16999 341.004824454423
61.1901 382
61.21022 408.994462112855
61.23033 379.942275639591
61.25045 357.010823024084
61.27056 373.993438161845
61.29067 366.981568352653
61.31079 382.014359507313
61.3309 332
61.35101 376.008968833972
61.37113 361.024823319716
61.39124 403.999495868024
61.41135 362.030934727776
61.43147 396.956736135505
61.45158 407.965643307497
61.4717 447
61.49181 388.988829137267
61.51192 422.032090000078
61.53204 418.966759200037
61.55215 410.995961706574
61.57226 421.961635353321
61.59238 435.006752894172
61.61249 424.991563063655
61.63261 463.011366989417
61.65272 454.981622488565
61.67283 450.018021826121
61.69295 456.940705845241
61.71306 431.941937642947
61.73317 496.959397550505
61.75329 466.017695065314
61.7734 465
61.79352 480.00097964282
61.81363 477.019233640663
61.83374 491.967222797518
61.85386 469.936402019023
61.87397 532.982538389776
61.89408 491.015212294576
61.9142 536
61.93431 554.987187299484
61.95442 527.017691265457
61.97454 576.035416120538
61.99465 560.968028901905
62.01477 611.942557280066
62.03488 610.019549347049
62.05499 603.991960017233
62.07511 626.001451548093
62.09522 616.008074915828
62.11533 646.036934823502
62.13545 652.001929945347
62.15556 656.989896517679
62.17568 655.012052173776
62.19579 639.005260781068
62.2159 639
62.23602 655.032855178722
62.25613 674.954470633004
62.27624 609.907746253439
62.29636 609.958157206558
62.31647 611.051514734441
62.33659 563.011782754331
62.3567 571
62.37681 573.008391449754
62.39693 591.979559290243
62.41704 551.949534773735
62.43715 551.01914447
62.45727 524.041150956365
62.47738 509.007994769916
62.49749 504.998670188006
62.51761 501.988211630272
62.53772 469.987140390319
62.55784 480.018924565389
62.57795 475.981988643865
62.59806 474.991152422526
62.61818 477.007470633717
62.63829 446.030516718244
62.6584 399
62.67852 472.063156735645
62.69863 470.914620071959
62.71875 410.9557321465
62.73886 430.982944907776
62.75897 408.037949626815
62.77909 399.001443718939
62.7992 410
62.81931 450.993453629869
62.83943 408.005376392573
62.85954 445.968451591299
62.87965 380.05915618667
62.89977 415.968441465974
62.91988 404.985748947915
62.94 447
62.96011 420.988127217059
62.98022 413.982226012648
63.00034 400.064399245362
63.02045 449.016829503303
63.04056 388.082394391955
63.06068 398.978127015348
63.08079 401.003777042038
63.10091 401.00717623373
63.12102 419.003885834507
63.14113 412.004305635959
63.16125 419.969136839079
63.18136 388.04980841529
63.20147 384.988379756281
63.22159 389.001578044373
63.2417 391
63.26182 420.004406276761
63.28193 407.010791319217
63.30204 422.951768753622
63.32216 370.041513036147
63.34227 388.990879276216
63.36238 365.018324686137
63.3825 377
63.40261 408.010653463864
63.42272 411.987866689391
63.44284 399.000693047948
63.46295 411.97334077036
63.48307 405.037674805981
63.50318 382.996657506209
63.52329 401.998672468111
63.54341 391.004996985405
63.56352 417.002216555922
63.58363 399.007342275975
63.60375 425.005610844204
63.62386 404.992087907855
63.64398 432.99420079727
63.66409 401.019486321277
63.6842 384
63.70432 398.01462138041
63.72443 410.022892652113
63.74454 417.967998759441
63.76466 391.015559885311
63.78477 411.955898543341
63.80489 425.004173024408
63.825 405
63.84511 411.016978261053
63.86523 448.014032598418
63.88534 421.92230051326
63.90545 402.970410439407
63.92557 430.972222522252
63.94568 435.987325934116
63.96579 457.994332929545
63.98591 454.99937308664
64.00602 456.990720890436
64.02614 440.993096371603
64.04625 434.893661513369
64.06636 382.004496521252
64.08648 425.974974358101
64.10659 408.01007450912
64.1267 413
64.14682 416.979876200335
64.16693 394.010440091533
64.18705 422.018480584828
64.20716 392.084585601468
64.22727 361.030106741015
64.24739 351.998458270495
64.2675 358
64.28761 354.003964525994
64.30773 389.093261034486
64.32784 432.958308699859
64.34796 364.105684452945
64.36807 362.964256666487
64.38818 375.009750214739
64.4083 357
64.42841 363.993680601048
64.44852 344.014337368129
64.46864 374.976399969771
64.48875 337.962614900721
64.50886 389.012435594957
64.52898 330.013231973184
64.54909 379.983971701499
64.56921 353.978355906216
64.58932 336.009877546907
64.60943 363.046141843639
64.62955 374.958439375107
64.64966 342.053443189575
64.66977 336.984438983133
64.68989 347.998482756645
64.71 344
64.73012 350.009332233907
64.75023 354.995625763754
64.77034 343.968700952484
64.79046 337.970454480568
64.81057 363.975554944701
64.83068 361.011188136985
64.8508 354
64.87091 350.993384619772
64.89102 329.982619368323
64.91114 333.058268292973
64.93125 363.994666386883
64.95137 333.056699487942
64.97148 306.024031085171
64.99159 305.973360763285
65.01171 378.012814295635
65.03182 348.972361497633
65.05193 341.966335879706
65.07205 312.01727813634
65.09216 354.933202037922
65.11228 347.036288427998
65.13239 317.000767000067
65.1525 337
65.17262 330.99336059935
65.19273 337.021212967127
65.21284 340.959771935581
65.23296 313.010251947704
65.25307 340.938785548169
65.27319 362.005942268756
65.2933 338
65.31341 351.995263370092
65.33353 325.001795259246
65.35364 351.003926492806
65.37375 329.985273152948
65.39387 365.97130091974
65.41398 339.055356761335
65.43409 310.980899119189
65.45421 370.998901317182
65.47432 313.979327900437
65.49444 355.074839990437
65.51455 355.990038208247
65.53466 353.054624790385
65.55478 311.020892013071
65.57489 328.980444116686
65.595 362
65.61512 352.96602201492
65.63523 318.986364361772
65.65535 347.131824899635
65.67546 386.004272223812
65.69557 355.031083476287
65.71569 354.005317853522
65.7358 329
65.75591 335.005651467652
65.77603 348.038795635847
65.79614 365.95555057918
65.81626 325.010741380018
65.83637 355.978761865126
65.85648 335.02120924164
65.8766 332
65.89671 331.00661750779
65.91682 346.992840657571
65.93694 329.018763698905
65.95705 360.971868671001
65.97716 332.090959344968
65.99728 306.990471952752
66.01739 340.982980257131
66.03751 344.983862576265
66.05762 306.993562645442
66.07773 334.038076713567
66.09785 328.925940304623
66.11796 311.945213066023
66.13807 355.99883096808
66.15819 322.998632916411
66.1783 359
66.19842 314.984695060717
66.21853 342.020364049821
66.23864 326.9932235326
66.25876 348.958694355911
66.27887 345.038407265812
66.29898 325.986781027133
66.3191 355
66.33921 327.991602477071
66.35933 331.994283786706
66.37944 323.034068639616
66.39955 351.019264436555
66.41967 318.99727522808
66.43978 351.996828354892
66.45989 314.014617153233
66.48001 330.024038883963
66.50012 360.977141466865
66.52023 314.997596005358
66.54035 358.051667803657
66.56046 338.02499231896
66.58058 354.979703354161
66.60069 352.013453551175
66.6208 321
66.64092 334.029551575429
66.66103 360.018435965729
66.68114 352.955693474642
66.70126 331.020066690895
66.72137 335.982334920491
66.74149 348.991691593692
66.7616 358
66.78171 328.987010105643
66.80183 325.02710646979
66.82194 348.020991833075
66.84205 345.001025253192
66.86217 353.986556774915
66.88228 356.999609018331
66.90239 354.00525471663
66.92251 338.993971464255
66.94262 337.008027318117
66.96274 344.995725961099
66.98285 341.030992740005
67.00296 354.041026571895
67.02308 317.001977615315
67.04319 351.988862030167
67.0633 337
67.08342 321.997763796943
67.10353 329.018758064884
67.12365 342.029835116034
67.14376 346.019052166611
67.16387 331.01006013381
67.18399 344.983366818891
67.2041 375
67.22421 366.004886362997
67.24433 394.019109419214
67.26444 377.94969582537
67.28456 362.014946670488
67.30467 360.993209510458
67.32478 365.001710785359
67.3449 362
67.36501 379.011080986728
67.38512 384.97462297482
67.40524 341.937587389672
67.42535 342.937874146597
67.44546 376.927441474011
67.46558 395.014703043529
67.48569 379.984181706713
67.50581 438.008160873806
67.52592 420.02233060706
67.54603 481.034419134893
67.56615 457.997439309152
67.58626 501.912900099735
67.60637 519.982623329839
67.62649 535.994188435039
67.6466 548
67.66672 578.011669750336
67.68683 556.931733161489
67.70694 518.988456495785
67.72706 533.006003691692
67.74717 508.022582431269
67.76728 507.01449095258
67.7874 477
67.80751 481.007293600446
67.82763 502.053588317133
67.84774 541.043357581043
67.86785 531.089380428263
67.88797 495.023804466696
67.90808 504.978567381654
67.92819 523.991670655019
67.94831 536.002235776869
67.96842 539.010227737383
67.98853 550.999118232172
68.00865 554.09228854265
68.02876 612.924935055128
68.04888 623.978661590993
68.06899 654.998771173964
68.0891 635
68.10922 666.023360821762
68.12933 645.906104993578
68.14944 583.964255536328
68.16956 621.87581886839
68.18967 661.001387857785
68.20979 641.000675738238
68.2299 649
68.25001 602.001516204106
68.27013 649.026201215842
68.29024 601.853137165345
68.31035 553.0245859546
68.33047 545.085119214619
68.35058 466.022551949499
68.3707 496
68.39081 452.991228627327
68.41092 473.001325688648
68.43104 437.934588365604
68.45115 430.003426499136
68.47126 421.046607158947
68.49138 382.051257665916
68.51149 357.979850671818
68.5316 416
68.55172 348.967455179557
68.57183 378.038674905411
68.59195 373.002203913741
68.61206 384.022687811762
68.63217 342.071947859548
68.65229 325.984979206921
68.6724 366
68.69251 339.005803915654
68.71263 382.003109205021
68.73274 339.965302570699
68.75286 368.943421972806
68.77297 364.036393426405
68.79308 348.990854114065
68.8132 366
68.83331 342.999462723104
68.85342 370.022819639916
68.87354 364.950662734059
68.89365 337.055857986322
68.91376 334.950509536367
68.93388 365.990321583505
68.95399 351.007791347127
68.97411 353.006925686935
68.99422 359.987010758427
69.01433 329.954015373159
69.03445 326.085759675854
69.05456 371.96293430689
69.07467 351.051284309688
69.09479 325.011009467018
69.1149 318
69.13502 359.028510333072
69.15513 359.981140633368
69.17524 340.935943421522
69.19536 312.998722156446
69.21547 332.991178610373
69.23558 318.009091411365
69.2557 319
69.27581 309.013844814729
69.29593 355.012115195888
69.31604 320.950849118201
69.33615 326.9833320761
69.35627 322.993980657223
69.37638 341.978020435212
69.39649 351.004171685229
69.41661 331.990800285494
69.43672 321.995409907819
69.45683 323.014890692732
69.47695 334.001811516756
69.49706 324.019604205048
69.51718 327.97938368098
69.53729 346.003533699593
69.5574 318
69.57752 319.014990147913
69.59763 320.956596269702
69.61774 293.046110432895
69.63786 343.989841394471
69.65797 311.98057020075
69.67809 363.000312982508
69.6982 301
69.71831 322.025542000889
69.73843 353.995477536683
69.75854 324.939349281742
69.77865 317.957774387204
69.79877 335.010925903854
69.81888 316.990575381765
69.839 356
69.85911 353.986306102114
69.87922 332.005841361839
69.89934 361.05009436842
69.91945 362.965732991801
69.93956 342.05343668789
69.95968 329.977676817168
69.97979 360.004502714034
69.9999 318
70.02002 338.031382491684
70.04013 344.965417711513
70.06025 314.98018764547
70.08036 328.985891140393
70.10047 329.963357690556
70.12059 367.994281090927
70.1407 347
70.16081 341.994246207892
70.18093 322.990645063521
70.20104 328.995545002663
70.22116 317.005357037778
70.24127 331.967091329684
70.26138 344.004492956511
70.2815 330
70.30161 342.018962293765
70.32172 363.959587407092
70.34184 302.008420171787
70.36195 365.926850247043
70.38207 325.079006943816
70.40218 307.991681639191
70.42229 325.988872166985
70.44241 341.000571698914
70.46252 328.982087329982
70.48263 313.984872110816
70.50275 310.003976592433
70.52286 306.040022850532
70.54297 284.994145050346
70.56309 311.988962068055
70.5832 322
70.60332 345.003483755045
70.62343 327.97841588627
70.64354 330.018806261806
70.66366 334.010625243308
70.68377 327.991273417163
70.70388 340.997154394678
70.724 330
70.74411 325.998516549565
70.76423 315.971812003997
70.78434 309.054870746554
70.80445 348.981723309021
70.82457 323.022598490675
70.84468 325.018767167536
70.86479 292.001144454516
70.88491 320.006438143475
70.90502 302.983493192036
70.92513 308.0261403345
70.94525 319.993845933763
70.96536 304.038813857721
70.98548 299.979485495307
71.00559 330.991091168765
71.0257 333
71.04582 341.987947429118
71.06593 311.967958124484
71.08604 306.986286468052
71.10616 301.962175139519
71.12627 341.946561364693
71.14639 348.012001843813
71.1665 322
71.18661 349.011910925503
71.20673 350.985633601214
71.22684 337.963228364705
71.24695 329.948965996023
71.26707 354.023266038976
71.28718 306.029704029406
71.3073 313
71.32741 316.006170912382
71.34752 340.019474530795
71.36764 343.986526439462
71.38775 334.025833967073
71.40786 328.99320622826
71.42798 332.009296782764
71.44809 312.008445426698
71.4682 315
71.48832 351.02885732909
71.50843 345.92624209444
71.52855 286.941591234244
71.54866 311.917778875704
71.56877 337.983414808842
71.58889 335.008278629329
71.609 316
71.62911 325.014264770045
71.64923 347.987716652716
71.66934 318.972179255308
71.68946 334.950244926372
71.70957 341.029970095504
71.72968 318.992557813262
71.7498 350
71.76991 334.986360833139
71.79002 327.02362912311
71.81014 349.955074756155
71.83025 298.050073110698
71.85037 324.957771774917
71.87048 320.026862158116
71.89059 298.999113191342
71.91071 320.009844648775
71.93082 326.000005634646
71.95093 330.015221717943
71.97105 345.040413196839
71.99116 350.030246144664
72.01127 328.009703446317
72.03139 330.009422416005
72.0515 307
72.07162 346.992680970373
72.09173 301.992295025962
72.11184 342.026654101827
72.13196 315.018465783741
72.15207 345.946642436488
72.17218 359.001671246975
72.1923 354
72.21241 348.995780117484
72.23253 342.004328551986
72.25264 343.963998217186
72.27275 318.998502569577
72.29287 342.980958123594
72.31298 330.018426707017
72.33309 329.988898340045
72.35321 356.003569320024
72.37332 331.955106706564
72.39344 304.034583552492
72.41355 350.074694020125
72.43366 345.02904997971
72.45378 342.992801323773
72.47389 354.99223749373
72.494 364
72.51412 347.990090888906
72.53423 352.01578277123
72.55434 363.025239654996
72.57446 361.068000993189
72.59457 321.00289549813
72.61469 349.995733778552
72.6348 329
72.65491 348.009356926974
72.67503 348.989639170283
72.69514 347.011898879661
72.71525 356.982744024251
72.73537 357.005675795094
72.75548 357.988768583608
72.7756 364
72.79571 335.000680854235
72.81582 361.005979007188
72.83594 347.020916397095
72.85605 383.948542256887
72.87616 361.102188835309
72.89628 320.00705723011
72.91639 336.996249393627
72.9365 330
72.95662 350.003555601176
72.97673 340.012886678823
72.99685 377.107232048595
73.01696 398.014551235771
73.03707 372.043474731046
73.05719 352.007056209899
73.0773 349
73.09741 374.006377909578
73.11753 370.996785880667
73.13764 379.021638945962
73.15776 385.992887928165
73.17787 385.010837492833
73.19798 375.007446519539
73.2181 384
73.23821 421.004347313473
73.25832 401.984863302042
73.27844 406.014321994312
73.29855 405.011357430844
73.31867 410.961185023083
73.33878 447.970757492481
73.35889 447.017652464544
73.37901 419.012780937061
73.39912 474.01376076589
73.41923 432.941320778949
73.43935 435.066384161382
73.45946 452.020831722777
73.47957 413.076000610661
73.49969 386.990458204591
73.5198 429
73.53992 429.018486038719
73.56003 456.981671823012
73.58014 402.904819196107
73.60026 392.976601090942
73.62037 413.94923754402
73.64048 429.039624280697
73.6606 361
73.68071 375.00568518727
73.70083 374.039809891093
73.72094 415.004132429596
73.74105 374.086268521121
73.76117 359.046458163862
73.78128 330.96990295236
73.80139 399.983672650627
73.82151 367.974926682401
73.84162 351.021817375211
73.86174 374.967598250579
73.88185 332.972156067963
73.90196 356.985863968668
73.92208 326.037989416278
73.94219 317.985753598679
73.9623 357
73.98242 350.001261069075
74.00253 358.976830050291
74.02264 323.965449863387
74.04276 335.968333976247
74.06287 336.01535255765
74.08299 332.991896571815
74.1031 352
74.12321 330.001199346049
74.14333 362.040816370394
74.16344 364.986090259583
74.18355 355.050350548551
74.20367 337.989356978093
74.22378 357.999458885086
74.2439 345
74.26401 381.010522419349
74.28412 374.993518317587
74.30424 372.962003340307
74.32435 347.002378095582
74.34446 363.013789786749
74.36458 334.009976877168
74.38469 351.993064302438
74.40481 346.996658522084
74.42492 346.997972896742
74.44503 338.986321752834
74.46515 335.006782200826
74.48526 347.950081396776
74.50537 373.979461741419
74.52549 369.008457801714
74.5456 354
74.56571 350.992953304093
74.58583 325.967676434276
74.60594 324.039663275297
74.62606 343.014227703106
74.64617 329.960510470378
74.66628 377.994012466532
74.6864 338
74.70651 342.997014474244
74.72662 319.996206283974
74.74674 343.042558334633
74.76685 353.950244223665
74.78697 373.017414205522
74.80708 343.006077617897
74.82719 368.988087295354
74.84731 357.977771118895
74.86742 325.022714881177
74.88753 377.015791558303
74.90765 339.948960660706
74.92776 360.953267185981
74.94787 364.997673345275
74.96799 364.01030591219
74.9881 335
75.00822 359.040123208166
