3.00117 21473
3.02128 20905
3.0414 20237
3.06151 19917
3.08162 19302
3.10174 19134
3.12185 18277
3.14197 17653
3.16208 17317
3.18219 16825
3.20231 16178
3.22242 15590
3.24253 15425
3.26265 14894
3.28276 14140
3.30288 14266
3.32299 13506
3.3431 13032
3.36322 12864
3.38333 12297
3.40344 12097
3.42356 11553
3.44367 11370
3.46379 10864
3.4839 10369
3.50401 10113
3.52413 9789
3.54424 9260
3.56435 9167
3.58447 8589
3.60458 8628
3.62469 8064
3.64481 7697
3.66492 7679
3.68504 7232
3.70515 7102
3.72526 6704
3.74538 6470
3.76549 6197
3.7856 5971
3.80572 5804
3.82583 5349
3.84595 5147
3.86606 4936
3.88617 4713
3.90629 4623
3.9264 4485
3.94651 4200
3.96663 4242
3.98674 3883
4.00686 3903
4.02697 3522
4.04708 3368
4.0672 3256
4.08731 3120
4.10742 3176
4.12754 2822
4.14765 2726
4.16776 2703
4.18788 2678
4.20799 2471
4.22811 2217
4.24822 2250
4.26833 2222
4.28845 2114
4.30856 2163
4.32867 1959
4.34879 1916
4.3689 1961
4.38902 1864
4.40913 1845
4.42924 1646
4.44936 1637
4.46947 1637
4.48958 1643
4.5097 1608
4.52981 1537
4.54992 1460
4.57004 1418
4.59015 1425
4.61027 1384
4.63038 1329
4.65049 1263
4.67061 1333
4.69072 1357
4.71083 1190
4.73095 1148
4.75106 1104
4.77118 1158
4.79129 1174
4.8114 1047
4.83152 1125
4.85163 978
4.87174 1092
4.89186 1068
4.91197 1006
4.93209 975
4.9522 924
4.97231 911
4.99243 939
5.01254 882
5.03265 882
5.05277 870
5.07288 830
5.09299 873
5.11311 814
5.13322 866
5.15334 783
5.17345 860
5.19356 787
5.21368 720
5.23379 726
5.2539 712
5.27402 668
5.29413 741
5.31425 683
5.33436 670
5.35447 647
5.37459 626
5.3947 652
5.41481 571
5.43493 616
5.45504 644
5.47516 552
5.49527 584
5.51538 572
5.5355 604
5.55561 561
5.57572 557
5.59584 579
5.61595 547
5.63606 532
5.65618 528
5.67629 550
5.69641 543
5.71652 454
5.73663 525
5.75675 477
5.77686 449
5.79697 545
5.81709 449
5.8372 493
5.85732 499
5.87743 465
5.89754 445
5.91766 429
5.93777 455
5.95788 449
5.978 441
5.99811 456
6.01823 477
6.03834 437
6.05845 441
6.07857 498
6.09868 418
6.11879 429
6.13891 428
6.15902 420
6.17913 455
6.19925 437
6.21936 449
6.23948 433
6.25959 458
6.2797 460
6.29982 442
6.31993 428
6.34004 411
6.36016 414
6.38027 390
6.40039 415
6.4205 436
6.44061 411
6.46073 372
6.48084 390
6.50095 390
6.52107 392
6.54118 369
6.56129 388
6.58141 409
6.60152 412
6.62164 372
6.64175 370
6.66186 397
6.68198 374
6.70209 370
6.7222 370
6.74232 379
6.76243 407
6.78255 404
6.80266 374
6.82277 376
6.84289 373
6.863 365
6.88311 366
6.90323 343
6.92334 369
6.94346 387
6.96357 385
6.98368 389
7.0038 376
7.02391 365
7.04402 382
7.06414 373
7.08425 414
7.10436 372
7.12448 381
7.14459 348
7.16471 334
7.18482 351
7.20493 399
7.22505 401
7.24516 402
7.26527 389
7.28539 418
7.3055 381
7.32562 410
7.34573 342
7.36584 392
7.38596 385
7.40607 349
7.42618 379
7.4463 384
7.46641 386
7.48653 389
7.50664 362
7.52675 384
7.54687 423
7.56698 400
7.58709 389
7.60721 366
7.62732 358
7.64743 341
7.66755 366
7.68766 363
7.70778 391
7.72789 381
7.748 385
7.76812 362
7.78823 390
7.80834 342
7.82846 345
7.84857 376
7.86869 345
7.8888 326
7.90891 352
7.92903 347
7.94914 343
7.96925 392
7.98937 368
8.00948 360
8.0296 357
8.04971 379
8.06982 374
8.08994 383
8.11005 373
8.13016 351
8.15028 358
8.17039 350
8.1905 363
8.21062 368
8.23073 368
8.25085 360
8.27096 382
8.29107 383
8.31119 400
8.3313 397
8.35141 368
8.37153 354
8.39164 349
8.41176 313
8.43187 347
8.45198 387
8.4721 347
8.49221 392
8.51232 362
8.53244 344
8.55255 347
8.57266 374
8.59278 363
8.61289 401
8.63301 392
8.65312 310
8.67323 377
8.69335 382
8.71346 369
8.73357 382
8.75369 374
8.7738 369
8.79392 411
8.81403 366
8.83414 417
8.85426 368
8.87437 394
8.89448 384
8.9146 362
8.93471 376
8.95483 338
8.97494 367
8.99505 377
9.01517 372
9.03528 379
9.05539 397
9.07551 373
9.09562 397
9.11573 356
9.13585 385
9.15596 367
9.17608 347
9.19619 375
9.2163 363
9.23642 397
9.25653 357
9.27664 371
9.29676 365
9.31687 371
9.33699 349
9.3571 383
9.37721 324
9.39733 357
9.41744 391
9.43755 377
9.45767 395
9.47778 374
9.4979 360
9.51801 380
9.53812 379
9.55824 410
9.57835 357
9.59846 377
9.61858 359
9.63869 400
9.6588 368
9.67892 356
9.69903 365
9.71915 360
9.73926 354
9.75937 402
9.77949 395
9.7996 351
9.81971 359
9.83983 395
9.85994 378
9.88006 313
9.90017 360
9.92028 371
9.9404 407
9.96051 362
9.98062 371
10.00074 385
10.02085 357
10.04097 343
10.06108 393
10.08119 366
10.10131 369
10.12142 387
10.14153 337
10.16165 371
10.18176 374
10.20187 375
10.22199 390
10.2421 381
10.26222 348
10.28233 363
10.30244 354
10.32256 361
10.34267 380
10.36278 386
10.3829 326
10.40301 376
10.42313 368
10.44324 369
10.46335 406
10.48347 389
10.50358 381
10.52369 360
10.54381 370
10.56392 364
10.58403 366
10.60415 375
10.62426 401
10.64438 354
10.66449 374
10.6846 367
10.70472 338
10.72483 402
10.74494 383
10.76506 363
10.78517 348
10.80529 360
10.8254 416
10.84551 390
10.86563 376
10.88574 328
10.90585 366
10.92597 393
10.94608 379
10.9662 387
10.98631 362
11.00642 391
11.02654 394
11.04665 419
11.06676 368
11.08688 407
11.10699 393
11.1271 380
11.14722 358
11.16733 401
11.18745 351
11.20756 324
11.22767 356
11.24779 404
11.2679 366
11.28801 390
11.30813 416
11.32824 364
11.34836 384
11.36847 388
11.38858 397
11.4087 429
11.42881 374
11.44892 371
11.46904 425
11.48915 384
11.50927 421
11.52938 361
11.54949 353
11.56961 431
11.58972 376
11.60983 401
11.62995 391
11.65006 421
11.67017 377
11.69029 405
11.7104 434
11.73052 439
11.75063 435
11.77074 450
11.79086 433
11.81097 425
11.83108 441
11.8512 474
11.87131 450
11.89143 448
11.91154 474
11.93165 481
11.95177 544
11.97188 479
11.99199 554
12.01211 538
12.03222 534
12.05234 600
12.07245 534
12.09256 597
12.11268 575
12.13279 655
12.1529 642
12.17302 647
12.19313 656
12.21324 676
12.23336 749
12.25347 761
12.27359 807
12.2937 815
12.31381 794
12.33393 755
12.35404 742
12.37415 748
12.39427 748
12.41438 710
12.4345 639
12.45461 629
12.47472 629
12.49484 571
12.51495 536
12.53506 507
12.55518 516
12.57529 516
12.5954 454
12.61552 458
12.63563 434
12.65575 439
12.67586 451
12.69597 437
12.71609 424
12.7362 435
12.75631 410
12.77643 368
12.79654 405
12.81666 382
12.83677 408
12.85688 367
12.877 419
12.89711 380
12.91722 368
12.93734 358
12.95745 381
12.97757 380
12.99768 349
13.01779 355
13.03791 380
13.05802 333
13.07813 377
13.09825 372
13.11836 380
13.13847 360
13.15859 345
13.1787 355
13.19882 352
13.21893 339
13.23904 366
13.25916 343
13.27927 340
13.29938 335
13.3195 319
13.33961 333
13.35973 334
13.37984 347
13.39995 357
13.42007 350
13.44018 343
13.46029 362
13.48041 362
13.50052 322
13.52064 316
13.54075 322
13.56086 350
13.58098 375
13.60109 350
13.6212 350
13.64132 331
13.66143 349
13.68154 339
13.70166 343
13.72177 340
13.74189 386
13.762 335
13.78211 323
13.80223 344
13.82234 364
13.84245 331
13.86257 350
13.88268 317
13.9028 335
13.92291 353
13.94302 339
13.96314 312
13.98325 319
14.00336 315
14.02348 337
14.04359 343
14.06371 355
14.08382 310
14.10393 345
14.12405 317
14.14416 344
14.16427 314
14.18439 340
14.2045 357
14.22461 350
14.24473 318
14.26484 318
14.28496 318
14.30507 355
14.32518 357
14.3453 301
14.36541 334
14.38552 313
14.40564 351
14.42575 329
14.44587 301
14.46598 336
14.48609 346
14.50621 324
14.52632 352
14.54643 336
14.56655 306
14.58666 331
14.60677 320
14.62689 337
14.647 319
14.66712 306
14.68723 338
14.70734 304
14.72746 336
14.74757 373
14.76768 331
14.7878 346
14.80791 327
14.82803 319
14.84814 330
14.86825 333
14.88837 342
14.90848 344
14.92859 331
14.94871 331
14.96882 321
14.98894 302
15.00905 326
15.02916 330
15.04928 356
15.06939 319
15.0895 335
15.10962 294
15.12973 352
15.14984 318
15.16996 321
15.19007 319
15.21019 293
15.2303 325
15.25041 312
15.27053 330
15.29064 310
15.31075 332
15.33087 310
15.35098 357
15.3711 306
15.39121 330
15.41132 288
15.43144 304
15.45155 311
15.47166 308
15.49178 301
15.51189 364
15.53201 317
15.55212 356
15.57223 298
15.59235 309
15.61246 337
15.63257 318
15.65269 318
15.6728 303
15.69291 324
15.71303 312
15.73314 326
15.75326 375
15.77337 302
15.79348 334
15.8136 292
15.83371 326
15.85382 313
15.87394 290
15.89405 323
15.91417 318
15.93428 312
15.95439 350
15.97451 345
15.99462 325
16.01473 347
16.03485 327
16.05496 299
16.07508 335
16.09519 320
16.1153 289
16.13542 351
16.15553 311
16.17564 289
16.19576 304
16.21587 364
16.23598 331
16.2561 299
16.27621 307
16.29633 327
16.31644 323
16.33655 296
16.35667 334
16.37678 328
16.39689 290
16.41701 374
16.43712 332
16.45724 302
16.47735 309
16.49746 341
16.51758 313
16.53769 340
16.5578 300
16.57792 317
16.59803 333
16.61814 322
16.63826 310
16.65837 351
16.67849 352
16.6986 310
16.71871 334
16.73883 340
16.75894 309
16.77905 336
16.79917 331
16.81928 336
16.8394 309
16.85951 314
16.87962 338
16.89974 306
16.91985 320
16.93996 314
16.96008 328
16.98019 289
17.00031 333
17.02042 342
17.04053 343
17.06065 332
17.08076 330
17.10087 304
17.12099 348
17.1411 322
17.16121 310
17.18133 316
17.20144 303
17.22156 311
17.24167 344
17.26178 308
17.2819 287
17.30201 286
17.32212 339
17.34224 329
17.36235 312
17.38247 343
17.40258 276
17.42269 291
17.44281 339
17.46292 349
17.48303 311
17.50315 334
17.52326 327
17.54338 331
17.56349 309
17.5836 347
17.60372 284
17.62383 309
17.64394 305
17.66406 299
17.68417 325
17.70428 332
17.7244 324
17.74451 345
17.76463 349
17.78474 340
17.80485 342
17.82497 352
17.84508 344
17.86519 347
17.88531 332
17.90542 339
17.92554 319
17.94565 329
17.96576 342
17.98588 328
18.00599 353
18.0261 362
18.04622 369
18.06633 333
18.08645 336
18.10656 326
18.12667 408
18.14679 343
18.1669 316
18.18701 328
18.20713 346
18.22724 340
18.24735 350
18.26747 335
18.28758 368
18.3077 370
18.32781 360
18.34792 370
18.36804 352
18.38815 354
18.40826 344
18.42838 324
18.44849 362
18.46861 341
18.48872 317
18.50883 325
18.52895 337
18.54906 327
18.56917 294
18.58929 314
18.6094 354
18.62951 356
18.64963 317
18.66974 362
18.68986 292
18.70997 341
18.73008 333
18.7502 382
18.77031 330
18.79042 323
18.81054 330
18.83065 323
18.85077 345
18.87088 325
18.89099 333
18.91111 323
18.93122 311
18.95133 340
18.97145 322
18.99156 317
19.01168 297
19.03179 353
19.0519 334
19.07202 310
19.09213 345
19.11224 339
19.13236 314
19.15247 340
19.17258 298
19.1927 338
19.21281 339
19.23293 341
19.25304 368
19.27315 332
19.29327 356
19.31338 338
19.33349 360
19.35361 377
19.37372 364
19.39384 360
19.41395 357
19.43406 361
19.45418 373
19.47429 383
19.4944 376
19.51452 375
19.53463 427
19.55475 438
19.57486 411
19.59497 414
19.61509 428
19.6352 425
19.65531 484
19.67543 466
19.69554 505
19.71565 546
19.73577 551
19.75588 618
19.776 618
19.79611 640
19.81622 655
19.83634 692
19.85645 692
19.87656 705
19.89668 709
19.91679 730
19.93691 671
19.95702 662
19.97713 661
19.99725 645
20.01736 638
20.03747 612
20.05759 644
20.0777 623
20.09782 649
20.11793 607
20.13804 636
20.15816 618
20.17827 662
20.19838 636
20.2185 622
20.23861 624
20.25872 625
20.27884 679
20.29895 694
20.31907 638
20.33918 691
20.35929 638
20.37941 675
20.39952 671
20.41963 669
20.43975 696
20.45986 696
20.47998 660
20.50009 673
20.5202 675
20.54032 719
20.56043 794
20.58054 811
20.60066 844
20.62077 934
20.64088 1061
20.661 1249
20.68111 1535
20.70123 1749
20.72134 2083
20.74145 2528
20.76157 3115
20.78168 3392
20.80179 3701
20.82191 3766
20.84202 3711
20.86214 3337
20.88225 2642
20.90236 2135
20.92248 1589
20.94259 1320
20.9627 1008
20.98282 847
21.00293 779
21.02305 841
21.04316 755
21.06327 774
21.08339 714
21.1035 699
21.12361 744
21.14373 717
21.16384 684
21.18395 656
21.20407 697
21.22418 638
21.2443 720
21.26441 725
21.28452 743
21.30464 758
21.32475 700
21.34486 744
21.36498 678
21.38509 718
21.40521 652
21.42532 695
21.44543 696
21.46555 655
21.48566 688
21.50577 632
21.52589 623
21.546 592
21.56612 617
21.58623 661
21.60634 554
21.62646 590
21.64657 548
21.66668 544
21.6868 556
21.70691 577
21.72702 547
21.74714 582
21.76725 531
21.78737 545
21.80748 534
21.82759 525
21.84771 548
21.86782 498
21.88793 497
21.90805 547
21.92816 531
21.94828 507
21.96839 514
21.9885 529
22.00862 546
22.02873 534
22.04884 492
22.06896 495
22.08907 462
22.10919 494
22.1293 473
22.14941 537
22.16953 426
22.18964 504
22.20975 508
22.22987 456
22.24998 455
22.27009 488
22.29021 487
22.31032 426
22.33044 452
22.35055 504
22.37066 484
22.39078 460
22.41089 459
22.431 417
22.45112 416
22.47123 433
22.49135 447
22.51146 393
22.53157 452
22.55169 417
22.5718 423
22.59191 422
22.61203 443
22.63214 414
22.65225 441
22.67237 434
22.69248 433
22.7126 444
22.73271 438
22.75282 418
22.77294 394
22.79305 423
22.81316 461
22.83328 412
22.85339 436
22.87351 409
22.89362 453
22.91373 439
22.93385 418
22.95396 410
22.97407 419
22.99419 401
23.0143 469
23.03442 425
23.05453 455
23.07464 423
23.09476 429
23.11487 423
23.13498 442
23.1551 430
23.17521 407
23.19532 374
23.21544 429
23.23555 436
23.25567 412
23.27578 406
23.29589 395
23.31601 400
23.33612 477
23.35623 436
23.37635 426
23.39646 425
23.41658 405
23.43669 434
23.4568 423
23.47692 448
23.49703 443
23.51714 437
23.53726 446
23.55737 421
23.57749 441
23.5976 386
23.61771 412
23.63783 395
23.65794 435
23.67805 462
23.69817 447
23.71828 442
23.73839 469
23.75851 420
23.77862 462
23.79874 435
23.81885 459
23.83896 493
23.85908 431
23.87919 490
23.8993 441
23.91942 444
23.93953 478
23.95965 485
23.97976 458
23.99987 488
24.01999 481
24.0401 450
24.06021 453
24.08033 457
24.10044 442
24.12056 468
24.14067 449
24.16078 474
24.1809 473
24.20101 477
24.22112 482
24.24124 475
24.26135 454
24.28146 440
24.30158 461
24.32169 457
24.34181 457
24.36192 455
24.38203 474
24.40215 472
24.42226 460
24.44237 502
24.46249 491
24.4826 517
24.50272 479
24.52283 516
24.54294 532
24.56306 534
24.58317 541
24.60328 548
24.6234 591
24.64351 622
24.66362 618
24.68374 610
24.70385 616
24.72397 608
24.74408 677
24.76419 748
24.78431 718
24.80442 723
24.82453 737
24.84465 768
24.86476 684
24.88488 681
24.90499 624
24.9251 662
24.94522 675
24.96533 585
24.98544 597
25.00556 617
25.02567 629
25.04579 602
25.0659 568
25.08601 625
25.10613 567
25.12624 584
25.14635 533
25.16647 595
25.18658 556
25.20669 562
25.22681 564
25.24692 541
25.26704 544
25.28715 576
25.30726 534
25.32738 518
25.34749 488
25.3676 505
25.38772 482
25.40783 466
25.42795 481
25.44806 466
25.46817 466
25.48829 469
25.5084 487
25.52851 449
25.54863 465
25.56874 452
25.58886 454
25.60897 455
25.62908 462
25.6492 520
25.66931 475
25.68942 531
25.70954 520
25.72965 505
25.74976 527
25.76988 516
25.78999 523
25.81011 489
25.83022 511
25.85033 558
25.87045 550
25.89056 528
25.91067 531
25.93079 499
25.9509 520
25.97102 518
25.99113 504
26.01124 614
26.03136 598
26.05147 588
26.07158 559
26.0917 594
26.11181 641
26.13193 681
26.15204 741
26.17215 719
26.19227 699
26.21238 818
26.23249 900
26.25261 915
26.27272 1021
26.29283 1175
26.31295 1313
26.33306 1588
26.35318 1745
26.37329 2156
26.3934 2633
26.41352 3196
26.43363 4117
26.45374 5267
26.47386 6731
26.49397 8295
26.51409 10245
26.5342 12345
26.55431 14321
26.57443 15594
26.59454 15681
26.61465 15065
26.63477 13573
26.65488 11405
26.67499 8730
26.69511 6367
26.71522 4559
26.73534 3222
26.75545 2180
26.77556 1535
26.79568 1273
26.81579 1095
26.8359 1002
26.85602 901
26.87613 824
26.89625 795
26.91636 735
26.93647 692
26.95659 644
26.9767 604
26.99681 598
27.01693 564
27.03704 557
27.05716 526
27.07727 513
27.09738 484
27.1175 504
27.13761 482
27.15772 517
27.17784 460
27.19795 491
27.21806 448
27.23818 487
27.25829 467
27.27841 469
27.29852 491
27.31863 484
27.33875 479
27.35886 457
27.37897 472
27.39909 451
27.4192 524
27.43932 439
27.45943 460
27.47954 441
27.49966 468
27.51977 408
27.53988 416
27.56 467
27.58011 423
27.60023 435
27.62034 421
27.64045 428
27.66057 442
27.68068 414
27.70079 397
27.72091 386
27.74102 392
27.76113 431
27.78125 420
27.80136 394
27.82148 400
27.84159 429
27.8617 420
27.88182 442
27.90193 422
27.92204 392
27.94216 397
27.96227 398
27.98239 430
28.0025 423
28.02261 381
28.04273 422
28.06284 385
28.08295 426
28.10307 366
28.12318 371
28.1433 400
28.16341 379
28.18352 381
28.20364 372
28.22375 426
28.24386 367
28.26398 393
28.28409 411
28.3042 391
28.32432 392
28.34443 369
28.36455 378
28.38466 354
28.40477 357
28.42489 371
28.445 381
28.46511 392
28.48523 417
28.50534 384
28.52546 331
28.54557 395
28.56568 371
28.5858 363
28.60591 390
28.62602 366
28.64614 380
28.66625 389
28.68636 328
28.70648 387
28.72659 378
28.74671 370
28.76682 391
28.78693 349
28.80705 392
28.82716 377
28.84727 353
28.86739 389
28.8875 353
28.90762 378
28.92773 350
28.94784 385
28.96796 369
28.98807 371
29.00818 399
29.0283 356
29.04841 373
29.06853 358
29.08864 375
29.10875 365
29.12887 345
29.14898 376
29.16909 375
29.18921 381
29.20932 376
29.22943 385
29.24955 340
29.26966 384
29.28978 365
29.30989 369
29.33 400
29.35012 372
29.37023 355
29.39034 414
29.41046 358
29.43057 374
29.45069 358
29.4708 375
29.49091 380
29.51103 362
29.53114 373
29.55125 366
29.57137 328
29.59148 359
29.6116 374
29.63171 369
29.65182 374
29.67194 346
29.69205 349
29.71216 361
29.73228 313
29.75239 334
29.7725 331
29.79262 342
29.81273 364
29.83285 371
29.85296 343
29.87307 340
29.89319 381
29.9133 324
29.93341 365
29.95353 339
29.97364 366
29.99376 359
30.01387 348
30.03398 350
30.0541 345
30.07421 357
30.09432 390
30.11444 378
30.13455 366
30.15467 344
30.17478 365
30.19489 347
30.21501 357
30.23512 328
30.25523 398
30.27535 329
30.29546 346
30.31557 354
30.33569 335
30.3558 391
30.37592 354
30.39603 374
30.41614 390
30.43626 361
30.45637 338
30.47648 339
30.4966 385
30.51671 338
30.53683 344
30.55694 327
30.57705 344
30.59717 370
30.61728 341
30.63739 390
30.65751 377
30.67762 341
30.69773 379
30.71785 318
30.73796 368
30.75808 363
30.77819 378
30.7983 361
30.81842 312
30.83853 349
30.85864 345
30.87876 343
30.89887 350
30.91899 384
30.9391 333
30.95921 358
30.97933 315
30.99944 361
31.01955 334
31.03967 330
31.05978 349
31.0799 310
31.10001 320
31.12012 376
31.14024 375
31.16035 330
31.18046 337
31.20058 354
31.22069 361
31.2408 349
31.26092 359
31.28103 355
31.30115 333
31.32126 328
31.34137 306
31.36149 333
31.3816 345
31.40171 314
31.42183 341
31.44194 322
31.46206 310
31.48217 393
31.50228 319
31.5224 337
31.54251 362
31.56262 324
31.58274 336
31.60285 372
31.62297 314
31.64308 331
31.66319 354
31.68331 346
31.70342 350
31.72353 332
31.74365 312
31.76376 335
31.78387 343
31.80399 357
31.8241 369
31.84422 323
31.86433 323
31.88444 325
31.90456 333
31.92467 346
31.94478 384
31.9649 362
31.98501 361
32.00513 379
32.02524 340
32.04535 335
32.06547 332
32.08558 337
32.10569 326
32.12581 340
32.14592 351
32.16604 360
32.18615 352
32.20626 351
32.22638 338
32.24649 373
32.2666 363
32.28672 360
32.30683 351
32.32694 351
32.34706 352
32.36717 366
32.38729 374
32.4074 392
32.42751 386
32.44763 339
32.46774 371
32.48785 412
32.50797 398
32.52808 361
32.5482 395
32.56831 387
32.58842 356
32.60854 411
32.62865 409
32.64876 401
32.66888 385
32.68899 415
32.7091 358
32.72922 366
32.74933 375
32.76945 371
32.78956 370
32.80967 372
32.82979 368
32.8499 399
32.87001 387
32.89013 395
32.91024 399
32.93036 377
32.95047 403
32.97058 395
32.9907 408
33.01081 424
33.03092 436
33.05104 456
33.07115 414
33.09127 456
33.11138 480
33.13149 426
33.15161 417
33.17172 462
33.19183 469
33.21195 444
33.23206 441
33.25217 421
33.27229 456
33.2924 426
33.31252 435
33.33263 434
33.35274 450
33.37286 389
33.39297 439
33.41308 412
33.4332 429
33.45331 383
33.47343 422
33.49354 417
33.51365 415
33.53377 403
33.55388 431
33.57399 371
33.59411 422
33.61422 415
33.63434 401
33.65445 381
33.67456 415
33.69468 357
33.71479 376
33.7349 368
33.75502 405
33.77513 378
33.79524 387
33.81536 359
33.83547 367
33.85559 401
33.8757 370
33.89581 365
33.91593 375
33.93604 400
33.95615 359
33.97627 342
33.99638 350
34.0165 367
34.03661 380
34.05672 334
34.07684 369
34.09695 351
34.11706 359
34.13718 387
34.15729 398
34.17741 334
34.19752 372
34.21763 333
34.23775 347
34.25786 380
34.27797 378
34.29809 334
34.3182 354
34.33831 358
34.35843 361
34.37854 384
34.39866 376
34.41877 356
34.43888 325
34.459 358
34.47911 380
34.49922 360
34.51934 374
34.53945 399
34.55957 351
34.57968 417
34.59979 359
34.61991 420
34.64002 428
34.66013 453
34.68025 411
34.70036 454
34.72047 484
34.74059 459
34.7607 474
34.78082 511
34.80093 496
34.82104 488
34.84116 519
34.86127 529
34.88138 516
34.9015 549
34.92161 544
34.94173 557
34.96184 520
34.98195 497
35.00207 540
35.02218 518
35.04229 548
35.06241 488
35.08252 507
35.10264 465
35.12275 504
35.14286 465
35.16298 475
35.18309 511
35.2032 500
35.22332 528
35.24343 475
35.26354 475
35.28366 473
35.30377 523
35.32389 480
35.344 527
35.36411 519
35.38423 481
35.40434 509
35.42445 481
35.44457 545
35.46468 515
35.4848 548
35.50491 541
35.52502 538
35.54514 576
35.56525 549
35.58536 558
35.60548 552
35.62559 575
35.64571 576
35.66582 571
35.68593 549
35.70605 555
35.72616 590
35.74627 571
35.76639 656
35.7865 595
35.80661 591
35.82673 584
35.84684 536
35.86696 605
35.88707 602
35.90718 545
35.9273 576
35.94741 511
35.96752 561
35.98764 549
36.00775 521
36.02787 487
36.04798 496
36.06809 510
36.08821 497
36.10832 518
36.12843 520
36.14855 512
36.16866 501
36.18878 504
36.20889 577
36.229 538
36.24912 599
36.26923 598
36.28934 691
36.30946 668
36.32957 809
36.34968 852
36.3698 921
36.38991 1066
36.41003 1186
36.43014 1263
36.45025 1368
36.47037 1443
36.49048 1495
36.51059 1437
36.53071 1236
36.55082 1175
36.57094 1060
36.59105 961
36.61116 818
36.63128 748
36.65139 683
36.6715 568
36.69162 520
36.71173 527
36.73184 505
36.75196 525
36.77207 470
36.79219 504
36.8123 479
36.83241 506
36.85253 455
36.87264 461
36.89275 494
36.91287 464
36.93298 457
36.9531 477
36.97321 518
36.99332 490
37.01344 454
37.03355 493
37.05366 480
37.07378 465
37.09389 484
37.11401 453
37.13412 521
37.15423 486
37.17435 452
37.19446 466
37.21457 446
37.23469 461
37.2548 425
37.27491 451
37.29503 441
37.31514 476
37.33526 463
37.35537 473
37.37548 453
37.3956 458
37.41571 430
37.43582 474
37.45594 437
37.47605 427
37.49617 453
37.51628 464
37.53639 470
37.55651 419
37.57662 431
37.59673 433
37.61685 417
37.63696 459
37.65708 437
37.67719 412
37.6973 459
37.71742 480
37.73753 461
37.75764 441
37.77776 409
37.79787 455
37.81798 446
37.8381 405
37.85821 425
37.87833 426
37.89844 441
37.91855 471
37.93867 459
37.95878 494
37.97889 451
37.99901 461
38.01912 446
38.03924 461
38.05935 459
38.07946 467
38.09958 508
38.11969 474
38.1398 489
38.15992 528
38.18003 517
38.20015 516
38.22026 480
38.24037 534
38.26049 494
38.2806 545
38.30071 522
38.32083 547
38.34094 545
38.36105 520
38.38117 538
38.40128 559
38.4214 518
38.44151 560
38.46162 558
38.48174 558
38.50185 523
38.52196 498
38.54208 489
38.56219 490
38.58231 509
38.60242 434
38.62253 430
38.64265 438
38.66276 478
38.68287 488
38.70299 435
38.7231 456
38.74321 428
38.76333 432
38.78344 437
38.80356 449
38.82367 428
38.84378 442
38.8639 426
38.88401 436
38.90412 440
38.92424 425
38.94435 470
38.96447 435
38.98458 492
39.00469 439
39.02481 482
39.04492 481
39.06503 485
39.08515 501
39.10526 522
39.12538 515
39.14549 515
39.1656 608
39.18572 595
39.20583 613
39.22594 695
39.24606 737
39.26617 776
39.28628 845
39.3064 977
39.32651 1051
39.34663 1120
39.36674 1162
39.38685 1218
39.40697 1281
39.42708 1278
39.44719 1197
39.46731 1101
39.48742 951
39.50754 809
39.52765 763
39.54776 705
39.56788 624
39.58799 537
39.6081 457
39.62822 422
39.64833 418
39.66845 432
39.68856 436
39.70867 401
39.72879 401
39.7489 412
39.76901 421
39.78913 355
39.80924 396
39.82935 385
39.84947 402
39.86958 414
39.8897 431
39.90981 449
39.92992 445
39.95004 415
39.97015 436
39.99026 446
40.01038 414
40.03049 507
40.05061 522
40.07072 530
40.09083 563
40.11095 617
40.13106 679
40.15117 712
40.17129 753
40.1914 835
40.21152 806
40.23163 845
40.25174 776
40.27186 743
40.29197 712
40.31208 717
40.3322 608
40.35231 610
40.37242 575
40.39254 481
40.41265 450
40.43277 455
40.45288 474
40.47299 406
40.49311 423
40.51322 390
40.53333 414
40.55345 401
40.57356 410
40.59368 400
40.61379 440
40.6339 400
40.65402 391
40.67413 384
40.69424 405
40.71436 390
40.73447 401
40.75458 408
40.7747 427
40.79481 403
40.81493 414
40.83504 390
40.85515 395
40.87527 416
40.89538 384
40.91549 364
40.93561 394
40.95572 385
40.97584 352
40.99595 388
41.01606 364
41.03618 407
41.05629 411
41.0764 407
41.09652 404
41.11663 407
41.13675 400
41.15686 390
41.17697 440
41.19709 372
41.2172 375
41.23731 385
41.25743 388
41.27754 400
41.29765 395
41.31777 371
41.33788 369
41.358 386
41.37811 404
41.39822 390
41.41834 370
41.43845 369
41.45856 343
41.47868 360
41.49879 391
41.51891 381
41.53902 362
41.55913 389
41.57925 391
41.59936 374
41.61947 369
41.63959 363
41.6597 341
41.67982 338
41.69993 360
41.72004 377
41.74016 345
41.76027 398
41.78038 372
41.8005 367
41.82061 373
41.84072 358
41.86084 347
41.88095 368
41.90107 356
41.92118 359
41.94129 359
41.96141 351
41.98152 402
42.00163 375
42.02175 366
42.04186 427
42.06198 366
42.08209 419
42.1022 389
42.12232 405
42.14243 448
42.16254 459
42.18266 491
42.20277 517
42.22289 549
42.243 623
42.26311 658
42.28323 769
42.30334 844
42.32345 832
42.34357 921
42.36368 942
42.38379 1008
42.40391 963
42.42402 859
42.44414 873
42.46425 765
42.48436 704
42.50448 563
42.52459 593
42.5447 562
42.56482 461
42.58493 455
42.60505 355
42.62516 386
42.64527 340
42.66539 360
42.6855 342
42.70561 360
42.72573 304
42.74584 333
42.76595 316
42.78607 347
42.80618 323
42.8263 339
42.84641 311
42.86652 345
42.88664 329
42.90675 321
42.92686 311
42.94698 318
42.96709 333
42.98721 332
43.00732 346
43.02743 316
43.04755 342
43.06766 327
43.08777 331
43.10789 323
43.128 295
43.14812 305
43.16823 321
43.18834 308
43.20846 348
43.22857 349
43.24868 319
43.2688 309
43.28891 333
43.30902 342
43.32914 315
43.34925 322
43.36937 328
43.38948 308
43.40959 300
43.42971 299
43.44982 323
43.46993 345
43.49005 313
43.51016 323
43.53028 332
43.55039 324
43.5705 327
43.59062 307
43.61073 350
43.63084 329
43.65096 320
43.67107 305
43.69119 326
43.7113 354
43.73141 326
43.75153 340
43.77164 323
43.79175 307
43.81187 308
43.83198 332
43.85209 324
43.87221 299
43.89232 326
43.91244 329
43.93255 312
43.95266 330
43.97278 317
43.99289 357
44.013 353
44.03312 315
44.05323 329
44.07335 349
44.09346 291
44.11357 352
44.13369 340
44.1538 303
44.17391 334
44.19403 355
44.21414 359
44.23426 323
44.25437 306
44.27448 314
44.2946 290
44.31471 327
44.33482 319
44.35494 325
44.37505 335
44.39516 350
44.41528 319
44.43539 321
44.45551 331
44.47562 323
44.49573 285
44.51585 318
44.53596 330
44.55607 324
44.57619 298
44.5963 339
44.61642 324
44.63653 304
44.65664 347
44.67676 322
44.69687 353
44.71698 332
44.7371 307
44.75721 333
44.77732 323
44.79744 326
44.81755 358
44.83767 334
44.85778 343
44.87789 332
44.89801 333
44.91812 339
44.93823 320
44.95835 377
44.97846 313
44.99858 323
45.01869 345
45.0388 303
45.05892 349
45.07903 351
45.09914 342
45.11926 343
45.13937 338
45.15949 351
45.1796 331
45.19971 343
45.21983 378
45.23994 385
45.26005 376
45.28017 361
45.30028 346
45.32039 392
45.34051 436
45.36062 357
45.38074 372
45.40085 375
45.42096 452
45.44108 382
45.46119 413
45.4813 425
45.50142 438
45.52153 454
45.54165 486
45.56176 489
45.58187 548
45.60199 588
45.6221 591
45.64221 630
45.66233 684
45.68244 770
45.70256 813
45.72267 762
45.74278 845
45.7629 765
45.78301 724
45.80312 670
45.82324 581
45.84335 557
45.86346 519
45.88358 533
45.90369 473
45.92381 422
45.94392 422
45.96403 368
45.98415 382
46.00426 361
46.02437 375
46.04449 300
46.0646 322
46.08472 351
46.10483 363
46.12494 387
46.14506 368
46.16517 353
46.18528 348
46.2054 329
46.22551 297
46.24563 312
46.26574 322
46.28585 332
46.30597 312
46.32608 331
46.34619 352
46.36631 360
46.38642 356
46.40653 301
46.42665 341
46.44676 329
46.46688 344
46.48699 329
46.5071 350
46.52722 299
46.54733 355
46.56744 312
46.58756 346
46.60767 347
46.62779 347
46.6479 332
46.66801 321
46.68813 333
46.70824 305
46.72835 360
46.74847 347
46.76858 298
46.78869 329
46.80881 325
46.82892 331
46.84904 347
46.86915 327
46.88926 364
46.90938 341
46.92949 340
46.9496 337
46.96972 331
46.98983 322
47.00995 325
47.03006 329
47.05017 349
47.07029 353
47.0904 348
47.11051 306
47.13063 265
47.15074 334
47.17086 334
47.19097 331
47.21108 325
47.2312 353
47.25131 344
47.27142 321
47.29154 315
47.31165 328
47.33176 347
47.35188 341
47.37199 298
47.39211 304
47.41222 349
47.43233 349
47.45245 360
47.47256 355
47.49267 332
47.51279 370
47.5329 339
47.55302 332
47.57313 342
47.59324 340
47.61336 328
47.63347 338
47.65358 336
47.6737 342
47.69381 363
47.71393 363
47.73404 315
47.75415 351
47.77427 324
47.79438 355
47.81449 327
47.83461 330
47.85472 351
47.87483 386
47.89495 353
47.91506 350
47.93518 315
47.95529 318
47.9754 350
47.99552 339
48.01563 376
48.03574 315
48.05586 319
48.07597 327
48.09609 338
48.1162 342
48.13631 328
48.15643 340
48.17654 368
48.19665 289
48.21677 327
48.23688 320
48.257 316
48.27711 323
48.29722 338
48.31734 313
48.33745 347
48.35756 326
48.37768 325
48.39779 341
48.4179 329
48.43802 346
48.45813 338
48.47825 338
48.49836 312
48.51847 359
48.53859 347
48.5587 331
48.57881 276
48.59893 340
48.61904 337
48.63916 343
48.65927 312
48.67938 317
48.6995 348
48.71961 332
48.73972 339
48.75984 336
48.77995 354
48.80006 315
48.82018 367
48.84029 303
48.86041 352
48.88052 335
48.90063 333
48.92075 337
48.94086 361
48.96097 341
48.98109 326
49.0012 316
49.02132 357
49.04143 337
49.06154 319
49.08166 325
49.10177 331
49.12188 329
49.142 350
49.16211 347
49.18223 373
49.20234 366
49.22245 354
49.24257 377
49.26268 348
49.28279 347
49.30291 353
49.32302 365
49.34313 381
49.36325 345
49.38336 376
49.40348 366
49.42359 381
49.4437 360
49.46382 398
49.48393 392
49.50404 374
49.52416 350
49.54427 408
49.56439 372
49.5845 364
49.60461 370
49.62473 377
49.64484 380
49.66495 394
49.68507 418
49.70518 432
49.7253 454
49.74541 484
49.76552 485
49.78564 487
49.80575 548
49.82586 567
49.84598 640
49.86609 720
49.8862 806
49.90632 916
49.92643 1014
49.94655 1181
49.96666 1336
49.98677 1527
50.00689 1622
50.027 1718
50.04711 1733
50.06723 1814
50.08734 1911
50.10746 1672
50.12757 1501
50.14768 1393
50.1678 1246
50.18791 1111
50.20802 1082
50.22814 928
50.24825 765
50.26837 674
50.28848 574
50.30859 543
50.32871 489
50.34882 402
50.36893 366
50.38905 364
50.40916 396
50.42927 404
50.44939 385
50.4695 352
50.48962 375
50.50973 405
50.52984 363
50.54996 362
50.57007 401
50.59018 369
50.6103 382
50.63041 344
50.65053 394
50.67064 353
50.69075 341
50.71087 344
50.73098 306
50.75109 310
50.77121 332
50.79132 364
50.81143 332
50.83155 360
50.85166 337
50.87178 366
50.89189 312
50.912 336
50.93212 344
50.95223 356
50.97234 327
50.99246 332
51.01257 308
51.03269 323
51.0528 332
51.07291 348
51.09303 336
51.11314 343
51.13325 309
51.15337 308
51.17348 331
51.1936 348
51.21371 313
51.23382 314
51.25394 305
51.27405 303
51.29416 322
51.31428 338
51.33439 324
51.3545 338
51.37462 304
51.39473 331
51.41485 329
51.43496 314
51.45507 305
51.47519 324
51.4953 305
51.51541 321
51.53553 300
51.55564 300
51.57576 283
51.59587 329
51.61598 329
51.6361 291
51.65621 305
51.67632 304
51.69644 277
51.71655 310
51.73667 298
51.75678 315
51.77689 300
51.79701 283
51.81712 287
51.83723 325
51.85735 316
51.87746 308
51.89757 301
51.91769 313
51.9378 277
51.95792 298
51.97803 317
51.99814 331
52.01826 282
52.03837 309
52.05848 310
52.0786 306
52.09871 281
52.11883 318
52.13894 297
52.15905 325
52.17917 301
52.19928 284
52.21939 298
52.23951 323
52.25962 289
52.27974 325
52.29985 322
52.31996 308
52.34008 331
52.36019 287
52.3803 320
52.40042 300
52.42053 305
52.44064 311
52.46076 336
52.48087 318
52.50099 322
52.5211 308
52.54121 294
52.56133 328
52.58144 337
52.60155 300
52.62167 310
52.64178 323
52.6619 323
52.68201 299
52.70212 286
52.72224 332
52.74235 327
52.76246 312
52.78258 311
52.80269 331
52.8228 318
52.84292 317
52.86303 284
52.88315 348
52.90326 304
52.92337 320
52.94349 296
52.9636 320
52.98371 338
53.00383 320
53.02394 297
53.04406 340
53.06417 326
53.08428 314
53.1044 342
53.12451 317
53.14462 329
53.16474 395
53.18485 300
53.20497 351
53.22508 338
53.24519 359
53.26531 341
53.28542 357
53.30553 348
53.32565 351
53.34576 343
53.36587 327
53.38599 354
53.4061 346
53.42622 364
53.44633 329
53.46644 344
53.48656 364
53.50667 344
53.52678 384
53.5469 391
53.56701 337
53.58713 369
53.60724 384
53.62735 402
53.64747 381
53.66758 388
53.68769 396
53.70781 391
53.72792 377
53.74804 400
53.76815 404
53.78826 410
53.80838 392
53.82849 354
53.8486 383
53.86872 412
53.88883 412
53.90894 424
53.92906 406
53.94917 428
53.96929 401
53.9894 434
54.00951 442
54.02963 433
54.04974 428
54.06985 397
54.08997 494
54.11008 440
54.1302 438
54.15031 440
54.17042 433
54.19054 424
54.21065 455
54.23076 422
54.25088 460
54.27099 442
54.29111 440
54.31122 407
54.33133 409
54.35145 439
54.37156 418
54.39167 425
54.41179 450
54.4319 450
54.45201 444
54.47213 449
54.49224 447
54.51236 469
54.53247 441
54.55258 501
54.5727 504
54.59281 488
54.61292 551
54.63304 564
54.65315 589
54.67327 659
54.69338 686
54.71349 714
54.73361 763
54.75372 805
54.77383 874
54.79395 809
54.81406 800
54.83417 828
54.85429 805
54.8744 769
54.89452 722
54.91463 623
54.93474 673
54.95486 643
54.97497 630
54.99508 600
55.0152 602
55.03531 517
55.05543 504
55.07554 475
55.09565 498
55.11577 500
55.13588 565
55.15599 532
55.17611 557
55.19622 585
55.21634 561
55.23645 606
55.25656 553
55.27668 572
55.29679 508
55.3169 507
55.33702 537
55.35713 533
55.37724 459
55.39736 458
55.41747 480
55.43759 445
55.4577 455
55.47781 409
55.49793 390
55.51804 403
55.53815 386
55.55827 380
55.57838 335
55.5985 385
55.61861 394
55.63872 353
55.65884 361
55.67895 356
55.69906 353
55.71918 348
55.73929 369
55.75941 325
55.77952 329
55.79963 329
55.81975 364
55.83986 362
55.85997 349
55.88009 355
55.9002 364
55.92031 342
55.94043 318
55.96054 358
55.98066 351
56.00077 328
56.02088 321
56.041 358
56.06111 345
56.08122 325
56.10134 333
56.12145 309
56.14157 369
56.16168 329
56.18179 359
56.20191 321
56.22202 337
56.24213 334
56.26225 334
56.28236 382
56.30248 337
56.32259 331
56.3427 357
56.36282 343
56.38293 324
56.40304 354
56.42316 346
56.44327 332
56.46338 359
56.4835 336
56.50361 331
56.52373 336
56.54384 348
56.56395 332
56.58407 312
56.60418 330
56.62429 352
56.64441 326
56.66452 317
56.68464 354
56.70475 350
56.72486 331
56.74498 324
56.76509 332
56.7852 356
56.80532 354
56.82543 345
56.84554 309
56.86566 339
56.88577 322
56.90589 320
56.926 341
56.94611 363
56.96623 346
56.98634 341
57.00645 350
57.02657 352
57.04668 322
57.0668 343
57.08691 325
57.10702 348
57.12714 348
57.14725 337
57.16736 346
57.18748 313
57.20759 340
57.22771 335
57.24782 331
57.26793 368
57.28805 319
57.30816 361
57.32827 332
57.34839 346
57.3685 337
57.38861 305
57.40873 310
57.42884 323
57.44896 295
57.46907 320
57.48918 315
57.5093 305
57.52941 359
57.54952 283
57.56964 342
57.58975 303
57.60987 296
57.62998 334
57.65009 305
57.67021 313
57.69032 309
57.71043 321
57.73055 367
57.75066 329
57.77078 334
57.79089 360
57.811 339
57.83112 346
57.85123 341
57.87134 329
57.89146 319
57.91157 313
57.93168 309
57.9518 325
57.97191 316
57.99203 314
58.01214 304
58.03225 329
58.05237 321
58.07248 356
58.09259 340
58.11271 319
58.13282 345
58.15294 336
58.17305 315
58.19316 345
58.21328 363
58.23339 312
58.2535 359
58.27362 340
58.29373 322
58.31385 318
58.33396 331
58.35407 343
58.37419 342
58.3943 334
58.41441 340
58.43453 317
58.45464 311
58.47475 328
58.49487 324
58.51498 327
58.5351 303
58.55521 323
58.57532 325
58.59544 314
58.61555 326
58.63566 332
58.65578 366
58.67589 340
58.69601 302
58.71612 308
58.73623 305
58.75635 313
58.77646 314
58.79657 311
58.81669 340
58.8368 328
58.85691 300
58.87703 335
58.89714 339
58.91726 310
58.93737 291
58.95748 325
58.9776 288
58.99771 329
59.01782 348
59.03794 312
59.05805 294
59.07817 291
59.09828 346
59.11839 332
59.13851 331
59.15862 341
59.17873 346
59.19885 345
59.21896 334
59.23908 353
59.25919 312
59.2793 320
59.29942 359
59.31953 356
59.33964 339
59.35976 371
59.37987 383
59.39998 370
59.4201 364
59.44021 351
59.46033 406
59.48044 385
59.50055 417
59.52067 418
59.54078 444
59.56089 467
59.58101 478
59.60112 451
59.62124 478
59.64135 585
59.66146 594
59.68158 630
59.70169 727
59.7218 750
59.74192 813
59.76203 904
59.78215 1007
59.80226 1113
59.82237 1223
59.84249 1328
59.8626 1382
59.88271 1346
59.90283 1304
59.92294 1216
59.94305 1065
59.96317 996
59.98328 930
60.0034 841
60.02351 820
60.04362 814
60.06374 716
60.08385 717
60.10396 624
60.12408 510
60.14419 457
60.16431 430
60.18442 419
60.20453 389
60.22465 358
60.24476 355
60.26487 364
60.28499 364
60.3051 339
60.32522 326
60.34533 374
60.36544 345
60.38556 371
60.40567 335
60.42578 369
60.4459 334
60.46601 337
60.48612 323
60.50624 354
60.52635 350
60.54647 333
60.56658 329
60.58669 338
60.60681 321
60.62692 318
60.64703 278
60.66715 302
60.68726 322
60.70738 330
60.72749 300
60.7476 312
60.76772 336
60.78783 361
60.80794 296
60.82806 339
60.84817 333
60.86828 331
60.8884 283
60.90851 306
60.92863 326
60.94874 331
60.96885 286
60.98897 302
61.00908 299
61.02919 308
61.04931 326
61.06942 322
61.08954 317
61.10965 304
61.12976 322
61.14988 307
61.16999 337
61.1901 334
61.21022 314
61.23033 314
61.25045 318
61.27056 323
61.29067 326
61.31079 302
61.3309 334
61.35101 347
61.37113 355
61.39124 327
61.41135 333
61.43147 341
61.45158 371
61.4717 320
61.49181 355
61.51192 336
61.53204 343
61.55215 342
61.57226 324
61.59238 345
61.61249 354
61.63261 339
61.65272 380
61.67283 331
61.69295 330
61.71306 327
61.73317 348
61.75329 401
61.7734 382
61.79352 371
61.81363 352
61.83374 391
61.85386 397
61.87397 385
61.89408 391
61.9142 402
61.93431 407
61.95442 423
61.97454 407
61.99465 412
62.01477 435
62.03488 460
62.05499 457
62.07511 460
62.09522 464
62.11533 475
62.13545 494
62.15556 449
62.17568 451
62.19579 483
62.2159 487
62.23602 520
62.25613 478
62.27624 474
62.29636 428
62.31647 461
62.33659 422
62.3567 409
62.37681 446
62.39693 443
62.41704 432
62.43715 392
62.45727 426
62.47738 426
62.49749 399
62.51761 402
62.53772 390
62.55784 366
62.57795 354
62.59806 362
62.61818 362
62.63829 360
62.6584 369
62.67852 349
62.69863 330
62.71875 369
62.73886 346
62.75897 384
62.77909 326
62.7992 352
62.81931 328
62.83943 345
62.85954 318
62.87965 343
62.89977 336
62.91988 337
62.94 367
62.96011 345
62.98022 319
63.00034 328
63.02045 321
63.04056 367
63.06068 333
63.08079 367
63.10091 335
63.12102 341
63.14113 312
63.16125 326
63.18136 381
63.20147 349
63.22159 342
63.2417 312
63.26182 306
63.28193 304
63.30204 338
63.32216 349
63.34227 324
63.36238 324
63.3825 342
63.40261 359
63.42272 297
63.44284 318
63.46295 330
63.48307 329
63.50318 314
63.52329 353
63.54341 330
63.56352 338
63.58363 315
63.60375 349
63.62386 376
63.64398 369
63.66409 355
63.6842 370
63.70432 368
63.72443 385
63.74454 362
63.76466 394
63.78477 447
63.80489 408
63.825 444
63.84511 471
63.86523 481
63.88534 517
63.90545 533
63.92557 522
63.94568 574
63.96579 529
63.98591 519
64.00602 501
64.02614 486
64.04625 458
64.06636 438
64.08648 424
64.10659 463
64.1267 416
64.14682 399
64.16693 434
64.18705 395
64.20716 366
64.22727 401
64.24739 369
64.2675 337
64.28761 352
64.30773 341
64.32784 348
64.34796 321
64.36807 339
64.38818 329
64.4083 359
64.42841 310
64.44852 353
64.46864 337
64.48875 311
64.50886 307
64.52898 305
64.54909 340
64.56921 320
64.58932 317
64.60943 332
64.62955 318
64.64966 339
64.66977 332
64.68989 308
64.71 306
64.73012 299
64.75023 304
64.77034 308
64.79046 297
64.81057 318
64.83068 252
64.8508 310
64.87091 308
64.89102 320
64.91114 315
64.93125 315
64.95137 300
64.97148 319
64.99159 283
65.01171 304
65.03182 337
65.05193 327
65.07205 314
65.09216 323
65.11228 318
65.13239 330
65.1525 309
65.17262 315
65.19273 320
65.21284 305
65.23296 309
65.25307 322
65.27319 287
65.2933 295
65.31341 307
65.33353 324
65.35364 325
65.37375 305
65.39387 312
65.41398 293
65.43409 347
65.45421 296
65.47432 317
65.49444 333
65.51455 320
65.53466 298
65.55478 316
65.57489 308
65.595 350
65.61512 308
65.63523 348
65.65535 349
65.67546 333
65.69557 344
65.71569 374
65.7358 337
65.75591 359
65.77603 356
65.79614 344
65.81626 306
65.83637 332
65.85648 304
65.8766 336
65.89671 340
65.91682 317
65.93694 300
65.95705 312
65.97716 327
65.99728 333
66.01739 318
66.03751 290
66.05762 331
66.07773 309
66.09785 303
66.11796 286
66.13807 299
66.15819 300
66.1783 298
66.19842 306
66.21853 284
66.23864 309
66.25876 358
66.27887 289
66.29898 305
66.3191 334
66.33921 317
66.35933 284
66.37944 300
66.39955 308
66.41967 305
66.43978 309
66.45989 327
66.48001 304
66.50012 338
66.52023 282
66.54035 330
66.56046 308
66.58058 289
66.60069 325
66.6208 331
66.64092 307
66.66103 305
66.68114 325
66.70126 317
66.72137 330
66.74149 281
66.7616 296
66.78171 293
66.80183 318
66.82194 324
66.84205 321
66.86217 315
66.88228 317
66.90239 301
66.92251 302
66.94262 306
66.96274 300
66.98285 325
67.00296 314
67.02308 314
67.04319 313
67.0633 346
67.08342 339
67.10353 304
67.12365 345
67.14376 316
67.16387 340
67.18399 319
67.2041 355
67.22421 309
67.24433 349
67.26444 349
67.28456 363
67.30467 357
67.32478 401
67.3449 395
67.36501 394
67.38512 394
67.40524 428
67.42535 438
67.44546 474
67.46558 485
67.48569 525
67.50581 598
67.52592 601
67.54603 710
67.56615 781
67.58626 793
67.60637 845
67.62649 856
67.6466 937
67.66672 851
67.68683 883
67.70694 851
67.72706 843
67.74717 796
67.76728 751
67.7874 739
67.80751 772
67.82763 718
67.84774 811
67.86785 862
67.88797 785
67.90808 779
67.92819 820
67.94831 868
67.96842 950
67.98853 1004
68.00865 1077
68.02876 1129
68.04888 1134
68.06899 1179
68.0891 1149
68.10922 1182
68.12933 1077
68.14944 1072
68.16956 1074
68.18967 1054
68.20979 1033
68.2299 1074
68.25001 1023
68.27013 986
68.29024 853
68.31035 814
68.33047 673
68.35058 628
68.3707 614
68.39081 542
68.41092 531
68.43104 558
68.45115 503
68.47126 506
68.49138 400
68.51149 415
68.5316 406
68.55172 373
68.57183 357
68.59195 317
68.61206 333
68.63217 317
68.65229 329
68.6724 296
68.69251 322
68.71263 315
68.73274 298
68.75286 314
68.77297 294
68.79308 289
68.8132 342
68.83331 305
68.85342 276
68.87354 314
68.89365 297
68.91376 310
68.93388 313
68.95399 305
68.97411 302
68.99422 300
69.01433 285
69.03445 286
69.05456 300
69.07467 313
69.09479 336
69.1149 319
69.13502 313
69.15513 284
69.17524 304
69.19536 295
69.21547 290
69.23558 311
69.2557 320
69.27581 292
69.29593 329
69.31604 303
69.33615 283
69.35627 288
69.37638 301
69.39649 296
69.41661 298
69.43672 296
69.45683 318
69.47695 302
69.49706 291
69.51718 286
69.53729 311
69.5574 302
69.57752 290
69.59763 303
69.61774 303
69.63786 313
69.65797 279
69.67809 307
69.6982 319
69.71831 317
69.73843 294
69.75854 279
69.77865 285
69.79877 294
69.81888 320
69.839 312
69.85911 288
69.87922 301
69.89934 319
69.91945 297
69.93956 335
69.95968 317
69.97979 304
69.9999 305
70.02002 277
70.04013 302
70.06025 305
70.08036 297
70.10047 302
70.12059 326
70.1407 289
70.16081 292
70.18093 291
70.20104 306
70.22116 297
70.24127 290
70.26138 302
70.2815 300
70.30161 268
70.32172 289
70.34184 329
70.36195 299
70.38207 272
70.40218 295
70.42229 282
70.44241 288
70.46252 299
70.48263 290
70.50275 292
70.52286 312
70.54297 300
70.56309 312
70.5832 300
70.60332 299
70.62343 264
70.64354 301
70.66366 300
70.68377 304
70.70388 283
70.724 286
70.74411 282
70.76423 295
70.78434 298
70.80445 288
70.82457 312
70.84468 297
70.86479 290
70.88491 296
70.90502 292
70.92513 294
70.94525 285
70.96536 268
70.98548 274
71.00559 283
71.0257 272
71.04582 279
71.06593 257
71.08604 322
71.10616 298
71.12627 282
71.14639 302
71.1665 289
71.18661 287
71.20673 259
71.22684 288
71.24695 284
71.26707 288
71.28718 283
71.3073 267
71.32741 318
71.34752 310
71.36764 281
71.38775 319
71.40786 288
71.42798 281
71.44809 282
71.4682 280
71.48832 312
71.50843 318
71.52855 283
71.54866 303
71.56877 290
71.58889 286
71.609 293
71.62911 273
71.64923 298
71.66934 304
71.68946 297
71.70957 277
71.72968 288
71.7498 293
71.76991 334
71.79002 302
71.81014 314
71.83025 309
71.85037 292
71.87048 289
71.89059 306
71.91071 293
71.93082 320
71.95093 314
71.97105 306
71.99116 328
72.01127 314
72.03139 302
72.0515 288
72.07162 293
72.09173 292
72.11184 285
72.13196 309
72.15207 310
72.17218 283
72.1923 310
72.21241 294
72.23253 293
72.25264 293
72.27275 286
72.29287 291
72.31298 328
72.33309 327
72.35321 292
72.37332 285
72.39344 307
72.41355 312
72.43366 305
72.45378 277
72.47389 296
72.494 309
72.51412 299
72.53423 311
72.55434 304
72.57446 309
72.59457 298
72.61469 313
72.6348 292
72.65491 270
72.67503 317
72.69514 277
72.71525 306
72.73537 319
72.75548 296
72.7756 306
72.79571 276
72.81582 291
72.83594 321
72.85605 303
72.87616 291
72.89628 328
72.91639 319
72.9365 317
72.95662 290
72.97673 307
72.99685 312
73.01696 327
73.03707 310
73.05719 353
73.0773 319
73.09741 341
73.11753 340
73.13764 324
73.15776 357
73.17787 314
73.19798 400
73.2181 378
73.23821 429
73.25832 430
73.27844 415
73.29855 444
73.31867 478
73.33878 517
73.35889 483
73.37901 462
73.39912 540
73.41923 498
73.43935 488
73.45946 453
73.47957 456
73.49969 436
73.5198 384
73.53992 414
73.56003 426
73.58014 421
73.60026 415
73.62037 386
73.64048 385
73.6606 375
73.68071 366
73.70083 303
73.72094 327
73.74105 308
73.76117 335
73.78128 310
73.80139 326
73.82151 307
73.84162 297
73.86174 279
73.88185 267
73.90196 283
73.92208 325
73.94219 320
73.9623 305
73.98242 292
74.00253 286
74.02264 291
74.04276 285
74.06287 274
74.08299 265
74.1031 293
74.12321 306
74.14333 270
74.16344 278
74.18355 292
74.20367 277
74.22378 269
74.2439 298
74.26401 262
74.28412 272
74.30424 283
74.32435 312
74.34446 307
74.36458 287
74.38469 266
74.40481 303
74.42492 280
74.44503 291
74.46515 291
74.48526 273
74.50537 296
74.52549 296
74.5456 284
74.56571 270
74.58583 311
74.60594 302
74.62606 295
74.64617 268
74.66628 300
74.6864 274
74.70651 310
74.72662 306
74.74674 289
74.76685 304
74.78697 275
74.80708 314
74.82719 322
74.84731 301
74.86742 276
74.88753 343
74.90765 271
74.92776 291
74.94787 292
74.96799 299
74.9881 295
75.00822 315
