3.00117 19739.9496117824
3.02128 19196.3550233306
3.0414 18892
3.06151 18217.6703211818
3.08162 17649.4065471134
3.10174 17042.0515012131
3.12185 16711.7668091943
3.14197 16181.3025145757
3.16208 15376.2031014568
3.18219 15524.1403286998
3.20231 14682.6293621426
3.22242 14411.9283657804
3.24253 14149.1543250844
3.26265 13456.6939550561
3.28276 13119.8336254671
3.30288 12564.4721006753
3.32299 12249.1461110881
3.3431 11799
3.36322 11233.8337581557
3.38333 11200.2857822405
3.40344 10421.2876647891
3.42356 10548.0936056968
3.44367 9970.20917210615
3.46379 9406.06837761701
3.4839 9410
3.50401 8730.69452434342
3.52413 8499.06365754252
3.54424 8481.3962659497
3.56435 7966.0589740281
3.58447 7761.22669869939
3.60458 7502.35415346601
3.62469 7142.13978851899
3.64481 6917.8644335506
3.66492 6620.8087313742
3.68504 6459.33830845537
3.70515 6007.20758618017
3.72526 5918.03308243489
3.74538 5765.33947496372
3.76549 5373.12573460909
3.7856 5261
3.80572 4956.64771744034
3.82583 4708.88213658423
3.84595 4674.56350486216
3.86606 4343.62461109861
3.88617 4121.33932625775
3.90629 3897.05701945778
3.9264 3873
3.94651 3675.84349139271
3.96663 3399.84789326762
3.98674 3420.91747272274
4.00686 3242.40596161723
4.02697 3146.94457614594
4.04708 3118.31555415801
4.0672 2659
4.08731 2716.01726374485
4.10742 2575.84326759053
4.12754 2520.01553319556
4.14765 2477.42126561021
4.16776 2247.29484818471
4.18788 2202.06382983917
4.20799 2090.03293380571
4.22811 2102.01431724238
4.24822 2024.75691669109
4.26833 1746.8253974446
4.28845 1790.02128513027
4.30856 1700.11508680461
4.32867 1741.88194953508
4.34879 1742.06598116865
4.3689 1573
4.38902 1627.00826089133
4.40913 1536.8706685262
4.42924 1525.06519787053
4.44936 1521.18280710322
4.46947 1404.04197090213
4.48958 1458.98252374834
4.5097 1365
4.52981 1267.02086423702
4.54992 1363.98828351331
4.57004 1245.8838534784
4.59015 1288.9493701661
4.61027 1216.16796391578
4.63038 1150.98412259572
4.65049 1190.01477031773
4.67061 1101.97814652678
4.69072 1128.01958105498
4.71083 1076.83564729185
4.73095 996.061875127653
4.75106 1074.99068683612
4.77118 988.067506142726
4.79129 997.982292127017
4.8114 990
4.83152 917.998985407749
4.85163 977.050889639617
4.87174 933.825075933784
4.89186 865.035498576193
4.91197 865.069891463965
4.93209 808.981317492469
4.9522 891
4.97231 763.965111394323
4.99243 799.045322203818
5.01254 779.992531242171
5.03265 805.986312889448
5.05277 768.080821429462
5.07288 713.067429724785
5.09299 668.985950426734
5.11311 742.020666188776
5.13322 712.937645205392
5.15334 663.950557961996
5.17345 666.053114141717
5.19356 675.054627056031
5.21368 626.031375538571
5.23379 611.01915084781
5.2539 561
5.27402 598.036992279892
5.29413 600.970920354627
5.31425 569.892074417852
5.33436 541.96772466505
5.35447 574.013692220242
5.37459 530.007526042963
5.3947 554
5.41481 529.988316341033
5.43493 513.946701674636
5.45504 472.990479590734
5.47516 501.962818823447
5.49527 492.019551508033
5.51538 499.972467687035
5.5355 508
5.55561 434.988118927965
5.57572 452.980433553325
5.59584 387.923039394069
5.61595 422.791171643172
5.63606 489.982830583853
5.65618 443.05747074309
5.67629 409.010215327
5.69641 401.006897839026
5.71652 429.024989847399
5.73663 425.941113384963
5.75675 387.01651756997
5.77686 426.968471317946
5.79697 399.051025926474
5.81709 385.002546377239
5.8372 381
5.85732 385.002627459087
5.87743 375.960837698643
5.89754 353.012501885717
5.91766 370.033546416601
5.93777 334.9894281254
5.95788 380.978948377791
5.978 355
5.99811 351.007452906158
6.01823 360.984413392373
6.03834 332.94551386518
6.05845 320.999702856288
6.07857 334.950689972462
6.09868 358.021252176448
6.11879 311.009635301302
6.13891 345.029722759539
6.15902 362.93654844788
6.17913 288.036059588124
6.19925 385.083984212523
6.21936 329.072247532297
6.23948 348.996517013891
6.25959 318.005291268326
6.2797 333
6.29982 294.977846899448
6.31993 301.003375816528
6.34004 304.080019550232
6.36016 357.985128566076
6.38027 305.100729072559
6.40039 276.990309790013
6.4205 321
6.44061 332.999406477358
6.46073 321.95568226384
6.48084 283.945989358023
6.50095 288.902640463054
6.52107 329.987325880034
6.54118 311.006812908452
6.56129 322.002579554301
6.58141 298.99584994462
6.60152 308.999632965608
6.62164 283.929737961316
6.64175 267.03906865466
6.66186 310.894347140448
6.68198 336.021404828005
6.70209 290.014822649967
6.7222 289
6.74232 278.998249843948
6.76243 298.051517990596
6.78255 325.004156085017
6.80266 299.075658830582
6.82277 277.985661173489
6.84289 300.997341515285
6.863 287
6.88311 300.003715812754
6.90323 303.032959824534
6.92334 326.970708922469
6.94346 279.069223080507
6.96357 289.93550894352
6.98368 328.988289757837
7.0038 312
7.02391 301.000365519401
7.04402 299.985241933624
7.06414 280.997159840517
7.08425 292.008531475569
7.10436 276.993693098738
7.12448 289.018365262251
7.14459 253.999106216072
7.16471 300.021958859925
7.18482 304.974619442627
7.20493 267.942978418352
7.22505 249.026010194395
7.24516 290.870772904347
7.26527 339.000973660751
7.28539 299.018854529586
7.3055 300
7.32562 327.983770445941
7.34573 280.959325180865
7.36584 282.981199898191
7.38596 258.007469469227
7.40607 287.940927689753
7.42618 299.031375401869
7.4463 261
7.46641 300.005648888324
7.48653 281.013040482674
7.50664 314.997960127507
7.52675 284.98160096868
7.54687 331.966693526115
7.56698 303.042197450549
7.58709 278.007287362511
7.60721 267.997995811449
7.62732 266.997779777538
7.64743 270.02832130799
7.66755 294.018380815665
7.68766 295.94194867877
7.70778 331.01320656448
7.72789 288.998433278129
7.748 335
7.76812 295.967851972601
7.78823 297.004339820905
7.80834 294.029151033388
7.82846 317.997356060674
7.84857 301.994269886397
7.86869 320.005413847541
7.8888 278
7.90891 284.015890476868
7.92903 306.987225285328
7.94914 274.950359139494
7.96925 284.895157340863
7.98937 321.008577975317
8.00948 297.979971745927
8.0296 345
8.04971 284.976647363234
8.06982 292.031820042584
8.08994 321.053822125851
8.11005 326.91212577695
8.13016 281.011039094947
8.15028 315.975288794223
8.17039 313.997388755474
8.1905 331
8.21062 302.96532114264
8.23073 293.039379877085
8.25085 318.943713265232
8.27096 270.009515879766
8.29107 313.95966278105
8.31119 304.000538718208
8.3313 321
8.35141 300.999405203972
8.37153 319.000735759101
8.39164 302.004057974955
8.41176 320.011357363046
8.43187 294.004892879404
8.45198 314.996406208757
8.4721 295
8.49221 314.012720393003
8.51232 320.98378566552
8.53244 303.013127093114
8.55255 328.96578304573
8.57266 315.051133953026
8.59278 291.02477411794
8.61289 281.986932835989
8.63301 318.000344650511
8.65312 288.991888618672
8.67323 308.003086322256
8.69335 288.999336114766
8.71346 311.978208381623
8.73357 307.980096894635
8.75369 335.996251547632
8.7738 314
8.79392 309.013187810136
8.81403 312.954322061231
8.83414 286.079763648446
8.85426 357.990375559202
8.87437 290.071513093339
8.89448 307.963679579915
8.9146 327
8.93471 326.984624724106
8.95483 280.959323190246
8.97494 290.058139182276
8.99505 311.991960695274
9.01517 311.964756972386
9.03528 339.016735694865
9.05539 285.018449491949
9.07551 295.016468791679
9.09562 318.003590983286
9.11573 311.000575330528
9.13585 316.979821002295
9.15596 294.037355933176
9.17608 289.997623269193
9.19619 293.995435591455
9.2163 309
9.23642 318.994234208015
9.25653 314.030239301778
9.27664 339.975846819308
9.29676 299.032690178367
9.31687 314.99530317733
9.33699 294.005467576537
9.3571 302
9.37721 284.988420672238
9.39733 278.02888514903
9.41744 310.041817563519
9.43755 312.996360517071
9.45767 318.004513548852
9.47778 312.989373475822
9.4979 333
9.51801 312.984318657193
9.53812 287.985965708808
9.55824 294.061807895916
9.57835 331.047312116692
9.59846 327.016425306311
9.61858 316.030900355506
9.63869 284.99673843157
9.6588 311
9.67892 266.980707086126
9.69903 286.01954088525
9.71915 284.044624852057
9.73926 328.912960713727
9.75937 344.01983942694
9.77949 317.013109589543
9.7996 305
9.81971 309.999260082971
9.83983 304.001849806926
9.85994 320.053029939834
9.88006 334.035599951474
9.90017 282.103186153425
9.92028 252.948845298731
9.9404 330
9.96051 270.987306902801
9.98062 305.020117626339
10.00074 286.985030267727
10.02085 301.997852799436
10.04097 282.016183530597
10.06108 290.990627012025
10.08119 300.984994597441
10.10131 332.997930164306
10.12142 291.959553030353
10.14153 284.029707388026
10.16165 302.985291471548
10.18176 283.992623733396
10.20187 312.968454471777
10.22199 318.991610993255
10.2421 332
10.26222 285.007586478178
10.28233 334.011055276311
10.30244 292.97280421597
10.32256 327.942333667204
10.34267 321.027461239978
10.36278 313.997360436091
10.3829 325
10.40301 334.990730463177
10.42313 303.987734197124
10.44324 315.989485587017
10.46335 287.053207985266
10.48347 292.967215420066
10.50358 306.009513207454
10.52369 286.002291512692
10.54381 305.012404332523
10.56392 315.994838805509
10.58403 301.980226364378
10.60415 303.04795681866
10.62426 322.007827098224
10.64438 303.003665508155
10.66449 315.999702780066
10.6846 301
10.70472 311.003054536017
10.72483 296.97057411796
10.74494 288.0136089356
10.76506 300.991471914424
10.78517 289.031431406502
10.80529 286.981105301935
10.8254 328
10.84551 275.992506505154
10.86563 307.016889214424
10.88574 275.939167668669
10.90585 274.962766739444
10.92597 295.954080628094
10.94608 320.003055774584
10.9662 299
10.98631 307.00067454546
11.00642 299.00384267637
11.02654 325.074255960278
11.04665 337.097189726921
11.06676 285.996147217204
11.08688 337.966503537029
11.10699 322.014176154684
11.1271 303
11.14722 278.998136166297
11.16733 300.034759543635
11.18745 314.034012733226
11.20756 320.035771917393
11.22767 284.047401774687
11.24779 284.980143523818
11.2679 330
11.28801 305.991619375342
11.30813 311.000666218168
11.32824 290.94009937146
11.34836 275.970064144409
11.36847 303.986425449062
11.38858 293.000248439535
11.4087 304
11.42881 289.010443292445
11.44892 338.026174641455
11.46904 313.897563193546
11.48915 284.948391246732
11.50927 327.984091516964
11.52938 307.994164016411
11.54949 340.9976496556
11.56961 322.008642041197
11.58972 355.971030069242
11.60983 281.968348080352
11.62995 335.128120553443
11.65006 335.051679938398
11.67017 317.998297024887
11.69029 329.996888844761
11.7104 323
11.73052 319.005346933403
11.75063 327.002507140249
11.77074 334.065512477298
11.79086 368.021037743794
11.81097 308.102727060198
11.83108 286.957422909265
11.8512 349
11.87131 318.98604481245
11.89143 329.04778273695
11.91154 349.986000419669
11.93165 330.99465681638
11.95177 358.962068759438
11.97188 365.001748351061
11.99199 377.980782526399
12.01211 413.99708048872
12.03222 374.975849330328
12.05234 390.0619867325
12.07245 409.004051177811
12.09256 401.0093558896
12.11268 408.98289942558
12.13279 433.982638697323
12.1529 467
12.17302 482.040151600498
12.19313 539.055997420205
12.21324 531.918906709327
12.23336 515.887902669566
12.25347 602.957476942087
12.27359 570.003831869186
12.2937 614
12.31381 630.023096489138
12.33393 691.014887285594
12.35404 639.886809593935
12.37415 611.054781654158
12.39427 582.042455333729
12.41438 564.005198886343
12.4345 575
12.45461 581.973169506463
12.47472 488.929679734164
12.49484 464.971832507758
12.51495 440.048236894838
12.53506 427.043825540389
12.55518 398.018315247621
12.57529 392.004678716732
12.5954 365
12.61552 340.025234118748
12.63563 378.975624599203
12.65575 323.979191013953
12.67586 362.996177075961
12.69597 315.03932876258
12.71609 331.994928862359
12.7362 322
12.75631 343.999798804193
12.77643 316.970157965611
12.79654 315.993125128586
12.81666 305.004148659411
12.83677 317.97336973861
12.85688 323.015198988129
12.877 299
12.89711 293.991433634532
12.91722 276.013427898152
12.93734 307.004630236921
12.95745 278.041463149326
12.97757 294.957659034974
12.99768 306.012785302581
13.01779 285.003409232193
13.03791 297.006571656236
13.05802 302.004949035912
13.07813 305.990882773163
13.09825 289.958645356489
13.11836 281.004490753563
13.13847 281.001796977547
13.15859 295.974099426894
13.1787 358
13.19882 329.954734140409
13.21893 299.976417814338
13.23904 286.959704720242
13.25916 275.950643916349
13.27927 313.001316364507
13.29938 271.035745847707
13.3195 270
13.33961 285.007897038371
13.35973 295.998483370481
13.37984 289.000236377401
13.39995 294.013527010487
13.42007 279.012400220374
13.44018 288.976528768976
13.46029 307.999552342824
13.48041 293.993967943906
13.50052 286.984705473025
13.52064 263.967307655568
13.54075 275.112755179325
13.56086 320.988381573747
13.58098 291.020971387995
13.60109 304.984868541389
13.6212 314
13.64132 264.976291218799
13.66143 278.02861387309
13.68154 281.996159056486
13.70166 281.00488572842
13.72177 279.991395089
13.74189 277.016241533326
13.762 240
13.78211 284.016937612377
13.80223 276.954921203
13.82234 250.975625448033
13.84245 258.937554101682
13.86257 285.975035486272
13.88268 290.995939109859
13.9028 284
13.92291 241.001085980877
13.94302 289.045236160186
13.96314 309.039526963342
13.98325 313.131106298651
14.00336 248.977891617676
14.02348 319.971775071517
14.04359 277.020077825189
14.06371 279.004994323245
14.08382 278.003115421716
14.10393 288.006678161136
14.12405 282.984830988512
14.14416 281.996138927151
14.16427 281.011368304932
14.18439 267.008166070567
14.2045 262
14.22461 289.008587465852
14.24473 283.971048903579
14.26484 265.982703502357
14.28496 265.005488987379
14.30507 268.957100222719
14.32518 302.001366884618
14.3453 272
14.36541 288.007719160229
14.38552 279.976008819487
14.40564 266.029798750545
14.42575 291.007114337885
14.44587 258.041114852181
14.46598 256.989086142885
14.48609 263.999191240217
14.50621 261.998779368882
14.52632 260.999199984067
14.54643 256.986053018534
14.56655 249.005431455495
14.58666 266.939486478257
14.60677 289.005967489555
14.62689 278.989157904108
14.647 318
14.66712 270.939480331594
14.68723 243.021947105616
14.70734 282.070202059125
14.72746 284.065243611904
14.74757 245.022689712068
14.76768 260.975763059822
14.7878 272
14.80791 264.996354427901
14.82803 263.005347187618
14.84814 271.021965434432
14.86825 277.014335903591
14.88837 257.044733364908
14.90848 237.99135878058
14.92859 269.983047347592
14.94871 285.999503564237
14.96882 277.993935426159
14.98894 272.972887888913
15.00905 265.053702109838
15.02916 301.971999517584
15.04928 286.015061678436
15.06939 286.999263743648
15.0895 275
15.10962 246.973801810874
15.12973 243.049564340144
15.14984 283.003280433949
15.16996 254.013313912812
15.19007 285.948946314145
15.21019 297.999044521189
15.2303 288
15.25041 254.004718748135
15.27053 293.019328353983
15.29064 263.937004448682
15.31075 256.985669365741
15.33087 261.000306562178
15.35098 265.978039957582
15.3711 290
15.39121 268.995841326105
15.41132 273.986721409217
15.43144 244.97943792595
15.45155 262.946350188182
15.47166 272.984098779166
15.49178 279.005487865557
15.51189 265.00490975006
15.53201 258.992520621453
15.55212 248.01891191091
15.57223 285.025571773887
15.59235 263.900931596373
15.61246 245.949799484156
15.63257 288.978936505042
15.65269 270.004665963836
15.6728 284
15.69291 277.999862235505
15.71303 275.953229490301
15.73314 233.986980686376
15.75326 272.9042056316
15.77337 299.982579262332
15.79348 294.031522428012
15.8136 261
15.83371 280.999947702997
15.85382 256.990201068627
15.87394 272.025103719717
15.89405 270.996709600531
15.91417 268.044725377988
15.93428 236.983386657232
15.95439 290.984123898715
15.97451 273.9834497031
15.99462 251.984306065082
16.01473 244.00955193944
16.03485 252.983121680245
16.05496 243.958975158344
16.07508 277.003704307961
16.09519 243.004250925131
16.1153 272
16.13542 263.980312960452
16.15553 257.016988340721
16.17564 269.984718978219
16.19576 250.003103200189
16.21587 270.974585241861
16.23598 273.994513998663
16.2561 279
16.27621 256.000469122169
16.29633 268.972147621732
16.31644 230.996942644087
16.33655 264.968516058331
16.35667 242.024028963402
16.37678 253.981438262894
16.39689 257.00672893324
16.41701 236.992290098724
16.43712 229.994573957248
16.45724 234.056464925114
16.47735 271.037648657947
16.49746 254.057428675962
16.51758 248.965830242601
16.53769 296.989903089454
16.5578 273
16.57792 249.00948735304
16.59803 273.008074664592
16.61814 246.925536455291
16.63826 232.95161508722
16.65837 276.954773337135
16.67849 277.006640251312
16.6986 268
16.71871 272.006843298452
16.73883 278.972819614116
16.75894 246.968009980721
16.77905 255.966448775701
16.79917 255.020630436519
16.81928 247.982222778021
16.8394 277
16.85951 261.995668644098
16.87962 263.987713801134
16.89974 232.942294262066
16.91985 238.867840394203
16.93996 295.989334818439
16.96008 249.043697907461
16.98019 243.992891685171
17.00031 255.002339991087
17.02042 253.996897376344
17.04053 256.016102865503
17.06065 270.019901341489
17.08076 269.007639349275
17.10087 273.971205210202
17.12099 287.009665163822
17.1411 248
17.16121 261.009669991974
17.18133 266.998074856269
17.20144 267.007399765065
17.22156 269.015049489092
17.24167 258.996232515019
17.26178 271.993672209849
17.2819 269
17.30201 279.003129606004
17.32212 281.008690148655
17.34224 276.905854180959
17.36235 227.946088753354
17.38247 299.955679363606
17.40258 250.073663443749
17.42269 224.979369867973
17.44281 290.013889807849
17.46292 262.960849294953
17.48303 249.009794710816
17.50315 267.062755462289
17.52326 277.046729255233
17.54338 245.994397936596
17.56349 276.001101363273
17.5836 244
17.60372 275.009848697243
17.62383 266.043174363278
17.64394 317.001273339794
17.66406 261.091599790758
17.68417 260.976329038455
17.70428 268.993512877956
17.7244 272
17.74451 258.999618931771
17.76463 273.0224442917
17.78474 280.007076916074
17.80485 282.998289239227
17.82497 275.031794751204
17.84508 265.966600037397
17.86519 316.993622937725
17.88531 273.96979386109
17.90542 244.011122206259
17.92554 275.038073157194
17.94565 264.937808420292
17.96576 253.96445924871
17.98588 280.001334845245
18.00599 247.016589556899
18.0261 246
18.04622 283.010330737763
18.06633 261.960522547527
18.08645 253.01370854082
18.10656 260.003130537053
18.12667 252.003381234076
18.14679 272.975349269408
18.1669 316
18.18701 274.986342979787
18.20713 274.98639167176
18.22724 246.9596997417
18.24735 250.955009479945
18.26747 264.997126497415
18.28758 259.998702878908
18.3077 268
18.32781 261.99872330115
18.34792 256.975566997398
18.36804 235.039421156526
18.38815 287.9057428453
18.40826 280.07296874618
18.42838 254.990082987208
18.44849 281.998694436116
18.46861 263.001812308216
18.48872 286.997908908445
18.50883 264.011389204973
18.52895 297.004422998978
18.54906 259.058909632495
18.56917 258.995752310165
18.58929 257.992422439194
18.6094 282
18.62951 269.999998181386
18.64963 279.983320633567
18.66974 252.98711673031
18.68986 270.980150593599
18.70997 265.99180863658
18.73008 281.999026130926
18.7502 268
18.77031 283.007579266067
18.79042 284.993351811152
18.81054 278.998978228419
18.83065 279.022864280066
18.85077 267.993515069378
18.87088 280.005266966424
18.89099 268.990092375294
18.91111 301.995769103275
18.93122 249.957152765026
18.95133 245.014826664686
18.97145 251.015794478965
18.99156 261.969140320854
19.01168 274.996543473043
19.03179 271.999677676903
19.0519 275
19.07202 253.969797330325
19.09213 235.011250746262
19.11224 262.048551490486
19.13236 269.006439779288
19.15247 267.990471687259
19.17258 274.007306289103
19.1927 261
19.21281 273.999530533231
19.23293 251.962157325613
19.25304 242.012861730173
19.27315 265.897569641503
19.29327 296.014144209759
19.31338 262.014895593089
19.33349 277.992425180294
19.35361 271.992075406632
19.37372 267.015459808384
19.39384 286.99762689914
19.41395 268.987556073822
19.43406 279.999537802758
19.45418 273.981023545204
19.47429 301.006777725547
19.4944 259
19.51452 285.00339877344
19.53463 263.011343039988
19.55475 295.998455871477
19.57486 266.986499508287
19.59497 311.967885290407
19.61509 293.007246592305
19.6352 309
19.65531 323.998223891462
19.67543 316.011208149836
19.69554 336.019234229208
19.71565 344.899273815903
19.73577 403.952299704488
19.75588 398.009040381248
19.776 410
19.79611 431.009249389923
19.81622 449.020167037233
19.83634 470.034507333998
19.85645 486.940137936884
19.87656 505.017601361341
19.89668 482.003378615996
19.91679 505.987402136004
19.93691 512.997563211527
19.95702 504.991316511486
19.97713 490.960866982561
19.99725 457.931679840688
20.01736 446.991495120076
20.03747 459.97531562768
20.05759 467.005190613347
20.0777 444
20.09782 434.002458082066
20.11793 447.03273268867
20.13804 458.969698336564
20.15816 435.98792900383
20.17827 469.964039794064
20.19838 472.991360070932
20.2185 492
20.23861 473.982992966936
20.25872 457.024548766228
20.27884 487.955289076407
20.29895 435.001542471372
20.31907 502.895614384504
20.33918 517.032880383306
20.35929 481.001763260277
20.37941 504.004028095936
20.39952 479.968187692607
20.41963 474.04461706148
20.43975 524.110968912139
20.45986 540.021106200573
20.47998 525.996483668717
20.50009 538.004780542624
20.5202 518
20.54032 563.040524816356
20.56043 567.964062186713
20.58054 552.044870385144
20.60066 608.887992775773
20.62077 642.963123499459
20.64088 677.948346197048
20.661 723
20.68111 749.065163565636
20.70123 980.357906940242
20.72134 1183.42097949306
20.74145 1487.91516322915
20.76157 2053.02732857987
20.78168 2860.93028142361
20.80179 4062.46584236361
20.82191 5000.51983132001
20.84202 6079.79123471645
20.86214 6411.00951619879
20.88225 6169.65344835611
20.90236 5200.91562326688
20.92248 3595.30820391605
20.94259 2672.42563202235
20.9627 1723
20.98282 1090.62028864819
21.00293 863.741431288269
21.02305 694.718440144204
21.04316 647.047367337617
21.06327 625.996476578869
21.08339 642.000420190902
21.1035 605
21.12361 546.981941923654
21.14373 531.982383701971
21.16384 527.046843574034
21.18395 553.048212124137
21.20407 512.982127171691
21.22418 568.981008623943
21.2443 522
21.26441 502.012041332984
21.28452 537.009211089508
21.30464 521.99730688649
21.32475 539.987334440177
21.34486 527.008013216196
21.36498 534.007085449939
21.38509 513.004688418883
21.40521 518.999884230749
21.42532 497.965446840179
21.44543 466.974824768696
21.46555 464.000788414439
21.48566 456.03434941812
21.50577 452.946623444872
21.52589 498.998556527875
21.546 444
21.56612 408.021198621758
21.58623 451.015261647975
21.60634 427.995020496642
21.62646 446.030290610183
21.64657 398.039684417662
21.66668 403.007608917479
21.6868 385
21.70691 433.012192071514
21.72702 403.940822012127
21.74714 359.988942574463
21.76725 385.931448034146
21.78737 390.022058502272
21.80748 369.019200470787
21.82759 363.993066598159
21.84771 384.004219362026
21.86782 371.976186363594
21.88793 365.045235620987
21.90805 400.974622176554
21.92816 344.10380839568
21.94828 346.94304326335
21.96839 406.994068204834
21.9885 386
22.00862 430.008141120413
22.02873 380.910004837334
22.04884 366.082073504027
22.06896 404.071044233725
22.08907 319.059188075057
22.10919 364.961798304923
22.1293 406
22.14941 378.995942011847
22.16953 381.951142870951
22.18964 320.929929117229
22.20975 335.911713902442
22.22987 349.033880185229
22.24998 315.007403717043
22.27009 346.976972736107
22.29021 381.010075301667
22.31032 379.971792750107
22.33044 347.988283032478
22.35055 368.040363345353
22.37066 362.033796868496
22.39078 347.011238018819
22.41089 339.003413850569
22.431 345
22.45112 371.974937091658
22.47123 319.98924836501
22.49135 359.038224130497
22.51146 334.024495164425
22.53157 348.994196938717
22.55169 327.011984526489
22.5718 323
22.59191 351.01894930264
22.61203 365.943342354142
22.63214 305.957137094757
22.65225 337.900737672602
22.67237 341.04942686048
22.69248 315.973362704231
22.7126 374
22.73271 348.986731256831
22.75282 342.989090096502
22.77294 330.026942613174
22.79305 362.958752137439
22.81316 343.081547644783
22.83328 313.002528860889
22.85339 326.998508053349
22.87351 311.993826194173
22.89362 319.022602687734
22.91373 332.976911991358
22.93385 315.067419795407
22.95396 361.017885003141
22.97407 307.02299754474
22.99419 348.982993792764
23.0143 342
23.03442 335.992313854055
23.05453 320.976434081501
23.07464 319.03972376463
23.09476 339.020170565168
23.11487 306.027693041765
23.13498 322.964019250734
23.1551 336
23.17521 284.997311823586
23.19532 328.033765626098
23.21544 325.985081071709
23.23555 330.987519258249
23.25567 330.000814546467
23.27578 330.005803465893
23.29589 314.011981594066
23.31601 299.004581181166
23.33612 322.011238332057
23.35623 315.994804099197
23.37635 317.976758361266
23.39646 300.014019986742
23.41658 314.971516976282
23.43669 330.008712664498
23.4568 304
23.47692 347.034229648823
23.49703 339.942744022181
23.51714 303.980031374735
23.53726 326.921844983432
23.55737 344.040598898943
23.57749 306.995086139318
23.5976 355
23.61771 325.982459243941
23.63783 310.982828192538
23.65794 303.024458343484
23.67805 335.908023265494
23.69817 350.029072643156
23.71828 322.00082435498
23.73839 339.00515212712
23.75851 306.998693166705
23.77862 349.050778203918
23.79874 371.986807599225
23.81885 347.930934265108
23.83896 331.010146756011
23.85908 339.975739580221
23.87919 365.99378398914
23.8993 359
23.91942 350.008775719549
23.93953 371.027046970386
23.95965 383.043925419221
23.97976 414.914794993285
23.99987 447.991504764218
24.01999 424.019069933749
24.0401 396
24.06021 399.999769803033
24.08033 396.015164770821
24.10044 409.979894324289
24.12056 385.005177386435
24.14067 398.02282241567
24.16078 354.028835392193
24.1809 362
24.20101 381.008750360304
24.22112 392.999549295571
24.24124 384.992396130788
24.26135 384.027768235174
24.28146 371.981002724326
24.30158 392.003241462206
24.32169 367.005671961939
24.34181 380.006371776402
24.36192 368.966244915986
24.38203 330.963933879345
24.40215 335.071644561815
24.42226 366.966759041423
24.44237 370.982061952826
24.46249 376.018827686311
24.4826 332
24.50272 399.016775928508
24.52283 354.968170436103
24.54294 379.017476443942
24.56306 359.997456562687
24.58317 396.94018059909
24.60328 416.990599479593
24.6234 415
24.64351 390.002421410372
24.66362 416.007378935035
24.68374 395.966837782076
24.70385 406.920188980148
24.72397 446.938555709644
24.74408 475.989783804018
24.76419 490.975203943605
24.78431 552.00906483208
24.80442 519.964274967224
24.82453 525.06652491607
24.84465 571.02663661895
24.86476 546.048565279466
24.88488 556.955263657167
24.90499 598.998309402796
24.9251 556
24.94522 531.038285718558
24.96533 577.960681908672
24.98544 493.911108447298
25.00556 513.974033880142
25.02567 475.095998885842
25.04579 434.996346963766
25.0659 461
25.08601 411.976326891801
25.10613 400.021850628137
25.12624 414.996184546654
25.14635 395.054190282238
25.16647 394.956478948789
25.18658 432.981153761718
25.20669 418.017803450097
25.22681 388.996158750086
25.24692 413.051509577268
25.26704 465.057058011078
25.28715 452.883399017676
25.30726 398.082913404743
25.32738 387.980948338464
25.34749 406.005507178431
25.3676 395
25.38772 444.943294722275
25.40783 318.930166705486
25.42795 379.116792458872
25.44806 359.042118669873
25.46817 368.988749826526
25.48829 356.008907654515
25.5084 349
25.52851 372.024610069914
25.54863 407.962580076795
25.56874 345.945073480329
25.58886 378.904088730231
25.60897 395.027340725916
25.62908 371.995724786112
25.6492 401
25.66931 399.000425660624
25.68942 416.0225625799
25.70954 434.026722836087
25.72965 459.862951641859
25.74976 514.982569579998
25.76988 481.026431278158
25.78999 480.003746553607
25.81011 469.010317687051
25.83022 524.056415817927
25.85033 538.9437099358
25.87045 487.965089293013
25.89056 514.95644267705
25.91067 519.966607095164
25.93079 531.03160146871
25.9509 444
25.97102 528.038627112758
25.99113 506.039369155112
26.01124 585.053988489209
26.03136 544.041253927669
26.05147 568.988227639324
26.07158 546.00460225832
26.0917 576
26.11181 592.008314107767
26.13193 632.10414663387
26.15204 691.00237178266
26.17215 654.021115879357
26.19227 691.946701505
26.21238 730.903875100258
26.23249 846.978815532094
26.25261 811.988229108737
26.27272 861.093887447297
26.29283 950.089963727779
26.31295 994.157672875262
26.33306 1068.91558739279
26.35318 1101.91037724466
26.37329 1255.92140019115
26.3934 1393
26.41352 1617.31966499645
26.43363 1987.5168825396
26.45374 2379.14763789044
26.47386 3213.96600477848
26.49397 4411.86508061662
26.51409 6225.86214688887
26.5342 9038
26.55431 12740.0293470223
26.57443 17358.9602801074
26.59454 22786.3671447106
26.61465 26486.0169870451
26.63477 28975.505543951
26.65488 27845.1394030381
26.67499 23454.4601952186
26.69511 18453.4022528857
26.71522 13402.7177435446
26.73534 9756.76397155802
26.75545 6018.80773930067
26.77556 3524.74081121376
26.79568 2132.83074901856
26.81579 1685.14522645504
26.8359 1409
26.85602 1333.90703874135
26.87613 1197.86167889442
26.89625 1143.73735584459
26.91636 1003.13683778863
26.93647 1002.06556767539
26.95659 868.079588791326
26.9767 753
26.99681 713.975134216752
27.01693 656.962622405751
27.03704 657.965026720835
27.05716 601.143112569652
27.07727 544.053902697155
27.09738 536.975958480347
27.1175 554
27.13761 482.968483776602
27.15772 472.038061336543
27.17784 514.006748913381
27.19795 481.061323936461
27.21806 469.078764288573
27.23818 430.966927896088
27.25829 502.995877687949
27.27841 440.982024949297
27.29852 476.055252421683
27.31863 496.972971752971
27.33875 454.884714356276
27.35886 423.035923987394
27.37897 426.947811253946
27.39909 466.995047984556
27.4192 456
27.43932 489.006815513951
27.45943 455.940389974288
27.47954 429.952174966884
27.49966 420.938147646638
27.51977 463.001828856978
27.53988 419.031635442004
27.56 424
27.58011 417.991847089234
27.60023 410.018376504287
27.62034 423.970568747216
27.64045 389.039570876407
27.66057 403.972284621343
27.68068 411.989441012676
27.70079 419.007971540677
27.72091 391.996803021444
27.74102 396.975902306297
27.76113 352.979352769881
27.78125 376.041886890583
27.80136 374.975558084614
27.82148 402.985237954164
27.84159 387.017682838256
27.8617 358
27.88182 374.026840800357
27.90193 389.993517446931
27.92204 370.962686534443
27.94216 363.00306645725
27.96227 363.993953591285
27.98239 364.005810570279
28.0025 347
28.02261 359.014875901746
28.04273 375.963620458535
28.06284 335.996760302269
28.08295 369.968297061338
28.10307 337.069126501784
28.12318 323.965638735747
28.1433 376
28.16341 360.988450460672
28.18352 347.984060619988
28.20364 326.970692028576
28.22375 326.022554122685
28.24386 340.959613783555
28.26398 356.997454785499
28.28409 349.003210086632
28.3042 354
28.32432 366.00043650656
28.34443 350.962550471582
28.36455 330.987409298895
28.38466 330.034744880969
28.40477 305.004465756468
28.42489 335.976520468701
28.445 367
28.46511 333.973249825914
28.48523 298.011965017101
28.50534 331.025843539451
28.52546 314.023637379225
28.54557 320.993187118728
28.56568 313.009282216757
28.5858 316
28.60591 331.997669327375
28.62602 317.003942106145
28.64614 340.025734493102
28.66625 327.063595070972
28.68636 311.989290977905
28.70648 325.002154209583
28.72659 316.990875504441
28.74671 344.994368893647
28.76682 309.002816851931
28.78693 349.018237808004
28.80705 315.922793675715
28.82716 312.99182856081
28.84727 301.044999371203
28.86739 276.995715639406
28.8875 305
28.90762 292.005923511713
28.92773 313.993584550561
28.94784 286.99209186042
28.96796 315.948374060417
28.98807 315.023834170635
29.00818 307.986073505385
29.0283 332
29.04841 314.98185868048
29.06853 295.035945480683
29.08864 353.108397420109
29.10875 358.131561448515
29.12887 295.025221667777
29.14898 329.964095053381
29.16909 332.008155858637
29.18921 316.995297675397
29.20932 311.994243427165
29.22943 307.003873762319
29.24955 311.988631999336
29.26966 298.022332811239
29.28978 296.995454210755
29.30989 303.994571016015
29.33 312
29.35012 306.007992647964
29.37023 322.001739082104
29.39034 306.98042948356
29.41046 312.977878128775
29.43057 314.0203316814
29.45069 298.000754894263
29.4708 305
29.49091 286.998950951578
29.51103 296.987744286996
29.53114 278.015550227632
29.55125 310.953440805811
29.57137 304.007199550809
29.59148 310.002428742925
29.6116 295
29.63171 294.001918767896
29.65182 299.008879389034
29.67194 309.010853282504
29.69205 306.983039304361
29.71216 301.004251174789
29.73228 305.987642948782
29.75239 308.013214032658
29.7725 278
29.79262 311.998866303053
29.81273 281.005108123366
29.83285 319.021673830044
29.85296 292.010633045057
29.87307 316.990006606099
29.89319 302.994145327556
29.9133 335
29.93341 298.987795608176
29.95353 314.052317162816
29.97364 326.936755501123
29.99376 278.030981664694
30.01387 305.953053767445
30.03398 301.040954641996
30.0541 259
30.07421 290.019232706368
30.09432 313.014866447824
30.11444 309.923304632689
30.13455 268.981535578681
30.15467 309.986555750025
30.17478 281.007161956123
30.19489 312.985757647752
30.21501 307.986912902263
30.23512 281.983698385118
30.25523 288.047689777139
30.27535 324.03645041957
30.29546 318.995512768544
30.31557 320.053294805523
30.33569 269.00453260994
30.3558 306
30.37592 304.996861654293
30.39603 308.987484135446
30.41614 288.977293971707
30.43626 295.970221540495
30.45637 306.991752531761
30.47648 308.001015641778
30.4966 302
30.51671 284.998891835285
30.53683 304.046879295099
30.55694 322.981171880291
30.57705 296.04323585081
30.59717 296.998293444319
30.61728 291.002179438771
30.63739 293.002191743522
30.65751 289.006889864989
30.67762 305.988088370052
30.69773 270.969984617031
30.71785 287.088741323965
30.73796 306.035148518804
30.75808 271.013127147699
30.77819 293.982930591831
30.7983 307
30.81842 276.979149176883
30.83853 274.001509843173
30.85864 279.045660585095
30.87876 306.988116828453
30.89887 290.021015293995
30.91899 293.994389775888
30.9391 302
30.95921 297.990528601657
30.97933 274.985395812299
30.99944 277.996623044991
31.01955 274.958964212571
31.03967 305.970794431214
31.05978 308.992706035271
31.0799 316
31.10001 277.987762915227
31.12012 278.003376806492
31.14024 279.027920732934
31.16035 303.954624236293
31.18046 308.000399986417
31.20058 307.008367292865
31.22069 294.004042433565
31.2408 289
31.26092 277.009529340311
31.28103 300.011788514441
31.30115 283.949376861393
31.32126 271.026421216236
31.34137 259.997496148799
31.36149 280.981871291561
31.3816 310
31.40171 295.999271707908
31.42183 299.960192155989
31.44194 251.952058373269
31.46206 272.916747129369
31.48217 298.007981163504
31.50228 278.005194151848
31.5224 288
31.54251 267.995385343499
31.56262 281.019951051626
31.58274 293.008045369052
31.60285 292.008059650185
31.62297 294.977779944326
31.64308 312.99342321999
31.66319 295.020516581152
31.68331 266.008683139713
31.70342 310.016433967116
31.72353 283.955598227601
31.74365 272.979041674057
31.76376 267.96928325298
31.78387 295.976612776511
31.80399 285.013414094449
31.8241 272
31.84422 304.002896965444
31.86433 275.970000199855
31.88444 292.083039094715
31.90456 317.047572285106
31.92467 266.036310073665
31.94478 279.990107089863
31.9649 266
31.98501 271.012249796376
32.00513 290.987835125176
32.02524 272.021535419129
32.04535 309.946317901981
32.06547 296.037747426941
32.08558 284.995385880216
32.10569 289.007127884278
32.12581 270.003858030386
32.14592 287.980454816306
32.16604 244.991454634584
32.18615 282.04811698588
32.20626 266.020126179143
32.22638 282.976088025497
32.24649 292.004002514726
32.2666 275
32.28672 275.020179929358
32.30683 292.983121758068
32.32694 263.983601396195
32.34706 285.954049363822
32.36717 286.027204625703
32.38729 269.000528057764
32.4074 292
32.42751 323.000643872525
32.44763 296.954207281461
32.46774 291.05092242716
32.48785 318.021773791912
32.50797 278.044206562779
32.52808 277.992923120267
32.5482 276
32.56831 271.997158964596
32.58842 278.033556237655
32.60854 320.029576032895
32.62865 308.008074122456
32.64876 316.027729985392
32.66888 286.006716530397
32.68899 305.994617888351
32.7091 302
32.72922 325.00012529001
32.74933 304.99528922467
32.76945 324.024033379445
32.78956 318.98728634056
32.80967 341.972114045148
32.82979 340.008975684871
32.8499 322
32.87001 331.008398820656
32.89013 333.962492191242
32.91024 309.034937185754
32.93036 359.935369343498
32.95047 352.028168267206
32.97058 335.031767827739
32.9907 310
33.01081 370.026975632772
33.03092 381.978419748908
33.05104 356.987037535006
33.07115 364.015342921133
33.09127 351.975723530199
33.11138 390.978218967008
33.13149 392.990407259739
33.15161 419.993975161322
33.17172 375.978145185875
33.19183 395.037586132154
33.21195 399.98290899331
33.23206 394.001373956206
33.25217 390.030257290783
33.27229 369.995071663428
33.2924 402
33.31252 394.998810162555
33.33263 394.951119115984
33.35274 352.006044759589
33.37286 386.012893270573
33.39297 347.984007497224
33.41308 398.997803340389
33.4332 343
33.45331 353.99982750427
33.47343 324.972410813097
33.49354 330.004957512286
33.51365 323.986267889112
33.53377 338.000954779142
33.55388 323.005817706567
33.57399 330.000016585434
33.59411 325.005980374419
33.61422 339.982063153185
33.63434 297.958132231418
33.65445 307.008788693393
33.67456 290.033739657237
33.69468 292.977756175696
33.71479 314.998787208174
33.7349 305
33.75502 323.005704587557
33.77513 304.959657193234
33.79524 282.964952783764
33.81536 282.93750322054
33.83547 324.973204080269
33.85559 307.015403903778
33.8757 293
33.89581 301.988097874242
33.91593 255.96223373902
33.93604 273.076584020975
33.95615 293.04400743697
33.97627 260.010201949461
33.99638 278.00016921376
34.0165 255
34.03661 279.016214880002
34.05672 287.976023842532
34.07684 263.03140198877
34.09695 304.970719964147
34.11706 276.047752289504
34.13718 284.976094447263
34.15729 288.017992953019
34.17741 250.007865467694
34.19752 292.988096865291
34.21763 236.989196382174
34.23775 299.147857141703
34.25786 307.041355065872
34.27797 299.960715671196
34.29809 321.021266126723
34.3182 249
34.33831 311.022617632786
34.35843 293.942020555266
34.37854 277.016000094299
34.39866 293.986858070092
34.41877 282.02920777458
34.43888 275.982410231475
34.459 300
34.47911 287.002208740803
34.49922 312.015507085321
34.51934 308.998280339174
34.53945 302.104073119708
34.55957 253.994752266721
34.57968 308.951896811124
34.59979 318.002389142887
34.61991 323.006422460316
34.64002 330.992184225581
34.66013 310.973779379238
34.68025 303.993023518155
34.70036 305.972669142208
34.72047 322.99280593032
34.74059 319.99547356293
34.7607 339
34.78082 341.026746278833
34.80093 384.03110661912
34.82104 375.989086229516
34.84116 388.968283142654
34.86127 399.979657837849
34.88138 408.013386729575
34.9015 378
34.92161 374.007076211962
34.94173 392.016105658274
34.96184 391.993075321252
34.98195 391.992275045843
35.00207 394.999909494799
35.02218 401.973485070465
35.04229 429.002357818557
35.06241 390.979810012771
35.08252 379.017098318907
35.10264 397.985814162516
35.12275 368.952822897855
35.14286 378.948387144708
35.16298 392.015707144443
35.18309 366.000820916328
35.2032 378
35.22332 342.00843066993
35.24343 386.015014236945
35.26354 349.950074846205
35.28366 368.922262012453
35.30377 391.012294641166
35.32389 368.004411804289
35.344 377
35.36411 372.007023746778
35.38423 394.993786014531
35.40434 375.022562605119
35.42445 410.98352490857
35.44457 372.069912456649
35.46468 344.020125233303
35.4848 353
35.50491 444.018563473283
35.52502 413.963020234428
35.54514 421.084669577906
35.56525 458.003143015635
35.58536 430.021414468094
35.60548 450.977092480658
35.62559 457.000169877365
35.64571 450.9892288188
35.66582 434.017864116278
35.68593 475.032823591279
35.70605 473.02712406957
35.72616 500.975665402199
35.74627 482.049209024883
35.76639 467.989699521169
35.7865 500
35.80661 470.986115658333
35.82673 465.003946656008
35.84684 466.004634661171
35.86696 460.053330971731
35.88707 429.008981614075
35.90718 453.967534580233
35.9273 464
35.94741 434.994257242186
35.96752 430.96687179348
35.98764 382.977417350948
36.00775 411.946303280269
36.02787 405.013458622049
36.04798 409.99156181782
36.06809 406.010896087099
36.08821 385.002090652835
36.10832 405.002140430319
36.12843 387.994150396627
36.14855 398.989133026478
36.16866 385.969554208494
36.18878 417.002843891442
36.20889 366.031679245875
36.229 342
36.24912 403.043994345624
36.26923 408.987034104657
36.28934 404.993071657277
36.30946 412.931513441788
36.32957 470.905085888006
36.34968 530.935131359797
36.3698 600
36.38991 682.068380633953
36.41003 869.290675395729
36.43014 1065.46274603462
36.45025 1305.54474784238
36.47037 1483.56828624173
36.49048 1831.76396430266
36.51059 1947.92310163871
36.53071 2150.04889515435
36.55082 2056.77974862539
36.57094 1784.38647180348
36.59105 1487.37188804723
36.61116 1324.12367021697
36.63128 1267.15862709504
36.65139 1001.13363821264
36.6715 810
36.69162 669.82485314471
36.71173 479.777731147151
36.73184 416.020563056629
36.75196 444.994765349032
36.77207 405.080551902859
36.79219 373.001350865507
36.8123 390
36.83241 402.00535090459
36.85253 405.977921249051
36.87264 380.970738501459
36.89275 387.951389113644
36.91287 387.067791537957
36.93298 336.990629842584
36.9531 392
36.97321 357.982106632998
36.99332 354.007557408541
37.01344 359.017105252168
37.03355 369.985295898974
37.05366 372.980804253154
37.07378 374.032372642964
37.09389 327.008628879247
37.11401 342.002884021204
37.13412 332.009027443693
37.15423 356.000012248995
37.17435 334.999324277414
37.19446 361.962232677595
37.21457 360.001185059285
37.23469 357.015338004733
37.2548 307
37.27491 305.007026528136
37.29503 315.003441390143
37.31514 311.995222580574
37.33526 304.050792238781
37.35537 276.005021727593
37.37548 313.931631114897
37.3956 363
37.41571 313.986992551353
37.43582 328.010284424572
37.45594 316.987493969153
37.47605 320.022676305308
37.49617 304.989766478626
37.51628 335.970642753811
37.53639 336.015831748499
37.55651 300.996471415644
37.57662 329.039117878549
37.59673 359.035542823769
37.61685 359.89613481869
37.63696 308.018960500602
37.65708 342.970889310596
37.67719 337.010181993116
37.6973 330
37.71742 352.010777837905
37.73753 342.972990473983
37.75764 334.01508649394
37.77776 346.006493164253
37.79787 327.023269271008
37.81798 320.012359759718
37.8381 308
37.85821 324.997080846838
37.87833 296.9732903062
37.89844 298.999254798798
37.91855 292.981612208236
37.93867 312.98100445145
37.95878 312.99824336231
37.97889 314.008355971563
37.99901 290.999748851557
38.01912 321.039724541323
38.03924 331.927691550828
38.05935 289.022787524161
38.07946 347.905713855493
38.09958 338.051776472213
38.11969 293.002001850757
38.1398 327
38.15992 343.013900340703
38.18003 356.998698240196
38.20015 353.048458807189
38.22026 378.027965103009
38.24037 338.012542061355
38.26049 370.986902643149
38.2806 366
38.30071 376.020107392867
38.32083 416.001822451986
38.34094 383.956949167624
38.36105 387.003989287876
38.38117 380.971348589424
38.40128 420.973510388933
38.4214 418
38.44151 412.0023586382
38.46162 417.99563943547
38.48174 406.995533042154
38.50185 407.048474950158
38.52196 381.989426629777
38.54208 406.00508827587
38.56219 369.011797557684
38.58231 375.003439047291
38.60242 362.978087169955
38.62253 346.995804614368
38.64265 348.978410933135
38.66276 328.038391701915
38.68287 331.947777127164
38.70299 363.007902145298
38.7231 310
38.74321 316.012072612781
38.76333 322.96895679751
38.78344 307.063440391717
38.80356 355.021794075435
38.82367 297.027458161826
38.84378 333.978967720596
38.8639 315
38.88401 327.002940484127
38.90412 320.003298222904
38.92424 336.015698902012
38.94435 328.026936454097
38.96447 327.982957721589
38.98458 342.989978854273
39.00469 341.006300118686
39.02481 339.014248100491
39.04492 369.985194304382
39.06503 335.027942475769
39.08515 396.045631121991
39.10526 356.057914127047
39.12538 368.982946927557
39.14549 378.985322806902
39.1656 414
39.18572 389.001351111315
39.20583 422.028341328568
39.22594 415.000975889454
39.24606 457.828148359452
39.26617 546.926090930502
39.28628 564.963285491194
39.3064 640
39.32651 738.077185336412
39.34663 942.304203976673
39.36674 1124.37295779149
39.38685 1338.41708052068
39.40697 1576.65510264182
39.42708 1816.72602085937
39.44719 2034.97937820431
39.46731 1913.9255877275
39.48742 1762.74225670246
39.50754 1410.35560808479
39.52765 1215.78719937526
39.54776 1157.18746133081
39.56788 1000.18335854477
39.58799 832.071419350112
39.6081 689
39.62822 501.852707094582
39.64833 420.944915957513
39.66845 392.92246734187
39.68856 358.053699239968
39.70867 339.033507094571
39.72879 318.001583992254
39.7489 331
39.76901 315.976413302681
39.78913 273.006799825346
39.80924 325.112696848792
39.82935 337.097242280188
39.84947 284.034840553508
39.86958 301.972943174992
39.8897 317
39.90981 322.990838019553
39.92992 295.997094739911
39.95004 323.060205182692
39.97015 336.988329814957
39.99026 338.008455525712
40.01038 330.008595574095
40.03049 328.994130363015
40.05061 351.01214217599
40.07072 367.004522292256
40.09083 372.030447096725
40.11095 417.159344238555
40.13106 478.913168795459
40.15117 526.864917428677
40.17129 647.949768128345
40.1914 709
40.21152 799.144816444102
40.23163 968.213977932253
40.25174 1076.22230967625
40.27186 1151.08341676066
40.29197 1031.11899279986
40.31208 988.127893070442
40.3322 812
40.35231 839.967571145009
40.37242 664.882541177051
40.39254 656.977884357821
40.41265 566.331490083958
40.43277 443.144423475768
40.45288 384.025823278888
40.47299 376.99880747319
40.49311 365.981252018768
40.51322 321.983400932764
40.53333 332.003838889019
40.55345 322.015718589867
40.57356 342.989862656342
40.59368 337.978924888595
40.61379 362.016375405773
40.6339 297
40.65402 342.022168468021
40.67413 318.983477299658
40.69424 333.996403794362
40.71436 309.022892542217
40.73447 318.995554184396
40.75458 306.009275223781
40.7747 310
40.79481 302.985677675728
40.81493 283.040226703673
40.83504 341.07028937786
40.85515 329.07508174358
40.87527 312.002451152535
40.89538 323.978493315176
40.91549 340.000422537545
40.93561 317.982004842303
40.95572 302.031447283959
40.97584 353.029581735712
40.99595 324.943823995835
41.01606 328.992943483084
41.03618 322.000466408572
41.05629 329.000844647851
41.0764 308
41.09652 295.038455938043
41.11663 350.009367002724
41.13675 303.90752536986
41.15686 311.943303633206
41.17697 332.9846227632
41.19709 324.016713628679
41.2172 299
41.23731 344.00245634649
41.25743 305.968665093436
41.27754 328.06248548788
41.29765 331.073415375372
41.31777 287.054183103625
41.33788 275.990427438071
41.358 294
41.37811 306.00274120462
41.39822 306.998243358131
41.41834 309.021037257811
41.43845 323.974303234106
41.45856 315.067580991388
41.47868 278.012205193094
41.49879 293.990106164709
41.51891 296.994877308496
41.53902 294.021225622429
41.55913 318.986600668238
41.57925 293.028409736253
41.59936 338.953995026517
41.61947 315.056921108419
41.63959 295.001258857071
41.6597 295
41.67982 272.983836576973
41.69993 276.029683318661
41.72004 301.041340960247
41.74016 302.049658013057
41.76027 274.00296971242
41.78038 287.012226965761
41.8005 256
41.82061 287.01146537628
41.84072 279.982495335535
41.86084 276.028616654183
41.88095 299.950652906304
41.90107 307.00141570856
41.92118 302.00992551147
41.94129 291.00354581438
41.96141 286.996750174333
41.98152 284.012200848422
42.00163 311.04413958163
42.02175 319.943551670292
42.04186 285.033048589978
42.06198 290.997593214129
42.08209 283.998040972476
42.1022 304
42.12232 310.993873414515
42.14243 301.996725061778
42.16254 312.035875039706
42.18266 331.960540816699
42.20277 348.980025353713
42.22289 367.982757543815
42.243 402
42.26311 405.024181526383
42.28323 508.174308408886
42.30334 612.209285762148
42.32345 727.699428027786
42.34357 857.779433966993
42.36368 1028.81007233207
42.38379 1210.92654938791
42.40391 1323.0500939557
42.42402 1374.94178447886
42.44414 1270.95437077362
42.46425 1316.94324357552
42.48436 1158.44391870498
42.50448 962.147406566371
42.52459 881.007797946921
42.5447 873
42.56482 755.866758981359
42.58493 624.773171123591
42.60505 466.688421442973
42.62516 385.130305598985
42.64527 331.029086884955
42.66539 336.001924815235
42.6855 312
42.70561 294.984590623971
42.72573 265.00741312663
42.74584 287.980764551678
42.76595 252.012764780936
42.78607 284.968331326557
42.80618 276.007585551711
42.8263 280
42.84641 270.006302507894
42.86652 297.006103337268
42.88664 273.949546209318
42.90675 262.02364494114
42.92686 252.998794091345
42.94698 259.002015092683
42.96709 245.008189439959
42.98721 238.002429206993
43.00732 249.008900224307
43.02743 248.988500414557
43.04755 249.054514854928
43.06766 277.986300554945
43.08777 256.042781811047
43.10789 249.988178210329
43.128 276
43.14812 244.987263683211
43.16823 251.978849699594
43.18834 228.036539001828
43.20846 283.927889374481
43.22857 278.02053716387
43.24868 275.008141128146
43.2688 256
43.28891 240.992076337
43.30902 229.00217552076
43.32914 247.050293140534
43.34925 259.033186706892
43.36937 240.985066560018
43.38948 267.999880661081
43.40959 242.00364461862
43.42971 263.00701793469
43.44982 249.974914406951
43.46993 241.031033418871
43.49005 273.02778901393
43.51016 258.028865611211
43.53028 252.016030964208
43.55039 239.987574500452
43.5705 282
43.59062 252.989714737739
43.61073 272.008135265857
43.63084 257.000739325578
43.65096 270.025739315207
43.67107 238.008422052386
43.69119 263.991428469896
43.7113 264
43.73141 288.999448587162
43.75153 259.966645093767
43.77164 259.001349100063
43.79175 253.995843195127
43.81187 267.9707701823
43.83198 280.002016989227
43.85209 253.028047552777
43.87221 215.016257820715
43.89232 282.012718572225
43.91244 236.963997031857
43.93255 273.082534477733
43.95266 271.025267128136
43.97278 264.009493381431
43.99289 250.006034156813
44.013 246
44.03312 248.992941402738
44.05323 235.991462966321
44.07335 241.015061291602
44.09346 242.995125535832
44.11357 260.934287859833
44.13369 293.014294514645
44.1538 228
44.17391 258.017665290268
44.19403 254.950419838546
44.21414 232.038530716712
44.23426 268.010702290611
44.25437 231.001637708396
44.27448 264.999554535331
44.2946 220
44.31471 230.014137048951
44.33482 249.006717619112
44.35494 246.991092823656
44.37505 255.920561579559
44.39516 281.042542458484
44.41528 229.026766650407
44.43539 248.983661803007
44.45551 265.001740817893
44.47562 263.99817026923
44.49573 255.965414421316
44.51585 233.003751459371
44.53596 253.977888539223
44.55607 250.988180242167
44.57619 270.995973691129
44.5963 251
44.61642 231.032937670604
44.63653 282.001536327964
44.65664 235.954925792124
44.67676 263.929695313594
44.69687 265.047372823185
44.71698 232.004148958098
44.7371 264
44.75721 283.989631986102
44.77732 245.98415607665
44.79744 260.025240138464
44.81755 253.034220493141
44.83767 248.986078734858
44.85778 259.005608911866
44.87789 243.002335271019
44.89801 254.004661358637
44.91812 250.991207193689
44.93823 247.007448799944
44.95835 256.009745687028
44.97846 253.999409861205
44.99858 262.984224445617
45.01869 276.997386773773
45.0388 272
45.05892 261.989162360602
45.07903 253.99913028232
45.09914 259.008513808875
45.11926 267.949696101158
45.13937 295.991863311689
45.15949 274.014358522494
45.1796 263
45.19971 290.016274020632
45.21983 293.92686233746
45.23994 241.032076091495
45.26005 299.001570815364
45.28017 242.015832894786
45.30028 297.960531076609
45.32039 289.003438334601
45.34051 306.005947618623
45.36062 297.986075957135
45.38074 287.980153220503
45.40085 290.074555211532
45.42096 326.986307514144
45.44108 298.033593413018
45.46119 293.985485044564
45.4813 329
45.50142 312.988051789546
45.52153 319.012215225692
45.54165 337.127771848102
45.56176 395.966321199352
45.58187 376.003926004271
45.60199 403.991354656951
45.6221 410
45.64221 481.036398359983
45.66233 550.137689188667
45.68244 663.207047419662
45.70256 760.755275775006
45.72267 905.803831072432
45.74278 992.952729336834
45.7629 1012
45.78301 994.985831899438
45.80312 949.93145472421
45.82324 863.82273220917
45.84335 763.333739935431
45.86346 632.136739916431
45.88358 626.002749099043
45.90369 584.031966741993
45.92381 517.968081861815
45.94392 452.928233961744
45.96403 379.908418499189
45.98415 345.991985804195
46.00426 353.01309222826
46.02437 325.049831670481
46.04449 301.007892885764
46.0646 284
46.08472 266.015576118068
46.10483 300.017475419991
46.12494 270.904880118105
46.14506 247.953024923386
46.16517 292.970700141612
46.18528 272.029707294982
46.2054 266
46.22551 295.011734164917
46.24563 294.960840811182
46.26574 258.946735885255
46.28585 247.026004446418
46.30597 240.977883718942
46.32608 261.006917224735
46.34619 236.000926842048
46.36631 261.00711965869
46.38642 253.9985325662
46.40653 269.023388989304
46.42665 268.959433791319
46.44676 255.978984397097
46.46688 279.992900907875
46.48699 263.008959575895
46.5071 256
46.52722 251.010360977095
46.54733 276.038118516909
46.56744 283.972788983343
46.58756 266.001494717256
46.60767 273.024089374541
46.62779 236.012172175478
46.6479 242
46.66801 258.003214899573
46.68813 266.037581215018
46.70824 284.947943984927
46.72835 241.981096358247
46.74847 292.970436420837
46.76858 257.041328421695
46.78869 244.998849126689
46.80881 248.002607580225
46.82892 247.985777711231
46.84904 233.013790824289
46.86915 261.064280663539
46.88926 268.010792426087
46.90938 261.004283034192
46.92949 261.99769953822
46.9496 270
46.96972 272.977255550179
46.98983 237.973938310709
47.00995 250.059524818732
47.03006 262.012620776013
47.05017 244.024927770467
47.07029 240.994972148967
47.0904 252
47.11051 238.991524584514
47.13063 232.011866674759
47.15074 256.072379526482
47.17086 270.078446161795
47.19097 209.029536217331
47.21108 250.93915849678
47.2312 279
47.25131 247.994691328408
47.27142 266.018530673
47.29154 267.992250640676
47.31165 259.059365300853
47.33176 228.040669809431
47.35188 234.966744049106
47.37199 271.990741339659
47.39211 267.995621655955
47.41222 270.010591341037
47.43233 267.94952181375
47.45245 231.01882790436
47.47256 269.981045244209
47.49267 238.037066382644
47.51279 248.986735757294
47.5329 270
47.55302 265.968001059913
47.57313 235.014160190148
47.59324 269.006919266664
47.61336 238.028267524197
47.63347 257.969433224917
47.65358 260.998671788528
47.6737 276
47.69381 303.00594031081
47.71393 283.922322357368
47.73404 233.978435897566
47.75415 262.919866783846
47.77427 260.059814094325
47.79438 233.958921376276
47.81449 304.995227075798
47.83461 240.970928971206
47.85472 243.038202835588
47.87483 273.001304677824
47.89495 261.029790336206
47.91506 280.054993471738
47.93518 217.033200838319
47.95529 247.967700311894
47.9754 287
47.99552 251.00983269385
48.01563 295.001731531674
48.03574 243.92843430195
48.05586 262.907520860412
48.07597 293.004428283431
48.09609 258.024531788807
48.1162 226
48.13631 254.02001268387
48.15643 272.971249835815
48.17654 235.965386951105
48.19665 249.95083852849
48.21677 257.993525931264
48.23688 271.971254384765
48.257 298
48.27711 271.985585920804
48.29722 253.983983849184
48.31734 247.036659458129
48.33745 268.969041813263
48.35756 237.991307852581
48.37768 272.992958691053
48.39779 240.013200502751
48.4179 252
48.43802 276.993343480749
48.45813 258.012859394515
48.47825 285.9984752015
48.49836 259.006343280431
48.51847 281.997823190629
48.53859 252.011642567788
48.5587 256
48.57881 259.995383812048
48.59893 246.993957181006
48.61904 262.062929044697
48.63916 278.058613632421
48.65927 239.970120642093
48.67938 300.982181298715
48.6995 258
48.71961 255.99826933812
48.73972 247.018137705727
48.75984 286.04113493416
48.77995 265.116129749475
48.80006 228.015489213011
48.82018 254.952789159946
48.84029 293.992093299571
48.86041 277.979125515307
48.88052 246.007947135578
48.90063 279.019674659209
48.92075 260.960341140555
48.94086 268.9591106161
48.96097 283.995897645419
48.98109 272.01115777663
49.0012 254
49.02132 261.001400050866
49.04143 258.013925993972
49.06154 272.994710445795
49.08166 259.985442008363
49.10177 286.976983543826
49.12188 282.999872970842
49.142 289
49.16211 268.998894852316
49.18223 283.001329333909
49.20234 275.032922949537
49.22245 302.025244378073
49.24257 265.008881502525
49.26268 294.987363403702
49.28279 281.996881865752
49.30291 313.008032720398
49.32302 303.995067068652
49.34313 315.01457038873
49.36325 316.00462200909
49.38336 314.039952617888
49.40348 290.996474794554
49.42359 317.991160711525
49.4437 304
49.46382 286.028518801894
49.48393 338.034503634716
49.50404 317.949303687241
49.52416 311.998292440909
49.54427 311.993732292432
49.56439 327.984929095158
49.5845 352
49.60461 336.007662929549
49.62473 366.983289386874
49.64484 309.902380209803
49.66495 314.872445368876
49.68507 371.955384455158
49.70518 361.032419803657
49.7253 337
49.74541 352.011664776852
49.76552 369.006628615863
49.78564 375.037614807912
49.80575 405.064378456318
49.82586 423.951805919346
49.84598 446.000090530098
49.86609 442.983462190871
49.8862 515
49.90632 576.069330101963
49.92643 668.158812601459
49.94655 761.148363885425
49.96666 830.716488849358
49.98677 1060.5985981413
50.00689 1343.84053011925
50.027 1704
50.04711 2096.21104407733
50.06723 2523.57067612218
50.08734 2844.57684455301
50.10746 3046.94516922677
50.12757 2912.29606955731
50.14768 2671.35978126797
50.1678 2217
50.18791 1885.8831422893
50.20802 1732.92771604743
50.22814 1708.98964720386
50.24825 1663.28749148573
50.26837 1477.33931312957
50.28848 1222.2962094416
50.30859 909.14213137296
50.32871 676.903161980632
50.34882 510.870957692018
50.36893 417.905392669671
50.38905 385.013751214042
50.40916 398.036845474791
50.42927 344.081177208743
50.44939 323.99304169487
50.4695 342
50.48962 328.028643894196
50.50973 379.005548156864
50.52984 332.942100902025
50.54996 344.978819818973
50.57007 333.019985018933
50.59018 330.999113399561
50.6103 335
50.63041 348.994934057605
50.65053 320.974444868166
50.67064 323.001671881157
50.69075 316.002954227199
50.71087 322.994183694794
50.73098 318.008323000323
50.75109 303.015131097514
50.77121 283.012489711613
50.79132 323.993090374063
50.81143 257.891546680199
50.83155 243.136726542986
50.85166 310.977075395994
50.87178 274.008539171703
50.89189 302.002145305641
50.912 259
50.93212 281.017518369902
50.95223 277.003735839106
50.97234 298.046789806651
50.99246 309.99542704257
51.01257 299.04455081855
51.03269 269.002867893749
51.0528 278
51.07291 256.00367591884
51.09303 282.993457831073
51.11314 245.959842495167
51.13325 262.937875433993
51.15337 267.024930141209
51.17348 248.003005378311
51.1936 264
51.21371 269.995154831125
51.23382 263.016203214279
51.25394 287.997304087038
51.27405 256.078622132919
51.29416 251.960322227636
51.31428 270.006307940352
51.33439 247.004704692073
51.3545 252
51.37462 228.995009481522
51.39473 248.027005356807
51.41485 248.981433736704
51.43496 236.0478612701
51.45507 217.983834247366
51.47519 251.985836956209
51.4953 256
51.51541 241.992235637728
51.53553 238.028639387598
51.55564 263.003893862749
51.57576 233.082961739854
51.59587 215.964135878869
51.61598 259.9738628883
51.6361 251
51.65621 237.000327712085
51.67632 248.012300025204
51.69644 260.037617003101
51.71655 269.06200850312
51.73667 230.013614240367
51.75678 251.989879646865
51.77689 239.002226184477
51.79701 247.997851806216
51.81712 234.006663824393
51.83723 252.988978176798
51.85735 224.98923647876
51.87746 255.933272159624
51.89757 253.068545345364
51.91769 214.986335986354
51.9378 286
51.95792 255.956146701064
51.97803 241.009792930186
51.99814 258.047669950925
52.01826 268.042584675612
52.03837 232.024531271331
52.05848 240.994079754803
52.0786 232
52.09871 240.010129053863
52.11883 250.974372449711
52.13894 219.976420188066
52.15905 248.85528371807
52.17917 285.038982911159
52.19928 220.040023484259
52.21939 229.989140821839
52.23951 234.998946193793
52.25962 231.992692758564
52.27974 239.086726429574
52.29985 294.047951304378
52.31996 272.043253896935
52.34008 271.998328305237
52.36019 262.007460595663
52.3803 249
52.40042 245.006703987854
52.42053 248.97572302887
52.44064 223.990471886491
52.46076 246.941899843973
52.48087 257.019629976492
52.50099 239.000206160374
52.5211 250
52.54121 225.993199560309
52.56133 242.055223267373
52.58144 268.989361942643
52.60155 237.075520352936
52.62167 227.994036143532
52.64178 239.97685578441
52.6619 261
52.68201 246.995094324595
52.70212 250.004557756199
52.72224 247.989076475882
52.74235 246.97924225484
52.76246 254.01966388293
52.78258 244.97479045266
52.80269 284.000805663857
52.8228 243
52.84292 251.001560286156
52.86303 237.000521208026
52.88315 259.052725533607
52.90326 260.032175611853
52.92337 244.002382167553
52.94349 252.999292520569
52.9636 251
52.98371 279.004428370499
53.00383 262.97524920654
53.02394 258.995082662275
53.04406 258.971300387166
53.06417 281.979510731448
53.08428 279.009181577759
53.1044 270
53.12451 260.001697559416
53.14462 267.993193611556
53.16474 253.005796230578
53.18485 272.97492394411
53.20497 264.015354200695
53.22508 264.992974272345
53.24519 272.995514743403
53.26531 270.987491105853
53.28542 249.019467580834
53.30553 300.050874782524
53.32565 293.947277589539
53.34576 283.000429889401
53.36587 278.038406579157
53.38599 249.997855964904
53.4061 277
53.42622 268.027940957482
53.44633 314.994677901752
53.46644 263.947757784006
53.48656 287.945449889041
53.50667 298.967889130615
53.52678 328.990603783777
53.5469 307
53.56701 301.023495739035
53.58713 354.985363405325
53.60724 288.91131374972
53.62735 296.964821597235
53.64747 297.977293492096
53.66758 319.009032311048
53.68769 296.990920089233
53.70781 339.99945204785
53.72792 286.95617252224
53.74804 291.060734089576
53.76815 317.02990371308
53.78826 307.060743983246
53.80838 286.979948135831
53.82849 326.995166491104
53.8486 301
53.86872 313.01591641746
53.88883 308.965415928022
53.90894 288.003273752368
53.92906 309.961362729729
53.94917 316.98879438404
53.96929 333.988794476186
53.9894 346
54.00951 323.995018377332
54.02963 325.986110952664
54.04974 314.034165680883
54.06985 347.98399275681
54.08997 320.037309137111
54.11008 309.023353899376
54.1302 285
54.15031 336.024174332121
54.17042 343.968699140937
54.19054 318.046269627647
54.21065 361.026445833407
54.23076 305.039376228163
54.25088 343.961976038641
54.27099 344.007993843243
54.29111 336.001049938896
54.31122 349.022542918816
54.33133 365.995904736572
54.35145 341.918247858278
54.37156 326.965573369988
54.39167 342.053866602336
54.41179 278.009696674347
54.4319 326
54.45201 354.993300460678
54.47213 325.981901016941
54.49224 337.01628587806
54.51236 325.046640263505
54.53247 314.970709910394
54.55258 353.96845319348
54.5727 362
54.59281 354.996434718704
54.61292 361.030925499762
54.63304 401.041591695728
54.65315 403.964992074342
54.67327 440.936585053749
54.69338 472.977160808266
54.71349 511.960838314524
54.73361 627.061720909065
54.75372 738.102466019133
54.77383 844.171685263929
54.79395 964.285955799519
54.81406 1054.88689485081
54.83417 1069.04252715043
54.85429 1033.00425635348
54.8744 1045
54.89452 938.764923583975
54.91463 683.807622040009
54.93474 715.16150472527
54.95486 737.073070921876
54.97497 694.992098413553
54.99508 731.999835972639
55.0152 662
55.03531 575.975472811341
55.05543 544.926730707523
55.07554 464.825662945393
55.09565 406.041756997759
55.11577 417.978477776095
55.13588 417.007849775654
55.15599 417.991465791307
55.17611 452.022003753742
55.19622 493.030760966099
55.21634 515.041914168156
55.23645 541.07183789421
55.25656 570.938323140857
55.27668 602.9674598674
55.29679 624.001388203736
55.3169 600
55.33702 569.962861310771
55.35713 521.918963143935
55.37724 475.945341131125
55.39736 463.024951272828
55.41747 447.013606908543
55.43759 458.98163449125
55.4577 481
55.47781 401.969457565158
55.49793 382.982535889703
55.51804 353.928505490964
55.53815 320.082386812845
55.55827 290.03447284853
55.57838 280.991618151873
55.5985 299
55.61861 301.994694839568
55.63872 289.999349739129
55.65884 295.990667327416
55.67895 283.996401715126
55.69906 299.978295618811
55.71918 297.005938422444
55.73929 292.005477558414
55.75941 277.996534389634
55.77952 291.035760654296
55.79963 319.983897397141
55.81975 279.93520028979
55.83986 280.009488440134
55.85997 262.012953451495
55.88009 270.993846130026
55.9002 284
55.92031 301.98999928083
55.94043 253.948020146281
55.96054 253.025240110218
55.98066 271.924755399014
56.00077 299.039061351446
56.02088 245.01365702862
56.041 278
56.06111 253.984824150977
56.08122 244.002279850884
56.10134 241.97080046389
56.12145 232.941967709044
56.14157 276.960835315062
56.16168 276.99615440533
56.18179 292.996883144017
56.20191 279.990103226989
56.22202 265.992376599158
56.24213 256.972450886347
56.26225 245.046095543432
56.28236 280.967845329229
56.30248 266.020310872922
56.32259 265.989794099985
56.3427 290
56.36282 272.959475497406
56.38293 244.021858433851
56.40304 276.988828817027
56.42316 235.037615198556
56.44327 254.976892894118
56.46338 247.006893783809
56.4835 251
56.50361 250.007520382589
56.52373 274.012450622202
56.54384 268.010681178076
56.56395 276.058994521223
56.58407 238.000530691895
56.60418 274.978274184369
56.62429 264.004410540173
56.64441 274.005279151539
56.66452 270.987424601321
56.68464 257.983942425634
56.70475 258.014923180717
56.72486 264.990014493713
56.74498 265.005118948675
56.76509 261.996725016045
56.7852 275
56.80532 272.991309402297
56.82543 261.98080349612
56.84554 251.994412413708
56.86566 259.964203831445
56.88577 275.995865017678
56.90589 262.011413357028
56.926 253
56.94611 284.004371434747
56.96623 263.966787911065
56.98634 262.028584216701
57.00645 277.983375603015
57.02657 264.052502350658
57.04668 235.99190215956
57.0668 269
57.08691 258.995634869001
57.10702 273.029619161047
57.12714 288.959478031049
57.14725 265.923916762379
57.16736 331.946412712202
57.18748 303.026591012691
57.20759 307.996036291574
57.22771 292.982506634793
57.24782 266.00668331649
57.26793 293.012590997216
57.28805 272.951066060383
57.30816 271.985417840911
57.32827 277.991859582477
57.34839 278.005538667796
57.3685 268
57.38861 284.997848852867
57.40873 258.971848268201
57.42884 262.021785960828
57.44896 269.984114062407
57.46907 279.983608766605
57.48918 279.024757506427
57.5093 250
57.52941 277.012018409141
57.54952 276.985685649728
57.56964 260.970865971623
57.58975 253.989994681266
57.60987 261.997585319688
57.62998 257.001435543903
57.65009 264.993471142126
57.67021 264.986524888024
57.69032 235.005181810398
57.71043 269.027515961628
57.73055 262.004657790613
57.75066 278.991984722921
57.77078 264.011972002549
57.79089 263.001945145151
57.811 259
57.83112 277.998161455892
57.85123 248.947077658171
57.87134 238.047375878978
57.89146 268.99987392192
57.91157 251.973665027306
57.93168 295.989976835726
57.9518 268
57.97191 283.996393421277
57.99203 250.981559248706
58.01214 267.011815520762
58.03225 251.028054998251
58.05237 254.995243343738
58.07248 255.98654107369
58.09259 276.995701069268
58.11271 271.999979606015
58.13282 275.988608184864
58.15294 246.9417768364
58.17305 234.006504755359
58.19316 242.98648227715
58.21328 245.993891047913
58.23339 255.996201582357
58.2535 256
58.27362 246.992100175658
58.29373 245.008149258895
58.31385 245.95790917094
58.33396 223.007295864718
58.35407 241.970524648606
58.37419 247.001636387877
58.3943 246
58.41441 258.007221950601
58.43453 256.954364655635
58.45464 216.969438416303
58.47475 231.957819693544
58.49487 244.952993925559
58.51498 274.016938135996
58.5351 224
58.55521 241.01120638987
58.57532 253.022862027901
58.59544 272.963256425796
58.61555 230.044414695789
58.63566 247.969972577533
58.65578 242.006342488831
58.67589 241.00526255235
58.69601 237.01679004455
58.71612 289.019554766011
58.73623 255.91695181341
58.75635 226.034907851377
58.77646 258.983136741356
58.79657 236.027051132508
58.81669 241.993573633216
58.8368 254
58.85691 262.984274939136
58.87703 216.992565663891
58.89714 247.007756254491
58.91726 226.961454390295
58.93737 281.964787761888
58.95748 255.02925303302
58.9776 248
58.99771 237.003728076176
59.01782 259.011044336198
59.03794 250.980127404538
59.05805 257.936073363846
59.07817 280.008814829047
59.09828 252.019753576979
59.11839 252.99788673765
59.13851 262.016354930343
59.15862 295.993302749401
59.17873 255.96393979552
59.19885 272.078743122182
59.21896 281.054608341134
59.23908 248.991029801282
59.25919 296.980515721416
59.2793 288
59.29942 243.996526689201
59.31953 273.026606640963
59.33964 261.972098204737
59.35976 264.97176681121
59.37987 276.001064329621
59.39998 267.005214034628
59.4201 275
59.44021 289.999824519956
59.46033 278.992162868716
59.48044 292.054718089578
59.50055 322.93308510424
59.52067 337.000678093486
59.54078 336.983076543213
59.56089 364.991875909666
59.58101 356.988908955547
59.60112 341.000874058514
59.62124 357.037547424081
59.64135 373.048828422939
59.66146 392.97932536727
59.68158 405.962632690124
59.70169 463.973998279722
59.7218 495
59.74192 541.096708325504
59.76203 673.186650251609
59.78215 765.18499121327
59.80226 880.603141450076
59.82237 1134.64779506352
59.84249 1324.90600203942
59.8626 1535
59.88271 1751.12724841895
59.90283 2004.26195797233
59.92294 2054.90681093433
59.94305 1941.43731782062
59.96317 1717.39116751953
59.98328 1434.29507501611
60.0034 1182
60.02351 1135.01302078835
60.04362 1151.96212419059
60.06374 1095.01192730219
60.08385 1142.03946330277
60.10396 1039.21943570497
60.12408 952.112594425211
60.14419 782.103451600064
60.16431 582.919429795252
60.18442 466.911312353653
60.20453 387.900829768044
60.22465 336.913047970451
60.24476 317.012655418571
60.26487 324.963184971497
60.28499 344.005679128251
60.3051 316
60.32522 325.981161479773
60.34533 284.982810513772
60.36544 309.02845910328
60.38556 295.030985596302
60.40567 292.999971435632
60.42578 289.002493828322
60.4459 296
60.46601 296.975367488939
60.48612 232.990059364527
60.50624 279.0711767296
60.52635 269.062364761958
60.54647 252.024706348329
60.56658 245.977868782353
60.58669 283.988340451811
60.60681 275.987092869329
60.62692 253.990419630996
60.64703 259.020209543139
60.66715 262.956265267511
60.68726 237.018058496195
60.70738 247.990964195847
60.72749 249.994154800044
60.7476 267
60.76772 252.993721506452
60.78783 252.973736600705
60.80794 232.027110213393
60.82806 267.984319809356
60.84817 242.02295594078
60.86828 255.982595572495
60.8884 253
60.90851 234.001425696076
60.92863 257.033082580573
60.94874 257.960843205032
60.96885 238.00087815637
60.98897 254.98180541796
61.00908 244.030179159515
61.02919 219.997906978436
61.04931 240.000692332027
61.06942 224.002139060821
61.08954 246.016123128849
61.10965 236.003031773539
61.12976 254.972333945257
61.14988 262.976084114765
61.16999 280.017458538905
61.1901 222
61.21022 268.024974301219
61.23033 245.966883089463
61.25045 249.016903802659
61.27056 246.009905788519
61.29067 248.98047666215
61.31079 253.013136181348
61.3309 220
61.35101 257.007918880797
61.37113 241.994996563848
61.39124 266.049207772602
61.41135 268.043634440005
61.43147 246.021778561153
61.45158 249.978292539708
61.4717 272
61.49181 267.004110466136
61.51192 280.988794278178
61.53204 261.037314744151
61.55215 302.002208475118
61.57226 259.042356119518
61.59238 276.989394135359
61.61249 257.013589731257
61.63261 243.99981580963
61.65272 248.001792398802
61.67283 245.998723100433
61.69295 255.056446931976
61.71306 285.940806595291
61.73317 295.032828171322
61.75329 260.009711141211
61.7734 273
61.79352 303.012218190085
61.81363 288.947294321077
61.83374 262.011856633724
61.85386 289.971523971576
61.87397 274.040838464227
61.89408 267.971003031442
61.9142 309
61.93431 291.990284659046
61.95442 279.975667832836
61.97454 259.036571550662
61.99465 303.94367267948
62.01477 288.033072651285
62.03488 292.967182164152
62.05499 327.994973803443
62.07511 310.990394522983
62.09522 316.031068386784
62.11533 348.008141438571
62.13545 335.009436270179
62.15556 347.04671160557
62.17568 304.002802687715
62.19579 348.979837232439
62.2159 351
62.23602 337.999636734204
62.25613 353.038548559528
62.27624 375.016048528053
62.29636 369.020039155425
62.31647 363.005615267802
62.33659 360.999451638264
62.3567 350
62.37681 312.005257376692
62.39693 354.014078935724
62.41704 327.998696161952
62.43715 364.935576929089
62.45727 349.059718903998
62.47738 323.98877947142
62.49749 342.013068351561
62.51761 276.976598131812
62.53772 279.025484846892
62.55784 302.039025128731
62.57795 315.009660745584
62.59806 315.986574412013
62.61818 323.006893016491
62.63829 303.008936149398
62.6584 295
62.67852 287.993915020327
62.69863 284.99956878757
62.71875 290.033124960633
62.73886 292.063352767552
62.75897 251.004386052952
62.77909 282.991927984132
62.7992 271
62.81931 284.998809208436
62.83943 261.976844239808
62.85954 265.009170287914
62.87965 260.021992338524
62.89977 267.940715665353
62.91988 310.000237112033
62.94 274
62.96011 285.003617608467
62.98022 273.991394375543
63.00034 269.964839406365
63.02045 250.974171665213
63.04056 276.011522975598
63.06068 240.019727050966
63.08079 252.992035113901
63.10091 260.007856856117
63.12102 282.007814253436
63.14113 262.942765726567
63.16125 234.00387606837
63.18136 257.966034722447
63.20147 265.961219307413
63.22159 292.009528484318
63.2417 241
63.26182 269.046994715267
63.28193 292.98690306077
63.30204 274.005395288793
63.32216 284.057617728334
63.34227 229.032576801812
63.36238 249.98613658655
63.3825 241
63.40261 265.011132007697
63.42272 274.007238473111
63.44284 270.933238550219
63.46295 233.982342682402
63.48307 275.969749427663
63.50318 257.018873643511
63.52329 272.976839929909
63.54341 316.004795253846
63.56352 288.962957160189
63.58363 267.993031627981
63.60375 272.012439046616
63.62386 272.006643870455
63.64398 265.012587340844
63.66409 258.992559264148
63.6842 284
63.70432 272.98804827184
63.72443 279.034897165501
63.74454 310.058874455909
63.76466 321.031481046091
63.78477 294.021555216717
63.80489 305.985852464249
63.825 333
63.84511 342.004502369612
63.86523 364.058539643549
63.88534 415.105833568992
63.90545 454.948927502291
63.92557 471.947536285468
63.94568 528.939597025585
63.96579 575.983068040121
63.98591 591.996112464677
64.00602 574.994230007732
64.02614 560.876509338868
64.04625 478.914515953945
64.06636 485.055653606129
64.08648 421.027225814712
64.10659 439.000380331796
64.1267 410
64.14682 439.010780601515
64.16693 417.974590893293
64.18705 422.015898709171
64.20716 415.034713202815
64.22727 389.053008693495
64.24739 344.026573038991
64.2675 308
64.28761 335.000799128599
64.30773 303.963144134149
64.32784 291.936911006692
64.34796 257.972682844293
64.36807 297.011813719611
64.38818 251.002658866821
64.4083 302
64.42841 285.987274644622
64.44852 284.015021904098
64.46864 292.972474770012
64.48875 263.055992483702
64.50886 264.960082414264
64.52898 282.997876355487
64.54909 271.005228520166
64.56921 261.988499400855
64.58932 240.009919318081
64.60943 271.015496335118
64.62955 258.005786977947
64.64966 277.997416121288
64.66977 259.006855711755
64.68989 263.013966668745
64.71 214
64.73012 245.046033514422
64.75023 265.983368541096
64.77034 235.942487771292
64.79046 229.962619247843
64.81057 260.956953602263
64.83068 272.008041866928
64.8508 253
64.87091 250.011815066574
64.89102 269.976520145052
64.91114 220.967177195027
64.93125 244.963813107906
64.95137 237.986059370642
64.97148 266.986104516104
64.99159 253.009995476149
65.01171 246.001701824429
65.03182 251.000403118061
65.05193 245.992429454319
65.07205 250.042154471919
65.09216 257.058905740504
65.11228 214.006473631345
65.13239 241.994805743528
65.1525 226
65.17262 255.025245941506
65.19273 246.941089414389
65.21284 213.012829691778
65.23296 249.955362358515
65.25307 245.000667180153
65.27319 261.992404020339
65.2933 256
65.31341 229.999660273274
65.33353 252.02749545117
65.35364 249.973807065078
65.37375 240.004249986822
65.39387 242.005823870938
65.41398 236.991693128258
65.43409 247.007240755308
65.45421 217.996502300558
65.47432 239.018690966052
65.49444 236.977706406622
65.51455 231.005073397812
65.53466 240.970247918334
65.55478 248.010886739746
65.57489 237.990103375199
65.595 277
65.61512 268.999988456086
65.63523 286.013256208699
65.65535 278.986007708629
65.67546 284.978952345336
65.69557 293.987637114765
65.71569 304.991894981104
65.7358 321
65.75591 322.002271246888
65.77603 325.98386037628
65.79614 295.921439699914
65.81626 273.974326300604
65.83637 294.026614013374
65.85648 253.004259068008
65.8766 293
65.89671 287.991254831761
65.91682 277.993673486264
65.93694 276.014014081336
65.95705 280.039151380617
65.97716 251.037819672858
65.99728 256.977538312975
66.01739 268.010131874773
66.03751 234.996523417293
66.05762 259.021328199836
66.07773 260.998742745239
66.09785 260.969947311505
66.11796 240.027204687421
66.13807 239.994101690891
66.15819 238.004052785436
66.1783 229
66.19842 236.01945077775
66.21853 251.992764161336
66.23864 241.02934327772
66.25876 273.976890410503
66.27887 256.02453679706
66.29898 255.999912817234
66.3191 237
66.33921 210.012713297823
66.35933 272.065302650288
66.37944 264.928422417599
66.39955 233.041297337866
66.41967 239.9586902488
66.43978 254.031049162928
66.45989 206.002304632242
66.48001 236.999280671556
66.50012 198.989308417723
66.52023 236.062209872692
66.54035 250.999690058485
66.56046 245.028153083272
66.58058 232.997217275604
66.60069 247.994089015735
66.6208 260
66.64092 287.985365623095
66.66103 239.952105000084
66.68114 243.016563695212
66.70126 240.002317204552
66.72137 242.009975473048
66.74149 224.009956247747
66.7616 221
66.78171 257.0119395019
66.80183 259.995821373242
66.82194 253.956581011613
66.84205 229.999420369236
66.86217 248.99104022076
66.88228 244.979266370297
66.90239 277.002726486581
66.92251 243.999124550739
66.94262 278.015590607787
66.96274 258.968005472198
66.98285 257.972144473942
67.00296 239.992157187409
67.02308 260.99550949421
67.04319 244.0049312841
67.0633 254
67.08342 261.004420628926
67.10353 273.037539580848
67.12365 290.962484171811
67.14376 258.019356647124
67.16387 274.990725526522
67.18399 264.99701096813
67.2041 287
67.22421 270.994558326422
67.24433 280.025489979918
67.26444 283.963293191257
67.28456 261.994379700479
67.30467 296.93094184286
67.32478 324.001900359517
67.3449 301
67.36501 293.007367133088
67.38512 320.024145482536
67.40524 331.0041023765
67.42535 332.984067062701
67.44546 345.965708264013
67.46558 368.967544417233
67.48569 399.992907797252
67.50581 411.018128228362
67.52592 475.064768073587
67.54603 521.049418987736
67.56615 561.150459799534
67.58626 657.732161780161
67.60637 800.821243591234
67.62649 907.932061357467
67.6466 1054
67.66672 1114.10921097338
67.68683 1260.12883672523
67.70694 1276.0604221271
67.72706 1297.19218077732
67.74717 1099.26081127397
67.76728 984.14305690714
67.7874 816
67.80751 801.996786493054
67.82763 766.966716080512
67.84774 790.119409549072
67.86785 878.708805858439
67.88797 977.948483486346
67.90808 948.047324113939
67.92819 930.992656773032
67.94831 939.982281051947
67.96842 860.917964654968
67.98853 857.174243808652
68.00865 1041.38849110846
68.02876 1139.78988294692
68.04888 1285.84624313062
68.06899 1450.8959083966
68.0891 1646
68.10922 1636.99508347224
68.12933 1646.90222502644
68.14944 1511.78375607292
68.16956 1431.29095554614
68.18967 1264.07310598659
68.20979 1333.97512928174
68.2299 1323
68.25001 1454.10263738359
68.27013 1616.0411932177
68.29024 1521.77343472335
68.31035 1446.20159806832
68.33047 1307.30646847934
68.35058 1059.25679020545
68.3707 853
68.39081 782.963885139567
68.41092 694.940959330166
68.43104 685.03223801022
68.45115 686.926648398285
68.47126 649.012066423791
68.49138 653.04767745436
68.51149 544.058201551303
68.5316 459
68.55172 402.958667744535
68.57183 368.943773254802
68.59195 325.903459263738
68.61206 300.027226498316
68.63217 295.994161944772
68.65229 291.014430258855
68.6724 264
68.69251 297.99266735497
68.71263 254.01904669049
68.73274 319.054193460211
68.75286 284.062635682265
68.77297 283.013735846105
68.79308 255.01851568953
68.8132 261
68.83331 275.004149778474
68.85342 272.985122806267
68.87354 261.01886343624
68.89365 277.027235869065
68.91376 252.979513781655
68.93388 288.994669441003
68.95399 248.023162809259
68.97411 236.010897923149
68.99422 266.012880253324
69.01433 255.979385502188
69.03445 247.970942967516
69.05456 236.992835312133
69.07467 248.003913460279
69.09479 240.99054213815
69.1149 270
69.13502 234.992998170875
69.15513 262.017705319752
69.17524 250.008753835422
69.19536 271.999187746983
69.21547 247.022586752966
69.23558 254.991048440541
69.2557 247
69.27581 234.005665201413
69.29593 263.034814243771
69.31604 263.970428138682
69.33615 244.051414582603
69.35627 231.997362167221
69.37638 246.977636014366
69.39649 263.997858651413
69.41661 249.984745373872
69.43672 222.995386973951
69.45683 242.037828996754
69.47695 253.990508899367
69.49706 242.019971830421
69.51718 241.991989828923
69.53729 247.003583322798
69.5574 237
69.57752 256.010944834872
69.59763 247.97476337923
69.61774 233.981344077379
69.63786 233.975329296953
69.65797 247.001796239454
69.67809 237.997740135519
69.6982 253
69.71831 232.988265989473
69.73843 231.040919645236
69.75854 262.002035940515
69.77865 238.025905780532
69.79877 243.024338830645
69.81888 215.990272957207
69.839 256
69.85911 232.988725525679
69.87922 226.987802106356
69.89934 219.059188217637
69.91945 263.003931196111
69.93956 218.077333479616
69.95968 217.980985059177
69.97979 241.98293620248
69.9999 271
70.02002 247.973180576715
70.04013 231.982409807162
70.06025 231.057688348372
70.08036 258.006110400089
70.10047 229.025525148646
70.12059 240.989893646001
70.1407 250
70.16081 247.001248584088
70.18093 251.995764997097
70.20104 236.957687077042
70.22116 218.027611318346
70.24127 219.961236467487
70.26138 240.024016881398
70.2815 194
70.30161 234.017296338672
70.32172 236.997001370067
70.34184 243.008585273088
70.36195 232.072250525063
70.38207 205.002931755763
70.40218 231.96350622071
70.42229 244.013804583581
70.44241 204.996750818725
70.46252 239.038824878724
70.48263 253.996051810638
70.50275 240.943888936434
70.52286 220.017751857724
70.54297 226.975436940597
70.56309 235.005948060355
70.5832 222
70.60332 256.009165868917
70.62343 240.000821186198
70.64354 265.031408827471
70.66366 248.078499145472
70.68377 218.993849229619
70.70388 246.980405273822
70.724 242
70.74411 228.990845119516
70.76423 214.005143575962
70.78434 235.045337738392
70.80445 253.937536112601
70.82457 271.023178930542
70.84468 228.040520127864
70.86479 214.994841198736
70.88491 230.002569221401
70.90502 230.013879921842
70.92513 247.989668048848
70.94525 217.944146764061
70.96536 220.96856021654
70.98548 224.022540312319
71.00559 199.994064470099
71.0257 240
71.04582 231.99280519128
71.06593 236.995800166944
71.08604 218.958949902524
71.10616 210.985282015543
71.12627 223.990808662858
71.14639 223.99649715788
71.1665 237
71.18661 227.993174793823
71.20673 225.021270036063
71.22684 245.015519783433
71.24695 238.016008232374
71.26707 231.035883331989
71.28718 212.972459124432
71.3073 265
71.32741 230.983139343881
71.34752 229.012554438351
71.36764 235.996839886059
71.38775 235.963609467405
71.40786 264.940424967533
71.42798 268.038098516129
71.44809 217.010233978427
71.4682 233
71.48832 231.000635983772
71.50843 240.00451368166
71.52855 231.975582497631
71.54866 228.993474764277
71.56877 234.991416586142
71.58889 237.999638653003
71.609 236
71.62911 245.021339262386
71.64923 289.994084884236
71.66934 240.92143100625
71.68946 240.970253125008
71.70957 240.034495780237
71.72968 215.997377561213
71.7498 238
71.76991 224.999375827854
71.79002 240.004647086773
71.81014 232.007002530475
71.83025 253.94269333596
71.85037 256.035519573692
71.87048 232.990731474306
71.89059 260.000812206554
71.91071 229.994195590172
71.93082 253.027304308245
71.95093 261.99675753253
71.97105 255.975599304106
71.99116 246.012897934626
72.01127 239.022573846369
72.03139 233.984563056544
72.0515 274
72.07162 229.973500861089
72.09173 249.053572421948
72.11184 263.970115764734
72.13196 235.035027895974
72.15207 237.988530473433
72.17218 245.98026438192
72.1923 261
72.21241 227.999290397165
72.23253 258.022189047744
72.25264 246.997455078978
72.27275 261.994596000928
72.29287 242.033376675226
72.31298 242.969908289178
72.33309 274.999870601583
72.35321 242.984492101099
72.37332 239.016454742249
72.39344 255.002062775057
72.41355 244.992936684778
72.43366 251.00328905958
72.45378 241.99953265254
72.47389 251.998642141038
72.494 245
72.51412 244.985783573852
72.53423 218.97228644779
72.55434 221.033243506751
72.57446 238.976966101783
72.59457 245.9824367845
72.61469 257.002331027844
72.6348 247
72.65491 260.988361009381
72.67503 213.976919287283
72.69514 243.062984092902
72.71525 249.015457950921
72.73537 240.02380599136
72.75548 225.998955977339
72.7756 243
72.79571 248.992676270823
72.81582 228.996228309034
72.83594 235.981958715837
72.85605 216.989783723889
72.87616 239.990710140077
72.89628 222.0074821762
72.91639 231.000812866154
72.9365 224
72.95662 265.023133632986
72.97673 247.938327727069
72.99685 220.017580720438
73.01696 255.926691444501
73.03707 266.024913907396
73.05719 246.998447190706
73.0773 262
73.09741 233.99465828935
73.11753 254.040113130653
73.13764 263.986320815125
73.15776 252.01057528275
73.17787 259.975797460881
73.19798 271.999587274051
73.2181 271
73.23821 301.012840182333
73.25832 311.001514207003
73.27844 325.079934338446
73.29855 369.964126379467
73.31867 360.985384646571
73.33878 400.96095553472
73.35889 433.973999128337
73.37901 505.03166125366
73.39912 553.049863436035
73.41923 594.004286930929
73.43935 564.935604345922
73.45946 557.020044448992
73.47957 528.066456898772
73.49969 473.031692871994
73.5198 416
73.53992 391.967363793908
73.56003 358.99522042115
73.58014 393.097352765178
73.60026 423.995607184734
73.62037 408.019617125786
73.64048 412.982790719005
73.6606 428
73.68071 403.970185969541
73.70083 339.957954419292
73.72094 345.997892979568
73.74105 318.082709980637
73.76117 292.04132454074
73.78128 265.0149260759
73.80139 268.990742221613
73.82151 269.977854767041
73.84162 211.988451819706
73.86174 259.115919273776
73.88185 274.918632737874
73.90196 228.040179415127
73.92208 243.979245586999
73.94219 241.01207068925
73.9623 217
73.98242 237.031099161561
74.00253 248.963640782991
74.02264 212.988079563604
74.04276 239.957927964716
74.06287 235.018981534793
74.08299 234.992663804086
74.1031 250
74.12321 228.986322366484
74.14333 223.045331877528
74.16344 258.992321363142
74.18355 222.044136234068
74.20367 241.964326665631
74.22378 246.005831791989
74.2439 244
74.26401 248.996269695185
74.28412 233.99441051798
74.30424 241.012001813879
74.32435 227.097610692105
74.34446 191.991819316148
74.36458 228.97180869414
74.38469 230.001690062281
74.40481 241.010583071446
74.42492 251.984347551126
74.44503 222.981420148173
74.46515 236.044074955408
74.48526 236.038592749502
74.50537 219.982390853437
74.52549 247.9960407968
74.5456 229
74.56571 226.997733871194
74.58583 220.011678305359
74.60594 239.018662335991
74.62606 227.048147273276
74.64617 214.976922975632
74.66628 248.972011693029
74.6864 250
74.70651 230.003283220593
74.72662 256.014506453208
74.74674 241.942167139566
74.76685 221.007804268212
74.78697 232.977914155662
74.80708 239.99906446598
74.82719 239.998771060987
74.84731 246.003567736744
74.86742 244.983898430363
74.88753 225.996301282082
74.90765 245.065345029376
74.92776 252.048945584196
74.94787 216.022326670984
74.96799 229.990941105947
74.9881 232
75.00822 216.982544163872
