3.00117 21192
3.02128 20665
3.0414 20179
3.06151 19274
3.08162 18773
3.10174 18500
3.12185 17926
3.14197 17522
3.16208 16492
3.18219 16345
3.20231 15979
3.22242 15058
3.24253 15260
3.26265 14354
3.28276 13917
3.30288 13806
3.32299 13005
3.3431 13131
3.36322 12227
3.38333 12056
3.40344 11631
3.42356 11195
3.44367 11086
3.46379 10255
3.4839 10047
3.50401 9911
3.52413 9318
3.54424 9111
3.56435 8658
3.58447 8509
3.60458 8253
3.62469 7732
3.64481 7709
3.66492 7133
3.68504 7212
3.70515 6831
3.72526 6485
3.74538 6236
3.76549 6034
3.7856 5711
3.80572 5607
3.82583 5482
3.84595 5377
3.86606 4797
3.88617 4600
3.90629 4403
3.9264 4176
3.94651 4205
3.96663 3856
3.98674 3671
4.00686 3687
4.02697 3349
4.04708 3404
4.0672 3155
4.08731 2961
4.10742 2917
4.12754 2710
4.14765 2693
4.16776 2375
4.18788 2483
4.20799 2343
4.22811 2225
4.24822 2225
4.26833 1970
4.28845 1946
4.30856 1985
4.32867 1927
4.34879 1848
4.3689 1659
4.38902 1621
4.40913 1652
4.42924 1595
4.44936 1611
4.46947 1523
4.48958 1504
4.5097 1476
4.52981 1467
4.54992 1426
4.57004 1353
4.59015 1397
4.61027 1359
4.63038 1311
4.65049 1224
4.67061 1153
4.69072 1206
4.71083 1132
4.73095 1145
4.75106 1130
4.77118 1133
4.79129 1078
4.8114 1031
4.83152 995
4.85163 1042
4.87174 946
4.89186 945
4.91197 976
4.93209 903
4.9522 907
4.97231 902
4.99243 915
5.01254 810
5.03265 857
5.05277 766
5.07288 757
5.09299 797
5.11311 772
5.13322 823
5.15334 663
5.17345 697
5.19356 674
5.21368 696
5.23379 710
5.2539 638
5.27402 660
5.29413 615
5.31425 696
5.33436 655
5.35447 563
5.37459 544
5.3947 567
5.41481 557
5.43493 593
5.45504 566
5.47516 551
5.49527 539
5.51538 509
5.5355 530
5.55561 487
5.57572 521
5.59584 476
5.61595 481
5.63606 470
5.65618 479
5.67629 461
5.69641 495
5.71652 457
5.73663 437
5.75675 437
5.77686 438
5.79697 423
5.81709 415
5.8372 449
5.85732 439
5.87743 486
5.89754 442
5.91766 437
5.93777 424
5.95788 448
5.978 400
5.99811 378
6.01823 350
6.03834 406
6.05845 405
6.07857 419
6.09868 420
6.11879 382
6.13891 404
6.15902 352
6.17913 424
6.19925 409
6.21936 389
6.23948 395
6.25959 344
6.2797 373
6.29982 335
6.31993 318
6.34004 372
6.36016 394
6.38027 412
6.40039 377
6.4205 352
6.44061 389
6.46073 357
6.48084 358
6.50095 339
6.52107 345
6.54118 360
6.56129 364
6.58141 392
6.60152 349
6.62164 364
6.64175 366
6.66186 351
6.68198 330
6.70209 326
6.7222 340
6.74232 339
6.76243 381
6.78255 357
6.80266 362
6.82277 317
6.84289 353
6.863 326
6.88311 339
6.90323 347
6.92334 340
6.94346 321
6.96357 342
6.98368 359
7.0038 359
7.02391 335
7.04402 315
7.06414 360
7.08425 331
7.10436 344
7.12448 334
7.14459 360
7.16471 289
7.18482 340
7.20493 355
7.22505 341
7.24516 338
7.26527 321
7.28539 340
7.3055 339
7.32562 345
7.34573 331
7.36584 316
7.38596 296
7.40607 322
7.42618 300
7.4463 352
7.46641 322
7.48653 354
7.50664 319
7.52675 326
7.54687 330
7.56698 335
7.58709 307
7.60721 368
7.62732 339
7.64743 368
7.66755 342
7.68766 370
7.70778 344
7.72789 364
7.748 349
7.76812 316
7.78823 326
7.80834 377
7.82846 360
7.84857 361
7.86869 347
7.8888 314
7.90891 352
7.92903 327
7.94914 370
7.96925 332
7.98937 368
8.00948 394
8.0296 351
8.04971 347
8.06982 369
8.08994 354
8.11005 298
8.13016 358
8.15028 316
8.17039 314
8.1905 371
8.21062 368
8.23073 367
8.25085 328
8.27096 354
8.29107 364
8.31119 393
8.3313 378
8.35141 352
8.37153 339
8.39164 349
8.41176 371
8.43187 373
8.45198 306
8.4721 342
8.49221 357
8.51232 315
8.53244 403
8.55255 358
8.57266 340
8.59278 356
8.61289 344
8.63301 362
8.65312 375
8.67323 330
8.69335 419
8.71346 374
8.73357 333
8.75369 359
8.7738 383
8.79392 397
8.81403 410
8.83414 382
8.85426 332
8.87437 420
8.89448 379
8.9146 346
8.93471 376
8.95483 360
8.97494 364
8.99505 352
9.01517 366
9.03528 362
9.05539 353
9.07551 348
9.09562 357
9.11573 368
9.13585 369
9.15596 316
9.17608 344
9.19619 342
9.2163 363
9.23642 385
9.25653 359
9.27664 351
9.29676 330
9.31687 380
9.33699 352
9.3571 349
9.37721 337
9.39733 340
9.41744 340
9.43755 365
9.45767 362
9.47778 349
9.4979 348
9.51801 319
9.53812 366
9.55824 352
9.57835 345
9.59846 355
9.61858 337
9.63869 353
9.6588 345
9.67892 353
9.69903 337
9.71915 350
9.73926 360
9.75937 310
9.77949 367
9.7996 359
9.81971 353
9.83983 348
9.85994 346
9.88006 319
9.90017 338
9.92028 337
9.9404 365
9.96051 359
9.98062 357
10.00074 325
10.02085 334
10.04097 330
10.06108 323
10.08119 365
10.10131 327
10.12142 330
10.14153 363
10.16165 365
10.18176 347
10.20187 368
10.22199 326
10.2421 370
10.26222 343
10.28233 349
10.30244 331
10.32256 341
10.34267 300
10.36278 345
10.3829 343
10.40301 333
10.42313 392
10.44324 319
10.46335 356
10.48347 351
10.50358 365
10.52369 347
10.54381 367
10.56392 390
10.58403 358
10.60415 338
10.62426 374
10.64438 330
10.66449 345
10.6846 351
10.70472 344
10.72483 375
10.74494 380
10.76506 348
10.78517 348
10.80529 377
10.8254 354
10.84551 341
10.86563 355
10.88574 388
10.90585 391
10.92597 323
10.94608 378
10.9662 347
10.98631 385
11.00642 328
11.02654 372
11.04665 335
11.06676 369
11.08688 292
11.10699 327
11.1271 354
11.14722 353
11.16733 359
11.18745 360
11.20756 353
11.22767 343
11.24779 362
11.2679 320
11.28801 373
11.30813 329
11.32824 320
11.34836 363
11.36847 359
11.38858 327
11.4087 366
11.42881 347
11.44892 392
11.46904 358
11.48915 352
11.50927 340
11.52938 382
11.54949 355
11.56961 388
11.58972 344
11.60983 378
11.62995 390
11.65006 358
11.67017 339
11.69029 409
11.7104 363
11.73052 368
11.75063 374
11.77074 393
11.79086 357
11.81097 384
11.83108 347
11.8512 392
11.87131 384
11.89143 420
11.91154 403
11.93165 406
11.95177 392
11.97188 446
11.99199 398
12.01211 407
12.03222 381
12.05234 393
12.07245 414
12.09256 411
12.11268 416
12.13279 430
12.1529 404
12.17302 399
12.19313 430
12.21324 442
12.23336 450
12.25347 471
12.27359 507
12.2937 517
12.31381 456
12.33393 488
12.35404 472
12.37415 438
12.39427 436
12.41438 404
12.4345 444
12.45461 377
12.47472 372
12.49484 396
12.51495 369
12.53506 370
12.55518 380
12.57529 361
12.5954 392
12.61552 371
12.63563 364
12.65575 324
12.67586 373
12.69597 349
12.71609 343
12.7362 350
12.75631 337
12.77643 333
12.79654 364
12.81666 381
12.83677 324
12.85688 354
12.877 326
12.89711 376
12.91722 334
12.93734 346
12.95745 351
12.97757 335
12.99768 308
13.01779 363
13.03791 350
13.05802 350
13.07813 358
13.09825 328
13.11836 354
13.13847 353
13.15859 352
13.1787 355
13.19882 376
13.21893 336
13.23904 305
13.25916 381
13.27927 349
13.29938 334
13.3195 346
13.33961 351
13.35973 336
13.37984 351
13.39995 359
13.42007 349
13.44018 355
13.46029 341
13.48041 358
13.50052 384
13.52064 347
13.54075 341
13.56086 385
13.58098 409
13.60109 348
13.6212 370
13.64132 327
13.66143 337
13.68154 311
13.70166 374
13.72177 366
13.74189 368
13.762 359
13.78211 326
13.80223 343
13.82234 321
13.84245 331
13.86257 362
13.88268 305
13.9028 352
13.92291 359
13.94302 329
13.96314 328
13.98325 328
14.00336 315
14.02348 324
14.04359 316
14.06371 331
14.08382 330
14.10393 324
14.12405 299
14.14416 323
14.16427 303
14.18439 305
14.2045 316
14.22461 349
14.24473 338
14.26484 301
14.28496 354
14.30507 329
14.32518 345
14.3453 295
14.36541 341
14.38552 343
14.40564 373
14.42575 324
14.44587 371
14.46598 311
14.48609 313
14.50621 296
14.52632 330
14.54643 318
14.56655 342
14.58666 324
14.60677 311
14.62689 313
14.647 277
14.66712 266
14.68723 310
14.70734 295
14.72746 297
14.74757 346
14.76768 297
14.7878 318
14.80791 339
14.82803 359
14.84814 334
14.86825 318
14.88837 325
14.90848 348
14.92859 323
14.94871 342
14.96882 340
14.98894 336
15.00905 340
15.02916 338
15.04928 321
15.06939 364
15.0895 352
15.10962 338
15.12973 320
15.14984 333
15.16996 344
15.19007 324
15.21019 332
15.2303 327
15.25041 345
15.27053 297
15.29064 315
15.31075 305
15.33087 321
15.35098 318
15.3711 327
15.39121 314
15.41132 319
15.43144 279
15.45155 315
15.47166 280
15.49178 356
15.51189 297
15.53201 339
15.55212 327
15.57223 302
15.59235 340
15.61246 290
15.63257 325
15.65269 303
15.6728 311
15.69291 286
15.71303 351
15.73314 308
15.75326 325
15.77337 313
15.79348 339
15.8136 321
15.83371 322
15.85382 315
15.87394 319
15.89405 314
15.91417 314
15.93428 292
15.95439 310
15.97451 310
15.99462 311
16.01473 312
16.03485 304
16.05496 308
16.07508 318
16.09519 333
16.1153 328
16.13542 318
16.15553 279
16.17564 320
16.19576 303
16.21587 311
16.23598 338
16.2561 312
16.27621 348
16.29633 303
16.31644 288
16.33655 315
16.35667 332
16.37678 285
16.39689 313
16.41701 325
16.43712 307
16.45724 315
16.47735 332
16.49746 299
16.51758 314
16.53769 317
16.5578 295
16.57792 321
16.59803 302
16.61814 310
16.63826 282
16.65837 299
16.67849 293
16.6986 322
16.71871 327
16.73883 326
16.75894 317
16.77905 297
16.79917 316
16.81928 327
16.8394 287
16.85951 280
16.87962 313
16.89974 295
16.91985 301
16.93996 319
16.96008 328
16.98019 327
17.00031 340
17.02042 309
17.04053 354
17.06065 300
17.08076 314
17.10087 298
17.12099 352
17.1411 352
17.16121 332
17.18133 306
17.20144 270
17.22156 318
17.24167 319
17.26178 323
17.2819 323
17.30201 282
17.32212 301
17.34224 324
17.36235 323
17.38247 298
17.40258 305
17.42269 316
17.44281 324
17.46292 329
17.48303 309
17.50315 330
17.52326 326
17.54338 304
17.56349 333
17.5836 357
17.60372 324
17.62383 331
17.64394 318
17.66406 309
17.68417 292
17.70428 312
17.7244 301
17.74451 334
17.76463 312
17.78474 343
17.80485 344
17.82497 326
17.84508 337
17.86519 351
17.88531 355
17.90542 354
17.92554 340
17.94565 349
17.96576 335
17.98588 341
18.00599 312
18.0261 339
18.04622 363
18.06633 294
18.08645 344
18.10656 343
18.12667 319
18.14679 327
18.1669 330
18.18701 348
18.20713 338
18.22724 352
18.24735 313
18.26747 316
18.28758 337
18.3077 328
18.32781 294
18.34792 327
18.36804 322
18.38815 312
18.40826 357
18.42838 334
18.44849 318
18.46861 312
18.48872 306
18.50883 303
18.52895 303
18.54906 315
18.56917 313
18.58929 296
18.6094 312
18.62951 316
18.64963 288
18.66974 307
18.68986 312
18.70997 352
18.73008 312
18.7502 328
18.77031 346
18.79042 356
18.81054 324
18.83065 344
18.85077 341
18.87088 347
18.89099 324
18.91111 337
18.93122 309
18.95133 343
18.97145 285
18.99156 322
19.01168 326
19.03179 333
19.0519 363
19.07202 344
19.09213 307
19.11224 299
19.13236 371
19.15247 314
19.17258 340
19.1927 336
19.21281 361
19.23293 358
19.25304 346
19.27315 316
19.29327 324
19.31338 364
19.33349 324
19.35361 344
19.37372 365
19.39384 358
19.41395 334
19.43406 368
19.45418 359
19.47429 353
19.4944 383
19.51452 331
19.53463 410
19.55475 393
19.57486 382
19.59497 367
19.61509 353
19.6352 359
19.65531 371
19.67543 410
19.69554 457
19.71565 400
19.73577 495
19.75588 413
19.776 466
19.79611 476
19.81622 504
19.83634 467
19.85645 529
19.87656 494
19.89668 527
19.91679 481
19.93691 505
19.95702 455
19.97713 513
19.99725 497
20.01736 523
20.03747 457
20.05759 458
20.0777 472
20.09782 480
20.11793 487
20.13804 478
20.15816 458
20.17827 501
20.19838 485
20.2185 482
20.23861 457
20.25872 508
20.27884 524
20.29895 510
20.31907 476
20.33918 508
20.35929 522
20.37941 517
20.39952 519
20.41963 511
20.43975 515
20.45986 504
20.47998 515
20.50009 540
20.5202 565
20.54032 551
20.56043 626
20.58054 632
20.60066 658
20.62077 727
20.64088 899
20.661 1086
20.68111 1334
20.70123 1767
20.72134 2229
20.74145 2758
20.76157 3381
20.78168 3994
20.80179 4293
20.82191 4145
20.84202 3736
20.86214 3247
20.88225 2533
20.90236 1850
20.92248 1454
20.94259 1094
20.9627 1014
20.98282 1006
21.00293 970
21.02305 843
21.04316 769
21.06327 773
21.08339 698
21.1035 636
21.12361 622
21.14373 619
21.16384 658
21.18395 660
21.20407 623
21.22418 650
21.2443 643
21.26441 673
21.28452 659
21.30464 653
21.32475 617
21.34486 624
21.36498 592
21.38509 583
21.40521 573
21.42532 541
21.44543 550
21.46555 527
21.48566 561
21.50577 512
21.52589 550
21.546 449
21.56612 494
21.58623 462
21.60634 457
21.62646 472
21.64657 456
21.66668 436
21.6868 482
21.70691 474
21.72702 456
21.74714 472
21.76725 470
21.78737 425
21.80748 438
21.82759 439
21.84771 394
21.86782 436
21.88793 429
21.90805 394
21.92816 451
21.94828 410
21.96839 399
21.9885 424
22.00862 424
22.02873 384
22.04884 414
22.06896 441
22.08907 413
22.10919 403
22.1293 384
22.14941 398
22.16953 407
22.18964 456
22.20975 422
22.22987 462
22.24998 450
22.27009 509
22.29021 442
22.31032 406
22.33044 443
22.35055 437
22.37066 433
22.39078 399
22.41089 440
22.431 382
22.45112 434
22.47123 426
22.49135 450
22.51146 413
22.53157 438
22.55169 389
22.5718 388
22.59191 419
22.61203 407
22.63214 360
22.65225 371
22.67237 376
22.69248 413
22.7126 428
22.73271 414
22.75282 375
22.77294 382
22.79305 398
22.81316 380
22.83328 391
22.85339 394
22.87351 375
22.89362 394
22.91373 406
22.93385 418
22.95396 410
22.97407 410
22.99419 450
23.0143 408
23.03442 425
23.05453 432
23.07464 463
23.09476 429
23.11487 465
23.13498 468
23.1551 498
23.17521 455
23.19532 457
23.21544 429
23.23555 424
23.25567 429
23.27578 427
23.29589 417
23.31601 389
23.33612 435
23.35623 394
23.37635 394
23.39646 415
23.41658 405
23.43669 404
23.4568 445
23.47692 449
23.49703 424
23.51714 395
23.53726 447
23.55737 443
23.57749 459
23.5976 408
23.61771 431
23.63783 445
23.65794 447
23.67805 419
23.69817 424
23.71828 440
23.73839 447
23.75851 411
23.77862 425
23.79874 466
23.81885 484
23.83896 460
23.85908 438
23.87919 463
23.8993 519
23.91942 528
23.93953 510
23.95965 503
23.97976 486
23.99987 475
24.01999 498
24.0401 501
24.06021 412
24.08033 426
24.10044 399
24.12056 404
24.14067 408
24.16078 447
24.1809 425
24.20101 381
24.22112 419
24.24124 456
24.26135 428
24.28146 379
24.30158 435
24.32169 392
24.34181 413
24.36192 444
24.38203 403
24.40215 414
24.42226 411
24.44237 400
24.46249 412
24.4826 411
24.50272 411
24.52283 406
24.54294 431
24.56306 427
24.58317 409
24.60328 446
24.6234 447
24.64351 453
24.66362 455
24.68374 462
24.70385 507
24.72397 479
24.74408 517
24.76419 518
24.78431 484
24.80442 506
24.82453 456
24.84465 486
24.86476 512
24.88488 498
24.90499 508
24.9251 478
24.94522 476
24.96533 453
24.98544 461
25.00556 497
25.02567 400
25.04579 469
25.0659 447
25.08601 460
25.10613 435
25.12624 480
25.14635 460
25.16647 495
25.18658 485
25.20669 472
25.22681 464
25.24692 518
25.26704 535
25.28715 491
25.30726 447
25.32738 465
25.34749 479
25.3676 478
25.38772 490
25.40783 489
25.42795 498
25.44806 562
25.46817 541
25.48829 570
25.5084 591
25.52851 549
25.54863 620
25.56874 602
25.58886 601
25.60897 585
25.62908 583
25.6492 586
25.66931 542
25.68942 530
25.70954 521
25.72965 518
25.74976 500
25.76988 517
25.78999 535
25.81011 488
25.83022 518
25.85033 515
25.87045 482
25.89056 476
25.91067 534
25.93079 518
25.9509 522
25.97102 543
25.99113 514
26.01124 574
26.03136 560
26.05147 601
26.07158 621
26.0917 656
26.11181 663
26.13193 692
26.15204 717
26.17215 790
26.19227 833
26.21238 845
26.23249 928
26.25261 910
26.27272 1002
26.29283 1090
26.31295 1276
26.33306 1436
26.35318 1633
26.37329 2028
26.3934 2343
26.41352 2982
26.43363 3687
26.45374 5202
26.47386 6961
26.49397 9175
26.51409 11632
26.5342 14801
26.55431 16928
26.57443 18520
26.59454 17978
26.61465 16403
26.63477 13653
26.65488 10420
26.67499 7443
26.69511 5293
26.71522 3458
26.73534 2252
26.75545 1613
26.77556 1336
26.79568 1189
26.81579 1212
26.8359 1089
26.85602 1047
26.87613 1002
26.89625 1025
26.91636 963
26.93647 949
26.95659 1016
26.9767 982
26.99681 924
27.01693 981
27.03704 885
27.05716 840
27.07727 779
27.09738 716
27.1175 696
27.13761 626
27.15772 601
27.17784 652
27.19795 620
27.21806 654
27.23818 642
27.25829 702
27.27841 710
27.29852 790
27.31863 811
27.33875 842
27.35886 927
27.37897 979
27.39909 1047
27.4192 994
27.43932 982
27.45943 864
27.47954 850
27.49966 739
27.51977 646
27.53988 570
27.56 574
27.58011 586
27.60023 415
27.62034 443
27.64045 394
27.66057 460
27.68068 445
27.70079 462
27.72091 478
27.74102 429
27.76113 431
27.78125 430
27.80136 438
27.82148 421
27.84159 418
27.8617 440
27.88182 394
27.90193 416
27.92204 446
27.94216 387
27.96227 411
27.98239 434
28.0025 402
28.02261 404
28.04273 421
28.06284 393
28.08295 393
28.10307 412
28.12318 422
28.1433 405
28.16341 391
28.18352 410
28.20364 410
28.22375 374
28.24386 394
28.26398 393
28.28409 383
28.3042 424
28.32432 379
28.34443 433
28.36455 404
28.38466 378
28.40477 379
28.42489 362
28.445 380
28.46511 407
28.48523 389
28.50534 365
28.52546 376
28.54557 383
28.56568 369
28.5858 365
28.60591 360
28.62602 359
28.64614 380
28.66625 383
28.68636 369
28.70648 396
28.72659 380
28.74671 378
28.76682 382
28.78693 384
28.80705 367
28.82716 358
28.84727 342
28.86739 360
28.8875 392
28.90762 384
28.92773 358
28.94784 365
28.96796 346
28.98807 393
29.00818 344
29.0283 399
29.04841 412
29.06853 367
29.08864 352
29.10875 347
29.12887 367
29.14898 366
29.16909 351
29.18921 368
29.20932 343
29.22943 363
29.24955 382
29.26966 405
29.28978 423
29.30989 418
29.33 434
29.35012 410
29.37023 408
29.39034 449
29.41046 414
29.43057 394
29.45069 423
29.4708 396
29.49091 413
29.51103 390
29.53114 394
29.55125 349
29.57137 362
29.59148 387
29.6116 384
29.63171 356
29.65182 419
29.67194 386
29.69205 400
29.71216 422
29.73228 392
29.75239 382
29.7725 383
29.79262 421
29.81273 381
29.83285 403
29.85296 394
29.87307 361
29.89319 365
29.9133 400
29.93341 374
29.95353 418
29.97364 410
29.99376 426
30.01387 417
30.03398 405
30.0541 448
30.07421 422
30.09432 427
30.11444 506
30.13455 413
30.15467 439
30.17478 387
30.19489 431
30.21501 423
30.23512 461
30.25523 398
30.27535 416
30.29546 383
30.31557 373
30.33569 376
30.3558 340
30.37592 350
30.39603 333
30.41614 386
30.43626 355
30.45637 374
30.47648 337
30.4966 372
30.51671 382
30.53683 390
30.55694 407
30.57705 424
30.59717 400
30.61728 443
30.63739 417
30.65751 439
30.67762 481
30.69773 456
30.71785 509
30.73796 449
30.75808 467
30.77819 452
30.7983 471
30.81842 420
30.83853 403
30.85864 391
30.87876 405
30.89887 366
30.91899 371
30.9391 355
30.95921 366
30.97933 373
30.99944 351
31.01955 377
31.03967 350
31.05978 356
31.0799 357
31.10001 309
31.12012 355
31.14024 340
31.16035 329
31.18046 330
31.20058 349
31.22069 327
31.2408 352
31.26092 346
31.28103 343
31.30115 368
31.32126 342
31.34137 332
31.36149 357
31.3816 355
31.40171 345
31.42183 352
31.44194 328
31.46206 336
31.48217 334
31.50228 338
31.5224 350
31.54251 334
31.56262 344
31.58274 325
31.60285 346
31.62297 332
31.64308 303
31.66319 356
31.68331 347
31.70342 327
31.72353 320
31.74365 357
31.76376 346
31.78387 350
31.80399 320
31.8241 300
31.84422 341
31.86433 331
31.88444 369
31.90456 349
31.92467 347
31.94478 324
31.9649 358
31.98501 406
32.00513 368
32.02524 373
32.04535 351
32.06547 353
32.08558 354
32.10569 362
32.12581 372
32.14592 334
32.16604 380
32.18615 361
32.20626 401
32.22638 367
32.24649 362
32.2666 350
32.28672 357
32.30683 392
32.32694 362
32.34706 409
32.36717 405
32.38729 434
32.4074 419
32.42751 451
32.44763 437
32.46774 431
32.48785 418
32.50797 393
32.52808 431
32.5482 374
32.56831 387
32.58842 351
32.60854 410
32.62865 391
32.64876 375
32.66888 358
32.68899 346
32.7091 359
32.72922 367
32.74933 381
32.76945 368
32.78956 349
32.80967 350
32.82979 400
32.8499 391
32.87001 382
32.89013 358
32.91024 368
32.93036 381
32.95047 369
32.97058 404
32.9907 374
33.01081 380
33.03092 402
33.05104 377
33.07115 370
33.09127 425
33.11138 392
33.13149 374
33.15161 398
33.17172 400
33.19183 392
33.21195 410
33.23206 389
33.25217 419
33.27229 410
33.2924 450
33.31252 419
33.33263 404
33.35274 431
33.37286 431
33.39297 423
33.41308 467
33.4332 406
33.45331 426
33.47343 383
33.49354 396
33.51365 412
33.53377 416
33.55388 409
33.57399 396
33.59411 390
33.61422 411
33.63434 363
33.65445 395
33.67456 381
33.69468 389
33.71479 390
33.7349 372
33.75502 400
33.77513 385
33.79524 399
33.81536 390
33.83547 365
33.85559 362
33.8757 351
33.89581 367
33.91593 395
33.93604 358
33.95615 379
33.97627 344
33.99638 394
34.0165 390
34.03661 382
34.05672 398
34.07684 386
34.09695 386
34.11706 435
34.13718 460
34.15729 422
34.17741 411
34.19752 412
34.21763 422
34.23775 408
34.25786 415
34.27797 427
34.29809 417
34.3182 419
34.33831 404
34.35843 392
34.37854 409
34.39866 396
34.41877 395
34.43888 411
34.459 401
34.47911 389
34.49922 374
34.51934 419
34.53945 396
34.55957 399
34.57968 397
34.59979 443
34.61991 433
34.64002 463
34.66013 433
34.68025 468
34.70036 406
34.72047 440
34.74059 435
34.7607 454
34.78082 466
34.80093 479
34.82104 450
34.84116 503
34.86127 457
34.88138 472
34.9015 494
34.92161 502
34.94173 526
34.96184 491
34.98195 521
35.00207 484
35.02218 510
35.04229 514
35.06241 479
35.08252 463
35.10264 471
35.12275 472
35.14286 471
35.16298 454
35.18309 490
35.2032 467
35.22332 476
35.24343 481
35.26354 451
35.28366 443
35.30377 428
35.32389 469
35.344 481
35.36411 501
35.38423 468
35.40434 472
35.42445 459
35.44457 513
35.46468 506
35.4848 523
35.50491 503
35.52502 531
35.54514 501
35.56525 557
35.58536 502
35.60548 548
35.62559 477
35.64571 473
35.66582 479
35.68593 467
35.70605 439
35.72616 489
35.74627 448
35.76639 462
35.7865 478
35.80661 441
35.82673 496
35.84684 458
35.86696 442
35.88707 477
35.90718 450
35.9273 494
35.94741 477
35.96752 436
35.98764 466
36.00775 459
36.02787 413
36.04798 456
36.06809 449
36.08821 425
36.10832 416
36.12843 427
36.14855 462
36.16866 455
36.18878 474
36.20889 452
36.229 505
36.24912 531
36.26923 542
36.28934 613
36.30946 604
36.32957 681
36.34968 786
36.3698 901
36.38991 1031
36.41003 1207
36.43014 1371
36.45025 1513
36.47037 1569
36.49048 1540
36.51059 1477
36.53071 1261
36.55082 1120
36.57094 987
36.59105 966
36.61116 853
36.63128 719
36.65139 558
36.6715 536
36.69162 534
36.71173 546
36.73184 548
36.75196 567
36.77207 579
36.79219 573
36.8123 542
36.83241 520
36.85253 563
36.87264 582
36.89275 555
36.91287 573
36.93298 534
36.9531 552
36.97321 543
36.99332 562
37.01344 545
37.03355 540
37.05366 506
37.07378 453
37.09389 451
37.11401 485
37.13412 407
37.15423 462
37.17435 406
37.19446 423
37.21457 424
37.23469 430
37.2548 406
37.27491 423
37.29503 419
37.31514 403
37.33526 422
37.35537 403
37.37548 404
37.3956 379
37.41571 352
37.43582 374
37.45594 404
37.47605 359
37.49617 374
37.51628 370
37.53639 386
37.55651 401
37.57662 408
37.59673 365
37.61685 385
37.63696 360
37.65708 384
37.67719 420
37.6973 378
37.71742 340
37.73753 383
37.75764 366
37.77776 413
37.79787 368
37.81798 364
37.8381 384
37.85821 385
37.87833 379
37.89844 378
37.91855 364
37.93867 346
37.95878 353
37.97889 403
37.99901 362
38.01912 371
38.03924 375
38.05935 405
38.07946 369
38.09958 369
38.11969 364
38.1398 375
38.15992 366
38.18003 371
38.20015 383
38.22026 401
38.24037 403
38.26049 368
38.2806 408
38.30071 407
38.32083 434
38.34094 417
38.36105 428
38.38117 418
38.40128 395
38.4214 407
38.44151 429
38.46162 424
38.48174 433
38.50185 400
38.52196 405
38.54208 379
38.56219 387
38.58231 424
38.60242 393
38.62253 409
38.64265 360
38.66276 357
38.68287 394
38.70299 383
38.7231 385
38.74321 367
38.76333 371
38.78344 335
38.80356 361
38.82367 376
38.84378 365
38.8639 313
38.88401 353
38.90412 393
38.92424 363
38.94435 369
38.96447 332
38.98458 371
39.00469 359
39.02481 357
39.04492 393
39.06503 390
39.08515 409
39.10526 414
39.12538 389
39.14549 463
39.1656 457
39.18572 493
39.20583 524
39.22594 594
39.24606 636
39.26617 725
39.28628 817
39.3064 951
39.32651 1044
39.34663 1182
39.36674 1290
39.38685 1492
39.40697 1431
39.42708 1326
39.44719 1223
39.46731 1081
39.48742 1004
39.50754 868
39.52765 772
39.54776 696
39.56788 576
39.58799 479
39.6081 443
39.62822 384
39.64833 393
39.66845 388
39.68856 365
39.70867 378
39.72879 383
39.7489 367
39.76901 382
39.78913 377
39.80924 388
39.82935 386
39.84947 400
39.86958 362
39.8897 402
39.90981 366
39.92992 345
39.95004 423
39.97015 422
39.99026 441
40.01038 436
40.03049 474
40.05061 468
40.07072 517
40.09083 556
40.11095 596
40.13106 679
40.15117 767
40.17129 748
40.1914 922
40.21152 907
40.23163 874
40.25174 852
40.27186 789
40.29197 729
40.31208 657
40.3322 606
40.35231 620
40.37242 538
40.39254 450
40.41265 450
40.43277 403
40.45288 392
40.47299 416
40.49311 404
40.51322 381
40.53333 375
40.55345 375
40.57356 380
40.59368 379
40.61379 375
40.6339 364
40.65402 378
40.67413 345
40.69424 409
40.71436 360
40.73447 354
40.75458 349
40.7747 375
40.79481 344
40.81493 340
40.83504 375
40.85515 355
40.87527 390
40.89538 347
40.91549 340
40.93561 362
40.95572 383
40.97584 346
40.99595 369
41.01606 359
41.03618 363
41.05629 355
41.0764 373
41.09652 366
41.11663 372
41.13675 357
41.15686 355
41.17697 416
41.19709 392
41.2172 405
41.23731 387
41.25743 386
41.27754 395
41.29765 402
41.31777 378
41.33788 377
41.358 410
41.37811 406
41.39822 395
41.41834 377
41.43845 417
41.45856 347
41.47868 390
41.49879 413
41.51891 395
41.53902 400
41.55913 381
41.57925 379
41.59936 432
41.61947 434
41.63959 415
41.6597 465
41.67982 430
41.69993 448
41.72004 481
41.74016 439
41.76027 431
41.78038 431
41.8005 417
41.82061 418
41.84072 415
41.86084 374
41.88095 385
41.90107 387
41.92118 357
41.94129 367
41.96141 331
41.98152 353
42.00163 353
42.02175 378
42.04186 348
42.06198 354
42.08209 335
42.1022 361
42.12232 405
42.14243 373
42.16254 388
42.18266 465
42.20277 453
42.22289 561
42.243 557
42.26311 655
42.28323 724
42.30334 828
42.32345 933
42.34357 1001
42.36368 1047
42.38379 1129
42.40391 1046
42.42402 964
42.44414 889
42.46425 786
42.48436 705
42.50448 677
42.52459 575
42.5447 501
42.56482 485
42.58493 400
42.60505 414
42.62516 400
42.64527 352
42.66539 342
42.6855 324
42.70561 355
42.72573 333
42.74584 357
42.76595 367
42.78607 362
42.80618 384
42.8263 335
42.84641 345
42.86652 343
42.88664 297
42.90675 318
42.92686 307
42.94698 336
42.96709 273
42.98721 296
43.00732 326
43.02743 329
43.04755 361
43.06766 320
43.08777 296
43.10789 304
43.128 323
43.14812 297
43.16823 329
43.18834 326
43.20846 329
43.22857 298
43.24868 307
43.2688 323
43.28891 318
43.30902 309
43.32914 322
43.34925 317
43.36937 333
43.38948 310
43.40959 289
43.42971 313
43.44982 312
43.46993 326
43.49005 308
43.51016 352
43.53028 315
43.55039 339
43.5705 289
43.59062 351
43.61073 347
43.63084 322
43.65096 312
43.67107 331
43.69119 324
43.7113 320
43.73141 312
43.75153 294
43.77164 357
43.79175 293
43.81187 353
43.83198 303
43.85209 341
43.87221 287
43.89232 346
43.91244 286
43.93255 313
43.95266 298
43.97278 314
43.99289 329
44.013 339
44.03312 312
44.05323 318
44.07335 314
44.09346 314
44.11357 311
44.13369 364
44.1538 304
44.17391 315
44.19403 327
44.21414 316
44.23426 322
44.25437 316
44.27448 317
44.2946 316
44.31471 283
44.33482 317
44.35494 309
44.37505 318
44.39516 321
44.41528 307
44.43539 318
44.45551 352
44.47562 318
44.49573 298
44.51585 301
44.53596 304
44.55607 323
44.57619 300
44.5963 322
44.61642 330
44.63653 342
44.65664 312
44.67676 317
44.69687 309
44.71698 301
44.7371 312
44.75721 261
44.77732 327
44.79744 340
44.81755 307
44.83767 336
44.85778 305
44.87789 317
44.89801 301
44.91812 303
44.93823 342
44.95835 344
44.97846 310
44.99858 312
45.01869 316
45.0388 334
45.05892 293
45.07903 313
45.09914 324
45.11926 349
45.13937 302
45.15949 317
45.1796 345
45.19971 325
45.21983 372
45.23994 329
45.26005 351
45.28017 351
45.30028 350
45.32039 365
45.34051 344
45.36062 338
45.38074 382
45.40085 378
45.42096 379
45.44108 389
45.46119 388
45.4813 388
45.50142 399
45.52153 458
45.54165 443
45.56176 478
45.58187 516
45.60199 554
45.6221 616
45.64221 687
45.66233 707
45.68244 825
45.70256 859
45.72267 817
45.74278 800
45.7629 786
45.78301 753
45.80312 641
45.82324 597
45.84335 555
45.86346 552
45.88358 488
45.90369 446
45.92381 407
45.94392 325
45.96403 351
45.98415 362
46.00426 344
46.02437 331
46.04449 304
46.0646 333
46.08472 343
46.10483 323
46.12494 322
46.14506 336
46.16517 306
46.18528 315
46.2054 337
46.22551 310
46.24563 327
46.26574 320
46.28585 300
46.30597 304
46.32608 294
46.34619 328
46.36631 314
46.38642 292
46.40653 305
46.42665 331
46.44676 330
46.46688 301
46.48699 315
46.5071 293
46.52722 290
46.54733 302
46.56744 307
46.58756 306
46.60767 287
46.62779 304
46.6479 275
46.66801 314
46.68813 289
46.70824 311
46.72835 348
46.74847 318
46.76858 313
46.78869 318
46.80881 318
46.82892 314
46.84904 308
46.86915 314
46.88926 330
46.90938 346
46.92949 337
46.9496 353
46.96972 322
46.98983 333
47.00995 363
47.03006 325
47.05017 352
47.07029 355
47.0904 308
47.11051 335
47.13063 369
47.15074 359
47.17086 321
47.19097 344
47.21108 305
47.2312 346
47.25131 353
47.27142 358
47.29154 346
47.31165 321
47.33176 333
47.35188 359
47.37199 335
47.39211 323
47.41222 356
47.43233 361
47.45245 336
47.47256 372
47.49267 322
47.51279 345
47.5329 345
47.55302 315
47.57313 348
47.59324 323
47.61336 318
47.63347 330
47.65358 339
47.6737 343
47.69381 327
47.71393 328
47.73404 349
47.75415 315
47.77427 352
47.79438 303
47.81449 316
47.83461 327
47.85472 346
47.87483 357
47.89495 329
47.91506 347
47.93518 332
47.95529 298
47.9754 324
47.99552 321
48.01563 310
48.03574 298
48.05586 318
48.07597 330
48.09609 306
48.1162 320
48.13631 339
48.15643 312
48.17654 293
48.19665 332
48.21677 289
48.23688 333
48.257 346
48.27711 279
48.29722 340
48.31734 317
48.33745 318
48.35756 295
48.37768 333
48.39779 338
48.4179 315
48.43802 314
48.45813 302
48.47825 299
48.49836 303
48.51847 335
48.53859 334
48.5587 343
48.57881 305
48.59893 363
48.61904 326
48.63916 349
48.65927 341
48.67938 312
48.6995 310
48.71961 300
48.73972 333
48.75984 343
48.77995 385
48.80006 325
48.82018 325
48.84029 323
48.86041 326
48.88052 347
48.90063 338
48.92075 349
48.94086 366
48.96097 354
48.98109 325
49.0012 331
49.02132 337
49.04143 320
49.06154 317
49.08166 322
49.10177 316
49.12188 322
49.142 328
49.16211 323
49.18223 351
49.20234 328
49.22245 354
49.24257 345
49.26268 323
49.28279 312
49.30291 329
49.32302 328
49.34313 296
49.36325 323
49.38336 315
49.40348 336
49.42359 312
49.4437 314
49.46382 361
49.48393 358
49.50404 327
49.52416 331
49.54427 359
49.56439 336
49.5845 334
49.60461 331
49.62473 363
49.64484 386
49.66495 379
49.68507 376
49.70518 386
49.7253 425
49.74541 426
49.76552 442
49.78564 494
49.80575 477
49.82586 527
49.84598 613
49.86609 693
49.8862 670
49.90632 781
49.92643 949
49.94655 1105
49.96666 1249
49.98677 1475
50.00689 1707
50.027 1968
50.04711 2025
50.06723 2094
50.08734 2035
50.10746 1801
50.12757 1594
50.14768 1327
50.1678 1248
50.18791 1255
50.20802 1144
50.22814 1019
50.24825 852
50.26837 688
50.28848 545
50.30859 508
50.32871 479
50.34882 463
50.36893 467
50.38905 408
50.40916 477
50.42927 530
50.44939 497
50.4695 496
50.48962 439
50.50973 469
50.52984 469
50.54996 444
50.57007 464
50.59018 408
50.6103 436
50.63041 416
50.65053 423
50.67064 396
50.69075 414
50.71087 419
50.73098 403
50.75109 400
50.77121 363
50.79132 368
50.81143 399
50.83155 379
50.85166 340
50.87178 406
50.89189 349
50.912 377
50.93212 360
50.95223 360
50.97234 373
50.99246 347
51.01257 341
51.03269 331
51.0528 352
51.07291 317
51.09303 342
51.11314 330
51.13325 323
51.15337 346
51.17348 356
51.1936 308
51.21371 362
51.23382 304
51.25394 339
51.27405 292
51.29416 326
51.31428 273
51.33439 294
51.3545 337
51.37462 291
51.39473 318
51.41485 295
51.43496 343
51.45507 318
51.47519 308
51.4953 323
51.51541 278
51.53553 307
51.55564 302
51.57576 262
51.59587 349
51.61598 313
51.6361 313
51.65621 316
51.67632 313
51.69644 295
51.71655 319
51.73667 321
51.75678 318
51.77689 307
51.79701 324
51.81712 304
51.83723 300
51.85735 294
51.87746 294
51.89757 285
51.91769 327
51.9378 318
51.95792 282
51.97803 305
51.99814 331
52.01826 307
52.03837 297
52.05848 283
52.0786 292
52.09871 311
52.11883 309
52.13894 289
52.15905 307
52.17917 337
52.19928 296
52.21939 311
52.23951 317
52.25962 341
52.27974 272
52.29985 331
52.31996 301
52.34008 328
52.36019 310
52.3803 308
52.40042 284
52.42053 307
52.44064 336
52.46076 322
52.48087 332
52.50099 302
52.5211 329
52.54121 318
52.56133 326
52.58144 303
52.60155 333
52.62167 295
52.64178 346
52.6619 329
52.68201 328
52.70212 348
52.72224 349
52.74235 328
52.76246 319
52.78258 341
52.80269 321
52.8228 337
52.84292 344
52.86303 348
52.88315 354
52.90326 319
52.92337 375
52.94349 328
52.9636 332
52.98371 365
53.00383 327
53.02394 329
53.04406 325
53.06417 357
53.08428 389
53.1044 362
53.12451 368
53.14462 369
53.16474 335
53.18485 361
53.20497 351
53.22508 368
53.24519 382
53.26531 387
53.28542 392
53.30553 350
53.32565 396
53.34576 427
53.36587 401
53.38599 390
53.4061 413
53.42622 381
53.44633 376
53.46644 413
53.48656 409
53.50667 393
53.52678 400
53.5469 436
53.56701 425
53.58713 417
53.60724 368
53.62735 408
53.64747 387
53.66758 363
53.68769 390
53.70781 372
53.72792 377
53.74804 402
53.76815 379
53.78826 388
53.80838 366
53.82849 382
53.8486 378
53.86872 409
53.88883 371
53.90894 370
53.92906 371
53.94917 354
53.96929 378
53.9894 382
54.00951 401
54.02963 345
54.04974 418
54.06985 401
54.08997 376
54.11008 406
54.1302 425
54.15031 368
54.17042 383
54.19054 370
54.21065 362
54.23076 384
54.25088 390
54.27099 384
54.29111 430
54.31122 401
54.33133 387
54.35145 362
54.37156 388
54.39167 385
54.41179 373
54.4319 377
54.45201 381
54.47213 405
54.49224 412
54.51236 409
54.53247 438
54.55258 447
54.5727 438
54.59281 465
54.61292 455
54.63304 521
54.65315 538
54.67327 538
54.69338 649
54.71349 678
54.73361 738
54.75372 812
54.77383 878
54.79395 829
54.81406 845
54.83417 753
54.85429 735
54.8744 668
54.89452 634
54.91463 624
54.93474 669
54.95486 585
54.97497 514
54.99508 549
55.0152 493
55.03531 454
55.05543 440
55.07554 426
55.09565 436
55.11577 455
55.13588 458
55.15599 471
55.17611 488
55.19622 566
55.21634 540
55.23645 571
55.25656 588
55.27668 552
55.29679 488
55.3169 463
55.33702 465
55.35713 471
55.37724 469
55.39736 485
55.41747 483
55.43759 412
55.4577 419
55.47781 385
55.49793 385
55.51804 361
55.53815 384
55.55827 347
55.57838 360
55.5985 325
55.61861 345
55.63872 354
55.65884 357
55.67895 347
55.69906 327
55.71918 347
55.73929 318
55.75941 321
55.77952 324
55.79963 342
55.81975 346
55.83986 323
55.85997 330
55.88009 359
55.9002 301
55.92031 315
55.94043 334
55.96054 293
55.98066 313
56.00077 321
56.02088 323
56.041 319
56.06111 313
56.08122 329
56.10134 296
56.12145 306
56.14157 334
56.16168 329
56.18179 314
56.20191 314
56.22202 321
56.24213 325
56.26225 328
56.28236 280
56.30248 337
56.32259 321
56.3427 339
56.36282 318
56.38293 324
56.40304 302
56.42316 350
56.44327 323
56.46338 320
56.4835 286
56.50361 282
56.52373 351
56.54384 320
56.56395 279
56.58407 308
56.60418 320
56.62429 340
56.64441 319
56.66452 278
56.68464 306
56.70475 331
56.72486 338
56.74498 298
56.76509 315
56.7852 355
56.80532 343
56.82543 318
56.84554 318
56.86566 312
56.88577 324
56.90589 321
56.926 310
56.94611 306
56.96623 319
56.98634 333
57.00645 331
57.02657 358
57.04668 309
57.0668 317
57.08691 328
57.10702 341
57.12714 352
57.14725 366
57.16736 367
57.18748 355
57.20759 336
57.22771 343
57.24782 309
57.26793 351
57.28805 340
57.30816 340
57.32827 343
57.34839 331
57.3685 303
57.38861 346
57.40873 390
57.42884 342
57.44896 334
57.46907 316
57.48918 349
57.5093 334
57.52941 326
57.54952 287
57.56964 313
57.58975 302
57.60987 317
57.62998 330
57.65009 307
57.67021 311
57.69032 283
57.71043 311
57.73055 337
57.75066 311
57.77078 346
57.79089 333
57.811 318
57.83112 313
57.85123 317
57.87134 354
57.89146 302
57.91157 322
57.93168 300
57.9518 310
57.97191 314
57.99203 319
58.01214 284
58.03225 301
58.05237 322
58.07248 348
58.09259 307
58.11271 321
58.13282 287
58.15294 306
58.17305 296
58.19316 305
58.21328 308
58.23339 307
58.2535 315
58.27362 321
58.29373 322
58.31385 314
58.33396 342
58.35407 312
58.37419 315
58.3943 320
58.41441 322
58.43453 329
58.45464 323
58.47475 297
58.49487 307
58.51498 284
58.5351 278
58.55521 323
58.57532 336
58.59544 332
58.61555 339
58.63566 321
58.65578 307
58.67589 343
58.69601 319
58.71612 333
58.73623 338
58.75635 336
58.77646 291
58.79657 322
58.81669 341
58.8368 293
58.85691 283
58.87703 313
58.89714 326
58.91726 337
58.93737 320
58.95748 332
58.9776 302
58.99771 324
59.01782 332
59.03794 329
59.05805 300
59.07817 359
59.09828 290
59.11839 342
59.13851 313
59.15862 304
59.17873 318
59.19885 329
59.21896 317
59.23908 341
59.25919 366
59.2793 391
59.29942 324
59.31953 354
59.33964 362
59.35976 361
59.37987 383
59.39998 347
59.4201 340
59.44021 350
59.46033 359
59.48044 379
59.50055 419
59.52067 404
59.54078 436
59.56089 435
59.58101 444
59.60112 471
59.62124 493
59.64135 492
59.66146 516
59.68158 552
59.70169 651
59.7218 683
59.74192 779
59.76203 893
59.78215 1026
59.80226 1220
59.82237 1251
59.84249 1369
59.8626 1446
59.88271 1455
59.90283 1369
59.92294 1266
59.94305 1043
59.96317 987
59.98328 929
60.0034 954
60.02351 885
60.04362 892
60.06374 752
60.08385 742
60.10396 642
60.12408 523
60.14419 469
60.16431 420
60.18442 360
60.20453 377
60.22465 381
60.24476 311
60.26487 351
60.28499 352
60.3051 356
60.32522 347
60.34533 309
60.36544 327
60.38556 345
60.40567 317
60.42578 325
60.4459 338
60.46601 342
60.48612 328
60.50624 311
60.52635 322
60.54647 336
60.56658 331
60.58669 339
60.60681 341
60.62692 317
60.64703 357
60.66715 318
60.68726 323
60.70738 299
60.72749 307
60.7476 304
60.76772 300
60.78783 320
60.80794 291
60.82806 337
60.84817 282
60.86828 312
60.8884 318
60.90851 339
60.92863 344
60.94874 336
60.96885 320
60.98897 329
61.00908 349
61.02919 314
61.04931 334
61.06942 337
61.08954 325
61.10965 331
61.12976 322
61.14988 343
61.16999 307
61.1901 351
61.21022 338
61.23033 305
61.25045 343
61.27056 307
61.29067 326
61.31079 287
61.3309 336
61.35101 314
61.37113 354
61.39124 314
61.41135 353
61.43147 315
61.45158 334
61.4717 317
61.49181 311
61.51192 309
61.53204 333
61.55215 312
61.57226 328
61.59238 342
61.61249 322
61.63261 350
61.65272 324
61.67283 339
61.69295 323
61.71306 402
61.73317 358
61.75329 354
61.7734 357
61.79352 355
61.81363 338
61.83374 333
61.85386 352
61.87397 366
61.89408 352
61.9142 328
61.93431 351
61.95442 386
61.97454 335
61.99465 340
62.01477 371
62.03488 378
62.05499 391
62.07511 381
62.09522 354
62.11533 358
62.13545 361
62.15556 375
62.17568 377
62.19579 349
62.2159 389
62.23602 350
62.25613 387
62.27624 381
62.29636 389
62.31647 373
62.33659 350
62.3567 339
62.37681 364
62.39693 323
62.41704 383
62.43715 360
62.45727 325
62.47738 332
62.49749 326
62.51761 347
62.53772 336
62.55784 334
62.57795 334
62.59806 333
62.61818 348
62.63829 331
62.6584 380
62.67852 354
62.69863 336
62.71875 347
62.73886 358
62.75897 347
62.77909 328
62.7992 333
62.81931 365
62.83943 347
62.85954 336
62.87965 329
62.89977 323
62.91988 349
62.94 349
62.96011 324
62.98022 316
63.00034 339
63.02045 341
63.04056 330
63.06068 354
63.08079 360
63.10091 322
63.12102 305
63.14113 339
63.16125 333
63.18136 318
63.20147 355
63.22159 303
63.2417 297
63.26182 341
63.28193 336
63.30204 338
63.32216 315
63.34227 329
63.36238 361
63.3825 332
63.40261 348
63.42272 310
63.44284 356
63.46295 347
63.48307 351
63.50318 359
63.52329 320
63.54341 367
63.56352 346
63.58363 337
63.60375 377
63.62386 326
63.64398 310
63.66409 355
63.6842 338
63.70432 363
63.72443 377
63.74454 393
63.76466 383
63.78477 379
63.80489 419
63.825 431
63.84511 481
63.86523 465
63.88534 511
63.90545 496
63.92557 521
63.94568 531
63.96579 532
63.98591 496
64.00602 502
64.02614 440
64.04625 440
64.06636 428
64.08648 441
64.10659 466
64.1267 497
64.14682 451
64.16693 381
64.18705 421
64.20716 399
64.22727 348
64.24739 320
64.2675 325
64.28761 332
64.30773 350
64.32784 314
64.34796 346
64.36807 327
64.38818 322
64.4083 323
64.42841 325
64.44852 321
64.46864 309
64.48875 319
64.50886 311
64.52898 319
64.54909 297
64.56921 341
64.58932 326
64.60943 298
64.62955 323
64.64966 325
64.66977 322
64.68989 309
64.71 308
64.73012 296
64.75023 299
64.77034 326
64.79046 291
64.81057 317
64.83068 301
64.8508 310
64.87091 333
64.89102 307
64.91114 338
64.93125 313
64.95137 307
64.97148 340
64.99159 336
65.01171 285
65.03182 333
65.05193 307
65.07205 307
65.09216 299
65.11228 306
65.13239 293
65.1525 313
65.17262 297
65.19273 316
65.21284 332
65.23296 321
65.25307 314
65.27319 301
65.2933 326
65.31341 296
65.33353 305
65.35364 331
65.37375 298
65.39387 304
65.41398 316
65.43409 328
65.45421 324
65.47432 291
65.49444 311
65.51455 295
65.53466 307
65.55478 274
65.57489 333
65.595 312
65.61512 348
65.63523 335
65.65535 333
65.67546 324
65.69557 341
65.71569 348
65.7358 349
65.75591 343
65.77603 356
65.79614 319
65.81626 339
65.83637 319
65.85648 291
65.8766 313
65.89671 329
65.91682 300
65.93694 308
65.95705 297
65.97716 302
65.99728 306
66.01739 279
66.03751 313
66.05762 317
66.07773 305
66.09785 319
66.11796 308
66.13807 329
66.15819 293
66.1783 312
66.19842 344
66.21853 315
66.23864 338
66.25876 296
66.27887 339
66.29898 348
66.3191 320
66.33921 302
66.35933 326
66.37944 344
66.39955 302
66.41967 315
66.43978 299
66.45989 313
66.48001 298
66.50012 292
66.52023 282
66.54035 283
66.56046 291
66.58058 288
66.60069 301
66.6208 284
66.64092 303
66.66103 297
66.68114 304
66.70126 304
66.72137 299
66.74149 320
66.7616 291
66.78171 327
66.80183 311
66.82194 319
66.84205 275
66.86217 273
66.88228 311
66.90239 295
66.92251 292
66.94262 319
66.96274 291
66.98285 360
67.00296 321
67.02308 293
67.04319 359
67.0633 294
67.08342 353
67.10353 324
67.12365 301
67.14376 351
67.16387 320
67.18399 339
67.2041 345
67.22421 343
67.24433 354
67.26444 342
67.28456 371
67.30467 372
67.32478 359
67.3449 372
67.36501 393
67.38512 433
67.40524 379
67.42535 425
67.44546 431
67.46558 487
67.48569 510
67.50581 527
67.52592 577
67.54603 624
67.56615 740
67.58626 768
67.60637 798
67.62649 905
67.6466 979
67.66672 986
67.68683 892
67.70694 846
67.72706 727
67.74717 696
67.76728 708
67.7874 716
67.80751 740
67.82763 713
67.84774 796
67.86785 744
67.88797 779
67.90808 799
67.92819 793
67.94831 807
67.96842 887
67.98853 980
68.00865 1059
68.02876 1184
68.04888 1270
68.06899 1254
68.0891 1191
68.10922 1157
68.12933 1110
68.14944 1009
68.16956 1077
68.18967 1138
68.20979 1106
68.2299 1175
68.25001 1069
68.27013 1038
68.29024 945
68.31035 848
68.33047 723
68.35058 634
68.3707 630
68.39081 558
68.41092 587
68.43104 587
68.45115 502
68.47126 521
68.49138 444
68.51149 412
68.5316 381
68.55172 378
68.57183 350
68.59195 347
68.61206 355
68.63217 352
68.65229 354
68.6724 349
68.69251 316
68.71263 318
68.73274 300
68.75286 321
68.77297 326
68.79308 332
68.8132 288
68.83331 303
68.85342 324
68.87354 296
68.89365 287
68.91376 283
68.93388 325
68.95399 312
68.97411 285
68.99422 310
69.01433 323
69.03445 305
69.05456 287
69.07467 278
69.09479 304
69.1149 312
69.13502 280
69.15513 281
69.17524 310
69.19536 330
69.21547 315
69.23558 282
69.2557 273
69.27581 279
69.29593 302
69.31604 310
69.33615 294
69.35627 314
69.37638 293
69.39649 281
69.41661 293
69.43672 286
69.45683 287
69.47695 297
69.49706 298
69.51718 292
69.53729 334
69.5574 305
69.57752 303
69.59763 303
69.61774 298
69.63786 272
69.65797 292
69.67809 286
69.6982 303
69.71831 312
69.73843 302
69.75854 279
69.77865 320
69.79877 282
69.81888 292
69.839 305
69.85911 280
69.87922 299
69.89934 286
69.91945 315
69.93956 281
69.95968 297
69.97979 306
69.9999 286
70.02002 300
70.04013 274
70.06025 285
70.08036 296
70.10047 267
70.12059 300
70.1407 277
70.16081 309
70.18093 272
70.20104 277
70.22116 274
70.24127 270
70.26138 254
70.2815 280
70.30161 283
70.32172 261
70.34184 256
70.36195 290
70.38207 261
70.40218 283
70.42229 282
70.44241 266
70.46252 300
70.48263 276
70.50275 285
70.52286 301
70.54297 224
70.56309 296
70.5832 284
70.60332 282
70.62343 289
70.64354 289
70.66366 288
70.68377 287
70.70388 275
70.724 313
70.74411 311
70.76423 303
70.78434 284
70.80445 283
70.82457 272
70.84468 304
70.86479 297
70.88491 299
70.90502 269
70.92513 290
70.94525 277
70.96536 278
70.98548 254
71.00559 241
71.0257 257
71.04582 284
71.06593 262
71.08604 269
71.10616 289
71.12627 293
71.14639 272
71.1665 287
71.18661 297
71.20673 311
71.22684 302
71.24695 271
71.26707 265
71.28718 283
71.3073 282
71.32741 296
71.34752 292
71.36764 281
71.38775 304
71.40786 286
71.42798 293
71.44809 293
71.4682 300
71.48832 331
71.50843 304
71.52855 260
71.54866 292
71.56877 299
71.58889 288
71.609 268
71.62911 313
71.64923 301
71.66934 283
71.68946 279
71.70957 317
71.72968 282
71.7498 279
71.76991 280
71.79002 283
71.81014 268
71.83025 330
71.85037 314
71.87048 289
71.89059 270
71.91071 318
71.93082 288
71.95093 301
71.97105 293
71.99116 302
72.01127 291
72.03139 280
72.0515 300
72.07162 270
72.09173 296
72.11184 312
72.13196 285
72.15207 329
72.17218 335
72.1923 310
72.21241 292
72.23253 284
72.25264 296
72.27275 311
72.29287 314
72.31298 295
72.33309 290
72.35321 296
72.37332 323
72.39344 296
72.41355 290
72.43366 305
72.45378 315
72.47389 286
72.494 292
72.51412 294
72.53423 274
72.55434 314
72.57446 295
72.59457 309
72.61469 274
72.6348 271
72.65491 299
72.67503 265
72.69514 295
72.71525 288
72.73537 303
72.75548 289
72.7756 307
72.79571 285
72.81582 299
72.83594 295
72.85605 329
72.87616 298
72.89628 312
72.91639 307
72.9365 333
72.95662 311
72.97673 321
72.99685 312
73.01696 287
73.03707 306
73.05719 310
73.0773 306
73.09741 322
73.11753 329
73.13764 324
73.15776 338
73.17787 347
73.19798 386
73.2181 332
73.23821 361
73.25832 388
73.27844 446
73.29855 450
73.31867 439
73.33878 490
73.35889 522
73.37901 481
73.39912 476
73.41923 479
73.43935 440
73.45946 424
73.47957 401
73.49969 351
73.5198 435
73.53992 427
73.56003 384
73.58014 432
73.60026 385
73.62037 410
73.64048 333
73.6606 360
73.68071 331
73.70083 318
73.72094 312
73.74105 304
73.76117 291
73.78128 286
73.80139 253
73.82151 319
73.84162 308
73.86174 324
73.88185 282
73.90196 285
73.92208 268
73.94219 300
73.9623 284
73.98242 286
74.00253 273
74.02264 271
74.04276 284
74.06287 269
74.08299 283
74.1031 270
74.12321 283
74.14333 272
74.16344 275
74.18355 296
74.20367 277
74.22378 265
74.2439 290
74.26401 295
74.28412 281
74.30424 279
74.32435 301
74.34446 297
74.36458 295
74.38469 302
74.40481 293
74.42492 311
74.44503 281
74.46515 281
74.48526 270
74.50537 312
74.52549 280
74.5456 282
74.56571 299
74.58583 309
74.60594 271
74.62606 303
74.64617 269
74.66628 290
74.6864 265
74.70651 290
74.72662 297
74.74674 283
74.76685 287
74.78697 293
74.80708 293
74.82719 290
74.84731 299
74.86742 295
74.88753 291
74.90765 252
74.92776 281
74.94787 276
74.96799 284
74.9881 318
75.00822 293
