3.00117 18103
3.02128 17580
3.0414 17615
3.06151 17010
3.08162 16624
3.10174 15590
3.12185 15681
3.14197 14957
3.16208 14346
3.18219 14402
3.20231 13763
3.22242 13491
3.24253 13105
3.26265 12070
3.28276 12384
3.30288 11721
3.32299 11456
3.3431 11204
3.36322 10802
3.38333 10511
3.40344 9766
3.42356 9629
3.44367 9257
3.46379 8796
3.4839 8613
3.50401 8353
3.52413 8241
3.54424 7686
3.56435 7418
3.58447 7413
3.60458 6790
3.62469 6765
3.64481 6435
3.66492 6202
3.68504 6011
3.70515 5677
3.72526 5628
3.74538 5250
3.76549 5054
3.7856 5064
3.80572 4523
3.82583 4434
3.84595 4256
3.86606 3908
3.88617 4211
3.90629 3589
3.9264 3527
3.94651 3504
3.96663 3352
3.98674 3284
4.00686 2880
4.02697 2847
4.04708 2734
4.0672 2610
4.08731 2660
4.10742 2329
4.12754 2354
4.14765 2352
4.16776 2198
4.18788 2103
4.20799 1856
4.22811 1915
4.24822 1806
4.26833 1799
4.28845 1810
4.30856 1512
4.32867 1603
4.34879 1526
4.3689 1445
4.38902 1481
4.40913 1305
4.42924 1345
4.44936 1396
4.46947 1262
4.48958 1368
4.5097 1214
4.52981 1239
4.54992 1205
4.57004 1196
4.59015 1197
4.61027 1107
4.63038 1052
4.65049 1053
4.67061 1074
4.69072 1055
4.71083 962
4.73095 970
4.75106 1002
4.77118 920
4.79129 948
4.8114 870
4.83152 849
4.85163 843
4.87174 828
4.89186 822
4.91197 775
4.93209 717
4.9522 718
4.97231 762
4.99243 741
5.01254 732
5.03265 718
5.05277 690
5.07288 666
5.09299 673
5.11311 679
5.13322 646
5.15334 619
5.17345 656
5.19356 562
5.21368 620
5.23379 551
5.2539 506
5.27402 530
5.29413 516
5.31425 496
5.33436 487
5.35447 494
5.37459 533
5.3947 464
5.41481 489
5.43493 453
5.45504 445
5.47516 451
5.49527 408
5.51538 383
5.5355 442
5.55561 393
5.57572 402
5.59584 390
5.61595 409
5.63606 401
5.65618 389
5.67629 357
5.69641 296
5.71652 345
5.73663 315
5.75675 332
5.77686 302
5.79697 311
5.81709 299
5.8372 329
5.85732 314
5.87743 318
5.89754 320
5.91766 313
5.93777 279
5.95788 306
5.978 299
5.99811 279
6.01823 321
6.03834 327
6.05845 295
6.07857 296
6.09868 260
6.11879 273
6.13891 305
6.15902 263
6.17913 281
6.19925 261
6.21936 273
6.23948 283
6.25959 286
6.2797 275
6.29982 301
6.31993 270
6.34004 273
6.36016 284
6.38027 277
6.40039 248
6.4205 269
6.44061 253
6.46073 297
6.48084 255
6.50095 271
6.52107 285
6.54118 254
6.56129 270
6.58141 279
6.60152 272
6.62164 262
6.64175 258
6.66186 248
6.68198 206
6.70209 236
6.7222 267
6.74232 253
6.76243 239
6.78255 252
6.80266 255
6.82277 279
6.84289 248
6.863 266
6.88311 267
6.90323 224
6.92334 267
6.94346 232
6.96357 218
6.98368 233
7.0038 235
7.02391 231
7.04402 256
7.06414 254
7.08425 255
7.10436 238
7.12448 233
7.14459 288
7.16471 288
7.18482 275
7.20493 250
7.22505 278
7.24516 226
7.26527 241
7.28539 213
7.3055 281
7.32562 237
7.34573 234
7.36584 246
7.38596 250
7.40607 253
7.42618 244
7.4463 253
7.46641 258
7.48653 242
7.50664 249
7.52675 225
7.54687 231
7.56698 267
7.58709 256
7.60721 246
7.62732 250
7.64743 237
7.66755 234
7.68766 270
7.70778 264
7.72789 266
7.748 240
7.76812 269
7.78823 273
7.80834 240
7.82846 243
7.84857 240
7.86869 298
7.8888 254
7.90891 267
7.92903 281
7.94914 222
7.96925 248
7.98937 253
8.00948 269
8.0296 275
8.04971 223
8.06982 240
8.08994 244
8.11005 256
8.13016 298
8.15028 247
8.17039 304
8.1905 284
8.21062 268
8.23073 241
8.25085 265
8.27096 219
8.29107 248
8.31119 246
8.3313 255
8.35141 252
8.37153 270
8.39164 250
8.41176 276
8.43187 257
8.45198 225
8.4721 247
8.49221 269
8.51232 248
8.53244 281
8.55255 262
8.57266 212
8.59278 284
8.61289 266
8.63301 270
8.65312 263
8.67323 244
8.69335 254
8.71346 259
8.73357 275
8.75369 248
8.7738 299
8.79392 265
8.81403 278
8.83414 294
8.85426 248
8.87437 248
8.89448 257
8.9146 261
8.93471 235
8.95483 234
8.97494 310
8.99505 232
9.01517 237
9.03528 244
9.05539 265
9.07551 250
9.09562 275
9.11573 258
9.13585 285
9.15596 274
9.17608 291
9.19619 259
9.2163 289
9.23642 245
9.25653 270
9.27664 249
9.29676 244
9.31687 225
9.33699 264
9.3571 237
9.37721 249
9.39733 268
9.41744 224
9.43755 214
9.45767 252
9.47778 268
9.4979 269
9.51801 280
9.53812 234
9.55824 255
9.57835 269
9.59846 274
9.61858 271
9.63869 251
9.6588 252
9.67892 255
9.69903 234
9.71915 234
9.73926 263
9.75937 269
9.77949 245
9.7996 284
9.81971 254
9.83983 276
9.85994 272
9.88006 267
9.90017 251
9.92028 266
9.9404 263
9.96051 265
9.98062 293
10.00074 257
10.02085 260
10.04097 280
10.06108 252
10.08119 261
10.10131 268
10.12142 283
10.14153 254
10.16165 251
10.18176 245
10.20187 253
10.22199 251
10.2421 276
10.26222 274
10.28233 236
10.30244 253
10.32256 284
10.34267 317
10.36278 280
10.3829 283
10.40301 277
10.42313 226
10.44324 312
10.46335 255
10.48347 264
10.50358 278
10.52369 269
10.54381 261
10.56392 246
10.58403 273
10.60415 270
10.62426 278
10.64438 260
10.66449 251
10.6846 236
10.70472 266
10.72483 263
10.74494 246
10.76506 264
10.78517 277
10.80529 273
10.8254 233
10.84551 253
10.86563 275
10.88574 219
10.90585 263
10.92597 274
10.94608 243
10.9662 244
10.98631 281
11.00642 281
11.02654 256
11.04665 283
11.06676 310
11.08688 261
11.10699 274
11.1271 282
11.14722 275
11.16733 272
11.18745 279
11.20756 249
11.22767 258
11.24779 277
11.2679 286
11.28801 237
11.30813 238
11.32824 216
11.34836 271
11.36847 255
11.38858 273
11.4087 307
11.42881 286
11.44892 288
11.46904 299
11.48915 262
11.50927 290
11.52938 267
11.54949 285
11.56961 304
11.58972 310
11.60983 257
11.62995 295
11.65006 299
11.67017 326
11.69029 306
11.7104 310
11.73052 329
11.75063 289
11.77074 312
11.79086 282
11.81097 306
11.83108 335
11.8512 324
11.87131 351
11.89143 330
11.91154 328
11.93165 343
11.95177 333
11.97188 364
11.99199 333
12.01211 361
12.03222 411
12.05234 411
12.07245 425
12.09256 470
12.11268 469
12.13279 476
12.1529 508
12.17302 555
12.19313 636
12.21324 640
12.23336 682
12.25347 694
12.27359 792
12.2937 785
12.31381 748
12.33393 776
12.35404 760
12.37415 711
12.39427 663
12.41438 662
12.4345 574
12.45461 566
12.47472 498
12.49484 422
12.51495 403
12.53506 378
12.55518 393
12.57529 365
12.5954 370
12.61552 325
12.63563 346
12.65575 308
12.67586 314
12.69597 305
12.71609 266
12.7362 214
12.75631 281
12.77643 295
12.79654 298
12.81666 274
12.83677 269
12.85688 293
12.877 227
12.89711 261
12.91722 243
12.93734 251
12.95745 248
12.97757 259
12.99768 237
13.01779 225
13.03791 228
13.05802 212
13.07813 231
13.09825 285
13.11836 249
13.13847 237
13.15859 240
13.1787 230
13.19882 243
13.21893 236
13.23904 249
13.25916 241
13.27927 215
13.29938 262
13.3195 235
13.33961 223
13.35973 225
13.37984 223
13.39995 194
13.42007 223
13.44018 240
13.46029 224
13.48041 211
13.50052 230
13.52064 248
13.54075 221
13.56086 244
13.58098 274
13.60109 238
13.6212 262
13.64132 240
13.66143 214
13.68154 220
13.70166 200
13.72177 234
13.74189 213
13.762 210
13.78211 250
13.80223 217
13.82234 211
13.84245 239
13.86257 201
13.88268 255
13.9028 228
13.92291 224
13.94302 207
13.96314 223
13.98325 187
14.00336 238
14.02348 210
14.04359 183
14.06371 223
14.08382 211
14.10393 231
14.12405 219
14.14416 224
14.16427 214
14.18439 228
14.2045 214
14.22461 239
14.24473 222
14.26484 219
14.28496 230
14.30507 211
14.32518 200
14.3453 181
14.36541 222
14.38552 231
14.40564 206
14.42575 214
14.44587 201
14.46598 189
14.48609 222
14.50621 206
14.52632 221
14.54643 215
14.56655 224
14.58666 219
14.60677 200
14.62689 195
14.647 191
14.66712 204
14.68723 220
14.70734 225
14.72746 185
14.74757 211
14.76768 199
14.7878 209
14.80791 206
14.82803 216
14.84814 207
14.86825 216
14.88837 212
14.90848 192
14.92859 182
14.94871 201
14.96882 221
14.98894 219
15.00905 219
15.02916 200
15.04928 220
15.06939 189
15.0895 195
15.10962 197
15.12973 202
15.14984 184
15.16996 190
15.19007 189
15.21019 196
15.2303 186
15.25041 208
15.27053 207
15.29064 185
15.31075 190
15.33087 205
15.35098 200
15.3711 231
15.39121 234
15.41132 240
15.43144 185
15.45155 182
15.47166 188
15.49178 203
15.51189 219
15.53201 180
15.55212 226
15.57223 191
15.59235 232
15.61246 198
15.63257 215
15.65269 207
15.6728 196
15.69291 212
15.71303 203
15.73314 200
15.75326 182
15.77337 196
15.79348 198
15.8136 207
15.83371 232
15.85382 196
15.87394 222
15.89405 201
15.91417 213
15.93428 214
15.95439 191
15.97451 200
15.99462 210
16.01473 181
16.03485 181
16.05496 201
16.07508 201
16.09519 182
16.1153 199
16.13542 193
16.15553 211
16.17564 181
16.19576 181
16.21587 224
16.23598 173
16.2561 175
16.27621 195
16.29633 227
16.31644 172
16.33655 169
16.35667 199
16.37678 185
16.39689 172
16.41701 200
16.43712 187
16.45724 180
16.47735 177
16.49746 198
16.51758 186
16.53769 183
16.5578 200
16.57792 188
16.59803 172
16.61814 194
16.63826 219
16.65837 226
16.67849 190
16.6986 187
16.71871 222
16.73883 205
16.75894 195
16.77905 183
16.79917 191
16.81928 198
16.8394 215
16.85951 221
16.87962 159
16.89974 185
16.91985 204
16.93996 193
16.96008 209
16.98019 207
17.00031 207
17.02042 184
17.04053 185
17.06065 182
17.08076 179
17.10087 174
17.12099 175
17.1411 202
17.16121 218
17.18133 206
17.20144 161
17.22156 197
17.24167 162
17.26178 190
17.2819 193
17.30201 186
17.32212 156
17.34224 187
17.36235 201
17.38247 178
17.40258 187
17.42269 201
17.44281 170
17.46292 185
17.48303 193
17.50315 172
17.52326 193
17.54338 186
17.56349 173
17.5836 196
17.60372 186
17.62383 219
17.64394 208
17.66406 216
17.68417 203
17.70428 164
17.7244 170
17.74451 175
17.76463 189
17.78474 169
17.80485 173
17.82497 217
17.84508 216
17.86519 182
17.88531 234
17.90542 167
17.92554 196
17.94565 194
17.96576 207
17.98588 223
18.00599 196
18.0261 218
18.04622 202
18.06633 204
18.08645 195
18.10656 184
18.12667 216
18.14679 226
18.1669 199
18.18701 196
18.20713 205
18.22724 214
18.24735 190
18.26747 201
18.28758 198
18.3077 197
18.32781 195
18.34792 184
18.36804 233
18.38815 201
18.40826 186
18.42838 214
18.44849 205
18.46861 204
18.48872 187
18.50883 200
18.52895 185
18.54906 190
18.56917 202
18.58929 201
18.6094 193
18.62951 213
18.64963 224
18.66974 200
18.68986 197
18.70997 220
18.73008 190
18.7502 204
18.77031 231
18.79042 211
18.81054 242
18.83065 244
18.85077 189
18.87088 199
18.89099 199
18.91111 174
18.93122 202
18.95133 218
18.97145 202
18.99156 204
19.01168 198
19.03179 190
19.0519 185
19.07202 188
19.09213 205
19.11224 194
19.13236 203
19.15247 216
19.17258 218
19.1927 228
19.21281 215
19.23293 211
19.25304 222
19.27315 220
19.29327 198
19.31338 203
19.33349 212
19.35361 204
19.37372 204
19.39384 226
19.41395 227
19.43406 224
19.45418 233
19.47429 247
19.4944 204
19.51452 253
19.53463 247
19.55475 238
19.57486 238
19.59497 232
19.61509 270
19.6352 270
19.65531 297
19.67543 328
19.69554 355
19.71565 380
19.73577 405
19.75588 419
19.776 485
19.79611 498
19.81622 516
19.83634 525
19.85645 597
19.87656 605
19.89668 668
19.91679 597
19.93691 568
19.95702 623
19.97713 540
19.99725 581
20.01736 570
20.03747 533
20.05759 559
20.0777 519
20.09782 520
20.11793 590
20.13804 547
20.15816 518
20.17827 524
20.19838 521
20.2185 524
20.23861 495
20.25872 593
20.27884 506
20.29895 541
20.31907 532
20.33918 524
20.35929 530
20.37941 524
20.39952 533
20.41963 530
20.43975 600
20.45986 626
20.47998 576
20.50009 571
20.5202 584
20.54032 595
20.56043 612
20.58054 637
20.60066 678
20.62077 663
20.64088 773
20.661 836
20.68111 991
20.70123 1322
20.72134 1708
20.74145 2304
20.76157 3310
20.78168 4425
20.80179 5685
20.82191 6718
20.84202 7336
20.86214 6564
20.88225 5391
20.90236 4061
20.92248 2773
20.94259 1729
20.9627 1166
20.98282 806
21.00293 697
21.02305 606
21.04316 578
21.06327 565
21.08339 579
21.1035 585
21.12361 494
21.14373 517
21.16384 589
21.18395 520
21.20407 532
21.22418 489
21.2443 481
21.26441 473
21.28452 443
21.30464 464
21.32475 512
21.34486 511
21.36498 465
21.38509 464
21.40521 440
21.42532 434
21.44543 412
21.46555 434
21.48566 424
21.50577 375
21.52589 409
21.546 441
21.56612 448
21.58623 402
21.60634 413
21.62646 397
21.64657 376
21.66668 386
21.6868 386
21.70691 383
21.72702 417
21.74714 367
21.76725 364
21.78737 381
21.80748 370
21.82759 356
21.84771 358
21.86782 353
21.88793 384
21.90805 347
21.92816 351
21.94828 331
21.96839 376
21.9885 333
22.00862 366
22.02873 358
22.04884 320
22.06896 359
22.08907 352
22.10919 375
22.1293 334
22.14941 377
22.16953 335
22.18964 332
22.20975 321
22.22987 350
22.24998 338
22.27009 328
22.29021 358
22.31032 349
22.33044 289
22.35055 331
22.37066 326
22.39078 310
22.41089 323
22.431 338
22.45112 307
22.47123 302
22.49135 288
22.51146 341
22.53157 294
22.55169 311
22.5718 335
22.59191 311
22.61203 280
22.63214 286
22.65225 329
22.67237 277
22.69248 319
22.7126 316
22.73271 311
22.75282 325
22.77294 288
22.79305 315
22.81316 315
22.83328 301
22.85339 295
22.87351 309
22.89362 282
22.91373 322
22.93385 289
22.95396 274
22.97407 301
22.99419 287
23.0143 286
23.03442 275
23.05453 307
23.07464 323
23.09476 290
23.11487 297
23.13498 264
23.1551 322
23.17521 308
23.19532 304
23.21544 283
23.23555 288
23.25567 238
23.27578 309
23.29589 282
23.31601 245
23.33612 283
23.35623 267
23.37635 258
23.39646 233
23.41658 266
23.43669 290
23.4568 290
23.47692 273
23.49703 290
23.51714 253
23.53726 274
23.55737 310
23.57749 301
23.5976 262
23.61771 278
23.63783 282
23.65794 268
23.67805 285
23.69817 301
23.71828 283
23.73839 277
23.75851 263
23.77862 265
23.79874 290
23.81885 294
23.83896 296
23.85908 295
23.87919 315
23.8993 338
23.91942 332
23.93953 341
23.95965 368
23.97976 360
23.99987 370
24.01999 367
24.0401 362
24.06021 298
24.08033 332
24.10044 275
24.12056 323
24.14067 335
24.16078 328
24.1809 305
24.20101 305
24.22112 294
24.24124 307
24.26135 329
24.28146 306
24.30158 307
24.32169 334
24.34181 324
24.36192 311
24.38203 310
24.40215 319
24.42226 333
24.44237 352
24.46249 307
24.4826 336
24.50272 362
24.52283 385
24.54294 366
24.56306 401
24.58317 345
24.60328 381
24.6234 419
24.64351 415
24.66362 446
24.68374 468
24.70385 503
24.72397 563
24.74408 590
24.76419 575
24.78431 578
24.80442 634
24.82453 632
24.84465 652
24.86476 686
24.88488 649
24.90499 556
24.9251 619
24.94522 581
24.96533 505
24.98544 489
25.00556 475
25.02567 449
25.04579 421
25.0659 398
25.08601 449
25.10613 406
25.12624 420
25.14635 406
25.16647 367
25.18658 431
25.20669 435
25.22681 440
25.24692 468
25.26704 447
25.28715 415
25.30726 415
25.32738 441
25.34749 383
25.3676 387
25.38772 336
25.40783 336
25.42795 375
25.44806 311
25.46817 344
25.48829 327
25.5084 337
25.52851 330
25.54863 334
25.56874 352
25.58886 332
25.60897 330
25.62908 345
25.6492 400
25.66931 366
25.68942 416
25.70954 464
25.72965 473
25.74976 490
25.76988 453
25.78999 436
25.81011 460
25.83022 523
25.85033 441
25.87045 500
25.89056 505
25.91067 477
25.93079 452
25.9509 505
25.97102 497
25.99113 506
26.01124 477
26.03136 492
26.05147 553
26.07158 566
26.0917 572
26.11181 561
26.13193 627
26.15204 652
26.17215 660
26.19227 670
26.21238 769
26.23249 796
26.25261 871
26.27272 920
26.29283 988
26.31295 1035
26.33306 1076
26.35318 1311
26.37329 1541
26.3934 1746
26.41352 2015
26.43363 2631
26.45374 3587
26.47386 5007
26.49397 6894
26.51409 10057
26.5342 14189
26.55431 19601
26.57443 25626
26.59454 30358
26.61465 31945
26.63477 30074
26.65488 25167
26.67499 19304
26.69511 14243
26.71522 9883
26.73534 5937
26.75545 3456
26.77556 2182
26.79568 1678
26.81579 1470
26.8359 1280
26.85602 1154
26.87613 1055
26.89625 1020
26.91636 910
26.93647 814
26.95659 751
26.9767 647
26.99681 641
27.01693 623
27.03704 552
27.05716 546
27.07727 505
27.09738 463
27.1175 479
27.13761 491
27.15772 452
27.17784 454
27.19795 376
27.21806 452
27.23818 420
27.25829 428
27.27841 424
27.29852 439
27.31863 419
27.33875 406
27.35886 460
27.37897 432
27.39909 423
27.4192 453
27.43932 437
27.45943 411
27.47954 410
27.49966 360
27.51977 353
27.53988 340
27.56 335
27.58011 341
27.60023 364
27.62034 371
27.64045 357
27.66057 333
27.68068 374
27.70079 313
27.72091 338
27.74102 351
27.76113 342
27.78125 290
27.80136 306
27.82148 304
27.84159 346
27.8617 344
27.88182 308
27.90193 310
27.92204 323
27.94216 318
27.96227 325
27.98239 305
28.0025 329
28.02261 312
28.04273 280
28.06284 263
28.08295 309
28.10307 290
28.12318 302
28.1433 285
28.16341 309
28.18352 286
28.20364 282
28.22375 260
28.24386 295
28.26398 262
28.28409 274
28.3042 287
28.32432 267
28.34443 294
28.36455 291
28.38466 266
28.40477 288
28.42489 266
28.445 269
28.46511 300
28.48523 270
28.50534 288
28.52546 297
28.54557 265
28.56568 266
28.5858 254
28.60591 259
28.62602 250
28.64614 266
28.66625 271
28.68636 257
28.70648 260
28.72659 256
28.74671 251
28.76682 250
28.78693 247
28.80705 242
28.82716 275
28.84727 268
28.86739 272
28.8875 237
28.90762 246
28.92773 237
28.94784 268
28.96796 256
28.98807 266
29.00818 261
29.0283 253
29.04841 249
29.06853 239
29.08864 230
29.10875 242
29.12887 225
29.14898 224
29.16909 245
29.18921 215
29.20932 252
29.22943 249
29.24955 235
29.26966 220
29.28978 272
29.30989 243
29.33 214
29.35012 261
29.37023 244
29.39034 240
29.41046 310
29.43057 243
29.45069 231
29.4708 247
29.49091 246
29.51103 240
29.53114 254
29.55125 262
29.57137 244
29.59148 241
29.6116 277
29.63171 254
29.65182 234
29.67194 255
29.69205 239
29.71216 260
29.73228 240
29.75239 234
29.7725 258
29.79262 242
29.81273 257
29.83285 235
29.85296 278
29.87307 238
29.89319 248
29.9133 254
29.93341 245
29.95353 210
29.97364 252
29.99376 236
30.01387 240
30.03398 251
30.0541 225
30.07421 236
30.09432 235
30.11444 213
30.13455 232
30.15467 252
30.17478 243
30.19489 241
30.21501 252
30.23512 239
30.25523 227
30.27535 227
30.29546 258
30.31557 224
30.33569 253
30.3558 236
30.37592 230
30.39603 252
30.41614 248
30.43626 221
30.45637 258
30.47648 215
30.4966 236
30.51671 221
30.53683 218
30.55694 237
30.57705 252
30.59717 236
30.61728 226
30.63739 241
30.65751 224
30.67762 234
30.69773 217
30.71785 222
30.73796 247
30.75808 247
30.77819 238
30.7983 218
30.81842 247
30.83853 245
30.85864 219
30.87876 225
30.89887 232
30.91899 208
30.9391 222
30.95921 195
30.97933 206
30.99944 221
31.01955 240
31.03967 190
31.05978 222
31.0799 204
31.10001 195
31.12012 208
31.14024 196
31.16035 203
31.18046 218
31.20058 256
31.22069 198
31.2408 199
31.26092 211
31.28103 209
31.30115 183
31.32126 232
31.34137 209
31.36149 215
31.3816 200
31.40171 234
31.42183 216
31.44194 205
31.46206 219
31.48217 209
31.50228 222
31.5224 203
31.54251 211
31.56262 221
31.58274 225
31.60285 213
31.62297 190
31.64308 194
31.66319 265
31.68331 210
31.70342 231
31.72353 168
31.74365 222
31.76376 207
31.78387 218
31.80399 204
31.8241 205
31.84422 212
31.86433 217
31.88444 213
31.90456 213
31.92467 204
31.94478 218
31.9649 201
31.98501 177
32.00513 219
32.02524 197
32.04535 204
32.06547 194
32.08558 176
32.10569 183
32.12581 191
32.14592 198
32.16604 206
32.18615 216
32.20626 210
32.22638 203
32.24649 181
32.2666 223
32.28672 220
32.30683 215
32.32694 196
32.34706 207
32.36717 205
32.38729 194
32.4074 216
32.42751 222
32.44763 219
32.46774 177
32.48785 208
32.50797 229
32.52808 169
32.5482 198
32.56831 187
32.58842 204
32.60854 208
32.62865 206
32.64876 177
32.66888 216
32.68899 215
32.7091 226
32.72922 246
32.74933 219
32.76945 208
32.78956 210
32.80967 210
32.82979 225
32.8499 205
32.87001 204
32.89013 200
32.91024 207
32.93036 217
32.95047 211
32.97058 226
32.9907 207
33.01081 196
33.03092 228
33.05104 205
33.07115 212
33.09127 203
33.11138 223
33.13149 217
33.15161 228
33.17172 222
33.19183 207
33.21195 227
33.23206 211
33.25217 227
33.27229 215
33.2924 235
33.31252 216
33.33263 213
33.35274 218
33.37286 229
33.39297 222
33.41308 232
33.4332 256
33.45331 201
33.47343 207
33.49354 229
33.51365 223
33.53377 231
33.55388 235
33.57399 209
33.59411 185
33.61422 182
33.63434 184
33.65445 201
33.67456 177
33.69468 198
33.71479 190
33.7349 205
33.75502 185
33.77513 231
33.79524 203
33.81536 212
33.83547 200
33.85559 179
33.8757 209
33.89581 187
33.91593 188
33.93604 196
33.95615 185
33.97627 199
33.99638 197
34.0165 203
34.03661 206
34.05672 170
34.07684 217
34.09695 188
34.11706 218
34.13718 209
34.15729 204
34.17741 182
34.19752 199
34.21763 211
34.23775 175
34.25786 206
34.27797 195
34.29809 192
34.3182 187
34.33831 197
34.35843 218
34.37854 233
34.39866 211
34.41877 223
34.43888 213
34.459 202
34.47911 204
34.49922 222
34.51934 243
34.53945 227
34.55957 230
34.57968 264
34.59979 228
34.61991 261
34.64002 268
34.66013 278
34.68025 292
34.70036 262
34.72047 299
34.74059 276
34.7607 294
34.78082 344
34.80093 346
34.82104 328
34.84116 324
34.86127 376
34.88138 430
34.9015 353
34.92161 419
34.94173 389
34.96184 383
34.98195 374
35.00207 341
35.02218 375
35.04229 340
35.06241 338
35.08252 321
35.10264 321
35.12275 309
35.14286 324
35.16298 300
35.18309 295
35.2032 315
35.22332 293
35.24343 300
35.26354 322
35.28366 322
35.30377 302
35.32389 302
35.344 314
35.36411 300
35.38423 293
35.40434 314
35.42445 298
35.44457 317
35.46468 326
35.4848 321
35.50491 317
35.52502 336
35.54514 314
35.56525 325
35.58536 320
35.60548 336
35.62559 304
35.64571 385
35.66582 361
35.68593 362
35.70605 371
35.72616 336
35.74627 374
35.76639 372
35.7865 385
35.80661 303
35.82673 355
35.84684 339
35.86696 358
35.88707 358
35.90718 352
35.9273 356
35.94741 342
35.96752 361
35.98764 349
36.00775 331
36.02787 345
36.04798 318
36.06809 342
36.08821 359
36.10832 312
36.12843 314
36.14855 352
36.16866 324
36.18878 315
36.20889 327
36.229 321
36.24912 380
36.26923 379
36.28934 433
36.30946 448
36.32957 495
36.34968 581
36.3698 681
36.38991 805
36.41003 1066
36.43014 1329
36.45025 1637
36.47037 2017
36.49048 2288
36.51059 2329
36.53071 2183
36.55082 1895
36.57094 1551
36.59105 1377
36.61116 1178
36.63128 1023
36.65139 779
36.6715 553
36.69162 428
36.71173 349
36.73184 370
36.75196 336
36.77207 351
36.79219 320
36.8123 254
36.83241 314
36.85253 304
36.87264 283
36.89275 287
36.91287 284
36.93298 319
36.9531 304
36.97321 283
36.99332 281
37.01344 267
37.03355 282
37.05366 300
37.07378 275
37.09389 269
37.11401 262
37.13412 296
37.15423 264
37.17435 305
37.19446 251
37.21457 273
37.23469 247
37.2548 306
37.27491 253
37.29503 259
37.31514 276
37.33526 256
37.35537 272
37.37548 259
37.3956 294
37.41571 280
37.43582 272
37.45594 267
37.47605 251
37.49617 300
37.51628 309
37.53639 306
37.55651 319
37.57662 316
37.59673 280
37.61685 306
37.63696 290
37.65708 334
37.67719 320
37.6973 281
37.71742 332
37.73753 288
37.75764 306
37.77776 340
37.79787 324
37.81798 258
37.8381 286
37.85821 309
37.87833 304
37.89844 280
37.91855 282
37.93867 279
37.95878 328
37.97889 301
37.99901 294
38.01912 307
38.03924 273
38.05935 279
38.07946 309
38.09958 344
38.11969 296
38.1398 336
38.15992 348
38.18003 341
38.20015 331
38.22026 326
38.24037 345
38.26049 360
38.2806 384
38.30071 325
38.32083 363
38.34094 359
38.36105 351
38.38117 383
38.40128 355
38.4214 405
38.44151 379
38.46162 359
38.48174 360
38.50185 365
38.52196 378
38.54208 369
38.56219 341
38.58231 390
38.60242 342
38.62253 364
38.64265 337
38.66276 314
38.68287 352
38.70299 318
38.7231 314
38.74321 351
38.76333 366
38.78344 335
38.80356 332
38.82367 318
38.84378 288
38.8639 324
38.88401 301
38.90412 315
38.92424 300
38.94435 283
38.96447 300
38.98458 249
39.00469 300
39.02481 323
39.04492 334
39.06503 318
39.08515 319
39.10526 343
39.12538 336
39.14549 341
39.1656 372
39.18572 393
39.20583 419
39.22594 440
39.24606 468
39.26617 515
39.28628 562
39.3064 701
39.32651 979
39.34663 1089
39.36674 1388
39.38685 1764
39.40697 2010
39.42708 2134
39.44719 2058
39.46731 1824
39.48742 1537
39.50754 1363
39.52765 1203
39.54776 1035
39.56788 873
39.58799 634
39.6081 463
39.62822 381
39.64833 317
39.66845 282
39.68856 321
39.70867 287
39.72879 298
39.7489 299
39.76901 266
39.78913 216
39.80924 270
39.82935 227
39.84947 260
39.86958 254
39.8897 264
39.90981 242
39.92992 261
39.95004 258
39.97015 232
39.99026 265
40.01038 294
40.03049 313
40.05061 323
40.07072 327
40.09083 370
40.11095 440
40.13106 482
40.15117 595
40.17129 653
40.1914 830
40.21152 971
40.23163 1083
40.25174 1123
40.27186 1044
40.29197 910
40.31208 820
40.3322 741
40.35231 692
40.37242 646
40.39254 515
40.41265 401
40.43277 345
40.45288 280
40.47299 275
40.49311 274
40.51322 239
40.53333 247
40.55345 251
40.57356 243
40.59368 234
40.61379 223
40.6339 259
40.65402 212
40.67413 243
40.69424 231
40.71436 232
40.73447 235
40.75458 249
40.7747 262
40.79481 229
40.81493 225
40.83504 225
40.85515 254
40.87527 215
40.89538 212
40.91549 227
40.93561 211
40.95572 241
40.97584 216
40.99595 233
41.01606 237
41.03618 250
41.05629 249
41.0764 264
41.09652 229
41.11663 246
41.13675 225
41.15686 228
41.17697 232
41.19709 236
41.2172 227
41.23731 246
41.25743 235
41.27754 216
41.29765 221
41.31777 229
41.33788 201
41.358 207
41.37811 200
41.39822 208
41.41834 234
41.43845 212
41.45856 230
41.47868 198
41.49879 216
41.51891 189
41.53902 216
41.55913 216
41.57925 202
41.59936 209
41.61947 240
41.63959 185
41.6597 217
41.67982 232
41.69993 207
41.72004 214
41.74016 208
41.76027 226
41.78038 195
41.8005 209
41.82061 222
41.84072 226
41.86084 212
41.88095 239
41.90107 221
41.92118 224
41.94129 230
41.96141 218
41.98152 204
42.00163 224
42.02175 230
42.04186 255
42.06198 234
42.08209 234
42.1022 261
42.12232 242
42.14243 272
42.16254 299
42.18266 280
42.20277 310
42.22289 356
42.243 345
42.26311 450
42.28323 500
42.30334 693
42.32345 818
42.34357 1018
42.36368 1222
42.38379 1368
42.40391 1518
42.42402 1524
42.44414 1304
42.46425 1168
42.48436 970
42.50448 929
42.52459 804
42.5447 712
42.56482 553
42.58493 450
42.60505 338
42.62516 270
42.64527 267
42.66539 248
42.6855 240
42.70561 263
42.72573 233
42.74584 220
42.76595 222
42.78607 224
42.80618 212
42.8263 181
42.84641 210
42.86652 203
42.88664 177
42.90675 207
42.92686 203
42.94698 199
42.96709 210
42.98721 193
43.00732 194
43.02743 189
43.04755 204
43.06766 212
43.08777 199
43.10789 197
43.128 187
43.14812 179
43.16823 164
43.18834 185
43.20846 168
43.22857 198
43.24868 196
43.2688 187
43.28891 192
43.30902 178
43.32914 203
43.34925 188
43.36937 207
43.38948 197
43.40959 191
43.42971 203
43.44982 181
43.46993 198
43.49005 195
43.51016 212
43.53028 175
43.55039 181
43.5705 171
43.59062 181
43.61073 194
43.63084 192
43.65096 191
43.67107 189
43.69119 194
43.7113 188
43.73141 165
43.75153 205
43.77164 183
43.79175 174
43.81187 202
43.83198 211
43.85209 193
43.87221 197
43.89232 188
43.91244 191
43.93255 191
43.95266 179
43.97278 198
43.99289 177
44.013 193
44.03312 213
44.05323 182
44.07335 182
44.09346 225
44.11357 203
44.13369 179
44.1538 192
44.17391 195
44.19403 190
44.21414 186
44.23426 190
44.25437 187
44.27448 186
44.2946 181
44.31471 174
44.33482 180
44.35494 184
44.37505 199
44.39516 201
44.41528 187
44.43539 201
44.45551 192
44.47562 185
44.49573 206
44.51585 178
44.53596 195
44.55607 203
44.57619 188
44.5963 175
44.61642 212
44.63653 189
44.65664 216
44.67676 183
44.69687 177
44.71698 189
44.7371 181
44.75721 174
44.77732 177
44.79744 176
44.81755 211
44.83767 176
44.85778 194
44.87789 194
44.89801 212
44.91812 173
44.93823 207
44.95835 199
44.97846 189
44.99858 205
45.01869 207
45.0388 186
45.05892 194
45.07903 175
45.09914 201
45.11926 231
45.13937 231
45.15949 236
45.1796 202
45.19971 209
45.21983 209
45.23994 218
45.26005 239
45.28017 191
45.30028 197
45.32039 222
45.34051 249
45.36062 232
45.38074 226
45.40085 250
45.42096 244
45.44108 235
45.46119 242
45.4813 278
45.50142 265
45.52153 271
45.54165 321
45.56176 320
45.58187 370
45.60199 394
45.6221 452
45.64221 521
45.66233 659
45.68244 763
45.70256 866
45.72267 1006
45.74278 1116
45.7629 1082
45.78301 981
45.80312 834
45.82324 736
45.84335 691
45.86346 627
45.88358 610
45.90369 523
45.92381 458
45.94392 371
45.96403 288
45.98415 262
46.00426 269
46.02437 241
46.04449 228
46.0646 251
46.08472 247
46.10483 213
46.12494 248
46.14506 226
46.16517 221
46.18528 229
46.2054 243
46.22551 212
46.24563 232
46.26574 198
46.28585 212
46.30597 181
46.32608 234
46.34619 195
46.36631 214
46.38642 197
46.40653 207
46.42665 171
46.44676 214
46.46688 184
46.48699 224
46.5071 215
46.52722 199
46.54733 199
46.56744 211
46.58756 188
46.60767 228
46.62779 205
46.6479 193
46.66801 187
46.68813 193
46.70824 194
46.72835 195
46.74847 193
46.76858 198
46.78869 170
46.80881 182
46.82892 196
46.84904 198
46.86915 209
46.88926 194
46.90938 196
46.92949 188
46.9496 193
46.96972 216
46.98983 171
47.00995 184
47.03006 205
47.05017 198
47.07029 192
47.0904 162
47.11051 186
47.13063 175
47.15074 185
47.17086 192
47.19097 194
47.21108 208
47.2312 181
47.25131 205
47.27142 206
47.29154 208
47.31165 212
47.33176 198
47.35188 203
47.37199 206
47.39211 206
47.41222 193
47.43233 188
47.45245 180
47.47256 182
47.49267 183
47.51279 205
47.5329 178
47.55302 182
47.57313 166
47.59324 182
47.61336 193
47.63347 214
47.65358 201
47.6737 180
47.69381 228
47.71393 181
47.73404 188
47.75415 181
47.77427 183
47.79438 191
47.81449 207
47.83461 209
47.85472 211
47.87483 178
47.89495 191
47.91506 229
47.93518 222
47.95529 211
47.9754 240
47.99552 217
48.01563 189
48.03574 245
48.05586 190
48.07597 198
48.09609 175
48.1162 199
48.13631 214
48.15643 196
48.17654 210
48.19665 189
48.21677 197
48.23688 186
48.257 171
48.27711 195
48.29722 197
48.31734 206
48.33745 190
48.35756 196
48.37768 196
48.39779 195
48.4179 167
48.43802 205
48.45813 173
48.47825 199
48.49836 233
48.51847 202
48.53859 183
48.5587 200
48.57881 199
48.59893 191
48.61904 179
48.63916 193
48.65927 189
48.67938 195
48.6995 194
48.71961 207
48.73972 213
48.75984 177
48.77995 198
48.80006 198
48.82018 218
48.84029 213
48.86041 201
48.88052 186
48.90063 184
48.92075 186
48.94086 204
48.96097 190
48.98109 195
49.0012 185
49.02132 181
49.04143 190
49.06154 172
49.08166 179
49.10177 183
49.12188 204
49.142 228
49.16211 203
49.18223 199
49.20234 197
49.22245 207
49.24257 219
49.26268 235
49.28279 195
49.30291 204
49.32302 231
49.34313 204
49.36325 193
49.38336 208
49.40348 236
49.42359 228
49.4437 195
49.46382 225
49.48393 215
49.50404 225
49.52416 231
49.54427 224
49.56439 199
49.5845 238
49.60461 252
49.62473 253
49.64484 243
49.66495 223
49.68507 276
49.70518 236
49.7253 266
49.74541 260
49.76552 341
49.78564 337
49.80575 365
49.82586 363
49.84598 414
49.86609 448
49.8862 505
49.90632 576
49.92643 693
49.94655 851
49.96666 1018
49.98677 1340
50.00689 1673
50.027 2050
50.04711 2622
50.06723 3062
50.08734 3310
50.10746 3316
50.12757 2657
50.14768 2344
50.1678 1888
50.18791 1830
50.20802 1819
50.22814 1708
50.24825 1602
50.26837 1220
50.28848 865
50.30859 599
50.32871 450
50.34882 366
50.36893 336
50.38905 342
50.40916 289
50.42927 275
50.44939 293
50.4695 259
50.48962 292
50.50973 280
50.52984 286
50.54996 283
50.57007 272
50.59018 260
50.6103 276
50.63041 249
50.65053 249
50.67064 233
50.69075 263
50.71087 281
50.73098 245
50.75109 215
50.77121 216
50.79132 223
50.81143 209
50.83155 215
50.85166 217
50.87178 206
50.89189 191
50.912 190
50.93212 199
50.95223 197
50.97234 218
50.99246 198
51.01257 207
51.03269 190
51.0528 186
51.07291 163
51.09303 200
51.11314 184
51.13325 198
51.15337 202
51.17348 187
51.1936 179
51.21371 180
51.23382 168
51.25394 173
51.27405 155
51.29416 191
51.31428 187
51.33439 169
51.3545 174
51.37462 156
51.39473 153
51.41485 151
51.43496 174
51.45507 151
51.47519 161
51.4953 161
51.51541 157
51.53553 179
51.55564 170
51.57576 153
51.59587 164
51.61598 161
51.6361 165
51.65621 171
51.67632 189
51.69644 175
51.71655 156
51.73667 192
51.75678 164
51.77689 171
51.79701 162
51.81712 146
51.83723 185
51.85735 180
51.87746 183
51.89757 157
51.91769 176
51.9378 168
51.95792 174
51.97803 177
51.99814 166
52.01826 161
52.03837 185
52.05848 184
52.0786 179
52.09871 180
52.11883 173
52.13894 168
52.15905 169
52.17917 177
52.19928 167
52.21939 154
52.23951 175
52.25962 191
52.27974 168
52.29985 174
52.31996 171
52.34008 176
52.36019 158
52.3803 194
52.40042 164
52.42053 185
52.44064 167
52.46076 168
52.48087 177
52.50099 156
52.5211 147
52.54121 158
52.56133 162
52.58144 159
52.60155 153
52.62167 145
52.64178 165
52.6619 172
52.68201 172
52.70212 155
52.72224 164
52.74235 150
52.76246 181
52.78258 175
52.80269 165
52.8228 161
52.84292 170
52.86303 161
52.88315 171
52.90326 167
52.92337 163
52.94349 160
52.9636 184
52.98371 177
53.00383 189
53.02394 186
53.04406 167
53.06417 170
53.08428 162
53.1044 185
53.12451 171
53.14462 165
53.16474 177
53.18485 186
53.20497 182
53.22508 191
53.24519 172
53.26531 200
53.28542 182
53.30553 186
53.32565 216
53.34576 218
53.36587 214
53.38599 192
53.4061 194
53.42622 198
53.44633 192
53.46644 215
53.48656 182
53.50667 203
53.52678 217
53.5469 216
53.56701 200
53.58713 226
53.60724 214
53.62735 211
53.64747 210
53.66758 210
53.68769 195
53.70781 204
53.72792 226
53.74804 201
53.76815 185
53.78826 224
53.80838 228
53.82849 183
53.8486 220
53.86872 214
53.88883 202
53.90894 198
53.92906 187
53.94917 205
53.96929 247
53.9894 210
54.00951 221
54.02963 222
54.04974 221
54.06985 244
54.08997 211
54.11008 250
54.1302 213
54.15031 267
54.17042 263
54.19054 217
54.21065 259
54.23076 243
54.25088 252
54.27099 227
54.29111 268
54.31122 228
54.33133 260
54.35145 264
54.37156 259
54.39167 264
54.41179 268
54.4319 263
54.45201 252
54.47213 255
54.49224 274
54.51236 283
54.53247 316
54.55258 285
54.5727 306
54.59281 328
54.61292 319
54.63304 361
54.65315 384
54.67327 428
54.69338 493
54.71349 602
54.73361 656
54.75372 740
54.77383 883
54.79395 1030
54.81406 1103
54.83417 1114
54.85429 1000
54.8744 917
54.89452 728
54.91463 681
54.93474 694
54.95486 664
54.97497 676
54.99508 607
55.0152 541
55.03531 460
55.05543 398
55.07554 333
55.09565 366
55.11577 365
55.13588 390
55.15599 373
55.17611 395
55.19622 451
55.21634 508
55.23645 569
55.25656 606
55.27668 637
55.29679 603
55.3169 566
55.33702 470
55.35713 439
55.37724 482
55.39736 448
55.41747 462
55.43759 424
55.4577 375
55.47781 324
55.49793 279
55.51804 253
55.53815 269
55.55827 221
55.57838 228
55.5985 258
55.61861 243
55.63872 225
55.65884 234
55.67895 232
55.69906 231
55.71918 214
55.73929 215
55.75941 240
55.77952 224
55.79963 225
55.81975 221
55.83986 217
55.85997 189
55.88009 214
55.9002 189
55.92031 188
55.94043 219
55.96054 217
55.98066 208
56.00077 205
56.02088 221
56.041 180
56.06111 187
56.08122 228
56.10134 214
56.12145 209
56.14157 202
56.16168 231
56.18179 178
56.20191 184
56.22202 223
56.24213 202
56.26225 167
56.28236 191
56.30248 186
56.32259 225
56.3427 163
56.36282 180
56.38293 198
56.40304 205
56.42316 209
56.44327 194
56.46338 192
56.4835 199
56.50361 188
56.52373 217
56.54384 187
56.56395 183
56.58407 196
56.60418 212
56.62429 214
56.64441 203
56.66452 201
56.68464 203
56.70475 194
56.72486 196
56.74498 197
56.76509 186
56.7852 194
56.80532 162
56.82543 182
56.84554 207
56.86566 203
56.88577 183
56.90589 184
56.926 196
56.94611 198
56.96623 199
56.98634 214
57.00645 200
57.02657 206
57.04668 227
57.0668 197
57.08691 203
57.10702 235
57.12714 235
57.14725 227
57.16736 241
57.18748 239
57.20759 259
57.22771 230
57.24782 188
57.26793 196
57.28805 182
57.30816 188
57.32827 208
57.34839 205
57.3685 184
57.38861 189
57.40873 179
57.42884 183
57.44896 190
57.46907 193
57.48918 178
57.5093 161
57.52941 203
57.54952 178
57.56964 200
57.58975 180
57.60987 192
57.62998 203
57.65009 181
57.67021 170
57.69032 171
57.71043 170
57.73055 179
57.75066 180
57.77078 158
57.79089 182
57.811 191
57.83112 187
57.85123 186
57.87134 189
57.89146 199
57.91157 161
57.93168 168
57.9518 179
57.97191 178
57.99203 194
58.01214 175
58.03225 188
58.05237 192
58.07248 183
58.09259 188
58.11271 203
58.13282 181
58.15294 190
58.17305 169
58.19316 182
58.21328 175
58.23339 179
58.2535 189
58.27362 180
58.29373 186
58.31385 171
58.33396 181
58.35407 167
58.37419 171
58.3943 168
58.41441 169
58.43453 165
58.45464 177
58.47475 159
58.49487 192
58.51498 212
58.5351 196
58.55521 158
58.57532 183
58.59544 166
58.61555 160
58.63566 201
58.65578 166
58.67589 160
58.69601 178
58.71612 201
58.73623 200
58.75635 193
58.77646 179
58.79657 190
58.81669 179
58.8368 182
58.85691 179
58.87703 153
58.89714 185
58.91726 166
58.93737 187
58.95748 197
58.9776 191
58.99771 184
59.01782 182
59.03794 195
59.05805 178
59.07817 204
59.09828 193
59.11839 182
59.13851 190
59.15862 211
59.17873 184
59.19885 167
59.21896 217
59.23908 171
59.25919 178
59.2793 188
59.29942 192
59.31953 196
59.33964 213
59.35976 208
59.37987 229
59.39998 205
59.4201 219
59.44021 223
59.46033 222
59.48044 240
59.50055 212
59.52067 231
59.54078 263
59.56089 317
59.58101 282
59.60112 288
59.62124 317
59.64135 294
59.66146 421
59.68158 361
59.70169 438
59.7218 489
59.74192 600
59.76203 706
59.78215 892
59.80226 1006
59.82237 1272
59.84249 1504
59.8626 1726
59.88271 2018
59.90283 1998
59.92294 1947
59.94305 1691
59.96317 1453
59.98328 1144
60.0034 1101
60.02351 1094
60.04362 1130
60.06374 1109
60.08385 1059
60.10396 937
60.12408 715
60.14419 529
60.16431 401
60.18442 340
60.20453 293
60.22465 281
60.24476 252
60.26487 228
60.28499 226
60.3051 217
60.32522 211
60.34533 213
60.36544 217
60.38556 188
60.40567 224
60.42578 197
60.4459 196
60.46601 190
60.48612 200
60.50624 192
60.52635 201
60.54647 176
60.56658 179
60.58669 185
60.60681 213
60.62692 184
60.64703 195
60.66715 163
60.68726 192
60.70738 189
60.72749 180
60.7476 167
60.76772 212
60.78783 181
60.80794 165
60.82806 204
60.84817 167
60.86828 183
60.8884 156
60.90851 194
60.92863 173
60.94874 179
60.96885 185
60.98897 172
61.00908 163
61.02919 191
61.04931 194
61.06942 182
61.08954 168
61.10965 156
61.12976 192
61.14988 167
61.16999 163
61.1901 165
61.21022 155
61.23033 181
61.25045 169
61.27056 178
61.29067 174
61.31079 187
61.3309 176
61.35101 185
61.37113 173
61.39124 176
61.41135 189
61.43147 171
61.45158 194
61.4717 202
61.49181 190
61.51192 180
61.53204 194
61.55215 200
61.57226 195
61.59238 184
61.61249 196
61.63261 188
61.65272 176
61.67283 167
61.69295 193
61.71306 199
61.73317 181
61.75329 213
61.7734 193
61.79352 202
61.81363 211
61.83374 209
61.85386 220
61.87397 199
61.89408 209
61.9142 196
61.93431 196
61.95442 227
61.97454 242
61.99465 265
62.01477 222
62.03488 266
62.05499 254
62.07511 302
62.09522 310
62.11533 304
62.13545 311
62.15556 290
62.17568 313
62.19579 329
62.2159 298
62.23602 351
62.25613 350
62.27624 337
62.29636 326
62.31647 317
62.33659 271
62.3567 288
62.37681 311
62.39693 267
62.41704 266
62.43715 265
62.45727 260
62.47738 253
62.49749 225
62.51761 220
62.53772 206
62.55784 205
62.57795 210
62.59806 244
62.61818 226
62.63829 230
62.6584 223
62.67852 186
62.69863 170
62.71875 190
62.73886 200
62.75897 179
62.77909 183
62.7992 199
62.81931 202
62.83943 185
62.85954 178
62.87965 170
62.89977 199
62.91988 180
62.94 169
62.96011 191
62.98022 178
63.00034 182
63.02045 170
63.04056 167
63.06068 206
63.08079 186
63.10091 184
63.12102 173
63.14113 182
63.16125 178
63.18136 176
63.20147 213
63.22159 160
63.2417 153
63.26182 163
63.28193 189
63.30204 167
63.32216 164
63.34227 200
63.36238 201
63.3825 200
63.40261 173
63.42272 181
63.44284 185
63.46295 176
63.48307 205
63.50318 207
63.52329 220
63.54341 205
63.56352 214
63.58363 187
63.60375 190
63.62386 207
63.64398 193
63.66409 234
63.6842 219
63.70432 193
63.72443 231
63.74454 215
63.76466 231
63.78477 235
63.80489 273
63.825 282
63.84511 288
63.86523 322
63.88534 343
63.90545 348
63.92557 473
63.94568 475
63.96579 484
63.98591 532
64.00602 458
64.02614 454
64.04625 374
64.06636 370
64.08648 322
64.10659 336
64.1267 299
64.14682 361
64.16693 332
64.18705 305
64.20716 292
64.22727 262
64.24739 216
64.2675 206
64.28761 205
64.30773 171
64.32784 186
64.34796 187
64.36807 183
64.38818 168
64.4083 170
64.42841 180
64.44852 156
64.46864 169
64.48875 187
64.50886 188
64.52898 175
64.54909 184
64.56921 166
64.58932 169
64.60943 164
64.62955 173
64.64966 178
64.66977 178
64.68989 174
64.71 168
64.73012 153
64.75023 175
64.77034 142
64.79046 171
64.81057 166
64.83068 170
64.8508 169
64.87091 161
64.89102 165
64.91114 171
64.93125 170
64.95137 154
64.97148 178
64.99159 166
65.01171 154
65.03182 151
65.05193 160
65.07205 199
65.09216 161
65.11228 173
65.13239 169
65.1525 183
65.17262 149
65.19273 172
65.21284 183
65.23296 158
65.25307 164
65.27319 162
65.2933 166
65.31341 164
65.33353 172
65.35364 173
65.37375 144
65.39387 169
65.41398 168
65.43409 184
65.45421 184
65.47432 174
65.49444 160
65.51455 164
65.53466 186
65.55478 170
65.57489 183
65.595 191
65.61512 176
65.63523 220
65.65535 209
65.67546 254
65.69557 259
65.71569 241
65.7358 221
65.75591 258
65.77603 217
65.79614 195
65.81626 190
65.83637 211
65.85648 205
65.8766 209
65.89671 181
65.91682 189
65.93694 209
65.95705 209
65.97716 179
65.99728 171
66.01739 162
66.03751 176
66.05762 161
66.07773 167
66.09785 163
66.11796 162
66.13807 182
66.15819 172
66.1783 173
66.19842 164
66.21853 173
66.23864 162
66.25876 165
66.27887 165
66.29898 150
66.3191 154
66.33921 149
66.35933 173
66.37944 184
66.39955 169
66.41967 168
66.43978 165
66.45989 190
66.48001 177
66.50012 173
66.52023 163
66.54035 163
66.56046 176
66.58058 173
66.60069 161
66.6208 188
66.64092 166
66.66103 167
66.68114 160
66.70126 177
66.72137 180
66.74149 189
66.7616 179
66.78171 182
66.80183 184
66.82194 151
66.84205 181
66.86217 180
66.88228 175
66.90239 173
66.92251 150
66.94262 179
66.96274 174
66.98285 166
67.00296 187
67.02308 174
67.04319 165
67.0633 191
67.08342 192
67.10353 174
67.12365 205
67.14376 169
67.16387 195
67.18399 203
67.2041 195
67.22421 208
67.24433 222
67.26444 190
67.28456 210
67.30467 210
67.32478 224
67.3449 225
67.36501 240
67.38512 259
67.40524 294
67.42535 303
67.44546 279
67.46558 319
67.48569 393
67.50581 397
67.52592 442
67.54603 524
67.56615 614
67.58626 719
67.60637 827
67.62649 943
67.6466 1064
67.66672 1169
67.68683 1206
67.70694 1234
67.72706 1098
67.74717 895
67.76728 764
67.7874 741
67.80751 732
67.82763 715
67.84774 801
67.86785 815
67.88797 880
67.90808 912
67.92819 926
67.94831 878
67.96842 909
67.98853 1041
68.00865 1117
68.02876 1246
68.04888 1402
68.06899 1487
68.0891 1645
68.10922 1650
68.12933 1579
68.14944 1389
68.16956 1241
68.18967 1226
68.20979 1362
68.2299 1524
68.25001 1554
68.27013 1544
68.29024 1459
68.31035 1270
68.33047 1004
68.35058 854
68.3707 670
68.39081 690
68.41092 650
68.43104 609
68.45115 604
68.47126 573
68.49138 537
68.51149 423
68.5316 348
68.55172 283
68.57183 285
68.59195 236
68.61206 219
68.63217 220
68.65229 216
68.6724 207
68.69251 202
68.71263 208
68.73274 193
68.75286 201
68.77297 197
68.79308 203
68.8132 191
68.83331 183
68.85342 177
68.87354 175
68.89365 199
68.91376 193
68.93388 193
68.95399 190
68.97411 168
68.99422 173
69.01433 209
69.03445 192
69.05456 189
69.07467 158
69.09479 186
69.1149 161
69.13502 167
69.15513 169
69.17524 155
69.19536 169
69.21547 184
69.23558 164
69.2557 155
69.27581 178
69.29593 155
69.31604 164
69.33615 187
69.35627 148
69.37638 143
69.39649 161
69.41661 176
69.43672 167
69.45683 165
69.47695 174
69.49706 175
69.51718 158
69.53729 181
69.5574 176
69.57752 170
69.59763 154
69.61774 159
69.63786 174
69.65797 187
69.67809 171
69.6982 156
69.71831 163
69.73843 172
69.75854 156
69.77865 151
69.79877 180
69.81888 174
69.839 180
69.85911 153
69.87922 170
69.89934 143
69.91945 149
69.93956 165
69.95968 169
69.97979 165
69.9999 159
70.02002 160
70.04013 132
70.06025 159
70.08036 141
70.10047 158
70.12059 159
70.1407 157
70.16081 172
70.18093 134
70.20104 159
70.22116 146
70.24127 170
70.26138 170
70.2815 163
70.30161 149
70.32172 150
70.34184 159
70.36195 168
70.38207 157
70.40218 152
70.42229 134
70.44241 153
70.46252 160
70.48263 179
70.50275 194
70.52286 157
70.54297 155
70.56309 150
70.5832 170
70.60332 152
70.62343 166
70.64354 141
70.66366 156
70.68377 158
70.70388 145
70.724 165
70.74411 161
70.76423 169
70.78434 149
70.80445 154
70.82457 135
70.84468 148
70.86479 149
70.88491 142
70.90502 159
70.92513 151
70.94525 160
70.96536 162
70.98548 171
71.00559 172
71.0257 152
71.04582 153
71.06593 127
71.08604 179
71.10616 149
71.12627 148
71.14639 170
71.1665 153
71.18661 155
71.20673 160
71.22684 150
71.24695 140
71.26707 139
71.28718 150
71.3073 156
71.32741 152
71.34752 162
71.36764 153
71.38775 164
71.40786 133
71.42798 173
71.44809 160
71.4682 179
71.48832 158
71.50843 162
71.52855 152
71.54866 188
71.56877 154
71.58889 165
71.609 166
71.62911 162
71.64923 160
71.66934 160
71.68946 166
71.70957 189
71.72968 155
71.7498 174
71.76991 157
71.79002 162
71.81014 165
71.83025 148
71.85037 158
71.87048 176
71.89059 151
71.91071 150
71.93082 159
71.95093 163
71.97105 158
71.99116 183
72.01127 163
72.03139 159
72.0515 146
72.07162 165
72.09173 158
72.11184 156
72.13196 162
72.15207 149
72.17218 151
72.1923 173
72.21241 168
72.23253 172
72.25264 166
72.27275 168
72.29287 147
72.31298 159
72.33309 162
72.35321 172
72.37332 173
72.39344 135
72.41355 171
72.43366 165
72.45378 141
72.47389 143
72.494 167
72.51412 165
72.53423 148
72.55434 167
72.57446 156
72.59457 172
72.61469 162
72.6348 157
72.65491 153
72.67503 183
72.69514 153
72.71525 147
72.73537 125
72.75548 168
72.7756 164
72.79571 157
72.81582 148
72.83594 137
72.85605 153
72.87616 172
72.89628 155
72.91639 155
72.9365 164
72.95662 176
72.97673 189
72.99685 177
73.01696 157
73.03707 177
73.05719 196
73.0773 171
73.09741 183
73.11753 197
73.13764 172
73.15776 197
73.17787 193
73.19798 202
73.2181 230
73.23821 241
73.25832 273
73.27844 311
73.29855 328
73.31867 364
73.33878 389
73.35889 474
73.37901 526
73.39912 510
73.41923 494
73.43935 477
73.45946 471
73.47957 375
73.49969 307
73.5198 316
73.53992 309
73.56003 311
73.58014 337
73.60026 352
73.62037 343
73.64048 333
73.6606 304
73.68071 267
73.70083 254
73.72094 253
73.74105 192
73.76117 203
73.78128 171
73.80139 186
73.82151 173
73.84162 159
73.86174 180
73.88185 174
73.90196 160
73.92208 157
73.94219 155
73.9623 167
73.98242 167
74.00253 158
74.02264 165
74.04276 160
74.06287 168
74.08299 146
74.1031 147
74.12321 168
74.14333 156
74.16344 172
74.18355 173
74.20367 156
74.22378 149
74.2439 172
74.26401 152
74.28412 161
74.30424 143
74.32435 154
74.34446 159
74.36458 178
74.38469 148
74.40481 174
74.42492 158
74.44503 167
74.46515 148
74.48526 138
74.50537 149
74.52549 151
74.5456 157
74.56571 164
74.58583 143
74.60594 170
74.62606 164
74.64617 164
74.66628 143
74.6864 154
74.70651 156
74.72662 149
74.74674 144
74.76685 159
74.78697 145
74.80708 175
74.82719 175
74.84731 199
74.86742 154
74.88753 158
74.90765 160
74.92776 160
74.94787 151
74.96799 167
74.9881 149
75.00822 177
