3.00117 21342
3.02128 20703
3.0414 20756
3.06151 19895
3.08162 19513
3.10174 18812
3.12185 18312
3.14197 17999
3.16208 16853
3.18219 16914
3.20231 16439
3.22242 15836
3.24253 15587
3.26265 14837
3.28276 14469
3.30288 14112
3.32299 13652
3.3431 13317
3.36322 12448
3.38333 12445
3.40344 11784
3.42356 11565
3.44367 11128
3.46379 10765
3.4839 10572
3.50401 10000
3.52413 9707
3.54424 9526
3.56435 8986
3.58447 9125
3.60458 8500
3.62469 8067
3.64481 7899
3.66492 7541
3.68504 7344
3.70515 6816
3.72526 6654
3.74538 6651
3.76549 6053
3.7856 6154
3.80572 5809
3.82583 5591
3.84595 5420
3.86606 4884
3.88617 4879
3.90629 4456
3.9264 4435
3.94651 4342
3.96663 4038
3.98674 3899
4.00686 3633
4.02697 3631
4.04708 3600
4.0672 3099
4.08731 3138
4.10742 2909
4.12754 2830
4.14765 2924
4.16776 2508
4.18788 2503
4.20799 2472
4.22811 2411
4.24822 2331
4.26833 2062
4.28845 2133
4.30856 2073
4.32867 1965
4.34879 2091
4.3689 1786
4.38902 1760
4.40913 1732
4.42924 1786
4.44936 1784
4.46947 1630
4.48958 1602
4.5097 1580
4.52981 1584
4.54992 1587
4.57004 1388
4.59015 1441
4.61027 1405
4.63038 1434
4.65049 1416
4.67061 1215
4.69072 1354
4.71083 1290
4.73095 1243
4.75106 1294
4.77118 1089
4.79129 1171
4.8114 1179
4.83152 1109
4.85163 1157
4.87174 1064
4.89186 1111
4.91197 1080
4.93209 1046
4.9522 1022
4.97231 923
4.99243 948
5.01254 979
5.03265 940
5.05277 947
5.07288 891
5.09299 851
5.11311 901
5.13322 809
5.15334 827
5.17345 820
5.19356 777
5.21368 818
5.23379 768
5.2539 705
5.27402 744
5.29413 706
5.31425 683
5.33436 684
5.35447 669
5.37459 689
5.3947 598
5.41481 678
5.43493 637
5.45504 628
5.47516 666
5.49527 614
5.51538 633
5.5355 602
5.55561 532
5.57572 596
5.59584 554
5.61595 559
5.63606 550
5.65618 530
5.67629 579
5.69641 558
5.71652 546
5.73663 538
5.75675 545
5.77686 511
5.79697 541
5.81709 516
5.8372 478
5.85732 511
5.87743 500
5.89754 533
5.91766 446
5.93777 489
5.95788 486
5.978 491
5.99811 451
6.01823 503
6.03834 447
6.05845 429
6.07857 431
6.09868 478
6.11879 460
6.13891 450
6.15902 430
6.17913 454
6.19925 452
6.21936 456
6.23948 479
6.25959 441
6.2797 421
6.29982 449
6.31993 400
6.34004 450
6.36016 440
6.38027 463
6.40039 427
6.4205 439
6.44061 466
6.46073 383
6.48084 431
6.50095 448
6.52107 443
6.54118 434
6.56129 423
6.58141 434
6.60152 435
6.62164 419
6.64175 397
6.66186 452
6.68198 400
6.70209 419
6.7222 377
6.74232 440
6.76243 411
6.78255 405
6.80266 414
6.82277 373
6.84289 425
6.863 426
6.88311 379
6.90323 403
6.92334 418
6.94346 380
6.96357 443
6.98368 410
7.0038 434
7.02391 404
7.04402 387
7.06414 406
7.08425 426
7.10436 408
7.12448 392
7.14459 357
7.16471 425
7.18482 396
7.20493 427
7.22505 422
7.24516 420
7.26527 396
7.28539 414
7.3055 415
7.32562 420
7.34573 405
7.36584 387
7.38596 392
7.40607 403
7.42618 397
7.4463 342
7.46641 414
7.48653 390
7.50664 387
7.52675 399
7.54687 387
7.56698 426
7.58709 419
7.60721 399
7.62732 422
7.64743 431
7.66755 391
7.68766 390
7.70778 417
7.72789 401
7.748 377
7.76812 394
7.78823 423
7.80834 388
7.82846 376
7.84857 367
7.86869 416
7.8888 419
7.90891 429
7.92903 412
7.94914 426
7.96925 404
7.98937 398
8.00948 396
8.0296 416
8.04971 389
8.06982 416
8.08994 396
8.11005 403
8.13016 409
8.15028 419
8.17039 428
8.1905 399
8.21062 420
8.23073 391
8.25085 403
8.27096 458
8.29107 406
8.31119 423
8.3313 394
8.35141 407
8.37153 376
8.39164 442
8.41176 383
8.43187 405
8.45198 431
8.4721 403
8.49221 387
8.51232 370
8.53244 450
8.55255 376
8.57266 423
8.59278 387
8.61289 381
8.63301 379
8.65312 376
8.67323 457
8.69335 396
8.71346 415
8.73357 453
8.75369 424
8.7738 400
8.79392 397
8.81403 383
8.83414 392
8.85426 412
8.87437 395
8.89448 407
8.9146 373
8.93471 401
8.95483 395
8.97494 398
8.99505 382
9.01517 394
9.03528 471
9.05539 394
9.07551 404
9.09562 341
9.11573 393
9.13585 415
9.15596 415
9.17608 421
9.19619 407
9.2163 432
9.23642 407
9.25653 444
9.27664 405
9.29676 417
9.31687 394
9.33699 394
9.3571 413
9.37721 406
9.39733 359
9.41744 388
9.43755 418
9.45767 388
9.47778 413
9.4979 377
9.51801 411
9.53812 383
9.55824 403
9.57835 427
9.59846 387
9.61858 421
9.63869 387
9.6588 384
9.67892 404
9.69903 378
9.71915 431
9.73926 394
9.75937 409
9.77949 394
9.7996 414
9.81971 381
9.83983 415
9.85994 389
9.88006 411
9.90017 419
9.92028 436
9.9404 394
9.96051 405
9.98062 401
10.00074 403
10.02085 415
10.04097 386
10.06108 379
10.08119 380
10.10131 435
10.12142 353
10.14153 439
10.16165 410
10.18176 409
10.20187 423
10.22199 371
10.2421 396
10.26222 409
10.28233 413
10.30244 435
10.32256 433
10.34267 403
10.36278 425
10.3829 386
10.40301 406
10.42313 411
10.44324 415
10.46335 407
10.48347 387
10.50358 438
10.52369 406
10.54381 385
10.56392 429
10.58403 387
10.60415 385
10.62426 429
10.64438 386
10.66449 415
10.6846 418
10.70472 394
10.72483 384
10.74494 425
10.76506 468
10.78517 421
10.80529 434
10.8254 411
10.84551 398
10.86563 452
10.88574 417
10.90585 395
10.92597 446
10.94608 441
10.9662 425
10.98631 437
11.00642 378
11.02654 410
11.04665 421
11.06676 434
11.08688 406
11.10699 431
11.1271 467
11.14722 453
11.16733 438
11.18745 403
11.20756 450
11.22767 409
11.24779 403
11.2679 438
11.28801 431
11.30813 454
11.32824 432
11.34836 410
11.36847 417
11.38858 470
11.4087 418
11.42881 453
11.44892 453
11.46904 417
11.48915 418
11.50927 441
11.52938 468
11.54949 466
11.56961 450
11.58972 482
11.60983 442
11.62995 475
11.65006 495
11.67017 490
11.69029 469
11.7104 487
11.73052 501
11.75063 485
11.77074 557
11.79086 550
11.81097 527
11.83108 535
11.8512 428
11.87131 508
11.89143 545
11.91154 516
11.93165 571
11.95177 607
11.97188 602
11.99199 656
12.01211 671
12.03222 686
12.05234 720
12.07245 731
12.09256 756
12.11268 849
12.13279 835
12.1529 911
12.17302 944
12.19313 908
12.21324 943
12.23336 1043
12.25347 1044
12.27359 1056
12.2937 1018
12.31381 968
12.33393 973
12.35404 967
12.37415 896
12.39427 876
12.41438 783
12.4345 818
12.45461 794
12.47472 739
12.49484 746
12.51495 657
12.53506 651
12.55518 571
12.57529 586
12.5954 546
12.61552 547
12.63563 505
12.65575 542
12.67586 509
12.69597 483
12.71609 473
12.7362 474
12.75631 491
12.77643 461
12.79654 460
12.81666 464
12.83677 440
12.85688 430
12.877 448
12.89711 386
12.91722 436
12.93734 416
12.95745 457
12.97757 427
12.99768 427
13.01779 430
13.03791 437
13.05802 379
13.07813 395
13.09825 381
13.11836 367
13.13847 404
13.15859 425
13.1787 414
13.19882 424
13.21893 395
13.23904 441
13.25916 381
13.27927 396
13.29938 415
13.3195 450
13.33961 414
13.35973 399
13.37984 423
13.39995 423
13.42007 392
13.44018 409
13.46029 395
13.48041 370
13.50052 363
13.52064 373
13.54075 351
13.56086 401
13.58098 386
13.60109 364
13.6212 363
13.64132 391
13.66143 401
13.68154 367
13.70166 396
13.72177 408
13.74189 392
13.762 384
13.78211 365
13.80223 418
13.82234 361
13.84245 388
13.86257 373
13.88268 388
13.9028 386
13.92291 398
13.94302 364
13.96314 353
13.98325 384
14.00336 368
14.02348 423
14.04359 381
14.06371 392
14.08382 365
14.10393 375
14.12405 416
14.14416 382
14.16427 362
14.18439 399
14.2045 374
14.22461 372
14.24473 390
14.26484 380
14.28496 381
14.30507 391
14.32518 399
14.3453 413
14.36541 371
14.38552 356
14.40564 385
14.42575 415
14.44587 383
14.46598 375
14.48609 381
14.50621 377
14.52632 363
14.54643 403
14.56655 386
14.58666 386
14.60677 402
14.62689 380
14.647 355
14.66712 381
14.68723 345
14.70734 349
14.72746 386
14.74757 379
14.76768 370
14.7878 354
14.80791 378
14.82803 361
14.84814 383
14.86825 407
14.88837 355
14.90848 382
14.92859 341
14.94871 394
14.96882 382
14.98894 349
15.00905 372
15.02916 377
15.04928 390
15.06939 371
15.0895 343
15.10962 371
15.12973 340
15.14984 359
15.16996 355
15.19007 346
15.21019 372
15.2303 394
15.25041 392
15.27053 329
15.29064 357
15.31075 376
15.33087 408
15.35098 401
15.3711 373
15.39121 345
15.41132 382
15.43144 363
15.45155 375
15.47166 349
15.49178 350
15.51189 349
15.53201 337
15.55212 385
15.57223 367
15.59235 368
15.61246 372
15.63257 367
15.65269 396
15.6728 358
15.69291 398
15.71303 383
15.73314 383
15.75326 395
15.77337 355
15.79348 339
15.8136 357
15.83371 376
15.85382 315
15.87394 382
15.89405 361
15.91417 345
15.93428 334
15.95439 406
15.97451 392
15.99462 396
16.01473 338
16.03485 379
16.05496 378
16.07508 398
16.09519 382
16.1153 378
16.13542 364
16.15553 347
16.17564 329
16.19576 367
16.21587 381
16.23598 334
16.2561 390
16.27621 360
16.29633 388
16.31644 361
16.33655 358
16.35667 379
16.37678 391
16.39689 364
16.41701 363
16.43712 366
16.45724 374
16.47735 381
16.49746 371
16.51758 403
16.53769 376
16.5578 388
16.57792 360
16.59803 372
16.61814 382
16.63826 340
16.65837 370
16.67849 375
16.6986 359
16.71871 375
16.73883 389
16.75894 354
16.77905 377
16.79917 364
16.81928 381
16.8394 374
16.85951 383
16.87962 346
16.89974 360
16.91985 340
16.93996 321
16.96008 335
16.98019 367
17.00031 345
17.02042 349
17.04053 367
17.06065 374
17.08076 370
17.10087 378
17.12099 388
17.1411 388
17.16121 390
17.18133 338
17.20144 362
17.22156 384
17.24167 347
17.26178 355
17.2819 388
17.30201 361
17.32212 365
17.34224 358
17.36235 360
17.38247 352
17.40258 369
17.42269 388
17.44281 413
17.46292 376
17.48303 380
17.50315 353
17.52326 384
17.54338 373
17.56349 369
17.5836 378
17.60372 365
17.62383 382
17.64394 387
17.66406 391
17.68417 412
17.70428 354
17.7244 382
17.74451 394
17.76463 387
17.78474 396
17.80485 379
17.82497 360
17.84508 376
17.86519 381
17.88531 392
17.90542 374
17.92554 406
17.94565 406
17.96576 377
17.98588 371
18.00599 399
18.0261 396
18.04622 365
18.06633 393
18.08645 407
18.10656 377
18.12667 384
18.14679 411
18.1669 404
18.18701 419
18.20713 414
18.22724 394
18.24735 430
18.26747 400
18.28758 404
18.3077 390
18.32781 412
18.34792 383
18.36804 369
18.38815 385
18.40826 352
18.42838 377
18.44849 361
18.46861 353
18.48872 346
18.50883 383
18.52895 369
18.54906 387
18.56917 367
18.58929 404
18.6094 396
18.62951 386
18.64963 400
18.66974 372
18.68986 367
18.70997 393
18.73008 390
18.7502 389
18.77031 354
18.79042 391
18.81054 369
18.83065 370
18.85077 387
18.87088 394
18.89099 390
18.91111 374
18.93122 367
18.95133 384
18.97145 383
18.99156 401
19.01168 402
19.03179 352
19.0519 360
19.07202 409
19.09213 391
19.11224 402
19.13236 399
19.15247 401
19.17258 414
19.1927 396
19.21281 359
19.23293 384
19.25304 405
19.27315 390
19.29327 418
19.31338 406
19.33349 411
19.35361 404
19.37372 433
19.39384 390
19.41395 410
19.43406 407
19.45418 387
19.47429 401
19.4944 400
19.51452 460
19.53463 450
19.55475 474
19.57486 436
19.59497 483
19.61509 495
19.6352 528
19.65531 536
19.67543 573
19.69554 570
19.71565 590
19.73577 615
19.75588 676
19.776 738
19.79611 738
19.81622 828
19.83634 818
19.85645 865
19.87656 858
19.89668 771
19.91679 833
19.93691 815
19.95702 788
19.97713 720
19.99725 794
20.01736 769
20.03747 781
20.05759 710
20.0777 744
20.09782 741
20.11793 759
20.13804 786
20.15816 744
20.17827 727
20.19838 788
20.2185 748
20.23861 733
20.25872 787
20.27884 773
20.29895 759
20.31907 720
20.33918 728
20.35929 794
20.37941 726
20.39952 777
20.41963 773
20.43975 766
20.45986 818
20.47998 817
20.50009 737
20.5202 825
20.54032 791
20.56043 880
20.58054 831
20.60066 827
20.62077 869
20.64088 990
20.661 1125
20.68111 1184
20.70123 1529
20.72134 1822
20.74145 2296
20.76157 2629
20.78168 2996
20.80179 3243
20.82191 3222
20.84202 2998
20.86214 2581
20.88225 2242
20.90236 1653
20.92248 1361
20.94259 1168
20.9627 1033
20.98282 830
21.00293 844
21.02305 785
21.04316 839
21.06327 758
21.08339 770
21.1035 744
21.12361 732
21.14373 727
21.16384 705
21.18395 721
21.20407 726
21.22418 787
21.2443 699
21.26441 765
21.28452 726
21.30464 711
21.32475 727
21.34486 747
21.36498 696
21.38509 698
21.40521 719
21.42532 725
21.44543 722
21.46555 700
21.48566 698
21.50577 668
21.52589 666
21.546 671
21.56612 622
21.58623 632
21.60634 626
21.62646 628
21.64657 613
21.66668 606
21.6868 593
21.70691 586
21.72702 670
21.74714 585
21.76725 589
21.78737 566
21.80748 595
21.82759 574
21.84771 618
21.86782 588
21.88793 579
21.90805 609
21.92816 553
21.94828 567
21.96839 595
21.9885 545
22.00862 533
22.02873 595
22.04884 575
22.06896 561
22.08907 576
22.10919 548
22.1293 595
22.14941 572
22.16953 575
22.18964 582
22.20975 518
22.22987 518
22.24998 525
22.27009 514
22.29021 511
22.31032 550
22.33044 563
22.35055 518
22.37066 530
22.39078 540
22.41089 537
22.431 507
22.45112 548
22.47123 487
22.49135 534
22.51146 499
22.53157 522
22.55169 546
22.5718 541
22.59191 543
22.61203 500
22.63214 543
22.65225 480
22.67237 492
22.69248 550
22.7126 493
22.73271 479
22.75282 527
22.77294 531
22.79305 482
22.81316 473
22.83328 523
22.85339 509
22.87351 522
22.89362 521
22.91373 507
22.93385 539
22.95396 475
22.97407 488
22.99419 520
23.0143 496
23.03442 486
23.05453 498
23.07464 508
23.09476 509
23.11487 482
23.13498 491
23.1551 472
23.17521 511
23.19532 498
23.21544 512
23.23555 525
23.25567 473
23.27578 528
23.29589 484
23.31601 469
23.33612 507
23.35623 481
23.37635 503
23.39646 503
23.41658 486
23.43669 462
23.4568 499
23.47692 483
23.49703 492
23.51714 491
23.53726 495
23.55737 492
23.57749 516
23.5976 500
23.61771 510
23.63783 580
23.65794 537
23.67805 541
23.69817 548
23.71828 606
23.73839 628
23.75851 556
23.77862 583
23.79874 599
23.81885 573
23.83896 583
23.85908 580
23.87919 552
23.8993 613
23.91942 603
23.93953 574
23.95965 597
23.97976 611
23.99987 633
24.01999 637
24.0401 559
24.06021 632
24.08033 583
24.10044 625
24.12056 583
24.14067 612
24.16078 574
24.1809 602
24.20101 535
24.22112 534
24.24124 598
24.26135 590
24.28146 552
24.30158 568
24.32169 599
24.34181 594
24.36192 563
24.38203 555
24.40215 591
24.42226 570
24.44237 600
24.46249 579
24.4826 615
24.50272 604
24.52283 594
24.54294 654
24.56306 649
24.58317 663
24.60328 759
24.6234 701
24.64351 790
24.66362 741
24.68374 788
24.70385 807
24.72397 899
24.74408 899
24.76419 821
24.78431 837
24.80442 910
24.82453 914
24.84465 918
24.86476 955
24.88488 858
24.90499 839
24.9251 884
24.94522 849
24.96533 813
24.98544 816
25.00556 758
25.02567 741
25.04579 736
25.0659 769
25.08601 655
25.10613 747
25.12624 720
25.14635 693
25.16647 669
25.18658 643
25.20669 638
25.22681 597
25.24692 617
25.26704 578
25.28715 647
25.30726 569
25.32738 557
25.34749 572
25.3676 568
25.38772 591
25.40783 583
25.42795 531
25.44806 560
25.46817 521
25.48829 543
25.5084 508
25.52851 558
25.54863 542
25.56874 555
25.58886 545
25.60897 568
25.62908 542
25.6492 546
25.66931 580
25.68942 534
25.70954 554
25.72965 536
25.74976 531
25.76988 581
25.78999 553
25.81011 581
25.83022 556
25.85033 585
25.87045 548
25.89056 544
25.91067 594
25.93079 590
25.9509 552
25.97102 538
25.99113 568
26.01124 584
26.03136 622
26.05147 614
26.07158 575
26.0917 681
26.11181 653
26.13193 690
26.15204 679
26.17215 696
26.19227 761
26.21238 766
26.23249 848
26.25261 846
26.27272 885
26.29283 930
26.31295 927
26.33306 1046
26.35318 1230
26.37329 1408
26.3934 1650
26.41352 1996
26.43363 2685
26.45374 3597
26.47386 4825
26.49397 6525
26.51409 8238
26.5342 10177
26.55431 11945
26.57443 12542
26.59454 12505
26.61465 11287
26.63477 9693
26.65488 8005
26.67499 6135
26.69511 4458
26.71522 3139
26.73534 2204
26.75545 1660
26.77556 1326
26.79568 1102
26.81579 1127
26.8359 947
26.85602 863
26.87613 816
26.89625 832
26.91636 780
26.93647 745
26.95659 659
26.9767 665
26.99681 645
27.01693 632
27.03704 582
27.05716 595
27.07727 584
27.09738 560
27.1175 546
27.13761 547
27.15772 555
27.17784 540
27.19795 517
27.21806 550
27.23818 521
27.25829 530
27.27841 507
27.29852 546
27.31863 549
27.33875 556
27.35886 545
27.37897 551
27.39909 573
27.4192 500
27.43932 481
27.45943 492
27.47954 544
27.49966 570
27.51977 523
27.53988 508
27.56 473
27.58011 460
27.60023 516
27.62034 491
27.64045 483
27.66057 501
27.68068 485
27.70079 526
27.72091 505
27.74102 498
27.76113 517
27.78125 506
27.80136 495
27.82148 510
27.84159 466
27.8617 477
27.88182 480
27.90193 465
27.92204 478
27.94216 520
27.96227 493
27.98239 515
28.0025 527
28.02261 459
28.04273 479
28.06284 476
28.08295 456
28.10307 444
28.12318 464
28.1433 464
28.16341 465
28.18352 422
28.20364 447
28.22375 453
28.24386 461
28.26398 424
28.28409 474
28.3042 475
28.32432 419
28.34443 440
28.36455 426
28.38466 431
28.40477 444
28.42489 445
28.445 444
28.46511 452
28.48523 420
28.50534 454
28.52546 461
28.54557 415
28.56568 426
28.5858 440
28.60591 458
28.62602 446
28.64614 401
28.66625 464
28.68636 424
28.70648 440
28.72659 428
28.74671 437
28.76682 404
28.78693 425
28.80705 418
28.82716 388
28.84727 437
28.86739 419
28.8875 420
28.90762 412
28.92773 426
28.94784 406
28.96796 427
28.98807 398
29.00818 412
29.0283 410
29.04841 369
29.06853 428
29.08864 420
29.10875 421
29.12887 382
29.14898 429
29.16909 415
29.18921 419
29.20932 426
29.22943 429
29.24955 409
29.26966 402
29.28978 397
29.30989 413
29.33 427
29.35012 431
29.37023 490
29.39034 399
29.41046 409
29.43057 401
29.45069 418
29.4708 413
29.49091 408
29.51103 450
29.53114 396
29.55125 434
29.57137 421
29.59148 456
29.6116 398
29.63171 401
29.65182 382
29.67194 449
29.69205 421
29.71216 408
29.73228 413
29.75239 425
29.7725 479
29.79262 442
29.81273 422
29.83285 458
29.85296 405
29.87307 400
29.89319 401
29.9133 408
29.93341 397
29.95353 440
29.97364 419
29.99376 427
30.01387 450
30.03398 425
30.0541 389
30.07421 409
30.09432 396
30.11444 422
30.13455 430
30.15467 435
30.17478 431
30.19489 434
30.21501 414
30.23512 379
30.25523 446
30.27535 428
30.29546 400
30.31557 427
30.33569 428
30.3558 427
30.37592 421
30.39603 364
30.41614 416
30.43626 392
30.45637 404
30.47648 403
30.4966 419
30.51671 394
30.53683 441
30.55694 391
30.57705 408
30.59717 422
30.61728 400
30.63739 411
30.65751 409
30.67762 400
30.69773 441
30.71785 474
30.73796 406
30.75808 439
30.77819 412
30.7983 357
30.81842 408
30.83853 386
30.85864 394
30.87876 397
30.89887 408
30.91899 398
30.9391 409
30.95921 368
30.97933 420
30.99944 373
31.01955 345
31.03967 382
31.05978 422
31.0799 384
31.10001 387
31.12012 388
31.14024 393
31.16035 423
31.18046 407
31.20058 420
31.22069 398
31.2408 387
31.26092 408
31.28103 414
31.30115 404
31.32126 420
31.34137 401
31.36149 398
31.3816 392
31.40171 431
31.42183 363
31.44194 417
31.46206 422
31.48217 420
31.50228 406
31.5224 414
31.54251 393
31.56262 402
31.58274 388
31.60285 385
31.62297 374
31.64308 389
31.66319 419
31.68331 422
31.70342 388
31.72353 425
31.74365 400
31.76376 420
31.78387 392
31.80399 397
31.8241 398
31.84422 404
31.86433 351
31.88444 447
31.90456 393
31.92467 394
31.94478 418
31.9649 417
31.98501 434
32.00513 421
32.02524 389
32.04535 391
32.06547 407
32.08558 402
32.10569 387
32.12581 454
32.14592 432
32.16604 433
32.18615 446
32.20626 432
32.22638 423
32.24649 420
32.2666 464
32.28672 443
32.30683 472
32.32694 497
32.34706 521
32.36717 576
32.38729 514
32.4074 534
32.42751 612
32.44763 581
32.46774 573
32.48785 639
32.50797 643
32.52808 617
32.5482 608
32.56831 603
32.58842 591
32.60854 574
32.62865 546
32.64876 592
32.66888 508
32.68899 524
32.7091 464
32.72922 452
32.74933 500
32.76945 462
32.78956 455
32.80967 496
32.82979 507
32.8499 503
32.87001 518
32.89013 547
32.91024 583
32.93036 591
32.95047 635
32.97058 691
32.9907 704
33.01081 711
33.03092 680
33.05104 714
33.07115 662
33.09127 749
33.11138 674
33.13149 649
33.15161 583
33.17172 610
33.19183 533
33.21195 539
33.23206 509
33.25217 492
33.27229 457
33.2924 489
33.31252 484
33.33263 497
33.35274 510
33.37286 450
33.39297 465
33.41308 468
33.4332 457
33.45331 469
33.47343 442
33.49354 480
33.51365 441
33.53377 448
33.55388 466
33.57399 436
33.59411 430
33.61422 429
33.63434 468
33.65445 414
33.67456 434
33.69468 444
33.71479 443
33.7349 453
33.75502 443
33.77513 448
33.79524 465
33.81536 444
33.83547 407
33.85559 470
33.8757 399
33.89581 461
33.91593 425
33.93604 408
33.95615 414
33.97627 419
33.99638 398
34.0165 375
34.03661 419
34.05672 458
34.07684 424
34.09695 394
34.11706 399
34.13718 404
34.15729 452
34.17741 454
34.19752 398
34.21763 416
34.23775 410
34.25786 406
34.27797 428
34.29809 400
34.3182 410
34.33831 430
34.35843 428
34.37854 420
34.39866 422
34.41877 367
34.43888 429
34.459 479
34.47911 457
34.49922 458
34.51934 448
34.53945 448
34.55957 489
34.57968 472
34.59979 462
34.61991 471
34.64002 437
34.66013 509
34.68025 515
34.70036 497
34.72047 500
34.74059 512
34.7607 527
34.78082 551
34.80093 607
34.82104 603
34.84116 607
34.86127 640
34.88138 592
34.9015 663
34.92161 676
34.94173 660
34.96184 627
34.98195 658
35.00207 584
35.02218 633
35.04229 677
35.06241 629
35.08252 594
35.10264 668
35.12275 691
35.14286 709
35.16298 676
35.18309 742
35.2032 727
35.22332 724
35.24343 741
35.26354 703
35.28366 719
35.30377 713
35.32389 730
35.344 705
35.36411 716
35.38423 754
35.40434 697
35.42445 740
35.44457 699
35.46468 824
35.4848 838
35.50491 792
35.52502 800
35.54514 796
35.56525 772
35.58536 798
35.60548 744
35.62559 751
35.64571 698
35.66582 763
35.68593 714
35.70605 745
35.72616 704
35.74627 701
35.76639 702
35.7865 714
35.80661 692
35.82673 695
35.84684 655
35.86696 663
35.88707 678
35.90718 677
35.9273 650
35.94741 639
35.96752 690
35.98764 642
36.00775 589
36.02787 591
36.04798 598
36.06809 606
36.08821 603
36.10832 544
36.12843 571
36.14855 548
36.16866 552
36.18878 552
36.20889 550
36.229 559
36.24912 554
36.26923 586
36.28934 570
36.30946 614
36.32957 671
36.34968 757
36.3698 842
36.38991 904
36.41003 1038
36.43014 1184
36.45025 1205
36.47037 1250
36.49048 1223
36.51059 1240
36.53071 1102
36.55082 992
36.57094 920
36.59105 815
36.61116 790
36.63128 694
36.65139 597
36.6715 560
36.69162 504
36.71173 547
36.73184 493
36.75196 539
36.77207 522
36.79219 508
36.8123 484
36.83241 477
36.85253 517
36.87264 532
36.89275 477
36.91287 494
36.93298 484
36.9531 439
36.97321 547
36.99332 504
37.01344 534
37.03355 509
37.05366 509
37.07378 469
37.09389 467
37.11401 518
37.13412 510
37.15423 520
37.17435 505
37.19446 477
37.21457 489
37.23469 473
37.2548 486
37.27491 471
37.29503 494
37.31514 512
37.33526 495
37.35537 484
37.37548 481
37.3956 476
37.41571 488
37.43582 480
37.45594 497
37.47605 507
37.49617 510
37.51628 507
37.53639 489
37.55651 489
37.57662 488
37.59673 494
37.61685 505
37.63696 546
37.65708 548
37.67719 507
37.6973 513
37.71742 513
37.73753 493
37.75764 514
37.77776 485
37.79787 499
37.81798 523
37.8381 576
37.85821 510
37.87833 533
37.89844 537
37.91855 546
37.93867 559
37.95878 526
37.97889 506
37.99901 524
38.01912 542
38.03924 557
38.05935 592
38.07946 571
38.09958 574
38.11969 617
38.1398 551
38.15992 578
38.18003 642
38.20015 615
38.22026 643
38.24037 648
38.26049 607
38.2806 664
38.30071 686
38.32083 658
38.34094 627
38.36105 730
38.38117 691
38.40128 639
38.4214 670
38.44151 701
38.46162 672
38.48174 655
38.50185 638
38.52196 589
38.54208 602
38.56219 571
38.58231 608
38.60242 549
38.62253 511
38.64265 613
38.66276 560
38.68287 550
38.70299 546
38.7231 523
38.74321 517
38.76333 517
38.78344 518
38.80356 498
38.82367 522
38.84378 498
38.8639 501
38.88401 587
38.90412 543
38.92424 551
38.94435 560
38.96447 554
38.98458 548
39.00469 558
39.02481 579
39.04492 541
39.06503 558
39.08515 565
39.10526 571
39.12538 577
39.14549 600
39.1656 649
39.18572 628
39.20583 617
39.22594 670
39.24606 689
39.26617 722
39.28628 796
39.3064 904
39.32651 992
39.34663 1054
39.36674 1174
39.38685 1153
39.40697 1211
39.42708 1157
39.44719 1079
39.46731 1031
39.48742 946
39.50754 837
39.52765 765
39.54776 682
39.56788 626
39.58799 538
39.6081 442
39.62822 499
39.64833 458
39.66845 449
39.68856 442
39.70867 460
39.72879 482
39.7489 482
39.76901 455
39.78913 456
39.80924 455
39.82935 462
39.84947 452
39.86958 430
39.8897 426
39.90981 447
39.92992 441
39.95004 434
39.97015 459
39.99026 465
40.01038 503
40.03049 504
40.05061 500
40.07072 526
40.09083 563
40.11095 687
40.13106 662
40.15117 739
40.17129 794
40.1914 782
40.21152 778
40.23163 846
40.25174 801
40.27186 759
40.29197 686
40.31208 667
40.3322 637
40.35231 626
40.37242 587
40.39254 563
40.41265 504
40.43277 526
40.45288 546
40.47299 520
40.49311 487
40.51322 461
40.53333 469
40.55345 498
40.57356 436
40.59368 487
40.61379 463
40.6339 464
40.65402 504
40.67413 462
40.69424 521
40.71436 533
40.73447 511
40.75458 481
40.7747 505
40.79481 502
40.81493 488
40.83504 516
40.85515 464
40.87527 469
40.89538 519
40.91549 493
40.93561 468
40.95572 533
40.97584 449
40.99595 481
41.01606 472
41.03618 434
41.05629 461
41.0764 449
41.09652 452
41.11663 463
41.13675 463
41.15686 464
41.17697 462
41.19709 446
41.2172 474
41.23731 480
41.25743 450
41.27754 447
41.29765 455
41.31777 430
41.33788 442
41.358 451
41.37811 424
41.39822 420
41.41834 401
41.43845 419
41.45856 421
41.47868 459
41.49879 415
41.51891 409
41.53902 466
41.55913 455
41.57925 426
41.59936 391
41.61947 393
41.63959 435
41.6597 400
41.67982 381
41.69993 432
41.72004 414
41.74016 397
41.76027 416
41.78038 410
41.8005 383
41.82061 422
41.84072 379
41.86084 426
41.88095 403
41.90107 450
41.92118 368
41.94129 432
41.96141 410
41.98152 409
42.00163 401
42.02175 433
42.04186 413
42.06198 397
42.08209 423
42.1022 441
42.12232 432
42.14243 442
42.16254 464
42.18266 465
42.20277 488
42.22289 481
42.243 575
42.26311 570
42.28323 627
42.30334 805
42.32345 838
42.34357 936
42.36368 908
42.38379 913
42.40391 852
42.42402 826
42.44414 771
42.46425 763
42.48436 696
42.50448 605
42.52459 563
42.5447 455
42.56482 502
42.58493 481
42.60505 439
42.62516 423
42.64527 411
42.66539 407
42.6855 389
42.70561 403
42.72573 405
42.74584 406
42.76595 381
42.78607 349
42.80618 412
42.8263 386
42.84641 413
42.86652 401
42.88664 358
42.90675 384
42.92686 418
42.94698 425
42.96709 393
42.98721 397
43.00732 410
43.02743 414
43.04755 402
43.06766 383
43.08777 401
43.10789 368
43.128 383
43.14812 397
43.16823 378
43.18834 391
43.20846 390
43.22857 349
43.24868 364
43.2688 406
43.28891 357
43.30902 397
43.32914 388
43.34925 371
43.36937 386
43.38948 396
43.40959 400
43.42971 422
43.44982 369
43.46993 388
43.49005 396
43.51016 404
43.53028 416
43.55039 386
43.5705 419
43.59062 381
43.61073 372
43.63084 416
43.65096 378
43.67107 412
43.69119 369
43.7113 397
43.73141 380
43.75153 356
43.77164 377
43.79175 391
43.81187 380
43.83198 390
43.85209 347
43.87221 361
43.89232 378
43.91244 371
43.93255 386
43.95266 362
43.97278 392
43.99289 374
44.013 370
44.03312 387
44.05323 388
44.07335 374
44.09346 405
44.11357 385
44.13369 387
44.1538 374
44.17391 399
44.19403 390
44.21414 374
44.23426 341
44.25437 371
44.27448 379
44.2946 374
44.31471 359
44.33482 377
44.35494 374
44.37505 413
44.39516 388
44.41528 377
44.43539 377
44.45551 391
44.47562 378
44.49573 393
44.51585 409
44.53596 376
44.55607 397
44.57619 399
44.5963 382
44.61642 386
44.63653 388
44.65664 371
44.67676 372
44.69687 375
44.71698 378
44.7371 411
44.75721 390
44.77732 396
44.79744 376
44.81755 391
44.83767 418
44.85778 372
44.87789 375
44.89801 392
44.91812 344
44.93823 424
44.95835 365
44.97846 387
44.99858 439
45.01869 406
45.0388 417
45.05892 410
45.07903 385
45.09914 412
45.11926 425
45.13937 423
45.15949 453
45.1796 416
45.19971 467
45.21983 424
45.23994 431
45.26005 450
45.28017 404
45.30028 466
45.32039 452
45.34051 451
45.36062 485
45.38074 500
45.40085 432
45.42096 483
45.44108 448
45.46119 451
45.4813 478
45.50142 523
45.52153 541
45.54165 472
45.56176 493
45.58187 529
45.60199 566
45.6221 581
45.64221 687
45.66233 681
45.68244 741
45.70256 792
45.72267 747
45.74278 692
45.7629 671
45.78301 691
45.80312 610
45.82324 625
45.84335 598
45.86346 577
45.88358 550
45.90369 444
45.92381 444
45.94392 446
45.96403 412
45.98415 411
46.00426 420
46.02437 415
46.04449 445
46.0646 427
46.08472 393
46.10483 389
46.12494 415
46.14506 434
46.16517 421
46.18528 391
46.2054 400
46.22551 412
46.24563 377
46.26574 393
46.28585 386
46.30597 424
46.32608 423
46.34619 393
46.36631 405
46.38642 401
46.40653 377
46.42665 410
46.44676 424
46.46688 406
46.48699 407
46.5071 418
46.52722 400
46.54733 396
46.56744 416
46.58756 388
46.60767 408
46.62779 406
46.6479 392
46.66801 416
46.68813 387
46.70824 443
46.72835 427
46.74847 388
46.76858 392
46.78869 387
46.80881 393
46.82892 392
46.84904 366
46.86915 428
46.88926 449
46.90938 387
46.92949 368
46.9496 373
46.96972 379
46.98983 406
47.00995 376
47.03006 399
47.05017 365
47.07029 398
47.0904 371
47.11051 427
47.13063 420
47.15074 399
47.17086 388
47.19097 412
47.21108 424
47.2312 411
47.25131 398
47.27142 395
47.29154 378
47.31165 430
47.33176 398
47.35188 385
47.37199 417
47.39211 389
47.41222 387
47.43233 418
47.45245 424
47.47256 408
47.49267 392
47.51279 377
47.5329 399
47.55302 366
47.57313 408
47.59324 410
47.61336 370
47.63347 392
47.65358 420
47.6737 453
47.69381 416
47.71393 406
47.73404 437
47.75415 415
47.77427 416
47.79438 417
47.81449 395
47.83461 435
47.85472 427
47.87483 403
47.89495 432
47.91506 429
47.93518 437
47.95529 395
47.9754 384
47.99552 405
48.01563 384
48.03574 424
48.05586 388
48.07597 397
48.09609 363
48.1162 410
48.13631 351
48.15643 419
48.17654 397
48.19665 398
48.21677 376
48.23688 363
48.257 428
48.27711 418
48.29722 389
48.31734 417
48.33745 392
48.35756 426
48.37768 412
48.39779 420
48.4179 433
48.43802 426
48.45813 413
48.47825 374
48.49836 436
48.51847 462
48.53859 444
48.5587 442
48.57881 431
48.59893 455
48.61904 449
48.63916 440
48.65927 442
48.67938 479
48.6995 422
48.71961 463
48.73972 456
48.75984 453
48.77995 460
48.80006 450
48.82018 451
48.84029 415
48.86041 427
48.88052 394
48.90063 437
48.92075 424
48.94086 444
48.96097 427
48.98109 384
49.0012 404
49.02132 425
49.04143 400
49.06154 416
49.08166 455
49.10177 420
49.12188 490
49.142 404
49.16211 493
49.18223 436
49.20234 453
49.22245 468
49.24257 507
49.26268 461
49.28279 509
49.30291 490
49.32302 487
49.34313 490
49.36325 460
49.38336 464
49.40348 473
49.42359 499
49.4437 467
49.46382 468
49.48393 488
49.50404 436
49.52416 482
49.54427 483
49.56439 439
49.5845 378
49.60461 483
49.62473 430
49.64484 442
49.66495 432
49.68507 477
49.70518 424
49.7253 465
49.74541 452
49.76552 457
49.78564 475
49.80575 492
49.82586 561
49.84598 538
49.86609 561
49.8862 670
49.90632 750
49.92643 772
49.94655 928
49.96666 1080
49.98677 1231
50.00689 1444
50.027 1598
50.04711 1650
50.06723 1626
50.08734 1468
50.10746 1488
50.12757 1324
50.14768 1152
50.1678 1213
50.18791 1037
50.20802 982
50.22814 850
50.24825 728
50.26837 648
50.28848 587
50.30859 488
50.32871 513
50.34882 500
50.36893 438
50.38905 410
50.40916 385
50.42927 421
50.44939 469
50.4695 480
50.48962 438
50.50973 418
50.52984 472
50.54996 476
50.57007 437
50.59018 447
50.6103 411
50.63041 427
50.65053 442
50.67064 412
50.69075 391
50.71087 431
50.73098 393
50.75109 391
50.77121 383
50.79132 413
50.81143 376
50.83155 377
50.85166 434
50.87178 401
50.89189 399
50.912 386
50.93212 414
50.95223 398
50.97234 403
50.99246 392
51.01257 388
51.03269 401
51.0528 372
51.07291 387
51.09303 385
51.11314 355
51.13325 418
51.15337 363
51.17348 406
51.1936 381
51.21371 377
51.23382 391
51.25394 371
51.27405 402
51.29416 352
51.31428 405
51.33439 377
51.3545 389
51.37462 382
51.39473 369
51.41485 364
51.43496 364
51.45507 382
51.47519 353
51.4953 347
51.51541 395
51.53553 402
51.55564 369
51.57576 369
51.59587 407
51.61598 333
51.6361 333
51.65621 351
51.67632 381
51.69644 390
51.71655 336
51.73667 368
51.75678 368
51.77689 373
51.79701 337
51.81712 363
51.83723 386
51.85735 374
51.87746 373
51.89757 348
51.91769 371
51.9378 342
51.95792 403
51.97803 376
51.99814 384
52.01826 390
52.03837 366
52.05848 394
52.0786 372
52.09871 385
52.11883 367
52.13894 410
52.15905 401
52.17917 370
52.19928 375
52.21939 364
52.23951 356
52.25962 365
52.27974 390
52.29985 346
52.31996 360
52.34008 373
52.36019 376
52.3803 381
52.40042 371
52.42053 359
52.44064 404
52.46076 363
52.48087 401
52.50099 375
52.5211 361
52.54121 362
52.56133 362
52.58144 389
52.60155 388
52.62167 378
52.64178 395
52.6619 404
52.68201 383
52.70212 391
52.72224 429
52.74235 416
52.76246 398
52.78258 399
52.80269 441
52.8228 399
52.84292 368
52.86303 440
52.88315 467
52.90326 452
52.92337 462
52.94349 408
52.9636 432
52.98371 446
53.00383 485
53.02394 478
53.04406 481
53.06417 479
53.08428 477
53.1044 452
53.12451 416
53.14462 428
53.16474 446
53.18485 429
53.20497 409
53.22508 445
53.24519 466
53.26531 421
53.28542 446
53.30553 407
53.32565 475
53.34576 451
53.36587 488
53.38599 402
53.4061 437
53.42622 430
53.44633 421
53.46644 451
53.48656 435
53.50667 493
53.52678 428
53.5469 452
53.56701 444
53.58713 446
53.60724 454
53.62735 463
53.64747 468
53.66758 463
53.68769 515
53.70781 477
53.72792 486
53.74804 525
53.76815 509
53.78826 478
53.80838 521
53.82849 537
53.8486 547
53.86872 524
53.88883 512
53.90894 548
53.92906 537
53.94917 550
53.96929 540
53.9894 527
54.00951 546
54.02963 530
54.04974 559
54.06985 551
54.08997 511
54.11008 541
54.1302 533
54.15031 526
54.17042 542
54.19054 506
54.21065 565
54.23076 507
54.25088 504
54.27099 503
54.29111 522
54.31122 509
54.33133 536
54.35145 521
54.37156 543
54.39167 505
54.41179 528
54.4319 482
54.45201 499
54.47213 497
54.49224 517
54.51236 521
54.53247 520
54.55258 524
54.5727 535
54.59281 580
54.61292 566
54.63304 622
54.65315 549
54.67327 623
54.69338 671
54.71349 747
54.73361 781
54.75372 801
54.77383 813
54.79395 909
54.81406 779
54.83417 803
54.85429 770
54.8744 717
54.89452 658
54.91463 711
54.93474 673
54.95486 702
54.97497 668
54.99508 645
55.0152 598
55.03531 576
55.05543 535
55.07554 560
55.09565 580
55.11577 543
55.13588 632
55.15599 575
55.17611 606
55.19622 627
55.21634 650
55.23645 666
55.25656 643
55.27668 586
55.29679 583
55.3169 630
55.33702 573
55.35713 545
55.37724 542
55.39736 507
55.41747 547
55.43759 519
55.4577 509
55.47781 540
55.49793 462
55.51804 493
55.53815 445
55.55827 438
55.57838 458
55.5985 441
55.61861 474
55.63872 463
55.65884 474
55.67895 409
55.69906 468
55.71918 442
55.73929 410
55.75941 411
55.77952 442
55.79963 449
55.81975 450
55.83986 421
55.85997 452
55.88009 433
55.9002 434
55.92031 444
55.94043 419
55.96054 438
55.98066 436
56.00077 428
56.02088 403
56.041 412
56.06111 436
56.08122 455
56.10134 446
56.12145 446
56.14157 424
56.16168 457
56.18179 446
56.20191 395
56.22202 446
56.24213 440
56.26225 438
56.28236 414
56.30248 435
56.32259 404
56.3427 410
56.36282 390
56.38293 428
56.40304 397
56.42316 438
56.44327 403
56.46338 414
56.4835 463
56.50361 432
56.52373 397
56.54384 453
56.56395 392
56.58407 438
56.60418 407
56.62429 403
56.64441 410
56.66452 445
56.68464 419
56.70475 476
56.72486 416
56.74498 421
56.76509 402
56.7852 392
56.80532 438
56.82543 394
56.84554 426
56.86566 417
56.88577 388
56.90589 416
56.926 432
56.94611 416
56.96623 387
56.98634 381
57.00645 434
57.02657 440
57.04668 400
57.0668 420
57.08691 420
57.10702 396
57.12714 412
57.14725 398
57.16736 383
57.18748 404
57.20759 414
57.22771 417
57.24782 398
57.26793 393
57.28805 408
57.30816 413
57.32827 429
57.34839 403
57.3685 419
57.38861 420
57.40873 422
57.42884 408
57.44896 417
57.46907 416
57.48918 387
57.5093 421
57.52941 412
57.54952 410
57.56964 388
57.58975 394
57.60987 445
57.62998 409
57.65009 358
57.67021 405
57.69032 392
57.71043 400
57.73055 382
57.75066 407
57.77078 369
57.79089 400
57.811 402
57.83112 396
57.85123 396
57.87134 383
57.89146 431
57.91157 363
57.93168 377
57.9518 408
57.97191 384
57.99203 383
58.01214 361
58.03225 380
58.05237 381
58.07248 359
58.09259 421
58.11271 395
58.13282 393
58.15294 365
58.17305 426
58.19316 396
58.21328 407
58.23339 387
58.2535 377
58.27362 400
58.29373 370
58.31385 357
58.33396 394
58.35407 384
58.37419 372
58.3943 369
58.41441 366
58.43453 407
58.45464 396
58.47475 377
58.49487 390
58.51498 371
58.5351 376
58.55521 387
58.57532 394
58.59544 389
58.61555 421
58.63566 369
58.65578 373
58.67589 396
58.69601 373
58.71612 394
58.73623 347
58.75635 373
58.77646 393
58.79657 411
58.81669 404
58.8368 373
58.85691 396
58.87703 383
58.89714 409
58.91726 408
58.93737 391
58.95748 358
58.9776 359
58.99771 352
59.01782 395
59.03794 405
59.05805 404
59.07817 389
59.09828 378
59.11839 390
59.13851 388
59.15862 375
59.17873 398
59.19885 380
59.21896 417
59.23908 398
59.25919 419
59.2793 415
59.29942 427
59.31953 411
59.33964 365
59.35976 402
59.37987 364
59.39998 428
59.4201 408
59.44021 376
59.46033 421
59.48044 439
59.50055 445
59.52067 428
59.54078 440
59.56089 464
59.58101 468
59.60112 488
59.62124 490
59.64135 510
59.66146 526
59.68158 559
59.70169 580
59.7218 617
59.74192 749
59.76203 773
59.78215 929
59.80226 996
59.82237 1130
59.84249 1151
59.8626 1260
59.88271 1203
59.90283 1156
59.92294 1070
59.94305 971
59.96317 861
59.98328 866
60.0034 847
60.02351 852
60.04362 824
60.06374 739
60.08385 661
60.10396 606
60.12408 575
60.14419 504
60.16431 442
60.18442 456
60.20453 446
60.22465 452
60.24476 420
60.26487 401
60.28499 395
60.3051 394
60.32522 426
60.34533 439
60.36544 403
60.38556 414
60.40567 411
60.42578 389
60.4459 371
60.46601 393
60.48612 414
60.50624 363
60.52635 394
60.54647 371
60.56658 379
60.58669 403
60.60681 409
60.62692 376
60.64703 371
60.66715 365
60.68726 389
60.70738 391
60.72749 384
60.7476 372
60.76772 399
60.78783 369
60.80794 360
60.82806 358
60.84817 376
60.86828 415
60.8884 375
60.90851 397
60.92863 377
60.94874 384
60.96885 381
60.98897 373
61.00908 402
61.02919 381
61.04931 391
61.06942 379
61.08954 387
61.10965 374
61.12976 391
61.14988 409
61.16999 377
61.1901 385
61.21022 379
61.23033 391
61.25045 376
61.27056 397
61.29067 402
61.31079 401
61.3309 420
61.35101 392
61.37113 449
61.39124 410
61.41135 412
61.43147 399
61.45158 414
61.4717 411
61.49181 417
61.51192 439
61.53204 405
61.55215 442
61.57226 436
61.59238 424
61.61249 466
61.63261 451
61.65272 440
61.67283 466
61.69295 414
61.71306 437
61.73317 412
61.75329 469
61.7734 438
61.79352 437
61.81363 447
61.83374 470
61.85386 439
61.87397 478
61.89408 452
61.9142 460
61.93431 489
61.95442 474
61.97454 548
61.99465 549
62.01477 526
62.03488 537
62.05499 565
62.07511 567
62.09522 595
62.11533 608
62.13545 617
62.15556 611
62.17568 663
62.19579 649
62.2159 669
62.23602 687
62.25613 661
62.27624 622
62.29636 573
62.31647 619
62.33659 588
62.3567 573
62.37681 531
62.39693 556
62.41704 536
62.43715 516
62.45727 539
62.47738 514
62.49749 463
62.51761 454
62.53772 448
62.55784 432
62.57795 440
62.59806 448
62.61818 477
62.63829 433
62.6584 426
62.67852 465
62.69863 430
62.71875 422
62.73886 425
62.75897 457
62.77909 464
62.7992 413
62.81931 441
62.83943 404
62.85954 429
62.87965 383
62.89977 434
62.91988 408
62.94 413
62.96011 436
62.98022 403
63.00034 413
63.02045 432
63.04056 465
63.06068 441
63.08079 465
63.10091 456
63.12102 429
63.14113 441
63.16125 478
63.18136 427
63.20147 421
63.22159 450
63.2417 523
63.26182 475
63.28193 467
63.30204 463
63.32216 438
63.34227 463
63.36238 480
63.3825 474
63.40261 441
63.42272 419
63.44284 454
63.46295 433
63.48307 432
63.50318 435
63.52329 451
63.54341 438
63.56352 457
63.58363 433
63.60375 446
63.62386 472
63.64398 427
63.66409 499
63.6842 479
63.70432 479
63.72443 464
63.74454 485
63.76466 496
63.78477 509
63.80489 556
63.825 531
63.84511 541
63.86523 574
63.88534 553
63.90545 627
63.92557 559
63.94568 586
63.96579 616
63.98591 604
64.00602 560
64.02614 498
64.04625 499
64.06636 508
64.08648 503
64.10659 493
64.1267 507
64.14682 495
64.16693 473
64.18705 468
64.20716 434
64.22727 424
64.24739 412
64.2675 413
64.28761 426
64.30773 441
64.32784 389
64.34796 382
64.36807 397
64.38818 417
64.4083 415
64.42841 408
64.44852 422
64.46864 434
64.48875 396
64.50886 425
64.52898 402
64.54909 368
64.56921 391
64.58932 394
64.60943 373
64.62955 396
64.64966 397
64.66977 389
64.68989 392
64.71 411
64.73012 371
64.75023 413
64.77034 397
64.79046 378
64.81057 411
64.83068 390
64.8508 346
64.87091 412
64.89102 384
64.91114 390
64.93125 369
64.95137 361
64.97148 385
64.99159 374
65.01171 365
65.03182 408
65.05193 373
65.07205 410
65.09216 356
65.11228 380
65.13239 380
65.1525 378
65.17262 342
65.19273 383
65.21284 411
65.23296 401
65.25307 408
65.27319 376
65.2933 408
65.31341 393
65.33353 397
65.35364 387
65.37375 374
65.39387 407
65.41398 368
65.43409 390
65.45421 357
65.47432 381
65.49444 371
65.51455 387
65.53466 401
65.55478 390
65.57489 377
65.595 416
65.61512 390
65.63523 392
65.65535 424
65.67546 422
65.69557 375
65.71569 434
65.7358 453
65.75591 411
65.77603 396
65.79614 399
65.81626 424
65.83637 355
65.85648 409
65.8766 385
65.89671 389
65.91682 353
65.93694 383
65.95705 352
65.97716 359
65.99728 432
66.01739 393
66.03751 376
66.05762 360
66.07773 388
66.09785 390
66.11796 385
66.13807 355
66.15819 385
66.1783 394
66.19842 351
66.21853 422
66.23864 399
66.25876 386
66.27887 416
66.29898 376
66.3191 344
66.33921 360
66.35933 382
66.37944 393
66.39955 391
66.41967 373
66.43978 416
66.45989 385
66.48001 364
66.50012 337
66.52023 364
66.54035 384
66.56046 375
66.58058 371
66.60069 413
66.6208 385
66.64092 386
66.66103 377
66.68114 398
66.70126 381
66.72137 378
66.74149 374
66.7616 349
66.78171 367
66.80183 388
66.82194 354
66.84205 390
66.86217 426
66.88228 367
66.90239 385
66.92251 394
66.94262 361
66.96274 351
66.98285 378
67.00296 382
67.02308 439
67.04319 418
67.0633 381
67.08342 399
67.10353 416
67.12365 386
67.14376 416
67.16387 396
67.18399 411
67.2041 387
67.22421 374
67.24433 391
67.26444 444
67.28456 402
67.30467 416
67.32478 450
67.3449 426
67.36501 466
67.38512 443
67.40524 432
67.42535 454
67.44546 466
67.46558 509
67.48569 518
67.50581 558
67.52592 545
67.54603 610
67.56615 670
67.58626 699
67.60637 742
67.62649 857
67.6466 853
67.66672 836
67.68683 817
67.70694 819
67.72706 681
67.74717 731
67.76728 692
67.7874 664
67.80751 676
67.82763 729
67.84774 747
67.86785 764
67.88797 739
67.90808 744
67.92819 714
67.94831 781
67.96842 801
67.98853 908
68.00865 1005
68.02876 976
68.04888 1020
68.06899 1056
68.0891 1036
68.10922 1032
68.12933 1005
68.14944 936
68.16956 913
68.18967 978
68.20979 1027
68.2299 1011
68.25001 978
68.27013 970
68.29024 880
68.31035 761
68.33047 696
68.35058 623
68.3707 640
68.39081 621
68.41092 564
68.43104 584
68.45115 589
68.47126 502
68.49138 506
68.51149 441
68.5316 454
68.55172 439
68.57183 428
68.59195 438
68.61206 416
68.63217 396
68.65229 391
68.6724 395
68.69251 420
68.71263 373
68.73274 394
68.75286 372
68.77297 382
68.79308 374
68.8132 385
68.83331 363
68.85342 378
68.87354 395
68.89365 396
68.91376 389
68.93388 388
68.95399 366
68.97411 385
68.99422 368
69.01433 407
69.03445 390
69.05456 369
69.07467 361
69.09479 399
69.1149 369
69.13502 387
69.15513 391
69.17524 380
69.19536 394
69.21547 369
69.23558 391
69.2557 360
69.27581 366
69.29593 341
69.31604 362
69.33615 394
69.35627 378
69.37638 369
69.39649 367
69.41661 366
69.43672 386
69.45683 362
69.47695 382
69.49706 389
69.51718 388
69.53729 405
69.5574 378
69.57752 387
69.59763 392
69.61774 393
69.63786 389
69.65797 411
69.67809 361
69.6982 375
69.71831 371
69.73843 371
69.75854 381
69.77865 376
69.79877 369
69.81888 389
69.839 372
69.85911 363
69.87922 368
69.89934 392
69.91945 410
69.93956 383
69.95968 421
69.97979 365
69.9999 398
70.02002 350
70.04013 387
70.06025 364
70.08036 398
70.10047 390
70.12059 353
70.1407 390
70.16081 387
70.18093 397
70.20104 395
70.22116 365
70.24127 394
70.26138 381
70.2815 426
70.30161 370
70.32172 384
70.34184 390
70.36195 391
70.38207 370
70.40218 370
70.42229 381
70.44241 383
70.46252 371
70.48263 374
70.50275 371
70.52286 406
70.54297 384
70.56309 367
70.5832 385
70.60332 382
70.62343 358
70.64354 333
70.66366 379
70.68377 367
70.70388 366
70.724 394
70.74411 319
70.76423 374
70.78434 373
70.80445 390
70.82457 381
70.84468 393
70.86479 398
70.88491 351
70.90502 389
70.92513 378
70.94525 386
70.96536 363
70.98548 356
71.00559 352
71.0257 358
71.04582 333
71.06593 345
71.08604 390
71.10616 348
71.12627 355
71.14639 350
71.1665 362
71.18661 364
71.20673 375
71.22684 397
71.24695 381
71.26707 371
71.28718 337
71.3073 360
71.32741 376
71.34752 381
71.36764 373
71.38775 359
71.40786 373
71.42798 382
71.44809 398
71.4682 356
71.48832 365
71.50843 364
71.52855 374
71.54866 363
71.56877 366
71.58889 398
71.609 389
71.62911 376
71.64923 376
71.66934 365
71.68946 380
71.70957 397
71.72968 378
71.7498 409
71.76991 393
71.79002 386
71.81014 419
71.83025 391
71.85037 398
71.87048 399
71.89059 399
71.91071 421
71.93082 400
71.95093 389
71.97105 385
71.99116 376
72.01127 368
72.03139 391
72.0515 377
72.07162 397
72.09173 371
72.11184 391
72.13196 371
72.15207 384
72.17218 410
72.1923 390
72.21241 355
72.23253 381
72.25264 374
72.27275 406
72.29287 390
72.31298 392
72.33309 377
72.35321 363
72.37332 367
72.39344 374
72.41355 388
72.43366 377
72.45378 360
72.47389 389
72.494 403
72.51412 370
72.53423 366
72.55434 365
72.57446 418
72.59457 376
72.61469 356
72.6348 379
72.65491 373
72.67503 343
72.69514 370
72.71525 386
72.73537 366
72.75548 382
72.7756 383
72.79571 379
72.81582 357
72.83594 361
72.85605 405
72.87616 387
72.89628 390
72.91639 390
72.9365 381
72.95662 373
72.97673 398
72.99685 382
73.01696 373
73.03707 404
73.05719 387
73.0773 389
73.09741 397
73.11753 371
73.13764 374
73.15776 375
73.17787 399
73.19798 427
73.2181 422
73.23821 429
73.25832 458
73.27844 491
73.29855 494
73.31867 567
73.33878 547
73.35889 585
73.37901 568
73.39912 537
73.41923 543
73.43935 512
73.45946 486
73.47957 489
73.49969 431
73.5198 457
73.53992 502
73.56003 457
73.58014 469
73.60026 479
73.62037 451
73.64048 433
73.6606 420
73.68071 431
73.70083 389
73.72094 394
73.74105 372
73.76117 398
73.78128 380
73.80139 385
73.82151 341
73.84162 362
73.86174 371
73.88185 394
73.90196 423
73.92208 405
73.94219 384
73.9623 356
73.98242 350
74.00253 381
74.02264 377
74.04276 381
74.06287 342
74.08299 396
74.1031 374
74.12321 337
74.14333 394
74.16344 379
74.18355 368
74.20367 387
74.22378 384
74.2439 363
74.26401 364
74.28412 394
74.30424 366
74.32435 365
74.34446 410
74.36458 360
74.38469 341
74.40481 388
74.42492 345
74.44503 352
74.46515 378
74.48526 364
74.50537 363
74.52549 372
74.5456 363
74.56571 373
74.58583 371
74.60594 381
74.62606 379
74.64617 406
74.66628 364
74.6864 386
74.70651 370
74.72662 400
74.74674 407
74.76685 379
74.78697 369
74.80708 367
74.82719 382
74.84731 401
74.86742 411
74.88753 360
74.90765 385
74.92776 379
74.94787 333
74.96799 391
74.9881 357
75.00822 365
