3.00117 21017
3.02128 20095
3.0414 20138
3.06151 19484
3.08162 18972
3.10174 18217
3.12185 17755
3.14197 17649
3.16208 16696
3.18219 16352
3.20231 15787
3.22242 15379
3.24253 14986
3.26265 14345
3.28276 13888
3.30288 13748
3.32299 13119
3.3431 12934
3.36322 12311
3.38333 11847
3.40344 11551
3.42356 11058
3.44367 11324
3.46379 10494
3.4839 10098
3.50401 9802
3.52413 9175
3.54424 9110
3.56435 8642
3.58447 8404
3.60458 8235
3.62469 7580
3.64481 7504
3.66492 6979
3.68504 6810
3.70515 6679
3.72526 6422
3.74538 6132
3.76549 5829
3.7856 5582
3.80572 5335
3.82583 5054
3.84595 5145
3.86606 4671
3.88617 4490
3.90629 4236
3.9264 4163
3.94651 4013
3.96663 3857
3.98674 3571
4.00686 3508
4.02697 3212
4.04708 3153
4.0672 3144
4.08731 2744
4.10742 2734
4.12754 2604
4.14765 2544
4.16776 2521
4.18788 2333
4.20799 2109
4.22811 1999
4.24822 2011
4.26833 1998
4.28845 1859
4.30856 1699
4.32867 1677
4.34879 1710
4.3689 1704
4.38902 1479
4.40913 1471
4.42924 1378
4.44936 1438
4.46947 1370
4.48958 1322
4.5097 1311
4.52981 1273
4.54992 1293
4.57004 1243
4.59015 1079
4.61027 1218
4.63038 1069
4.65049 1129
4.67061 1136
4.69072 910
4.71083 927
4.73095 986
4.75106 1002
4.77118 939
4.79129 847
4.8114 921
4.83152 872
4.85163 803
4.87174 818
4.89186 817
4.91197 828
4.93209 726
4.9522 741
4.97231 767
4.99243 670
5.01254 691
5.03265 649
5.05277 658
5.07288 679
5.09299 575
5.11311 629
5.13322 558
5.15334 525
5.17345 624
5.19356 545
5.21368 477
5.23379 499
5.2539 487
5.27402 480
5.29413 458
5.31425 473
5.33436 447
5.35447 425
5.37459 471
5.3947 380
5.41481 413
5.43493 425
5.45504 418
5.47516 401
5.49527 337
5.51538 336
5.5355 323
5.55561 348
5.57572 358
5.59584 296
5.61595 306
5.63606 304
5.65618 299
5.67629 308
5.69641 284
5.71652 275
5.73663 261
5.75675 290
5.77686 271
5.79697 270
5.81709 240
5.8372 231
5.85732 251
5.87743 227
5.89754 250
5.91766 226
5.93777 253
5.95788 255
5.978 199
5.99811 221
6.01823 227
6.03834 204
6.05845 202
6.07857 244
6.09868 208
6.11879 215
6.13891 222
6.15902 212
6.17913 167
6.19925 183
6.21936 181
6.23948 211
6.25959 181
6.2797 210
6.29982 197
6.31993 202
6.34004 212
6.36016 194
6.38027 147
6.40039 167
6.4205 195
6.44061 192
6.46073 178
6.48084 185
6.50095 202
6.52107 193
6.54118 194
6.56129 169
6.58141 165
6.60152 204
6.62164 159
6.64175 167
6.66186 173
6.68198 162
6.70209 167
6.7222 135
6.74232 170
6.76243 144
6.78255 161
6.80266 145
6.82277 169
6.84289 164
6.863 174
6.88311 174
6.90323 150
6.92334 174
6.94346 173
6.96357 181
6.98368 164
7.0038 160
7.02391 167
7.04402 150
7.06414 165
7.08425 167
7.10436 168
7.12448 173
7.14459 181
7.16471 159
7.18482 194
7.20493 180
7.22505 186
7.24516 162
7.26527 162
7.28539 174
7.3055 180
7.32562 168
7.34573 174
7.36584 155
7.38596 163
7.40607 184
7.42618 179
7.4463 183
7.46641 167
7.48653 169
7.50664 167
7.52675 162
7.54687 165
7.56698 205
7.58709 180
7.60721 192
7.62732 188
7.64743 173
7.66755 165
7.68766 209
7.70778 182
7.72789 187
7.748 195
7.76812 180
7.78823 178
7.80834 181
7.82846 206
7.84857 191
7.86869 181
7.8888 196
7.90891 183
7.92903 158
7.94914 215
7.96925 145
7.98937 217
8.00948 188
8.0296 177
8.04971 198
8.06982 203
8.08994 202
8.11005 190
8.13016 205
8.15028 179
8.17039 179
8.1905 212
8.21062 190
8.23073 202
8.25085 186
8.27096 189
8.29107 233
8.31119 213
8.3313 204
8.35141 205
8.37153 186
8.39164 185
8.41176 203
8.43187 197
8.45198 210
8.4721 216
8.49221 221
8.51232 191
8.53244 191
8.55255 216
8.57266 186
8.59278 220
8.61289 183
8.63301 209
8.65312 238
8.67323 206
8.69335 183
8.71346 201
8.73357 207
8.75369 201
8.7738 209
8.79392 199
8.81403 230
8.83414 179
8.85426 194
8.87437 229
8.89448 203
8.9146 214
8.93471 233
8.95483 218
8.97494 208
8.99505 202
9.01517 217
9.03528 212
9.05539 197
9.07551 201
9.09562 193
9.11573 221
9.13585 194
9.15596 223
9.17608 210
9.19619 196
9.2163 207
9.23642 176
9.25653 179
9.27664 212
9.29676 216
9.31687 195
9.33699 204
9.3571 207
9.37721 264
9.39733 249
9.41744 231
9.43755 199
9.45767 224
9.47778 194
9.4979 223
9.51801 201
9.53812 179
9.55824 209
9.57835 186
9.59846 222
9.61858 221
9.63869 189
9.6588 227
9.67892 211
9.69903 222
9.71915 209
9.73926 218
9.75937 208
9.77949 193
9.7996 219
9.81971 192
9.83983 208
9.85994 185
9.88006 199
9.90017 220
9.92028 211
9.9404 207
9.96051 217
9.98062 212
10.00074 218
10.02085 202
10.04097 237
10.06108 191
10.08119 208
10.10131 238
10.12142 206
10.14153 213
10.16165 201
10.18176 179
10.20187 201
10.22199 219
10.2421 221
10.26222 203
10.28233 217
10.30244 233
10.32256 228
10.34267 235
10.36278 211
10.3829 195
10.40301 214
10.42313 197
10.44324 244
10.46335 233
10.48347 210
10.50358 215
10.52369 215
10.54381 212
10.56392 201
10.58403 232
10.60415 214
10.62426 213
10.64438 217
10.66449 213
10.6846 206
10.70472 193
10.72483 197
10.74494 198
10.76506 213
10.78517 226
10.80529 219
10.8254 249
10.84551 212
10.86563 238
10.88574 231
10.90585 266
10.92597 197
10.94608 198
10.9662 217
10.98631 175
11.00642 198
11.02654 221
11.04665 216
11.06676 224
11.08688 216
11.10699 219
11.1271 226
11.14722 225
11.16733 199
11.18745 220
11.20756 197
11.22767 227
11.24779 198
11.2679 253
11.28801 230
11.30813 214
11.32824 203
11.34836 191
11.36847 210
11.38858 191
11.4087 241
11.42881 224
11.44892 209
11.46904 225
11.48915 197
11.50927 230
11.52938 203
11.54949 219
11.56961 202
11.58972 239
11.60983 209
11.62995 223
11.65006 207
11.67017 231
11.69029 223
11.7104 229
11.73052 241
11.75063 221
11.77074 213
11.79086 218
11.81097 238
11.83108 227
11.8512 234
11.87131 224
11.89143 242
11.91154 262
11.93165 242
11.95177 237
11.97188 239
11.99199 238
12.01211 271
12.03222 253
12.05234 278
12.07245 248
12.09256 248
12.11268 280
12.13279 271
12.1529 270
12.17302 305
12.19313 280
12.21324 286
12.23336 286
12.25347 284
12.27359 294
12.2937 280
12.31381 275
12.33393 274
12.35404 289
12.37415 261
12.39427 260
12.41438 278
12.4345 273
12.45461 233
12.47472 249
12.49484 229
12.51495 234
12.53506 227
12.55518 254
12.57529 247
12.5954 238
12.61552 209
12.63563 233
12.65575 190
12.67586 217
12.69597 221
12.71609 253
12.7362 224
12.75631 199
12.77643 206
12.79654 191
12.81666 184
12.83677 189
12.85688 190
12.877 196
12.89711 200
12.91722 217
12.93734 187
12.95745 187
12.97757 204
12.99768 193
13.01779 192
13.03791 195
13.05802 196
13.07813 202
13.09825 203
13.11836 191
13.13847 195
13.15859 184
13.1787 216
13.19882 203
13.21893 197
13.23904 203
13.25916 206
13.27927 195
13.29938 207
13.3195 190
13.33961 186
13.35973 177
13.37984 210
13.39995 194
13.42007 197
13.44018 170
13.46029 187
13.48041 208
13.50052 166
13.52064 171
13.54075 167
13.56086 214
13.58098 224
13.60109 195
13.6212 206
13.64132 186
13.66143 195
13.68154 168
13.70166 165
13.72177 200
13.74189 209
13.762 194
13.78211 174
13.80223 175
13.82234 193
13.84245 176
13.86257 188
13.88268 181
13.9028 170
13.92291 203
13.94302 169
13.96314 190
13.98325 186
14.00336 189
14.02348 160
14.04359 193
14.06371 204
14.08382 203
14.10393 201
14.12405 174
14.14416 172
14.16427 187
14.18439 200
14.2045 170
14.22461 193
14.24473 199
14.26484 188
14.28496 182
14.30507 198
14.32518 167
14.3453 188
14.36541 178
14.38552 195
14.40564 212
14.42575 184
14.44587 185
14.46598 194
14.48609 166
14.50621 193
14.52632 159
14.54643 173
14.56655 187
14.58666 175
14.60677 158
14.62689 170
14.647 193
14.66712 165
14.68723 168
14.70734 171
14.72746 145
14.74757 158
14.76768 193
14.7878 164
14.80791 164
14.82803 184
14.84814 190
14.86825 172
14.88837 179
14.90848 180
14.92859 155
14.94871 157
14.96882 142
14.98894 176
15.00905 163
15.02916 192
15.04928 172
15.06939 190
15.0895 177
15.10962 181
15.12973 162
15.14984 184
15.16996 140
15.19007 196
15.21019 186
15.2303 170
15.25041 168
15.27053 148
15.29064 164
15.31075 186
15.33087 181
15.35098 163
15.3711 166
15.39121 162
15.41132 148
15.43144 166
15.45155 171
15.47166 161
15.49178 156
15.51189 157
15.53201 180
15.55212 173
15.57223 175
15.59235 159
15.61246 177
15.63257 157
15.65269 156
15.6728 164
15.69291 178
15.71303 152
15.73314 153
15.75326 170
15.77337 159
15.79348 189
15.8136 188
15.83371 163
15.85382 174
15.87394 163
15.89405 165
15.91417 194
15.93428 180
15.95439 201
15.97451 194
15.99462 199
16.01473 178
16.03485 184
16.05496 174
16.07508 136
16.09519 138
16.1153 155
16.13542 158
16.15553 159
16.17564 161
16.19576 161
16.21587 163
16.23598 197
16.2561 163
16.27621 160
16.29633 143
16.31644 188
16.33655 170
16.35667 146
16.37678 146
16.39689 162
16.41701 138
16.43712 171
16.45724 165
16.47735 168
16.49746 152
16.51758 153
16.53769 180
16.5578 159
16.57792 168
16.59803 155
16.61814 169
16.63826 141
16.65837 179
16.67849 154
16.6986 162
16.71871 144
16.73883 181
16.75894 164
16.77905 160
16.79917 183
16.81928 166
16.8394 171
16.85951 149
16.87962 148
16.89974 180
16.91985 144
16.93996 162
16.96008 138
16.98019 166
17.00031 143
17.02042 155
17.04053 154
17.06065 146
17.08076 159
17.10087 161
17.12099 130
17.1411 150
17.16121 160
17.18133 135
17.20144 177
17.22156 139
17.24167 165
17.26178 170
17.2819 159
17.30201 152
17.32212 163
17.34224 120
17.36235 150
17.38247 157
17.40258 179
17.42269 181
17.44281 152
17.46292 150
17.48303 116
17.50315 156
17.52326 157
17.54338 151
17.56349 155
17.5836 152
17.60372 148
17.62383 159
17.64394 165
17.66406 154
17.68417 146
17.70428 119
17.7244 138
17.74451 156
17.76463 183
17.78474 149
17.80485 165
17.82497 138
17.84508 150
17.86519 157
17.88531 136
17.90542 143
17.92554 144
17.94565 154
17.96576 150
17.98588 151
18.00599 195
18.0261 173
18.04622 174
18.06633 152
18.08645 155
18.10656 169
18.12667 171
18.14679 176
18.1669 129
18.18701 138
18.20713 141
18.22724 150
18.24735 180
18.26747 166
18.28758 146
18.3077 160
18.32781 167
18.34792 138
18.36804 164
18.38815 150
18.40826 151
18.42838 133
18.44849 139
18.46861 177
18.48872 177
18.50883 158
18.52895 146
18.54906 155
18.56917 156
18.58929 145
18.6094 162
18.62951 143
18.64963 144
18.66974 191
18.68986 161
18.70997 176
18.73008 187
18.7502 159
18.77031 157
18.79042 177
18.81054 189
18.83065 180
18.85077 172
18.87088 176
18.89099 163
18.91111 145
18.93122 156
18.95133 165
18.97145 139
18.99156 167
19.01168 148
19.03179 179
19.0519 160
19.07202 159
19.09213 150
19.11224 197
19.13236 157
19.15247 157
19.17258 153
19.1927 153
19.21281 170
19.23293 147
19.25304 184
19.27315 159
19.29327 155
19.31338 142
19.33349 174
19.35361 179
19.37372 152
19.39384 175
19.41395 153
19.43406 187
19.45418 169
19.47429 163
19.4944 191
19.51452 191
19.53463 211
19.55475 221
19.57486 189
19.59497 201
19.61509 218
19.6352 196
19.65531 184
19.67543 188
19.69554 179
19.71565 226
19.73577 201
19.75588 214
19.776 238
19.79611 225
19.81622 213
19.83634 227
19.85645 237
19.87656 252
19.89668 259
19.91679 232
19.93691 233
19.95702 239
19.97713 246
19.99725 263
20.01736 247
20.03747 224
20.05759 236
20.0777 262
20.09782 241
20.11793 259
20.13804 287
20.15816 327
20.17827 286
20.19838 320
20.2185 300
20.23861 285
20.25872 286
20.27884 295
20.29895 362
20.31907 310
20.33918 313
20.35929 328
20.37941 307
20.39952 318
20.41963 348
20.43975 364
20.45986 369
20.47998 409
20.50009 428
20.5202 431
20.54032 475
20.56043 470
20.58054 519
20.60066 610
20.62077 630
20.64088 809
20.661 1008
20.68111 1293
20.70123 1681
20.72134 2249
20.74145 3137
20.76157 4263
20.78168 5623
20.80179 7025
20.82191 7760
20.84202 8219
20.86214 7561
20.88225 6427
20.90236 4777
20.92248 3400
20.94259 2186
20.9627 1366
20.98282 854
21.00293 637
21.02305 570
21.04316 495
21.06327 469
21.08339 442
21.1035 423
21.12361 404
21.14373 363
21.16384 367
21.18395 312
21.20407 313
21.22418 282
21.2443 278
21.26441 251
21.28452 289
21.30464 238
21.32475 270
21.34486 265
21.36498 262
21.38509 246
21.40521 256
21.42532 265
21.44543 248
21.46555 228
21.48566 248
21.50577 254
21.52589 237
21.546 230
21.56612 253
21.58623 243
21.60634 245
21.62646 250
21.64657 232
21.66668 225
21.6868 227
21.70691 234
21.72702 229
21.74714 232
21.76725 224
21.78737 219
21.80748 195
21.82759 180
21.84771 239
21.86782 201
21.88793 217
21.90805 194
21.92816 227
21.94828 212
21.96839 206
21.9885 219
22.00862 240
22.02873 215
22.04884 219
22.06896 233
22.08907 233
22.10919 190
22.1293 227
22.14941 182
22.16953 211
22.18964 220
22.20975 237
22.22987 233
22.24998 207
22.27009 198
22.29021 200
22.31032 198
22.33044 211
22.35055 200
22.37066 209
22.39078 245
22.41089 188
22.431 235
22.45112 192
22.47123 202
22.49135 212
22.51146 216
22.53157 185
22.55169 210
22.5718 214
22.59191 209
22.61203 215
22.63214 221
22.65225 220
22.67237 192
22.69248 189
22.7126 195
22.73271 192
22.75282 197
22.77294 200
22.79305 222
22.81316 186
22.83328 203
22.85339 181
22.87351 196
22.89362 168
22.91373 175
22.93385 182
22.95396 205
22.97407 192
22.99419 211
23.0143 219
23.03442 215
23.05453 205
23.07464 194
23.09476 205
23.11487 232
23.13498 204
23.1551 192
23.17521 212
23.19532 207
23.21544 231
23.23555 223
23.25567 191
23.27578 208
23.29589 184
23.31601 194
23.33612 198
23.35623 209
23.37635 198
23.39646 191
23.41658 188
23.43669 188
23.4568 177
23.47692 188
23.49703 174
23.51714 200
23.53726 200
23.55737 192
23.57749 188
23.5976 181
23.61771 178
23.63783 204
23.65794 187
23.67805 199
23.69817 207
23.71828 215
23.73839 207
23.75851 195
23.77862 190
23.79874 237
23.81885 203
23.83896 226
23.85908 227
23.87919 222
23.8993 252
23.91942 269
23.93953 267
23.95965 288
23.97976 279
23.99987 286
24.01999 259
24.0401 289
24.06021 235
24.08033 236
24.10044 198
24.12056 195
24.14067 205
24.16078 232
24.1809 222
24.20101 195
24.22112 187
24.24124 192
24.26135 203
24.28146 197
24.30158 208
24.32169 201
24.34181 216
24.36192 222
24.38203 201
24.40215 216
24.42226 192
24.44237 216
24.46249 231
24.4826 194
24.50272 201
24.52283 230
24.54294 200
24.56306 228
24.58317 246
24.60328 220
24.6234 259
24.64351 210
24.66362 263
24.68374 263
24.70385 244
24.72397 238
24.74408 248
24.76419 259
24.78431 250
24.80442 271
24.82453 245
24.84465 258
24.86476 228
24.88488 263
24.90499 251
24.9251 245
24.94522 227
24.96533 253
24.98544 248
25.00556 247
25.02567 213
25.04579 224
25.0659 197
25.08601 223
25.10613 241
25.12624 227
25.14635 222
25.16647 205
25.18658 230
25.20669 243
25.22681 253
25.24692 207
25.26704 223
25.28715 219
25.30726 228
25.32738 197
25.34749 245
25.3676 226
25.38772 229
25.40783 251
25.42795 261
25.44806 292
25.46817 273
25.48829 271
25.5084 273
25.52851 270
25.54863 294
25.56874 290
25.58886 293
25.60897 360
25.62908 405
25.6492 332
25.66931 368
25.68942 425
25.70954 412
25.72965 443
25.74976 433
25.76988 427
25.78999 406
25.81011 478
25.83022 464
25.85033 482
25.87045 444
25.89056 498
25.91067 498
25.93079 505
25.9509 503
25.97102 518
25.99113 540
26.01124 569
26.03136 586
26.05147 564
26.07158 645
26.0917 667
26.11181 714
26.13193 782
26.15204 782
26.17215 851
26.19227 952
26.21238 1011
26.23249 1100
26.25261 1178
26.27272 1285
26.29283 1456
26.31295 1580
26.33306 1724
26.35318 2031
26.37329 2502
26.3934 2894
26.41352 3671
26.43363 4768
26.45374 6158
26.47386 8346
26.49397 11404
26.51409 15088
26.5342 20314
26.55431 25639
26.57443 31420
26.59454 35511
26.61465 36933
26.63477 35432
26.65488 30214
26.67499 23573
26.69511 17776
26.71522 12520
26.73534 8185
26.75545 4783
26.77556 3023
26.79568 2254
26.81579 1863
26.8359 1689
26.85602 1380
26.87613 1279
26.89625 1212
26.91636 1146
26.93647 960
26.95659 912
26.9767 777
26.99681 743
27.01693 655
27.03704 696
27.05716 637
27.07727 577
27.09738 569
27.1175 531
27.13761 508
27.15772 508
27.17784 457
27.19795 465
27.21806 445
27.23818 435
27.25829 411
27.27841 459
27.29852 426
27.31863 428
27.33875 436
27.35886 464
27.37897 489
27.39909 458
27.4192 469
27.43932 463
27.45943 430
27.47954 412
27.49966 404
27.51977 382
27.53988 371
27.56 369
27.58011 321
27.60023 321
27.62034 326
27.64045 291
27.66057 325
27.68068 345
27.70079 300
27.72091 288
27.74102 322
27.76113 332
27.78125 303
27.80136 296
27.82148 303
27.84159 281
27.8617 299
27.88182 279
27.90193 281
27.92204 284
27.94216 278
27.96227 316
27.98239 252
28.0025 253
28.02261 272
28.04273 244
28.06284 265
28.08295 277
28.10307 258
28.12318 276
28.1433 268
28.16341 271
28.18352 272
28.20364 270
28.22375 232
28.24386 220
28.26398 247
28.28409 226
28.3042 246
28.32432 230
28.34443 271
28.36455 240
28.38466 229
28.40477 245
28.42489 243
28.445 240
28.46511 228
28.48523 238
28.50534 232
28.52546 243
28.54557 188
28.56568 255
28.5858 220
28.60591 231
28.62602 203
28.64614 253
28.66625 223
28.68636 225
28.70648 229
28.72659 239
28.74671 227
28.76682 224
28.78693 220
28.80705 250
28.82716 224
28.84727 225
28.86739 202
28.8875 214
28.90762 209
28.92773 202
28.94784 231
28.96796 196
28.98807 230
29.00818 228
29.0283 246
29.04841 216
29.06853 220
29.08864 186
29.10875 201
29.12887 228
29.14898 214
29.16909 187
29.18921 206
29.20932 192
29.22943 199
29.24955 223
29.26966 225
29.28978 216
29.30989 232
29.33 219
29.35012 225
29.37023 219
29.39034 231
29.41046 226
29.43057 221
29.45069 229
29.4708 189
29.49091 203
29.51103 225
29.53114 197
29.55125 227
29.57137 191
29.59148 194
29.6116 206
29.63171 214
29.65182 191
29.67194 186
29.69205 208
29.71216 191
29.73228 223
29.75239 186
29.7725 211
29.79262 188
29.81273 195
29.83285 178
29.85296 178
29.87307 219
29.89319 160
29.9133 205
29.93341 218
29.95353 162
29.97364 195
29.99376 179
30.01387 199
30.03398 192
30.0541 195
30.07421 214
30.09432 194
30.11444 208
30.13455 199
30.15467 214
30.17478 223
30.19489 207
30.21501 216
30.23512 206
30.25523 194
30.27535 216
30.29546 191
30.31557 184
30.33569 172
30.3558 205
30.37592 191
30.39603 197
30.41614 185
30.43626 182
30.45637 203
30.47648 192
30.4966 177
30.51671 228
30.53683 204
30.55694 208
30.57705 184
30.59717 171
30.61728 189
30.63739 172
30.65751 170
30.67762 163
30.69773 208
30.71785 184
30.73796 220
30.75808 210
30.77819 210
30.7983 187
30.81842 193
30.83853 182
30.85864 195
30.87876 178
30.89887 185
30.91899 180
30.9391 194
30.95921 179
30.97933 156
30.99944 163
31.01955 192
31.03967 181
31.05978 161
31.0799 164
31.10001 215
31.12012 146
31.14024 168
31.16035 153
31.18046 180
31.20058 161
31.22069 151
31.2408 149
31.26092 143
31.28103 156
31.30115 175
31.32126 174
31.34137 164
31.36149 143
31.3816 157
31.40171 164
31.42183 134
31.44194 155
31.46206 169
31.48217 157
31.50228 153
31.5224 168
31.54251 173
31.56262 171
31.58274 157
31.60285 160
31.62297 155
31.64308 181
31.66319 138
31.68331 199
31.70342 167
31.72353 149
31.74365 157
31.76376 171
31.78387 130
31.80399 157
31.8241 140
31.84422 144
31.86433 169
31.88444 173
31.90456 146
31.92467 149
31.94478 168
31.9649 197
31.98501 136
32.00513 146
32.02524 128
32.04535 147
32.06547 148
32.08558 159
32.10569 173
32.12581 151
32.14592 180
32.16604 160
32.18615 150
32.20626 162
32.22638 144
32.24649 157
32.2666 145
32.28672 162
32.30683 132
32.32694 165
32.34706 146
32.36717 151
32.38729 162
32.4074 156
32.42751 159
32.44763 147
32.46774 163
32.48785 167
32.50797 148
32.52808 132
32.5482 165
32.56831 147
32.58842 159
32.60854 148
32.62865 142
32.64876 149
32.66888 147
32.68899 132
32.7091 166
32.72922 136
32.74933 151
32.76945 152
32.78956 138
32.80967 160
32.82979 137
32.8499 147
32.87001 144
32.89013 153
32.91024 164
32.93036 157
32.95047 127
32.97058 147
32.9907 131
33.01081 137
33.03092 148
33.05104 148
33.07115 147
33.09127 138
33.11138 157
33.13149 155
33.15161 138
33.17172 143
33.19183 144
33.21195 167
33.23206 139
33.25217 122
33.27229 146
33.2924 132
33.31252 143
33.33263 136
33.35274 175
33.37286 125
33.39297 154
33.41308 146
33.4332 139
33.45331 134
33.47343 138
33.49354 139
33.51365 132
33.53377 152
33.55388 141
33.57399 130
33.59411 116
33.61422 115
33.63434 127
33.65445 136
33.67456 145
33.69468 132
33.71479 149
33.7349 135
33.75502 128
33.77513 124
33.79524 131
33.81536 131
33.83547 136
33.85559 126
33.8757 161
33.89581 131
33.91593 114
33.93604 145
33.95615 142
33.97627 133
33.99638 124
34.0165 130
34.03661 151
34.05672 139
34.07684 182
34.09695 160
34.11706 152
34.13718 151
34.15729 136
34.17741 158
34.19752 146
34.21763 147
34.23775 127
34.25786 129
34.27797 132
34.29809 124
34.3182 149
34.33831 141
34.35843 138
34.37854 138
34.39866 141
34.41877 140
34.43888 131
34.459 133
34.47911 142
34.49922 130
34.51934 148
34.53945 152
34.55957 161
34.57968 137
34.59979 133
34.61991 161
34.64002 158
34.66013 147
34.68025 149
34.70036 159
34.72047 156
34.74059 159
34.7607 176
34.78082 189
34.80093 150
34.82104 180
34.84116 154
34.86127 169
34.88138 159
34.9015 172
34.92161 169
34.94173 168
34.96184 168
34.98195 165
35.00207 160
35.02218 169
35.04229 180
35.06241 184
35.08252 160
35.10264 198
35.12275 153
35.14286 154
35.16298 159
35.18309 158
35.2032 162
35.22332 163
35.24343 172
35.26354 166
35.28366 198
35.30377 201
35.32389 182
35.344 155
35.36411 159
35.38423 148
35.40434 184
35.42445 166
35.44457 190
35.46468 183
35.4848 172
35.50491 199
35.52502 184
35.54514 178
35.56525 163
35.58536 176
35.60548 180
35.62559 166
35.64571 171
35.66582 175
35.68593 172
35.70605 195
35.72616 167
35.74627 178
35.76639 189
35.7865 158
35.80661 174
35.82673 192
35.84684 174
35.86696 168
35.88707 158
35.90718 194
35.9273 206
35.94741 190
35.96752 201
35.98764 203
36.00775 209
36.02787 178
36.04798 183
36.06809 206
36.08821 222
36.10832 195
36.12843 257
36.14855 263
36.16866 253
36.18878 247
36.20889 252
36.229 299
36.24912 328
36.26923 340
36.28934 384
36.30946 479
36.32957 601
36.34968 667
36.3698 814
36.38991 1039
36.41003 1224
36.43014 1551
36.45025 1913
36.47037 2174
36.49048 2482
36.51059 2466
36.53071 2355
36.55082 2140
36.57094 1746
36.59105 1467
36.61116 1255
36.63128 1044
36.65139 789
36.6715 576
36.69162 413
36.71173 340
36.73184 256
36.75196 279
36.77207 253
36.79219 234
36.8123 254
36.83241 210
36.85253 193
36.87264 198
36.89275 176
36.91287 184
36.93298 198
36.9531 214
36.97321 175
36.99332 197
37.01344 173
37.03355 181
37.05366 173
37.07378 155
37.09389 166
37.11401 149
37.13412 174
37.15423 165
37.17435 166
37.19446 175
37.21457 170
37.23469 154
37.2548 172
37.27491 154
37.29503 170
37.31514 166
37.33526 165
37.35537 167
37.37548 158
37.3956 145
37.41571 157
37.43582 159
37.45594 181
37.47605 149
37.49617 173
37.51628 178
37.53639 144
37.55651 156
37.57662 170
37.59673 174
37.61685 165
37.63696 161
37.65708 161
37.67719 152
37.6973 142
37.71742 174
37.73753 152
37.75764 177
37.77776 167
37.79787 177
37.81798 166
37.8381 147
37.85821 160
37.87833 160
37.89844 141
37.91855 155
37.93867 150
37.95878 176
37.97889 163
37.99901 174
38.01912 160
38.03924 167
38.05935 165
38.07946 185
38.09958 166
38.11969 162
38.1398 187
38.15992 178
38.18003 170
38.20015 195
38.22026 165
38.24037 190
38.26049 170
38.2806 168
38.30071 183
38.32083 174
38.34094 193
38.36105 166
38.38117 201
38.40128 194
38.4214 169
38.44151 172
38.46162 171
38.48174 168
38.50185 181
38.52196 192
38.54208 181
38.56219 181
38.58231 187
38.60242 162
38.62253 189
38.64265 171
38.66276 160
38.68287 173
38.70299 183
38.7231 198
38.74321 184
38.76333 186
38.78344 156
38.80356 152
38.82367 214
38.84378 182
38.8639 211
38.88401 191
38.90412 178
38.92424 199
38.94435 212
38.96447 195
38.98458 198
39.00469 217
39.02481 209
39.04492 214
39.06503 249
39.08515 262
39.10526 276
39.12538 238
39.14549 319
39.1656 321
39.18572 347
39.20583 406
39.22594 465
39.24606 515
39.26617 661
39.28628 814
39.3064 913
39.32651 1185
39.34663 1388
39.36674 1741
39.38685 1889
39.40697 2211
39.42708 2370
39.44719 2224
39.46731 2055
39.48742 1764
39.50754 1503
39.52765 1217
39.54776 1095
39.56788 922
39.58799 638
39.6081 479
39.62822 366
39.64833 283
39.66845 276
39.68856 262
39.70867 250
39.72879 250
39.7489 238
39.76901 198
39.78913 221
39.80924 196
39.82935 210
39.84947 190
39.86958 246
39.8897 210
39.90981 218
39.92992 213
39.95004 241
39.97015 227
39.99026 252
40.01038 236
40.03049 274
40.05061 300
40.07072 357
40.09083 392
40.11095 480
40.13106 550
40.15117 658
40.17129 833
40.1914 860
40.21152 1056
40.23163 1173
40.25174 1197
40.27186 1150
40.29197 1137
40.31208 885
40.3322 783
40.35231 690
40.37242 607
40.39254 545
40.41265 406
40.43277 313
40.45288 264
40.47299 218
40.49311 203
40.51322 200
40.53333 165
40.55345 189
40.57356 195
40.59368 176
40.61379 171
40.6339 165
40.65402 153
40.67413 172
40.69424 184
40.71436 169
40.73447 134
40.75458 161
40.7747 164
40.79481 156
40.81493 169
40.83504 147
40.85515 138
40.87527 129
40.89538 153
40.91549 152
40.93561 130
40.95572 164
40.97584 152
40.99595 155
41.01606 145
41.03618 162
41.05629 169
41.0764 175
41.09652 162
41.11663 174
41.13675 159
41.15686 163
41.17697 153
41.19709 163
41.2172 174
41.23731 134
41.25743 158
41.27754 145
41.29765 155
41.31777 144
41.33788 164
41.358 169
41.37811 159
41.39822 139
41.41834 156
41.43845 152
41.45856 150
41.47868 161
41.49879 176
41.51891 140
41.53902 158
41.55913 166
41.57925 167
41.59936 180
41.61947 176
41.63959 170
41.6597 159
41.67982 157
41.69993 179
41.72004 164
41.74016 159
41.76027 156
41.78038 171
41.8005 156
41.82061 179
41.84072 186
41.86084 197
41.88095 184
41.90107 156
41.92118 167
41.94129 194
41.96141 187
41.98152 188
42.00163 188
42.02175 188
42.04186 196
42.06198 198
42.08209 204
42.1022 233
42.12232 253
42.14243 279
42.16254 311
42.18266 311
42.20277 336
42.22289 448
42.243 485
42.26311 619
42.28323 704
42.30334 765
42.32345 1020
42.34357 1189
42.36368 1358
42.38379 1593
42.40391 1615
42.42402 1584
42.44414 1437
42.46425 1272
42.48436 1090
42.50448 985
42.52459 910
42.5447 724
42.56482 627
42.58493 430
42.60505 313
42.62516 267
42.64527 264
42.66539 223
42.6855 222
42.70561 218
42.72573 180
42.74584 174
42.76595 181
42.78607 170
42.80618 164
42.8263 169
42.84641 140
42.86652 130
42.88664 161
42.90675 135
42.92686 154
42.94698 140
42.96709 159
42.98721 168
43.00732 145
43.02743 160
43.04755 139
43.06766 147
43.08777 127
43.10789 126
43.128 137
43.14812 122
43.16823 179
43.18834 145
43.20846 126
43.22857 151
43.24868 141
43.2688 163
43.28891 145
43.30902 124
43.32914 135
43.34925 132
43.36937 160
43.38948 124
43.40959 131
43.42971 144
43.44982 140
43.46993 122
43.49005 138
43.51016 140
43.53028 130
43.55039 144
43.5705 156
43.59062 127
43.61073 122
43.63084 132
43.65096 123
43.67107 124
43.69119 141
43.7113 134
43.73141 124
43.75153 116
43.77164 153
43.79175 139
43.81187 133
43.83198 150
43.85209 137
43.87221 134
43.89232 122
43.91244 143
43.93255 152
43.95266 141
43.97278 132
43.99289 141
44.013 141
44.03312 131
44.05323 129
44.07335 137
44.09346 143
44.11357 141
44.13369 148
44.1538 141
44.17391 142
44.19403 121
44.21414 120
44.23426 143
44.25437 138
44.27448 133
44.2946 137
44.31471 129
44.33482 160
44.35494 126
44.37505 135
44.39516 162
44.41528 135
44.43539 133
44.45551 149
44.47562 150
44.49573 148
44.51585 135
44.53596 138
44.55607 144
44.57619 149
44.5963 136
44.61642 132
44.63653 155
44.65664 144
44.67676 146
44.69687 147
44.71698 128
44.7371 149
44.75721 143
44.77732 128
44.79744 131
44.81755 107
44.83767 142
44.85778 140
44.87789 127
44.89801 135
44.91812 134
44.93823 137
44.95835 149
44.97846 148
44.99858 118
45.01869 163
45.0388 135
45.05892 132
45.07903 140
45.09914 148
45.11926 128
45.13937 149
45.15949 178
45.1796 153
45.19971 143
45.21983 144
45.23994 137
45.26005 151
45.28017 155
45.30028 169
45.32039 158
45.34051 163
45.36062 169
45.38074 191
45.40085 201
45.42096 219
45.44108 210
45.46119 179
45.4813 236
45.50142 223
45.52153 293
45.54165 289
45.56176 301
45.58187 337
45.60199 417
45.6221 466
45.64221 616
45.66233 763
45.68244 823
45.70256 947
45.72267 1078
45.74278 1105
45.7629 1078
45.78301 1075
45.80312 913
45.82324 790
45.84335 692
45.86346 611
45.88358 604
45.90369 513
45.92381 406
45.94392 290
45.96403 250
45.98415 184
46.00426 200
46.02437 179
46.04449 188
46.0646 167
46.08472 171
46.10483 157
46.12494 163
46.14506 144
46.16517 144
46.18528 139
46.2054 154
46.22551 154
46.24563 141
46.26574 155
46.28585 133
46.30597 145
46.32608 137
46.34619 155
46.36631 125
46.38642 127
46.40653 127
46.42665 128
46.44676 112
46.46688 160
46.48699 123
46.5071 124
46.52722 139
46.54733 139
46.56744 166
46.58756 135
46.60767 138
46.62779 136
46.6479 133
46.66801 148
46.68813 125
46.70824 125
46.72835 126
46.74847 130
46.76858 116
46.78869 151
46.80881 134
46.82892 127
46.84904 130
46.86915 124
46.88926 127
46.90938 136
46.92949 129
46.9496 167
46.96972 142
46.98983 113
47.00995 123
47.03006 135
47.05017 130
47.07029 131
47.0904 128
47.11051 156
47.13063 158
47.15074 123
47.17086 137
47.19097 104
47.21108 118
47.2312 139
47.25131 114
47.27142 123
47.29154 121
47.31165 129
47.33176 118
47.35188 120
47.37199 115
47.39211 134
47.41222 140
47.43233 128
47.45245 134
47.47256 142
47.49267 135
47.51279 129
47.5329 130
47.55302 122
47.57313 120
47.59324 128
47.61336 139
47.63347 141
47.65358 129
47.6737 134
47.69381 117
47.71393 146
47.73404 132
47.75415 126
47.77427 118
47.79438 127
47.81449 134
47.83461 152
47.85472 137
47.87483 104
47.89495 121
47.91506 136
47.93518 126
47.95529 109
47.9754 119
47.99552 127
48.01563 112
48.03574 112
48.05586 120
48.07597 118
48.09609 124
48.1162 130
48.13631 129
48.15643 119
48.17654 132
48.19665 117
48.21677 153
48.23688 128
48.257 113
48.27711 137
48.29722 143
48.31734 132
48.33745 130
48.35756 139
48.37768 150
48.39779 139
48.4179 146
48.43802 139
48.45813 146
48.47825 126
48.49836 139
48.51847 123
48.53859 113
48.5587 104
48.57881 131
48.59893 147
48.61904 118
48.63916 159
48.65927 137
48.67938 149
48.6995 125
48.71961 138
48.73972 134
48.75984 145
48.77995 147
48.80006 139
48.82018 149
48.84029 134
48.86041 138
48.88052 133
48.90063 155
48.92075 136
48.94086 179
48.96097 136
48.98109 154
49.0012 133
49.02132 148
49.04143 141
49.06154 124
49.08166 183
49.10177 164
49.12188 146
49.142 150
49.16211 160
49.18223 163
49.20234 128
49.22245 153
49.24257 156
49.26268 129
49.28279 164
49.30291 148
49.32302 156
49.34313 142
49.36325 181
49.38336 173
49.40348 154
49.42359 183
49.4437 180
49.46382 168
49.48393 174
49.50404 161
49.52416 151
49.54427 186
49.56439 152
49.5845 177
49.60461 212
49.62473 235
49.64484 248
49.66495 259
49.68507 275
49.70518 299
49.7253 313
49.74541 329
49.76552 352
49.78564 392
49.80575 437
49.82586 488
49.84598 607
49.86609 654
49.8862 786
49.90632 881
49.92643 1006
49.94655 1313
49.96666 1573
49.98677 1872
50.00689 2173
50.027 2700
50.04711 3114
50.06723 3394
50.08734 3592
50.10746 3515
50.12757 3183
50.14768 2639
50.1678 2291
50.18791 2077
50.20802 1962
50.22814 1841
50.24825 1657
50.26837 1333
50.28848 1054
50.30859 677
50.32871 519
50.34882 404
50.36893 368
50.38905 334
50.40916 323
50.42927 277
50.44939 308
50.4695 298
50.48962 257
50.50973 239
50.52984 302
50.54996 267
50.57007 277
50.59018 260
50.6103 237
50.63041 248
50.65053 215
50.67064 218
50.69075 189
50.71087 190
50.73098 188
50.75109 192
50.77121 178
50.79132 179
50.81143 158
50.83155 172
50.85166 144
50.87178 157
50.89189 171
50.912 142
50.93212 138
50.95223 149
50.97234 135
50.99246 141
51.01257 139
51.03269 137
51.0528 160
51.07291 140
51.09303 137
51.11314 147
51.13325 142
51.15337 134
51.17348 143
51.1936 137
51.21371 119
51.23382 112
51.25394 140
51.27405 138
51.29416 126
51.31428 145
51.33439 131
51.3545 132
51.37462 119
51.39473 114
51.41485 121
51.43496 116
51.45507 103
51.47519 113
51.4953 126
51.51541 119
51.53553 113
51.55564 107
51.57576 111
51.59587 127
51.61598 123
51.6361 125
51.65621 124
51.67632 130
51.69644 100
51.71655 130
51.73667 116
51.75678 139
51.77689 103
51.79701 109
51.81712 110
51.83723 120
51.85735 134
51.87746 135
51.89757 118
51.91769 106
51.9378 111
51.95792 121
51.97803 121
51.99814 118
52.01826 102
52.03837 125
52.05848 108
52.0786 112
52.09871 121
52.11883 118
52.13894 116
52.15905 108
52.17917 98
52.19928 129
52.21939 117
52.23951 134
52.25962 119
52.27974 124
52.29985 134
52.31996 95
52.34008 127
52.36019 122
52.3803 112
52.40042 122
52.42053 99
52.44064 112
52.46076 122
52.48087 139
52.50099 117
52.5211 107
52.54121 109
52.56133 117
52.58144 108
52.60155 121
52.62167 101
52.64178 116
52.6619 140
52.68201 100
52.70212 123
52.72224 118
52.74235 120
52.76246 98
52.78258 117
52.80269 117
52.8228 122
52.84292 104
52.86303 127
52.88315 117
52.90326 100
52.92337 119
52.94349 98
52.9636 118
52.98371 130
53.00383 104
53.02394 127
53.04406 98
53.06417 125
53.08428 114
53.1044 112
53.12451 130
53.14462 110
53.16474 132
53.18485 122
53.20497 108
53.22508 116
53.24519 117
53.26531 140
53.28542 119
53.30553 139
53.32565 113
53.34576 123
53.36587 116
53.38599 94
53.4061 129
53.42622 120
53.44633 146
53.46644 113
53.48656 135
53.50667 115
53.52678 115
53.5469 151
53.56701 112
53.58713 119
53.60724 138
53.62735 133
53.64747 115
53.66758 131
53.68769 115
53.70781 135
53.72792 123
53.74804 128
53.76815 128
53.78826 110
53.80838 120
53.82849 126
53.8486 114
53.86872 133
53.88883 146
53.90894 115
53.92906 114
53.94917 139
53.96929 156
53.9894 131
54.00951 117
54.02963 119
54.04974 134
54.06985 146
54.08997 121
54.11008 139
54.1302 125
54.15031 150
54.17042 127
54.19054 132
54.21065 147
54.23076 144
54.25088 132
54.27099 156
54.29111 146
54.31122 155
54.33133 132
54.35145 162
54.37156 129
54.39167 180
54.41179 190
54.4319 159
54.45201 177
54.47213 173
54.49224 168
54.51236 213
54.53247 232
54.55258 251
54.5727 289
54.59281 272
54.61292 291
54.63304 345
54.65315 421
54.67327 442
54.69338 523
54.71349 594
54.73361 673
54.75372 857
54.77383 1001
54.79395 1104
54.81406 1147
54.83417 1092
54.85429 976
54.8744 908
54.89452 782
54.91463 758
54.93474 688
54.95486 690
54.97497 645
54.99508 577
55.0152 561
55.03531 457
55.05543 363
55.07554 322
55.09565 343
55.11577 307
55.13588 302
55.15599 347
55.17611 397
55.19622 431
55.21634 479
55.23645 539
55.25656 587
55.27668 566
55.29679 517
55.3169 491
55.33702 451
55.35713 371
55.37724 357
55.39736 346
55.41747 321
55.43759 310
55.4577 310
55.47781 278
55.49793 248
55.51804 167
55.53815 176
55.55827 159
55.57838 154
55.5985 168
55.61861 129
55.63872 135
55.65884 157
55.67895 142
55.69906 128
55.71918 129
55.73929 141
55.75941 135
55.77952 129
55.79963 137
55.81975 138
55.83986 142
55.85997 144
55.88009 103
55.9002 128
55.92031 113
55.94043 112
55.96054 121
55.98066 123
56.00077 121
56.02088 119
56.041 135
56.06111 111
56.08122 133
56.10134 104
56.12145 126
56.14157 123
56.16168 121
56.18179 115
56.20191 114
56.22202 96
56.24213 124
56.26225 134
56.28236 128
56.30248 124
56.32259 115
56.3427 131
56.36282 132
56.38293 133
56.40304 132
56.42316 125
56.44327 115
56.46338 117
56.4835 150
56.50361 111
56.52373 135
56.54384 117
56.56395 124
56.58407 127
56.60418 123
56.62429 133
56.64441 113
56.66452 136
56.68464 115
56.70475 131
56.72486 115
56.74498 121
56.76509 109
56.7852 133
56.80532 125
56.82543 106
56.84554 135
56.86566 145
56.88577 105
56.90589 115
56.926 119
56.94611 108
56.96623 125
56.98634 139
57.00645 137
57.02657 128
57.04668 158
57.0668 139
57.08691 139
57.10702 160
57.12714 154
57.14725 142
57.16736 180
57.18748 186
57.20759 165
57.22771 168
57.24782 152
57.26793 164
57.28805 146
57.30816 147
57.32827 132
57.34839 146
57.3685 148
57.38861 148
57.40873 112
57.42884 118
57.44896 112
57.46907 119
57.48918 133
57.5093 122
57.52941 146
57.54952 112
57.56964 118
57.58975 125
57.60987 102
57.62998 134
57.65009 118
57.67021 104
57.69032 106
57.71043 98
57.73055 128
57.75066 124
57.77078 117
57.79089 120
57.811 144
57.83112 131
57.85123 130
57.87134 125
57.89146 113
57.91157 117
57.93168 126
57.9518 128
57.97191 127
57.99203 124
58.01214 147
58.03225 130
58.05237 133
58.07248 117
58.09259 115
58.11271 129
58.13282 119
58.15294 106
58.17305 103
58.19316 127
58.21328 120
58.23339 118
58.2535 124
58.27362 123
58.29373 93
58.31385 122
58.33396 140
58.35407 121
58.37419 100
58.3943 111
58.41441 114
58.43453 118
58.45464 107
58.47475 121
58.49487 118
58.51498 122
58.5351 133
58.55521 117
58.57532 145
58.59544 122
58.61555 123
58.63566 124
58.65578 120
58.67589 124
58.69601 116
58.71612 115
58.73623 118
58.75635 140
58.77646 121
58.79657 129
58.81669 139
58.8368 120
58.85691 110
58.87703 133
58.89714 110
58.91726 116
58.93737 124
58.95748 147
58.9776 119
58.99771 137
59.01782 139
59.03794 128
59.05805 148
59.07817 125
59.09828 131
59.11839 120
59.13851 125
59.15862 153
59.17873 128
59.19885 130
59.21896 145
59.23908 115
59.25919 152
59.2793 142
59.29942 157
59.31953 158
59.33964 159
59.35976 176
59.37987 146
59.39998 171
59.4201 172
59.44021 158
59.46033 203
59.48044 230
59.50055 221
59.52067 247
59.54078 259
59.56089 273
59.58101 294
59.60112 331
59.62124 338
59.64135 426
59.66146 452
59.68158 513
59.70169 535
59.7218 677
59.74192 763
59.76203 933
59.78215 1114
59.80226 1356
59.82237 1557
59.84249 1809
59.8626 2025
59.88271 2245
59.90283 2214
59.92294 2208
59.94305 2010
59.96317 1669
59.98328 1489
60.0034 1261
60.02351 1239
60.04362 1175
60.06374 1191
60.08385 1047
60.10396 985
60.12408 754
60.14419 569
60.16431 438
60.18442 319
60.20453 328
60.22465 262
60.24476 234
60.26487 209
60.28499 213
60.3051 202
60.32522 178
60.34533 164
60.36544 155
60.38556 160
60.40567 172
60.42578 170
60.4459 159
60.46601 145
60.48612 139
60.50624 144
60.52635 141
60.54647 133
60.56658 125
60.58669 132
60.60681 132
60.62692 132
60.64703 126
60.66715 124
60.68726 128
60.70738 106
60.72749 148
60.7476 127
60.76772 124
60.78783 129
60.80794 136
60.82806 129
60.84817 126
60.86828 140
60.8884 115
60.90851 126
60.92863 142
60.94874 129
60.96885 154
60.98897 104
61.00908 124
61.02919 116
61.04931 147
61.06942 118
61.08954 106
61.10965 124
61.12976 115
61.14988 134
61.16999 99
61.1901 114
61.21022 91
61.23033 105
61.25045 128
61.27056 133
61.29067 126
61.31079 124
61.3309 108
61.35101 124
61.37113 103
61.39124 133
61.41135 124
61.43147 118
61.45158 112
61.4717 132
61.49181 103
61.51192 113
61.53204 109
61.55215 112
61.57226 86
61.59238 127
61.61249 113
61.63261 116
61.65272 126
61.67283 128
61.69295 132
61.71306 109
61.73317 124
61.75329 124
61.7734 113
61.79352 98
61.81363 122
61.83374 113
61.85386 123
61.87397 112
61.89408 94
61.9142 118
61.93431 134
61.95442 116
61.97454 152
61.99465 124
62.01477 143
62.03488 117
62.05499 138
62.07511 114
62.09522 127
62.11533 141
62.13545 139
62.15556 138
62.17568 121
62.19579 132
62.2159 146
62.23602 128
62.25613 129
62.27624 156
62.29636 127
62.31647 137
62.33659 124
62.3567 145
62.37681 142
62.39693 134
62.41704 136
62.43715 130
62.45727 137
62.47738 103
62.49749 111
62.51761 135
62.53772 139
62.55784 134
62.57795 119
62.59806 112
62.61818 118
62.63829 102
62.6584 131
62.67852 100
62.69863 109
62.71875 115
62.73886 111
62.75897 98
62.77909 104
62.7992 120
62.81931 104
62.83943 107
62.85954 123
62.87965 105
62.89977 106
62.91988 104
62.94 119
62.96011 112
62.98022 113
63.00034 107
63.02045 103
63.04056 119
63.06068 122
63.08079 111
63.10091 121
63.12102 98
63.14113 126
63.16125 119
63.18136 107
63.20147 111
63.22159 104
63.2417 115
63.26182 125
63.28193 121
63.30204 113
63.32216 123
63.34227 140
63.36238 126
63.3825 113
63.40261 131
63.42272 130
63.44284 120
63.46295 119
63.48307 122
63.50318 141
63.52329 128
63.54341 133
63.56352 140
63.58363 126
63.60375 123
63.62386 132
63.64398 139
63.66409 164
63.6842 185
63.70432 160
63.72443 163
63.74454 180
63.76466 175
63.78477 220
63.80489 205
63.825 235
63.84511 298
63.86523 302
63.88534 327
63.90545 382
63.92557 412
63.94568 464
63.96579 440
63.98591 454
64.00602 449
64.02614 404
64.04625 363
64.06636 294
64.08648 326
64.10659 286
64.1267 310
64.14682 277
64.16693 288
64.18705 256
64.20716 236
64.22727 194
64.24739 176
64.2675 140
64.28761 128
64.30773 130
64.32784 123
64.34796 103
64.36807 127
64.38818 126
64.4083 114
64.42841 126
64.44852 107
64.46864 102
64.48875 91
64.50886 107
64.52898 113
64.54909 97
64.56921 101
64.58932 128
64.60943 88
64.62955 123
64.64966 123
64.66977 111
64.68989 115
64.71 113
64.73012 105
64.75023 100
64.77034 92
64.79046 108
64.81057 87
64.83068 117
64.8508 90
64.87091 102
64.89102 103
64.91114 102
64.93125 104
64.95137 108
64.97148 109
64.99159 126
65.01171 134
65.03182 89
65.05193 131
65.07205 111
65.09216 128
65.11228 117
65.13239 111
65.1525 84
65.17262 119
65.19273 115
65.21284 131
65.23296 101
65.25307 120
65.27319 129
65.2933 120
65.31341 127
65.33353 138
65.35364 111
65.37375 106
65.39387 120
65.41398 114
65.43409 131
65.45421 145
65.47432 121
65.49444 127
65.51455 143
65.53466 142
65.55478 133
65.57489 162
65.595 136
65.61512 176
65.63523 163
65.65535 203
65.67546 180
65.69557 202
65.71569 200
65.7358 187
65.75591 193
65.77603 175
65.79614 153
65.81626 176
65.83637 166
65.85648 162
65.8766 154
65.89671 158
65.91682 164
65.93694 171
65.95705 145
65.97716 159
65.99728 136
66.01739 127
66.03751 114
66.05762 122
66.07773 119
66.09785 133
66.11796 136
66.13807 125
66.15819 131
66.1783 125
66.19842 126
66.21853 129
66.23864 107
66.25876 103
66.27887 101
66.29898 111
66.3191 120
66.33921 119
66.35933 122
66.37944 116
66.39955 119
66.41967 104
66.43978 135
66.45989 127
66.48001 110
66.50012 129
66.52023 128
66.54035 123
66.56046 124
66.58058 124
66.60069 127
66.6208 133
66.64092 129
66.66103 109
66.68114 116
66.70126 125
66.72137 116
66.74149 132
66.7616 116
66.78171 124
66.80183 123
66.82194 148
66.84205 131
66.86217 126
66.88228 123
66.90239 140
66.92251 128
66.94262 129
66.96274 127
66.98285 146
67.00296 139
67.02308 161
67.04319 143
67.0633 160
67.08342 171
67.10353 159
67.12365 182
67.14376 167
67.16387 159
67.18399 168
67.2041 173
67.22421 177
67.24433 188
67.26444 187
67.28456 202
67.30467 198
67.32478 247
67.3449 210
67.36501 245
67.38512 245
67.40524 275
67.42535 301
67.44546 352
67.46558 366
67.48569 413
67.50581 487
67.52592 573
67.54603 631
67.56615 734
67.58626 889
67.60637 1058
67.62649 1094
67.6466 1127
67.66672 1262
67.68683 1272
67.70694 1319
67.72706 1185
67.74717 1032
67.76728 953
67.7874 887
67.80751 894
67.82763 944
67.84774 928
67.86785 970
67.88797 1027
67.90808 1080
67.92819 1043
67.94831 1128
67.96842 1110
67.98853 1221
68.00865 1341
68.02876 1466
68.04888 1663
68.06899 1708
68.0891 1828
68.10922 1807
68.12933 1764
68.14944 1614
68.16956 1502
68.18967 1481
68.20979 1547
68.2299 1565
68.25001 1545
68.27013 1543
68.29024 1518
68.31035 1313
68.33047 1121
68.35058 912
68.3707 827
68.39081 709
68.41092 668
68.43104 622
68.45115 555
68.47126 557
68.49138 471
68.51149 416
68.5316 349
68.55172 266
68.57183 242
68.59195 217
68.61206 180
68.63217 173
68.65229 185
68.6724 140
68.69251 160
68.71263 176
68.73274 160
68.75286 168
68.77297 154
68.79308 159
68.8132 124
68.83331 137
68.85342 134
68.87354 124
68.89365 121
68.91376 127
68.93388 147
68.95399 138
68.97411 122
68.99422 141
69.01433 118
69.03445 127
69.05456 114
69.07467 116
69.09479 116
69.1149 121
69.13502 139
69.15513 116
69.17524 107
69.19536 129
69.21547 110
69.23558 107
69.2557 105
69.27581 124
69.29593 106
69.31604 133
69.33615 121
69.35627 123
69.37638 97
69.39649 115
69.41661 121
69.43672 114
69.45683 115
69.47695 90
69.49706 94
69.51718 99
69.53729 93
69.5574 129
69.57752 113
69.59763 115
69.61774 112
69.63786 123
69.65797 109
69.67809 109
69.6982 109
69.71831 113
69.73843 121
69.75854 108
69.77865 93
69.79877 104
69.81888 127
69.839 108
69.85911 120
69.87922 104
69.89934 84
69.91945 97
69.93956 113
69.95968 109
69.97979 95
69.9999 102
70.02002 108
70.04013 118
70.06025 117
70.08036 103
70.10047 120
70.12059 118
70.1407 110
70.16081 92
70.18093 113
70.20104 110
70.22116 101
70.24127 102
70.26138 106
70.2815 113
70.30161 113
70.32172 89
70.34184 112
70.36195 114
70.38207 95
70.40218 92
70.42229 108
70.44241 103
70.46252 99
70.48263 104
70.50275 104
70.52286 107
70.54297 115
70.56309 111
70.5832 110
70.60332 112
70.62343 95
70.64354 82
70.66366 107
70.68377 100
70.70388 112
70.724 103
70.74411 103
70.76423 108
70.78434 103
70.80445 110
70.82457 101
70.84468 96
70.86479 109
70.88491 121
70.90502 92
70.92513 108
70.94525 87
70.96536 104
70.98548 132
71.00559 121
71.0257 106
71.04582 102
71.06593 95
71.08604 105
71.10616 91
71.12627 116
71.14639 104
71.1665 91
71.18661 111
71.20673 110
71.22684 99
71.24695 115
71.26707 103
71.28718 111
71.3073 98
71.32741 100
71.34752 108
71.36764 111
71.38775 96
71.40786 97
71.42798 97
71.44809 101
71.4682 99
71.48832 119
71.50843 97
71.52855 117
71.54866 105
71.56877 98
71.58889 115
71.609 111
71.62911 97
71.64923 100
71.66934 87
71.68946 112
71.70957 106
71.72968 97
71.7498 90
71.76991 114
71.79002 98
71.81014 97
71.83025 92
71.85037 104
71.87048 109
71.89059 118
71.91071 92
71.93082 98
71.95093 108
71.97105 103
71.99116 97
72.01127 101
72.03139 102
72.0515 121
72.07162 112
72.09173 96
72.11184 116
72.13196 88
72.15207 113
72.17218 117
72.1923 93
72.21241 99
72.23253 92
72.25264 97
72.27275 95
72.29287 101
72.31298 99
72.33309 103
72.35321 101
72.37332 89
72.39344 86
72.41355 106
72.43366 113
72.45378 100
72.47389 97
72.494 93
72.51412 102
72.53423 123
72.55434 119
72.57446 102
72.59457 109
72.61469 101
72.6348 108
72.65491 110
72.67503 107
72.69514 100
72.71525 99
72.73537 100
72.75548 101
72.7756 101
72.79571 104
72.81582 112
72.83594 114
72.85605 120
72.87616 114
72.89628 117
72.91639 130
72.9365 108
72.95662 127
72.97673 128
72.99685 132
73.01696 124
73.03707 167
73.05719 148
73.0773 165
73.09741 136
73.11753 171
73.13764 161
73.15776 150
73.17787 185
73.19798 165
73.2181 223
73.23821 222
73.25832 265
73.27844 291
73.29855 345
73.31867 385
73.33878 419
73.35889 463
73.37901 447
73.39912 483
73.41923 493
73.43935 475
73.45946 425
73.47957 362
73.49969 309
73.5198 293
73.53992 289
73.56003 299
73.58014 300
73.60026 295
73.62037 298
73.64048 294
73.6606 266
73.68071 210
73.70083 188
73.72094 179
73.74105 163
73.76117 142
73.78128 143
73.80139 105
73.82151 122
73.84162 124
73.86174 92
73.88185 119
73.90196 117
73.92208 114
73.94219 130
73.9623 104
73.98242 98
74.00253 102
74.02264 104
74.04276 109
74.06287 108
74.08299 116
74.1031 93
74.12321 83
74.14333 91
74.16344 90
74.18355 94
74.20367 115
74.22378 98
74.2439 121
74.26401 84
74.28412 113
74.30424 106
74.32435 133
74.34446 103
74.36458 112
74.38469 115
74.40481 95
74.42492 107
74.44503 100
74.46515 112
74.48526 116
74.50537 101
74.52549 101
74.5456 103
74.56571 109
74.58583 114
74.60594 110
74.62606 103
74.64617 103
74.66628 101
74.6864 95
74.70651 115
74.72662 98
74.74674 99
74.76685 111
74.78697 110
74.80708 105
74.82719 109
74.84731 95
74.86742 106
74.88753 107
74.90765 96
74.92776 104
74.94787 109
74.96799 115
74.9881 114
75.00822 100
