3.00117 20867
3.02128 20893
3.0414 20101
3.06151 19842
3.08162 18883
3.10174 18357
3.12185 18090
3.14197 17432
3.16208 17087
3.18219 16704
3.20231 15963
3.22242 15668
3.24253 15043
3.26265 14639
3.28276 14429
3.30288 13615
3.32299 13833
3.3431 13036
3.36322 12549
3.38333 12251
3.40344 11860
3.42356 11686
3.44367 11051
3.46379 10842
3.4839 10205
3.50401 10062
3.52413 9723
3.54424 9168
3.56435 8962
3.58447 8754
3.60458 8378
3.62469 8044
3.64481 7585
3.66492 7596
3.68504 7285
3.70515 6901
3.72526 6821
3.74538 6374
3.76549 6009
3.7856 5984
3.80572 5680
3.82583 5593
3.84595 5116
3.86606 5123
3.88617 4841
3.90629 4793
3.9264 4665
3.94651 4200
3.96663 4059
3.98674 3980
4.00686 3755
4.02697 3645
4.04708 3252
4.0672 3345
4.08731 3321
4.10742 3165
4.12754 2999
4.14765 2737
4.16776 2758
4.18788 2639
4.20799 2441
4.22811 2468
4.24822 2319
4.26833 2322
4.28845 2279
4.30856 2225
4.32867 2058
4.34879 1951
4.3689 1928
4.38902 2047
4.40913 1867
4.42924 1909
4.44936 1735
4.46947 1763
4.48958 1682
4.5097 1728
4.52981 1710
4.54992 1516
4.57004 1549
4.59015 1501
4.61027 1489
4.63038 1554
4.65049 1439
4.67061 1424
4.69072 1434
4.71083 1360
4.73095 1355
4.75106 1291
4.77118 1293
4.79129 1352
4.8114 1279
4.83152 1247
4.85163 1143
4.87174 1128
4.89186 1163
4.91197 1176
4.93209 1086
4.9522 1132
4.97231 1016
4.99243 1077
5.01254 1027
5.03265 1065
5.05277 1027
5.07288 1021
5.09299 984
5.11311 960
5.13322 924
5.15334 897
5.17345 905
5.19356 910
5.21368 886
5.23379 881
5.2539 875
5.27402 844
5.29413 847
5.31425 865
5.33436 802
5.35447 851
5.37459 797
5.3947 781
5.41481 744
5.43493 727
5.45504 711
5.47516 715
5.49527 731
5.51538 750
5.5355 709
5.55561 722
5.57572 708
5.59584 600
5.61595 649
5.63606 628
5.65618 644
5.67629 656
5.69641 637
5.71652 641
5.73663 576
5.75675 606
5.77686 618
5.79697 574
5.81709 614
5.8372 602
5.85732 575
5.87743 577
5.89754 548
5.91766 586
5.93777 531
5.95788 546
5.978 556
5.99811 554
6.01823 560
6.03834 604
6.05845 569
6.07857 562
6.09868 538
6.11879 542
6.13891 498
6.15902 519
6.17913 535
6.19925 546
6.21936 550
6.23948 510
6.25959 544
6.2797 541
6.29982 485
6.31993 487
6.34004 548
6.36016 526
6.38027 515
6.40039 502
6.4205 465
6.44061 491
6.46073 520
6.48084 507
6.50095 485
6.52107 464
6.54118 509
6.56129 489
6.58141 450
6.60152 513
6.62164 523
6.64175 508
6.66186 467
6.68198 466
6.70209 503
6.7222 523
6.74232 483
6.76243 503
6.78255 463
6.80266 463
6.82277 471
6.84289 473
6.863 540
6.88311 477
6.90323 498
6.92334 527
6.94346 459
6.96357 467
6.98368 468
7.0038 475
7.02391 507
7.04402 492
7.06414 468
7.08425 554
7.10436 520
7.12448 458
7.14459 459
7.16471 471
7.18482 480
7.20493 472
7.22505 454
7.24516 490
7.26527 495
7.28539 466
7.3055 437
7.32562 481
7.34573 488
7.36584 471
7.38596 457
7.40607 493
7.42618 505
7.4463 513
7.46641 477
7.48653 431
7.50664 500
7.52675 487
7.54687 502
7.56698 466
7.58709 496
7.60721 499
7.62732 495
7.64743 494
7.66755 519
7.68766 483
7.70778 474
7.72789 472
7.748 464
7.76812 485
7.78823 455
7.80834 477
7.82846 465
7.84857 467
7.86869 477
7.8888 484
7.90891 492
7.92903 469
7.94914 488
7.96925 502
7.98937 460
8.00948 478
8.0296 441
8.04971 521
8.06982 472
8.08994 420
8.11005 498
8.13016 457
8.15028 491
8.17039 460
8.1905 494
8.21062 482
8.23073 469
8.25085 488
8.27096 460
8.29107 471
8.31119 472
8.3313 494
8.35141 498
8.37153 472
8.39164 510
8.41176 444
8.43187 484
8.45198 457
8.4721 483
8.49221 467
8.51232 458
8.53244 459
8.55255 459
8.57266 472
8.59278 517
8.61289 495
8.63301 515
8.65312 463
8.67323 456
8.69335 452
8.71346 509
8.73357 480
8.75369 485
8.7738 481
8.79392 500
8.81403 501
8.83414 454
8.85426 508
8.87437 521
8.89448 441
8.9146 488
8.93471 488
8.95483 496
8.97494 456
8.99505 443
9.01517 504
9.03528 515
9.05539 461
9.07551 401
9.09562 463
9.11573 461
9.13585 453
9.15596 474
9.17608 447
9.19619 483
9.2163 448
9.23642 532
9.25653 474
9.27664 501
9.29676 459
9.31687 486
9.33699 454
9.3571 466
9.37721 456
9.39733 531
9.41744 420
9.43755 440
9.45767 507
9.47778 472
9.4979 489
9.51801 504
9.53812 442
9.55824 508
9.57835 441
9.59846 487
9.61858 451
9.63869 458
9.6588 474
9.67892 443
9.69903 487
9.71915 482
9.73926 505
9.75937 504
9.77949 467
9.7996 470
9.81971 461
9.83983 491
9.85994 485
9.88006 478
9.90017 481
9.92028 456
9.9404 453
9.96051 434
9.98062 470
10.00074 440
10.02085 446
10.04097 478
10.06108 471
10.08119 448
10.10131 453
10.12142 473
10.14153 480
10.16165 480
10.18176 430
10.20187 470
10.22199 467
10.2421 462
10.26222 470
10.28233 438
10.30244 481
10.32256 467
10.34267 527
10.36278 462
10.3829 415
10.40301 474
10.42313 458
10.44324 475
10.46335 471
10.48347 491
10.50358 493
10.52369 418
10.54381 481
10.56392 504
10.58403 482
10.60415 524
10.62426 463
10.64438 510
10.66449 451
10.6846 436
10.70472 517
10.72483 447
10.74494 488
10.76506 449
10.78517 502
10.80529 475
10.8254 493
10.84551 478
10.86563 471
10.88574 499
10.90585 474
10.92597 481
10.94608 499
10.9662 518
10.98631 456
11.00642 531
11.02654 514
11.04665 517
11.06676 528
11.08688 500
11.10699 485
11.1271 488
11.14722 521
11.16733 533
11.18745 546
11.20756 509
11.22767 498
11.24779 478
11.2679 489
11.28801 482
11.30813 515
11.32824 491
11.34836 526
11.36847 504
11.38858 510
11.4087 546
11.42881 506
11.44892 528
11.46904 547
11.48915 560
11.50927 518
11.52938 522
11.54949 518
11.56961 504
11.58972 567
11.60983 558
11.62995 564
11.65006 571
11.67017 552
11.69029 530
11.7104 600
11.73052 524
11.75063 626
11.77074 613
11.79086 611
11.81097 653
11.83108 670
11.8512 678
11.87131 636
11.89143 738
11.91154 716
11.93165 783
11.95177 714
11.97188 803
11.99199 739
12.01211 811
12.03222 870
12.05234 918
12.07245 896
12.09256 973
12.11268 1053
12.13279 1091
12.1529 1149
12.17302 1243
12.19313 1263
12.21324 1329
12.23336 1346
12.25347 1395
12.27359 1368
12.2937 1333
12.31381 1363
12.33393 1295
12.35404 1181
12.37415 1256
12.39427 1188
12.41438 1105
12.4345 1051
12.45461 1013
12.47472 884
12.49484 857
12.51495 877
12.53506 806
12.55518 781
12.57529 729
12.5954 671
12.61552 732
12.63563 717
12.65575 672
12.67586 615
12.69597 599
12.71609 593
12.7362 554
12.75631 581
12.77643 529
12.79654 583
12.81666 476
12.83677 575
12.85688 522
12.877 549
12.89711 503
12.91722 511
12.93734 519
12.95745 465
12.97757 464
12.99768 479
13.01779 474
13.03791 482
13.05802 496
13.07813 462
13.09825 451
13.11836 450
13.13847 436
13.15859 502
13.1787 460
13.19882 493
13.21893 446
13.23904 515
13.25916 486
13.27927 485
13.29938 445
13.3195 400
13.33961 421
13.35973 441
13.37984 454
13.39995 427
13.42007 466
13.44018 470
13.46029 427
13.48041 430
13.50052 488
13.52064 469
13.54075 454
13.56086 463
13.58098 473
13.60109 422
13.6212 418
13.64132 428
13.66143 440
13.68154 471
13.70166 450
13.72177 440
13.74189 404
13.762 423
13.78211 408
13.80223 462
13.82234 427
13.84245 424
13.86257 424
13.88268 447
13.9028 427
13.92291 429
13.94302 447
13.96314 445
13.98325 451
14.00336 409
14.02348 388
14.04359 413
14.06371 443
14.08382 429
14.10393 413
14.12405 395
14.14416 442
14.16427 412
14.18439 463
14.2045 446
14.22461 484
14.24473 449
14.26484 419
14.28496 443
14.30507 399
14.32518 444
14.3453 392
14.36541 448
14.38552 391
14.40564 481
14.42575 433
14.44587 443
14.46598 470
14.48609 413
14.50621 419
14.52632 434
14.54643 424
14.56655 384
14.58666 400
14.60677 414
14.62689 464
14.647 438
14.66712 415
14.68723 404
14.70734 425
14.72746 440
14.74757 428
14.76768 430
14.7878 431
14.80791 447
14.82803 402
14.84814 431
14.86825 403
14.88837 394
14.90848 414
14.92859 477
14.94871 409
14.96882 426
14.98894 455
15.00905 409
15.02916 441
15.04928 454
15.06939 435
15.0895 413
15.10962 437
15.12973 405
15.14984 461
15.16996 443
15.19007 403
15.21019 419
15.2303 405
15.25041 423
15.27053 425
15.29064 487
15.31075 402
15.33087 461
15.35098 424
15.3711 439
15.39121 432
15.41132 447
15.43144 408
15.45155 416
15.47166 437
15.49178 409
15.51189 422
15.53201 420
15.55212 439
15.57223 436
15.59235 415
15.61246 386
15.63257 428
15.65269 413
15.6728 403
15.69291 395
15.71303 425
15.73314 387
15.75326 439
15.77337 404
15.79348 425
15.8136 406
15.83371 445
15.85382 412
15.87394 456
15.89405 378
15.91417 438
15.93428 423
15.95439 431
15.97451 432
15.99462 446
16.01473 442
16.03485 402
16.05496 433
16.07508 465
16.09519 451
16.1153 421
16.13542 410
16.15553 422
16.17564 407
16.19576 395
16.21587 408
16.23598 430
16.2561 408
16.27621 404
16.29633 388
16.31644 398
16.33655 425
16.35667 421
16.37678 456
16.39689 437
16.41701 373
16.43712 422
16.45724 405
16.47735 437
16.49746 422
16.51758 396
16.53769 412
16.5578 389
16.57792 428
16.59803 413
16.61814 424
16.63826 375
16.65837 399
16.67849 398
16.6986 470
16.71871 434
16.73883 436
16.75894 445
16.77905 434
16.79917 405
16.81928 394
16.8394 414
16.85951 426
16.87962 440
16.89974 455
16.91985 397
16.93996 440
16.96008 403
16.98019 391
17.00031 422
17.02042 389
17.04053 442
17.06065 422
17.08076 430
17.10087 417
17.12099 422
17.1411 469
17.16121 445
17.18133 427
17.20144 440
17.22156 433
17.24167 370
17.26178 394
17.2819 412
17.30201 387
17.32212 424
17.34224 383
17.36235 434
17.38247 408
17.40258 378
17.42269 425
17.44281 449
17.46292 400
17.48303 464
17.50315 435
17.52326 406
17.54338 436
17.56349 410
17.5836 374
17.60372 444
17.62383 452
17.64394 435
17.66406 453
17.68417 454
17.70428 433
17.7244 433
17.74451 411
17.76463 457
17.78474 420
17.80485 448
17.82497 409
17.84508 433
17.86519 443
17.88531 430
17.90542 413
17.92554 439
17.94565 457
17.96576 478
17.98588 463
18.00599 452
18.0261 443
18.04622 438
18.06633 466
18.08645 460
18.10656 474
18.12667 505
18.14679 488
18.1669 487
18.18701 542
18.20713 582
18.22724 576
18.24735 590
18.26747 608
18.28758 570
18.3077 571
18.32781 574
18.34792 523
18.36804 508
18.38815 460
18.40826 475
18.42838 496
18.44849 433
18.46861 431
18.48872 449
18.50883 454
18.52895 465
18.54906 443
18.56917 432
18.58929 467
18.6094 443
18.62951 452
18.64963 441
18.66974 442
18.68986 452
18.70997 438
18.73008 463
18.7502 490
18.77031 458
18.79042 440
18.81054 465
18.83065 462
18.85077 464
18.87088 432
18.89099 447
18.91111 448
18.93122 454
18.95133 406
18.97145 462
18.99156 434
19.01168 387
19.03179 400
19.0519 434
19.07202 404
19.09213 444
19.11224 454
19.13236 440
19.15247 421
19.17258 457
19.1927 432
19.21281 482
19.23293 462
19.25304 469
19.27315 423
19.29327 499
19.31338 459
19.33349 458
19.35361 491
19.37372 464
19.39384 522
19.41395 498
19.43406 463
19.45418 496
19.47429 510
19.4944 510
19.51452 519
19.53463 504
19.55475 532
19.57486 540
19.59497 561
19.61509 567
19.6352 620
19.65531 666
19.67543 676
19.69554 710
19.71565 789
19.73577 859
19.75588 880
19.776 901
19.79611 906
19.81622 1046
19.83634 989
19.85645 1040
19.87656 1089
19.89668 1050
19.91679 1062
19.93691 1054
19.95702 974
19.97713 961
19.99725 1037
20.01736 931
20.03747 1012
20.05759 905
20.0777 967
20.09782 924
20.11793 842
20.13804 956
20.15816 953
20.17827 918
20.19838 978
20.2185 933
20.23861 990
20.25872 982
20.27884 1021
20.29895 979
20.31907 1013
20.33918 956
20.35929 1015
20.37941 934
20.39952 984
20.41963 1000
20.43975 1012
20.45986 955
20.47998 960
20.50009 999
20.5202 993
20.54032 991
20.56043 979
20.58054 1030
20.60066 1025
20.62077 1073
20.64088 1091
20.661 1149
20.68111 1238
20.70123 1347
20.72134 1430
20.74145 1671
20.76157 1859
20.78168 2042
20.80179 2118
20.82191 2031
20.84202 1903
20.86214 1777
20.88225 1565
20.90236 1268
20.92248 1199
20.94259 1073
20.9627 915
20.98282 959
21.00293 982
21.02305 938
21.04316 955
21.06327 962
21.08339 901
21.1035 964
21.12361 912
21.14373 898
21.16384 908
21.18395 939
21.20407 906
21.22418 909
21.2443 971
21.26441 867
21.28452 907
21.30464 848
21.32475 897
21.34486 877
21.36498 922
21.38509 897
21.40521 950
21.42532 873
21.44543 899
21.46555 851
21.48566 808
21.50577 810
21.52589 807
21.546 764
21.56612 708
21.58623 783
21.60634 788
21.62646 806
21.64657 712
21.66668 772
21.6868 784
21.70691 736
21.72702 741
21.74714 707
21.76725 715
21.78737 746
21.80748 711
21.82759 727
21.84771 702
21.86782 699
21.88793 728
21.90805 721
21.92816 720
21.94828 723
21.96839 728
21.9885 635
22.00862 717
22.02873 698
22.04884 697
22.06896 684
22.08907 679
22.10919 657
22.1293 679
22.14941 670
22.16953 678
22.18964 672
22.20975 702
22.22987 651
22.24998 663
22.27009 694
22.29021 649
22.31032 634
22.33044 663
22.35055 614
22.37066 606
22.39078 642
22.41089 631
22.431 653
22.45112 672
22.47123 653
22.49135 633
22.51146 662
22.53157 597
22.55169 620
22.5718 647
22.59191 628
22.61203 644
22.63214 594
22.65225 587
22.67237 626
22.69248 606
22.7126 606
22.73271 632
22.75282 611
22.77294 620
22.79305 642
22.81316 634
22.83328 621
22.85339 609
22.87351 621
22.89362 631
22.91373 573
22.93385 581
22.95396 597
22.97407 653
22.99419 567
23.0143 569
23.03442 555
23.05453 576
23.07464 621
23.09476 592
23.11487 568
23.13498 550
23.1551 543
23.17521 569
23.19532 563
23.21544 611
23.23555 581
23.25567 568
23.27578 569
23.29589 602
23.31601 563
23.33612 567
23.35623 532
23.37635 573
23.39646 613
23.41658 563
23.43669 567
23.4568 552
23.47692 581
23.49703 583
23.51714 561
23.53726 616
23.55737 654
23.57749 619
23.5976 598
23.61771 589
23.63783 618
23.65794 621
23.67805 576
23.69817 600
23.71828 608
23.73839 656
23.75851 624
23.77862 621
23.79874 624
23.81885 663
23.83896 606
23.85908 621
23.87919 626
23.8993 674
23.91942 649
23.93953 655
23.95965 647
23.97976 643
23.99987 709
24.01999 612
24.0401 646
24.06021 630
24.08033 706
24.10044 714
24.12056 727
24.14067 721
24.16078 701
24.1809 712
24.20101 648
24.22112 718
24.24124 667
24.26135 688
24.28146 688
24.30158 677
24.32169 712
24.34181 723
24.36192 688
24.38203 697
24.40215 697
24.42226 787
24.44237 715
24.46249 711
24.4826 732
24.50272 827
24.52283 795
24.54294 856
24.56306 829
24.58317 850
24.60328 859
24.6234 940
24.64351 927
24.66362 958
24.68374 995
24.70385 1060
24.72397 1107
24.74408 1204
24.76419 1144
24.78431 1162
24.80442 1221
24.82453 1233
24.84465 1163
24.86476 1197
24.88488 1114
24.90499 1183
24.9251 1153
24.94522 1124
24.96533 1053
24.98544 1046
25.00556 1028
25.02567 1019
25.04579 944
25.0659 917
25.08601 843
25.10613 846
25.12624 876
25.14635 846
25.16647 866
25.18658 859
25.20669 778
25.22681 783
25.24692 791
25.26704 776
25.28715 750
25.30726 705
25.32738 724
25.34749 692
25.3676 656
25.38772 660
25.40783 683
25.42795 664
25.44806 674
25.46817 599
25.48829 633
25.5084 615
25.52851 598
25.54863 663
25.56874 661
25.58886 656
25.60897 609
25.62908 610
25.6492 578
25.66931 642
25.68942 595
25.70954 579
25.72965 644
25.74976 591
25.76988 659
25.78999 653
25.81011 613
25.83022 630
25.85033 626
25.87045 558
25.89056 628
25.91067 603
25.93079 552
25.9509 657
25.97102 635
25.99113 642
26.01124 650
26.03136 616
26.05147 636
26.07158 619
26.0917 669
26.11181 647
26.13193 642
26.15204 661
26.17215 654
26.19227 716
26.21238 722
26.23249 768
26.25261 726
26.27272 783
26.29283 823
26.31295 876
26.33306 970
26.35318 1009
26.37329 1154
26.3934 1314
26.41352 1585
26.43363 1863
26.45374 2329
26.47386 2942
26.49397 3621
26.51409 4467
26.5342 5533
26.55431 6249
26.57443 6578
26.59454 6597
26.61465 6249
26.63477 5189
26.65488 4326
26.67499 3377
26.69511 2530
26.71522 1910
26.73534 1404
26.75545 1187
26.77556 1006
26.79568 922
26.81579 837
26.8359 782
26.85602 769
26.87613 756
26.89625 696
26.91636 701
26.93647 714
26.95659 690
26.9767 729
26.99681 646
27.01693 644
27.03704 648
27.05716 619
27.07727 565
27.09738 620
27.1175 597
27.13761 543
27.15772 608
27.17784 579
27.19795 589
27.21806 542
27.23818 567
27.25829 568
27.27841 542
27.29852 662
27.31863 607
27.33875 599
27.35886 626
27.37897 610
27.39909 565
27.4192 539
27.43932 599
27.45943 601
27.47954 585
27.49966 542
27.51977 573
27.53988 576
27.56 573
27.58011 511
27.60023 525
27.62034 525
27.64045 512
27.66057 513
27.68068 534
27.70079 539
27.72091 509
27.74102 517
27.76113 517
27.78125 524
27.80136 564
27.82148 501
27.84159 504
27.8617 515
27.88182 541
27.90193 546
27.92204 487
27.94216 505
27.96227 572
27.98239 474
28.0025 490
28.02261 509
28.04273 496
28.06284 505
28.08295 523
28.10307 468
28.12318 517
28.1433 527
28.16341 490
28.18352 475
28.20364 511
28.22375 497
28.24386 458
28.26398 466
28.28409 513
28.3042 464
28.32432 521
28.34443 499
28.36455 496
28.38466 467
28.40477 455
28.42489 501
28.445 512
28.46511 473
28.48523 499
28.50534 468
28.52546 478
28.54557 524
28.56568 534
28.5858 462
28.60591 529
28.62602 456
28.64614 480
28.66625 497
28.68636 509
28.70648 420
28.72659 474
28.74671 472
28.76682 483
28.78693 477
28.80705 459
28.82716 486
28.84727 466
28.86739 463
28.8875 486
28.90762 446
28.92773 446
28.94784 464
28.96796 482
28.98807 512
29.00818 480
29.0283 426
29.04841 519
29.06853 445
29.08864 472
29.10875 441
29.12887 524
29.14898 489
29.16909 454
29.18921 485
29.20932 441
29.22943 458
29.24955 432
29.26966 446
29.28978 494
29.30989 488
29.33 480
29.35012 465
29.37023 474
29.39034 481
29.41046 465
29.43057 469
29.45069 428
29.4708 493
29.49091 457
29.51103 457
29.53114 476
29.55125 456
29.57137 501
29.59148 472
29.6116 476
29.63171 468
29.65182 479
29.67194 495
29.69205 482
29.71216 459
29.73228 476
29.75239 519
29.7725 461
29.79262 469
29.81273 441
29.83285 501
29.85296 507
29.87307 459
29.89319 439
29.9133 471
29.93341 415
29.95353 502
29.97364 476
29.99376 455
30.01387 435
30.03398 435
30.0541 435
30.07421 466
30.09432 477
30.11444 450
30.13455 459
30.15467 440
30.17478 402
30.19489 449
30.21501 473
30.23512 464
30.25523 505
30.27535 489
30.29546 487
30.31557 503
30.33569 452
30.3558 446
30.37592 477
30.39603 459
30.41614 499
30.43626 478
30.45637 445
30.47648 518
30.4966 428
30.51671 514
30.53683 450
30.55694 461
30.57705 462
30.59717 479
30.61728 482
30.63739 449
30.65751 411
30.67762 454
30.69773 415
30.71785 424
30.73796 429
30.75808 488
30.77819 477
30.7983 525
30.81842 474
30.83853 454
30.85864 451
30.87876 423
30.89887 479
30.91899 451
30.9391 474
30.95921 452
30.97933 471
30.99944 454
31.01955 481
31.03967 451
31.05978 446
31.0799 430
31.10001 487
31.12012 458
31.14024 410
31.16035 464
31.18046 474
31.20058 474
31.22069 445
31.2408 429
31.26092 495
31.28103 443
31.30115 430
31.32126 504
31.34137 471
31.36149 455
31.3816 477
31.40171 446
31.42183 447
31.44194 451
31.46206 468
31.48217 455
31.50228 454
31.5224 451
31.54251 482
31.56262 446
31.58274 446
31.60285 477
31.62297 433
31.64308 461
31.66319 482
31.68331 479
31.70342 431
31.72353 452
31.74365 441
31.76376 490
31.78387 455
31.80399 465
31.8241 465
31.84422 485
31.86433 482
31.88444 482
31.90456 453
31.92467 477
31.94478 440
31.9649 429
31.98501 426
32.00513 493
32.02524 495
32.04535 444
32.06547 487
32.08558 479
32.10569 480
32.12581 508
32.14592 465
32.16604 484
32.18615 492
32.20626 509
32.22638 486
32.24649 548
32.2666 522
32.28672 514
32.30683 508
32.32694 542
32.34706 513
32.36717 497
32.38729 552
32.4074 586
32.42751 590
32.44763 608
32.46774 616
32.48785 592
32.50797 601
32.52808 603
32.5482 599
32.56831 650
32.58842 585
32.60854 565
32.62865 533
32.64876 501
32.66888 547
32.68899 585
32.7091 604
32.72922 568
32.74933 558
32.76945 549
32.78956 548
32.80967 584
32.82979 605
32.8499 590
32.87001 554
32.89013 618
32.91024 618
32.93036 622
32.95047 658
32.97058 641
32.9907 698
33.01081 609
33.03092 629
33.05104 690
33.07115 664
33.09127 696
33.11138 648
33.13149 678
33.15161 672
33.17172 681
33.19183 613
33.21195 594
33.23206 636
33.25217 662
33.27229 594
33.2924 630
33.31252 619
33.33263 610
33.35274 563
33.37286 580
33.39297 573
33.41308 543
33.4332 576
33.45331 598
33.47343 566
33.49354 537
33.51365 569
33.53377 525
33.55388 542
33.57399 493
33.59411 570
33.61422 529
33.63434 509
33.65445 511
33.67456 515
33.69468 535
33.71479 519
33.7349 521
33.75502 489
33.77513 525
33.79524 451
33.81536 491
33.83547 494
33.85559 521
33.8757 467
33.89581 518
33.91593 505
33.93604 518
33.95615 496
33.97627 496
33.99638 488
34.0165 483
34.03661 461
34.05672 455
34.07684 500
34.09695 445
34.11706 501
34.13718 454
34.15729 481
34.17741 497
34.19752 499
34.21763 513
34.23775 470
34.25786 482
34.27797 483
34.29809 488
34.3182 481
34.33831 510
34.35843 480
34.37854 491
34.39866 505
34.41877 479
34.43888 495
34.459 502
34.47911 483
34.49922 516
34.51934 573
34.53945 553
34.55957 506
34.57968 565
34.59979 569
34.61991 591
34.64002 578
34.66013 631
34.68025 580
34.70036 625
34.72047 650
34.74059 728
34.7607 678
34.78082 695
34.80093 716
34.82104 732
34.84116 793
34.86127 747
34.88138 848
34.9015 790
34.92161 779
34.94173 785
34.96184 796
34.98195 753
35.00207 758
35.02218 769
35.04229 796
35.06241 751
35.08252 743
35.10264 767
35.12275 770
35.14286 748
35.16298 811
35.18309 771
35.2032 767
35.22332 730
35.24343 720
35.26354 768
35.28366 830
35.30377 780
35.32389 753
35.344 732
35.36411 821
35.38423 766
35.40434 792
35.42445 786
35.44457 754
35.46468 781
35.4848 791
35.50491 851
35.52502 811
35.54514 823
35.56525 869
35.58536 845
35.60548 935
35.62559 830
35.64571 900
35.66582 887
35.68593 913
35.70605 896
35.72616 936
35.74627 899
35.76639 889
35.7865 909
35.80661 927
35.82673 864
35.84684 889
35.86696 868
35.88707 855
35.90718 831
35.9273 820
35.94741 746
35.96752 799
35.98764 755
36.00775 768
36.02787 725
36.04798 732
36.06809 685
36.08821 665
36.10832 674
36.12843 686
36.14855 633
36.16866 672
36.18878 620
36.20889 621
36.229 639
36.24912 615
36.26923 701
36.28934 707
36.30946 666
36.32957 711
36.34968 722
36.3698 763
36.38991 817
36.41003 906
36.43014 908
36.45025 1006
36.47037 987
36.49048 951
36.51059 974
36.53071 878
36.55082 854
36.57094 780
36.59105 789
36.61116 706
36.63128 727
36.65139 660
36.6715 597
36.69162 625
36.71173 597
36.73184 562
36.75196 593
36.77207 603
36.79219 596
36.8123 577
36.83241 574
36.85253 584
36.87264 640
36.89275 645
36.91287 648
36.93298 601
36.9531 633
36.97321 602
36.99332 625
37.01344 645
37.03355 622
37.05366 578
37.07378 588
37.09389 566
37.11401 607
37.13412 601
37.15423 608
37.17435 583
37.19446 653
37.21457 630
37.23469 626
37.2548 584
37.27491 577
37.29503 586
37.31514 604
37.33526 574
37.35537 593
37.37548 578
37.3956 617
37.41571 587
37.43582 596
37.45594 605
37.47605 603
37.49617 629
37.51628 619
37.53639 688
37.55651 606
37.57662 646
37.59673 640
37.61685 649
37.63696 630
37.65708 644
37.67719 628
37.6973 603
37.71742 616
37.73753 653
37.75764 623
37.77776 616
37.79787 612
37.81798 674
37.8381 606
37.85821 663
37.87833 649
37.89844 655
37.91855 635
37.93867 712
37.95878 701
37.97889 675
37.99901 650
38.01912 681
38.03924 729
38.05935 697
38.07946 703
38.09958 721
38.11969 755
38.1398 749
38.15992 757
38.18003 820
38.20015 749
38.22026 769
38.24037 796
38.26049 821
38.2806 853
38.30071 830
38.32083 833
38.34094 859
38.36105 818
38.38117 803
38.40128 799
38.4214 819
38.44151 824
38.46162 770
38.48174 745
38.50185 779
38.52196 723
38.54208 729
38.56219 719
38.58231 682
38.60242 725
38.62253 673
38.64265 691
38.66276 669
38.68287 695
38.70299 664
38.7231 680
38.74321 688
38.76333 667
38.78344 612
38.80356 636
38.82367 686
38.84378 672
38.8639 733
38.88401 614
38.90412 671
38.92424 673
38.94435 724
38.96447 683
38.98458 670
39.00469 624
39.02481 684
39.04492 681
39.06503 698
39.08515 728
39.10526 699
39.12538 684
39.14549 639
39.1656 691
39.18572 709
39.20583 714
39.22594 653
39.24606 724
39.26617 744
39.28628 708
39.3064 809
39.32651 823
39.34663 857
39.36674 925
39.38685 901
39.40697 913
39.42708 935
39.44719 843
39.46731 799
39.48742 733
39.50754 708
39.52765 642
39.54776 604
39.56788 579
39.58799 541
39.6081 569
39.62822 571
39.64833 526
39.66845 493
39.68856 483
39.70867 512
39.72879 539
39.7489 528
39.76901 526
39.78913 508
39.80924 547
39.82935 468
39.84947 512
39.86958 507
39.8897 493
39.90981 530
39.92992 519
39.95004 502
39.97015 516
39.99026 555
40.01038 556
40.03049 561
40.05061 524
40.07072 520
40.09083 569
40.11095 660
40.13106 605
40.15117 640
40.17129 651
40.1914 720
40.21152 756
40.23163 716
40.25174 680
40.27186 695
40.29197 654
40.31208 625
40.3322 634
40.35231 597
40.37242 581
40.39254 627
40.41265 556
40.43277 580
40.45288 534
40.47299 566
40.49311 527
40.51322 522
40.53333 516
40.55345 520
40.57356 563
40.59368 518
40.61379 523
40.6339 510
40.65402 546
40.67413 513
40.69424 562
40.71436 559
40.73447 526
40.75458 546
40.7747 543
40.79481 555
40.81493 577
40.83504 557
40.85515 510
40.87527 558
40.89538 541
40.91549 524
40.93561 527
40.95572 541
40.97584 540
40.99595 579
41.01606 563
41.03618 614
41.05629 559
41.0764 557
41.09652 543
41.11663 546
41.13675 574
41.15686 528
41.17697 535
41.19709 497
41.2172 492
41.23731 527
41.25743 527
41.27754 493
41.29765 531
41.31777 445
41.33788 519
41.358 540
41.37811 483
41.39822 534
41.41834 470
41.43845 458
41.45856 512
41.47868 503
41.49879 500
41.51891 486
41.53902 546
41.55913 480
41.57925 535
41.59936 462
41.61947 463
41.63959 489
41.6597 496
41.67982 462
41.69993 488
41.72004 505
41.74016 482
41.76027 481
41.78038 476
41.8005 452
41.82061 460
41.84072 511
41.86084 459
41.88095 493
41.90107 464
41.92118 426
41.94129 473
41.96141 456
41.98152 486
42.00163 464
42.02175 458
42.04186 428
42.06198 461
42.08209 498
42.1022 499
42.12232 501
42.14243 524
42.16254 511
42.18266 527
42.20277 503
42.22289 512
42.243 504
42.26311 541
42.28323 600
42.30334 631
42.32345 658
42.34357 701
42.36368 691
42.38379 680
42.40391 671
42.42402 672
42.44414 641
42.46425 634
42.48436 557
42.50448 538
42.52459 581
42.5447 499
42.56482 488
42.58493 454
42.60505 442
42.62516 451
42.64527 434
42.66539 389
42.6855 466
42.70561 418
42.72573 455
42.74584 486
42.76595 455
42.78607 458
42.80618 459
42.8263 461
42.84641 466
42.86652 401
42.88664 416
42.90675 438
42.92686 433
42.94698 423
42.96709 454
42.98721 416
43.00732 431
43.02743 467
43.04755 398
43.06766 445
43.08777 428
43.10789 420
43.128 422
43.14812 437
43.16823 453
43.18834 440
43.20846 439
43.22857 412
43.24868 449
43.2688 393
43.28891 420
43.30902 480
43.32914 432
43.34925 427
43.36937 420
43.38948 406
43.40959 416
43.42971 444
43.44982 451
43.46993 452
43.49005 437
43.51016 405
43.53028 463
43.55039 460
43.5705 425
43.59062 442
43.61073 443
43.63084 456
43.65096 445
43.67107 457
43.69119 456
43.7113 475
43.73141 450
43.75153 427
43.77164 486
43.79175 446
43.81187 466
43.83198 480
43.85209 472
43.87221 454
43.89232 451
43.91244 429
43.93255 431
43.95266 438
43.97278 430
43.99289 456
44.013 419
44.03312 468
44.05323 470
44.07335 466
44.09346 472
44.11357 454
44.13369 424
44.1538 434
44.17391 478
44.19403 463
44.21414 441
44.23426 397
44.25437 444
44.27448 458
44.2946 427
44.31471 450
44.33482 445
44.35494 447
44.37505 454
44.39516 392
44.41528 410
44.43539 400
44.45551 420
44.47562 418
44.49573 467
44.51585 422
44.53596 495
44.55607 467
44.57619 430
44.5963 439
44.61642 450
44.63653 465
44.65664 444
44.67676 433
44.69687 436
44.71698 471
44.7371 425
44.75721 459
44.77732 424
44.79744 454
44.81755 474
44.83767 491
44.85778 439
44.87789 487
44.89801 474
44.91812 455
44.93823 499
44.95835 470
44.97846 479
44.99858 463
45.01869 494
45.0388 488
45.05892 507
45.07903 457
45.09914 503
45.11926 481
45.13937 508
45.15949 502
45.1796 516
45.19971 523
45.21983 526
45.23994 555
45.26005 524
45.28017 546
45.30028 532
45.32039 564
45.34051 555
45.36062 514
45.38074 536
45.40085 553
45.42096 549
45.44108 564
45.46119 547
45.4813 549
45.50142 560
45.52153 545
45.54165 542
45.56176 589
45.58187 574
45.60199 586
45.6221 647
45.64221 607
45.66233 638
45.68244 626
45.70256 643
45.72267 652
45.74278 643
45.7629 687
45.78301 597
45.80312 610
45.82324 592
45.84335 520
45.86346 578
45.88358 480
45.90369 545
45.92381 546
45.94392 512
45.96403 532
45.98415 481
46.00426 481
46.02437 513
46.04449 471
46.0646 460
46.08472 471
46.10483 496
46.12494 478
46.14506 482
46.16517 471
46.18528 433
46.2054 475
46.22551 452
46.24563 524
46.26574 460
46.28585 459
46.30597 460
46.32608 469
46.34619 489
46.36631 464
46.38642 489
46.40653 501
46.42665 462
46.44676 515
46.46688 503
46.48699 482
46.5071 466
46.52722 457
46.54733 477
46.56744 467
46.58756 482
46.60767 463
46.62779 493
46.6479 473
46.66801 427
46.68813 473
46.70824 453
46.72835 503
46.74847 469
46.76858 466
46.78869 423
46.80881 472
46.82892 468
46.84904 485
46.86915 466
46.88926 455
46.90938 454
46.92949 426
46.9496 464
46.96972 485
46.98983 464
47.00995 467
47.03006 481
47.05017 486
47.07029 511
47.0904 472
47.11051 471
47.13063 475
47.15074 454
47.17086 510
47.19097 500
47.21108 470
47.2312 500
47.25131 482
47.27142 481
47.29154 451
47.31165 471
47.33176 464
47.35188 480
47.37199 453
47.39211 490
47.41222 491
47.43233 462
47.45245 479
47.47256 440
47.49267 484
47.51279 477
47.5329 491
47.55302 505
47.57313 495
47.59324 481
47.61336 479
47.63347 460
47.65358 451
47.6737 446
47.69381 511
47.71393 535
47.73404 486
47.75415 479
47.77427 490
47.79438 509
47.81449 503
47.83461 509
47.85472 504
47.87483 502
47.89495 483
47.91506 496
47.93518 482
47.95529 467
47.9754 502
47.99552 503
48.01563 498
48.03574 463
48.05586 473
48.07597 457
48.09609 458
48.1162 495
48.13631 455
48.15643 469
48.17654 480
48.19665 477
48.21677 480
48.23688 452
48.257 494
48.27711 475
48.29722 472
48.31734 470
48.33745 450
48.35756 468
48.37768 480
48.39779 472
48.4179 468
48.43802 432
48.45813 468
48.47825 479
48.49836 474
48.51847 478
48.53859 488
48.5587 444
48.57881 465
48.59893 463
48.61904 471
48.63916 473
48.65927 504
48.67938 483
48.6995 499
48.71961 513
48.73972 474
48.75984 488
48.77995 490
48.80006 493
48.82018 541
48.84029 478
48.86041 504
48.88052 497
48.90063 501
48.92075 476
48.94086 463
48.96097 476
48.98109 495
49.0012 435
49.02132 457
49.04143 485
49.06154 492
49.08166 469
49.10177 476
49.12188 477
49.142 474
49.16211 534
49.18223 491
49.20234 509
49.22245 509
49.24257 511
49.26268 521
49.28279 511
49.30291 496
49.32302 512
49.34313 500
49.36325 545
49.38336 541
49.40348 533
49.42359 500
49.4437 509
49.46382 517
49.48393 514
49.50404 518
49.52416 498
49.54427 461
49.56439 550
49.5845 527
49.60461 515
49.62473 483
49.64484 522
49.66495 506
49.68507 554
49.70518 504
49.7253 528
49.74541 504
49.76552 512
49.78564 544
49.80575 495
49.82586 552
49.84598 589
49.86609 613
49.8862 626
49.90632 626
49.92643 662
49.94655 738
49.96666 760
49.98677 835
50.00689 922
50.027 1029
50.04711 1055
50.06723 1002
50.08734 1034
50.10746 1020
50.12757 912
50.14768 820
50.1678 774
50.18791 780
50.20802 700
50.22814 681
50.24825 644
50.26837 524
50.28848 533
50.30859 512
50.32871 476
50.34882 527
50.36893 482
50.38905 463
50.40916 458
50.42927 455
50.44939 480
50.4695 516
50.48962 485
50.50973 509
50.52984 483
50.54996 515
50.57007 499
50.59018 509
50.6103 425
50.63041 483
50.65053 493
50.67064 457
50.69075 519
50.71087 509
50.73098 420
50.75109 471
50.77121 473
50.79132 473
50.81143 479
50.83155 480
50.85166 458
50.87178 497
50.89189 493
50.912 472
50.93212 454
50.95223 446
50.97234 480
50.99246 477
51.01257 461
51.03269 465
51.0528 430
51.07291 436
51.09303 392
51.11314 445
51.13325 446
51.15337 446
51.17348 452
51.1936 433
51.21371 407
51.23382 435
51.25394 422
51.27405 430
51.29416 442
51.31428 466
51.33439 440
51.3545 414
51.37462 436
51.39473 437
51.41485 421
51.43496 393
51.45507 417
51.47519 413
51.4953 442
51.51541 416
51.53553 405
51.55564 452
51.57576 412
51.59587 412
51.61598 429
51.6361 436
51.65621 435
51.67632 412
51.69644 427
51.71655 431
51.73667 445
51.75678 383
51.77689 434
51.79701 419
51.81712 414
51.83723 450
51.85735 402
51.87746 407
51.89757 415
51.91769 427
51.9378 446
51.95792 431
51.97803 441
51.99814 429
52.01826 428
52.03837 417
52.05848 473
52.0786 448
52.09871 456
52.11883 436
52.13894 420
52.15905 445
52.17917 461
52.19928 415
52.21939 438
52.23951 429
52.25962 431
52.27974 401
52.29985 444
52.31996 428
52.34008 429
52.36019 424
52.3803 453
52.40042 413
52.42053 426
52.44064 417
52.46076 396
52.48087 441
52.50099 414
52.5211 436
52.54121 422
52.56133 399
52.58144 421
52.60155 433
52.62167 441
52.64178 415
52.6619 437
52.68201 469
52.70212 455
52.72224 432
52.74235 451
52.76246 410
52.78258 455
52.80269 426
52.8228 494
52.84292 460
52.86303 472
52.88315 459
52.90326 450
52.92337 441
52.94349 447
52.9636 476
52.98371 478
53.00383 477
53.02394 516
53.04406 492
53.06417 456
53.08428 467
53.1044 463
53.12451 534
53.14462 484
53.16474 529
53.18485 475
53.20497 493
53.22508 453
53.24519 478
53.26531 488
53.28542 458
53.30553 487
53.32565 491
53.34576 513
53.36587 496
53.38599 455
53.4061 537
53.42622 508
53.44633 496
53.46644 510
53.48656 503
53.50667 533
53.52678 507
53.5469 479
53.56701 513
53.58713 558
53.60724 534
53.62735 539
53.64747 510
53.66758 523
53.68769 558
53.70781 541
53.72792 516
53.74804 535
53.76815 544
53.78826 560
53.80838 580
53.82849 567
53.8486 561
53.86872 593
53.88883 568
53.90894 610
53.92906 625
53.94917 576
53.96929 626
53.9894 635
54.00951 651
54.02963 648
54.04974 599
54.06985 637
54.08997 650
54.11008 660
54.1302 645
54.15031 625
54.17042 680
54.19054 620
54.21065 659
54.23076 618
54.25088 626
54.27099 627
54.29111 659
54.31122 598
54.33133 647
54.35145 619
54.37156 648
54.39167 642
54.41179 652
54.4319 603
54.45201 611
54.47213 589
54.49224 630
54.51236 624
54.53247 625
54.55258 587
54.5727 570
54.59281 627
54.61292 621
54.63304 624
54.65315 682
54.67327 668
54.69338 702
54.71349 655
54.73361 760
54.75372 708
54.77383 768
54.79395 739
54.81406 693
54.83417 747
54.85429 729
54.8744 715
54.89452 680
54.91463 677
54.93474 697
54.95486 701
54.97497 666
54.99508 687
55.0152 637
55.03531 605
55.05543 640
55.07554 646
55.09565 609
55.11577 600
55.13588 618
55.15599 620
55.17611 623
55.19622 656
55.21634 588
55.23645 642
55.25656 641
55.27668 649
55.29679 630
55.3169 635
55.33702 591
55.35713 617
55.37724 628
55.39736 580
55.41747 587
55.43759 564
55.4577 587
55.47781 593
55.49793 526
55.51804 541
55.53815 566
55.55827 564
55.57838 525
55.5985 543
55.61861 561
55.63872 502
55.65884 513
55.67895 524
55.69906 513
55.71918 489
55.73929 510
55.75941 550
55.77952 491
55.79963 504
55.81975 493
55.83986 519
55.85997 538
55.88009 487
55.9002 495
55.92031 491
55.94043 546
55.96054 534
55.98066 536
56.00077 481
56.02088 520
56.041 522
56.06111 509
56.08122 463
56.10134 495
56.12145 507
56.14157 494
56.16168 492
56.18179 504
56.20191 501
56.22202 495
56.24213 466
56.26225 535
56.28236 499
56.30248 473
56.32259 494
56.3427 513
56.36282 500
56.38293 494
56.40304 521
56.42316 512
56.44327 491
56.46338 522
56.4835 514
56.50361 504
56.52373 497
56.54384 523
56.56395 515
56.58407 487
56.60418 467
56.62429 481
56.64441 509
56.66452 498
56.68464 477
56.70475 489
56.72486 474
56.74498 505
56.76509 477
56.7852 458
56.80532 457
56.82543 489
56.84554 504
56.86566 506
56.88577 460
56.90589 493
56.926 528
56.94611 502
56.96623 487
56.98634 452
57.00645 529
57.02657 475
57.04668 495
57.0668 489
57.08691 478
57.10702 461
57.12714 494
57.14725 464
57.16736 526
57.18748 449
57.20759 499
57.22771 484
57.24782 475
57.26793 473
57.28805 462
57.30816 492
57.32827 473
57.34839 501
57.3685 485
57.38861 486
57.40873 469
57.42884 486
57.44896 496
57.46907 466
57.48918 434
57.5093 484
57.52941 463
57.54952 469
57.56964 473
57.58975 477
57.60987 457
57.62998 483
57.65009 452
57.67021 476
57.69032 467
57.71043 468
57.73055 449
57.75066 456
57.77078 502
57.79089 459
57.811 481
57.83112 458
57.85123 492
57.87134 478
57.89146 475
57.91157 473
57.93168 440
57.9518 441
57.97191 455
57.99203 451
58.01214 449
58.03225 448
58.05237 483
58.07248 443
58.09259 462
58.11271 469
58.13282 452
58.15294 482
58.17305 451
58.19316 446
58.21328 489
58.23339 454
58.2535 469
58.27362 446
58.29373 421
58.31385 529
58.33396 482
58.35407 516
58.37419 487
58.3943 430
58.41441 483
58.43453 455
58.45464 484
58.47475 481
58.49487 458
58.51498 463
58.5351 454
58.55521 452
58.57532 448
58.59544 453
58.61555 458
58.63566 469
58.65578 417
58.67589 463
58.69601 455
58.71612 447
58.73623 461
58.75635 448
58.77646 461
58.79657 438
58.81669 468
58.8368 447
58.85691 463
58.87703 451
58.89714 458
58.91726 479
58.93737 473
58.95748 468
58.9776 493
58.99771 428
59.01782 445
59.03794 484
59.05805 485
59.07817 425
59.09828 458
59.11839 464
59.13851 469
59.15862 431
59.17873 459
59.19885 429
59.21896 444
59.23908 491
59.25919 490
59.2793 479
59.29942 488
59.31953 442
59.33964 468
59.35976 471
59.37987 459
59.39998 518
59.4201 452
59.44021 454
59.46033 484
59.48044 531
59.50055 460
59.52067 479
59.54078 478
59.56089 507
59.58101 492
59.60112 493
59.62124 522
59.64135 525
59.66146 549
59.68158 578
59.70169 555
59.7218 604
59.74192 647
59.76203 674
59.78215 671
59.80226 753
59.82237 846
59.84249 852
59.8626 836
59.88271 869
59.90283 826
59.92294 827
59.94305 709
59.96317 709
59.98328 723
60.0034 694
60.02351 688
60.04362 633
60.06374 631
60.08385 580
60.10396 559
60.12408 505
60.14419 524
60.16431 507
60.18442 503
60.20453 468
60.22465 461
60.24476 466
60.26487 458
60.28499 467
60.3051 449
60.32522 447
60.34533 470
60.36544 438
60.38556 443
60.40567 439
60.42578 447
60.4459 430
60.46601 450
60.48612 485
60.50624 443
60.52635 462
60.54647 464
60.56658 487
60.58669 457
60.60681 432
60.62692 455
60.64703 462
60.66715 456
60.68726 469
60.70738 418
60.72749 444
60.7476 495
60.76772 479
60.78783 424
60.80794 432
60.82806 443
60.84817 446
60.86828 454
60.8884 431
60.90851 420
60.92863 453
60.94874 461
60.96885 412
60.98897 492
61.00908 461
61.02919 443
61.04931 423
61.06942 462
61.08954 406
61.10965 445
61.12976 460
61.14988 438
61.16999 487
61.1901 469
61.21022 468
61.23033 445
61.25045 465
61.27056 458
61.29067 482
61.31079 443
61.3309 453
61.35101 500
61.37113 481
61.39124 493
61.41135 481
61.43147 515
61.45158 487
61.4717 486
61.49181 489
61.51192 492
61.53204 505
61.55215 485
61.57226 475
61.59238 488
61.61249 491
61.63261 514
61.65272 487
61.67283 488
61.69295 517
61.71306 513
61.73317 519
61.75329 486
61.7734 512
61.79352 524
61.81363 524
61.83374 566
61.85386 517
61.87397 536
61.89408 561
61.9142 559
61.93431 594
61.95442 660
61.97454 633
61.99465 636
62.01477 700
62.03488 650
62.05499 727
62.07511 716
62.09522 715
62.11533 751
62.13545 709
62.15556 746
62.17568 765
62.19579 702
62.2159 732
62.23602 738
62.25613 694
62.27624 702
62.29636 711
62.31647 705
62.33659 717
62.3567 693
62.37681 680
62.39693 664
62.41704 646
62.43715 641
62.45727 587
62.47738 568
62.49749 623
62.51761 605
62.53772 548
62.55784 540
62.57795 539
62.59806 593
62.61818 550
62.63829 515
62.6584 575
62.67852 529
62.69863 543
62.71875 516
62.73886 514
62.75897 536
62.77909 518
62.7992 448
62.81931 515
62.83943 505
62.85954 511
62.87965 484
62.89977 470
62.91988 461
62.94 525
62.96011 494
62.98022 516
63.00034 506
63.02045 506
63.04056 468
63.06068 496
63.08079 501
63.10091 500
63.12102 491
63.14113 473
63.16125 478
63.18136 508
63.20147 488
63.22159 510
63.2417 509
63.26182 473
63.28193 543
63.30204 486
63.32216 535
63.34227 479
63.36238 514
63.3825 480
63.40261 497
63.42272 479
63.44284 516
63.46295 502
63.48307 507
63.50318 483
63.52329 529
63.54341 491
63.56352 525
63.58363 495
63.60375 507
63.62386 523
63.64398 478
63.66409 559
63.6842 521
63.70432 543
63.72443 536
63.74454 540
63.76466 545
63.78477 535
63.80489 555
63.825 569
63.84511 549
63.86523 540
63.88534 572
63.90545 556
63.92557 591
63.94568 640
63.96579 612
63.98591 629
64.00602 551
64.02614 569
64.04625 569
64.06636 585
64.08648 549
64.10659 603
64.1267 538
64.14682 554
64.16693 548
64.18705 580
64.20716 551
64.22727 559
64.24739 511
64.2675 489
64.28761 482
64.30773 495
64.32784 522
64.34796 516
64.36807 508
64.38818 512
64.4083 531
64.42841 472
64.44852 505
64.46864 471
64.48875 446
64.50886 459
64.52898 457
64.54909 462
64.56921 450
64.58932 433
64.60943 480
64.62955 471
64.64966 480
64.66977 485
64.68989 441
64.71 473
64.73012 464
64.75023 455
64.77034 442
64.79046 442
64.81057 474
64.83068 469
64.8508 422
64.87091 436
64.89102 465
64.91114 465
64.93125 471
64.95137 440
64.97148 455
64.99159 440
65.01171 455
65.03182 438
65.05193 425
65.07205 506
65.09216 458
65.11228 453
65.13239 451
65.1525 460
65.17262 440
65.19273 439
65.21284 463
65.23296 437
65.25307 442
65.27319 401
65.2933 472
65.31341 477
65.33353 446
65.35364 431
65.37375 420
65.39387 413
65.41398 408
65.43409 461
65.45421 442
65.47432 451
65.49444 451
65.51455 438
65.53466 402
65.55478 440
65.57489 424
65.595 449
65.61512 416
65.63523 481
65.65535 452
65.67546 438
65.69557 431
65.71569 416
65.7358 466
65.75591 447
65.77603 455
65.79614 455
65.81626 436
65.83637 444
65.85648 432
65.8766 489
65.89671 496
65.91682 425
65.93694 444
65.95705 454
65.97716 452
65.99728 437
66.01739 434
66.03751 432
66.05762 470
66.07773 425
66.09785 401
66.11796 423
66.13807 454
66.15819 431
66.1783 430
66.19842 456
66.21853 446
66.23864 437
66.25876 450
66.27887 457
66.29898 451
66.3191 444
66.33921 436
66.35933 419
66.37944 434
66.39955 440
66.41967 464
66.43978 428
66.45989 435
66.48001 434
66.50012 476
66.52023 434
66.54035 465
66.56046 435
66.58058 448
66.60069 433
66.6208 429
66.64092 463
66.66103 427
66.68114 443
66.70126 442
66.72137 452
66.74149 455
66.7616 442
66.78171 426
66.80183 438
66.82194 422
66.84205 460
66.86217 427
66.88228 452
66.90239 426
66.92251 408
66.94262 454
66.96274 426
66.98285 447
67.00296 468
67.02308 424
67.04319 440
67.0633 454
67.08342 470
67.10353 422
67.12365 441
67.14376 450
67.16387 459
67.18399 453
67.2041 483
67.22421 506
67.24433 446
67.26444 474
67.28456 467
67.30467 466
67.32478 469
67.3449 448
67.36501 498
67.38512 481
67.40524 453
67.42535 543
67.44546 493
67.46558 481
67.48569 516
67.50581 534
67.52592 554
67.54603 526
67.56615 587
67.58626 601
67.60637 622
67.62649 659
67.6466 664
67.66672 682
67.68683 690
67.70694 655
67.72706 616
67.74717 589
67.76728 612
67.7874 581
67.80751 552
67.82763 594
67.84774 640
67.86785 655
67.88797 658
67.90808 609
67.92819 612
67.94831 617
67.96842 652
67.98853 726
68.00865 706
68.02876 757
68.04888 799
68.06899 823
68.0891 767
68.10922 741
68.12933 739
68.14944 726
68.16956 731
68.18967 742
68.20979 737
68.2299 771
68.25001 748
68.27013 758
68.29024 706
68.31035 593
68.33047 589
68.35058 605
68.3707 600
68.39081 551
68.41092 557
68.43104 519
68.45115 503
68.47126 513
68.49138 506
68.51149 468
68.5316 442
68.55172 463
68.57183 454
68.59195 483
68.61206 452
68.63217 440
68.65229 421
68.6724 440
68.69251 455
68.71263 436
68.73274 433
68.75286 444
68.77297 484
68.79308 421
68.8132 475
68.83331 450
68.85342 460
68.87354 476
68.89365 464
68.91376 434
68.93388 432
68.95399 428
68.97411 484
68.99422 449
69.01433 406
69.03445 424
69.05456 432
69.07467 388
69.09479 400
69.1149 423
69.13502 438
69.15513 462
69.17524 424
69.19536 449
69.21547 419
69.23558 441
69.2557 399
69.27581 425
69.29593 412
69.31604 433
69.33615 421
69.35627 447
69.37638 430
69.39649 437
69.41661 430
69.43672 430
69.45683 430
69.47695 437
69.49706 423
69.51718 411
69.53729 442
69.5574 432
69.57752 464
69.59763 429
69.61774 472
69.63786 451
69.65797 421
69.67809 411
69.6982 461
69.71831 442
69.73843 417
69.75854 445
69.77865 408
69.79877 428
69.81888 451
69.839 430
69.85911 438
69.87922 413
69.89934 464
69.91945 443
69.93956 408
69.95968 389
69.97979 474
69.9999 421
70.02002 445
70.04013 457
70.06025 438
70.08036 467
70.10047 434
70.12059 465
70.1407 434
70.16081 448
70.18093 446
70.20104 458
70.22116 428
70.24127 409
70.26138 459
70.2815 450
70.30161 439
70.32172 462
70.34184 466
70.36195 438
70.38207 451
70.40218 427
70.42229 473
70.44241 443
70.46252 438
70.48263 421
70.50275 430
70.52286 426
70.54297 420
70.56309 443
70.5832 422
70.60332 468
70.62343 387
70.64354 422
70.66366 426
70.68377 460
70.70388 432
70.724 399
70.74411 421
70.76423 427
70.78434 452
70.80445 415
70.82457 436
70.84468 445
70.86479 442
70.88491 430
70.90502 426
70.92513 434
70.94525 416
70.96536 450
70.98548 418
71.00559 424
71.0257 445
71.04582 440
71.06593 447
71.08604 416
71.10616 439
71.12627 442
71.14639 434
71.1665 436
71.18661 421
71.20673 427
71.22684 460
71.24695 429
71.26707 405
71.28718 420
71.3073 409
71.32741 423
71.34752 422
71.36764 463
71.38775 444
71.40786 452
71.42798 428
71.44809 428
71.4682 429
71.48832 432
71.50843 405
71.52855 441
71.54866 425
71.56877 495
71.58889 447
71.609 468
71.62911 447
71.64923 450
71.66934 442
71.68946 401
71.70957 426
71.72968 434
71.7498 449
71.76991 482
71.79002 485
71.81014 436
71.83025 470
71.85037 470
71.87048 474
71.89059 428
71.91071 425
71.93082 422
71.95093 459
71.97105 461
71.99116 454
72.01127 432
72.03139 481
72.0515 458
72.07162 426
72.09173 447
72.11184 425
72.13196 423
72.15207 444
72.17218 439
72.1923 462
72.21241 440
72.23253 467
72.25264 487
72.27275 472
72.29287 471
72.31298 430
72.33309 465
72.35321 461
72.37332 439
72.39344 458
72.41355 465
72.43366 412
72.45378 439
72.47389 412
72.494 458
72.51412 401
72.53423 430
72.55434 426
72.57446 453
72.59457 431
72.61469 464
72.6348 438
72.65491 437
72.67503 417
72.69514 423
72.71525 448
72.73537 446
72.75548 476
72.7756 497
72.79571 476
72.81582 439
72.83594 441
72.85605 444
72.87616 468
72.89628 417
72.91639 435
72.9365 431
72.95662 463
72.97673 452
72.99685 442
73.01696 394
73.03707 434
73.05719 475
73.0773 452
73.09741 464
73.11753 467
73.13764 485
73.15776 464
73.17787 443
73.19798 462
73.2181 462
73.23821 487
73.25832 492
73.27844 503
73.29855 516
73.31867 542
73.33878 535
73.35889 560
73.37901 581
73.39912 524
73.41923 522
73.43935 535
73.45946 533
73.47957 555
73.49969 491
73.5198 531
73.53992 509
73.56003 489
73.58014 547
73.60026 483
73.62037 507
73.64048 487
73.6606 524
73.68071 431
73.70083 467
73.72094 484
73.74105 471
73.76117 459
73.78128 435
73.80139 475
73.82151 451
73.84162 473
73.86174 434
73.88185 436
73.90196 413
73.92208 434
73.94219 465
73.9623 434
73.98242 437
74.00253 415
74.02264 453
74.04276 417
74.06287 468
74.08299 421
74.1031 407
74.12321 452
74.14333 425
74.16344 394
74.18355 469
74.20367 461
74.22378 432
74.2439 465
74.26401 443
74.28412 426
74.30424 433
74.32435 451
74.34446 473
74.36458 458
74.38469 426
74.40481 461
74.42492 403
74.44503 414
74.46515 444
74.48526 425
74.50537 424
74.52549 465
74.5456 389
74.56571 453
74.58583 426
74.60594 423
74.62606 462
74.64617 419
74.66628 439
74.6864 414
74.70651 417
74.72662 431
74.74674 444
74.76685 464
74.78697 457
74.80708 451
74.82719 446
74.84731 437
74.86742 476
74.88753 434
74.90765 447
74.92776 480
74.94787 444
74.96799 452
74.9881 443
75.00822 434
