3.00117 16168
3.02128 15733
3.0414 15001
3.06151 14816
3.08162 14559
3.10174 14041
3.12185 13659
3.14197 13230
3.16208 12957
3.18219 12272
3.20231 12208
3.22242 11661
3.24253 11052
3.26265 10804
3.28276 10485
3.30288 10166
3.32299 9749
3.3431 9257
3.36322 9169
3.38333 8692
3.40344 8743
3.42356 7975
3.44367 7791
3.46379 7754
3.4839 7044
3.50401 6954
3.52413 6794
3.54424 6296
3.56435 6261
3.58447 5814
3.60458 5640
3.62469 5559
3.64481 5084
3.66492 5133
3.68504 4759
3.70515 4605
3.72526 4552
3.74538 4203
3.76549 4057
3.7856 3723
3.80572 3725
3.82583 3625
3.84595 3173
3.86606 3191
3.88617 3076
3.90629 3026
3.9264 2952
3.94651 2624
3.96663 2549
3.98674 2443
4.00686 2284
4.02697 2227
4.04708 2094
4.0672 2102
4.08731 1991
4.10742 1923
4.12754 1989
4.14765 1654
4.16776 1718
4.18788 1595
4.20799 1614
4.22811 1674
4.24822 1449
4.26833 1520
4.28845 1429
4.30856 1365
4.32867 1420
4.34879 1230
4.3689 1299
4.38902 1197
4.40913 1255
4.42924 1197
4.44936 1168
4.46947 1159
4.48958 1094
4.5097 974
4.52981 1092
4.54992 997
4.57004 978
4.59015 951
4.61027 950
4.63038 936
4.65049 807
4.67061 826
4.69072 859
4.71083 782
4.73095 813
4.75106 730
4.77118 806
4.79129 729
4.8114 703
4.83152 721
4.85163 674
4.87174 691
4.89186 658
4.91197 626
4.93209 664
4.9522 632
4.97231 591
4.99243 573
5.01254 539
5.03265 576
5.05277 491
5.07288 489
5.09299 521
5.11311 506
5.13322 484
5.15334 480
5.17345 427
5.19356 411
5.21368 419
5.23379 470
5.2539 434
5.27402 421
5.29413 404
5.31425 434
5.33436 351
5.35447 372
5.37459 356
5.3947 355
5.41481 336
5.43493 340
5.45504 343
5.47516 274
5.49527 295
5.51538 288
5.5355 307
5.55561 291
5.57572 275
5.59584 262
5.61595 311
5.63606 283
5.65618 257
5.67629 249
5.69641 249
5.71652 281
5.73663 233
5.75675 230
5.77686 285
5.79697 255
5.81709 257
5.8372 241
5.85732 254
5.87743 208
5.89754 228
5.91766 192
5.93777 222
5.95788 240
5.978 239
5.99811 235
6.01823 228
6.03834 241
6.05845 246
6.07857 220
6.09868 235
6.11879 201
6.13891 200
6.15902 207
6.17913 191
6.19925 202
6.21936 192
6.23948 214
6.25959 193
6.2797 218
6.29982 223
6.31993 204
6.34004 190
6.36016 185
6.38027 215
6.40039 219
6.4205 204
6.44061 184
6.46073 173
6.48084 201
6.50095 176
6.52107 220
6.54118 186
6.56129 186
6.58141 193
6.60152 207
6.62164 193
6.64175 215
6.66186 204
6.68198 190
6.70209 187
6.7222 214
6.74232 176
6.76243 182
6.78255 194
6.80266 192
6.82277 182
6.84289 161
6.863 179
6.88311 189
6.90323 166
6.92334 178
6.94346 183
6.96357 199
6.98368 185
7.0038 179
7.02391 204
7.04402 177
7.06414 222
7.08425 203
7.10436 206
7.12448 202
7.14459 190
7.16471 223
7.18482 189
7.20493 206
7.22505 201
7.24516 187
7.26527 166
7.28539 175
7.3055 174
7.32562 214
7.34573 205
7.36584 187
7.38596 176
7.40607 222
7.42618 161
7.4463 223
7.46641 217
7.48653 183
7.50664 188
7.52675 214
7.54687 214
7.56698 198
7.58709 185
7.60721 210
7.62732 197
7.64743 202
7.66755 192
7.68766 210
7.70778 176
7.72789 182
7.748 193
7.76812 226
7.78823 198
7.80834 197
7.82846 201
7.84857 187
7.86869 202
7.8888 186
7.90891 185
7.92903 213
7.94914 202
7.96925 197
7.98937 206
8.00948 166
8.0296 184
8.04971 201
8.06982 193
8.08994 204
8.11005 201
8.13016 207
8.15028 218
8.17039 202
8.1905 218
8.21062 220
8.23073 186
8.25085 214
8.27096 205
8.29107 222
8.31119 235
8.3313 190
8.35141 220
8.37153 169
8.39164 205
8.41176 213
8.43187 235
8.45198 225
8.4721 209
8.49221 222
8.51232 215
8.53244 184
8.55255 223
8.57266 222
8.59278 209
8.61289 219
8.63301 220
8.65312 244
8.67323 221
8.69335 210
8.71346 228
8.73357 250
8.75369 202
8.7738 218
8.79392 233
8.81403 238
8.83414 227
8.85426 213
8.87437 246
8.89448 249
8.9146 204
8.93471 237
8.95483 227
8.97494 211
8.99505 203
9.01517 222
9.03528 212
9.05539 235
9.07551 210
9.09562 239
9.11573 199
9.13585 185
9.15596 219
9.17608 185
9.19619 197
9.2163 207
9.23642 191
9.25653 211
9.27664 207
9.29676 211
9.31687 205
9.33699 187
9.3571 207
9.37721 220
9.39733 209
9.41744 219
9.43755 238
9.45767 223
9.47778 188
9.4979 238
9.51801 188
9.53812 226
9.55824 195
9.57835 193
9.59846 218
9.61858 224
9.63869 209
9.6588 205
9.67892 212
9.69903 204
9.71915 204
9.73926 206
9.75937 222
9.77949 203
9.7996 197
9.81971 201
9.83983 228
9.85994 205
9.88006 208
9.90017 187
9.92028 211
9.9404 195
9.96051 211
9.98062 219
10.00074 226
10.02085 231
10.04097 216
10.06108 240
10.08119 204
10.10131 210
10.12142 196
10.14153 222
10.16165 233
10.18176 247
10.20187 197
10.22199 214
10.2421 221
10.26222 258
10.28233 226
10.30244 222
10.32256 258
10.34267 245
10.36278 220
10.3829 204
10.40301 232
10.42313 230
10.44324 196
10.46335 215
10.48347 231
10.50358 222
10.52369 263
10.54381 217
10.56392 263
10.58403 230
10.60415 215
10.62426 233
10.64438 209
10.66449 224
10.6846 204
10.70472 220
10.72483 236
10.74494 223
10.76506 195
10.78517 202
10.80529 235
10.8254 227
10.84551 230
10.86563 242
10.88574 229
10.90585 212
10.92597 201
10.94608 231
10.9662 232
10.98631 223
11.00642 229
11.02654 234
11.04665 228
11.06676 212
11.08688 225
11.10699 221
11.1271 216
11.14722 212
11.16733 221
11.18745 199
11.20756 222
11.22767 215
11.24779 224
11.2679 200
11.28801 243
11.30813 201
11.32824 213
11.34836 235
11.36847 231
11.38858 224
11.4087 227
11.42881 258
11.44892 232
11.46904 270
11.48915 225
11.50927 237
11.52938 221
11.54949 221
11.56961 227
11.58972 206
11.60983 269
11.62995 241
11.65006 241
11.67017 231
11.69029 232
11.7104 230
11.73052 224
11.75063 224
11.77074 257
11.79086 271
11.81097 258
11.83108 238
11.8512 248
11.87131 253
11.89143 233
11.91154 233
11.93165 252
11.95177 263
11.97188 245
11.99199 265
12.01211 261
12.03222 254
12.05234 231
12.07245 284
12.09256 272
12.11268 255
12.13279 262
12.1529 275
12.17302 263
12.19313 262
12.21324 264
12.23336 238
12.25347 255
12.27359 220
12.2937 242
12.31381 252
12.33393 240
12.35404 260
12.37415 271
12.39427 201
12.41438 233
12.4345 228
12.45461 237
12.47472 233
12.49484 228
12.51495 275
12.53506 230
12.55518 250
12.57529 218
12.5954 239
12.61552 227
12.63563 242
12.65575 220
12.67586 216
12.69597 217
12.71609 203
12.7362 214
12.75631 224
12.77643 205
12.79654 216
12.81666 212
12.83677 205
12.85688 201
12.877 228
12.89711 211
12.91722 191
12.93734 181
12.95745 197
12.97757 208
12.99768 240
13.01779 217
13.03791 202
13.05802 260
13.07813 240
13.09825 235
13.11836 248
13.13847 246
13.15859 218
13.1787 247
13.19882 217
13.21893 201
13.23904 217
13.25916 187
13.27927 208
13.29938 177
13.3195 204
13.33961 199
13.35973 202
13.37984 193
13.39995 214
13.42007 185
13.44018 238
13.46029 190
13.48041 210
13.50052 235
13.52064 239
13.54075 252
13.56086 255
13.58098 248
13.60109 267
13.6212 320
13.64132 267
13.66143 288
13.68154 296
13.70166 254
13.72177 243
13.74189 207
13.762 211
13.78211 236
13.80223 250
13.82234 210
13.84245 212
13.86257 213
13.88268 234
13.9028 225
13.92291 203
13.94302 192
13.96314 207
13.98325 185
14.00336 198
14.02348 182
14.04359 163
14.06371 195
14.08382 180
14.10393 181
14.12405 197
14.14416 158
14.16427 213
14.18439 199
14.2045 196
14.22461 169
14.24473 180
14.26484 185
14.28496 184
14.30507 200
14.32518 179
14.3453 179
14.36541 199
14.38552 163
14.40564 180
14.42575 213
14.44587 155
14.46598 191
14.48609 157
14.50621 169
14.52632 166
14.54643 165
14.56655 175
14.58666 177
14.60677 167
14.62689 199
14.647 175
14.66712 170
14.68723 200
14.70734 177
14.72746 173
14.74757 176
14.76768 155
14.7878 172
14.80791 185
14.82803 196
14.84814 185
14.86825 210
14.88837 215
14.90848 217
14.92859 250
14.94871 232
14.96882 214
14.98894 242
15.00905 171
15.02916 195
15.04928 235
15.06939 224
15.0895 200
15.10962 211
15.12973 182
15.14984 222
15.16996 200
15.19007 221
15.21019 229
15.2303 215
15.25041 196
15.27053 195
15.29064 206
15.31075 216
15.33087 162
15.35098 183
15.3711 165
15.39121 160
15.41132 161
15.43144 171
15.45155 146
15.47166 183
15.49178 158
15.51189 174
15.53201 155
15.55212 166
15.57223 176
15.59235 186
15.61246 146
15.63257 177
15.65269 177
15.6728 162
15.69291 181
15.71303 148
15.73314 180
15.75326 155
15.77337 171
15.79348 181
15.8136 176
15.83371 149
15.85382 168
15.87394 148
15.89405 155
15.91417 159
15.93428 174
15.95439 176
15.97451 177
15.99462 152
16.01473 167
16.03485 165
16.05496 149
16.07508 164
16.09519 150
16.1153 152
16.13542 163
16.15553 177
16.17564 171
16.19576 172
16.21587 171
16.23598 143
16.2561 165
16.27621 163
16.29633 168
16.31644 141
16.33655 170
16.35667 146
16.37678 190
16.39689 161
16.41701 171
16.43712 157
16.45724 146
16.47735 154
16.49746 145
16.51758 125
16.53769 166
16.5578 160
16.57792 186
16.59803 160
16.61814 152
16.63826 127
16.65837 154
16.67849 165
16.6986 166
16.71871 146
16.73883 162
16.75894 185
16.77905 129
16.79917 166
16.81928 175
16.8394 161
16.85951 132
16.87962 155
16.89974 154
16.91985 165
16.93996 162
16.96008 132
16.98019 179
17.00031 165
17.02042 125
17.04053 173
17.06065 164
17.08076 155
17.10087 166
17.12099 160
17.1411 166
17.16121 161
17.18133 170
17.20144 141
17.22156 149
17.24167 157
17.26178 159
17.2819 176
17.30201 146
17.32212 171
17.34224 147
17.36235 148
17.38247 154
17.40258 154
17.42269 171
17.44281 159
17.46292 183
17.48303 161
17.50315 185
17.52326 182
17.54338 158
17.56349 161
17.5836 137
17.60372 169
17.62383 166
17.64394 165
17.66406 156
17.68417 144
17.70428 161
17.7244 127
17.74451 121
17.76463 157
17.78474 173
17.80485 157
17.82497 170
17.84508 144
17.86519 155
17.88531 194
17.90542 161
17.92554 170
17.94565 145
17.96576 157
17.98588 137
18.00599 153
18.0261 168
18.04622 164
18.06633 179
18.08645 176
18.10656 153
18.12667 153
18.14679 157
18.1669 149
18.18701 150
18.20713 164
18.22724 166
18.24735 158
18.26747 182
18.28758 158
18.3077 158
18.32781 162
18.34792 130
18.36804 169
18.38815 156
18.40826 161
18.42838 153
18.44849 150
18.46861 169
18.48872 152
18.50883 166
18.52895 174
18.54906 158
18.56917 158
18.58929 172
18.6094 180
18.62951 157
18.64963 168
18.66974 152
18.68986 181
18.70997 193
18.73008 176
18.7502 156
18.77031 182
18.79042 164
18.81054 187
18.83065 174
18.85077 174
18.87088 169
18.89099 181
18.91111 158
18.93122 140
18.95133 162
18.97145 171
18.99156 184
19.01168 184
19.03179 161
19.0519 179
19.07202 159
19.09213 164
19.11224 179
19.13236 159
19.15247 195
19.17258 174
19.1927 189
19.21281 208
19.23293 171
19.25304 225
19.27315 183
19.29327 202
19.31338 195
19.33349 169
19.35361 193
19.37372 174
19.39384 171
19.41395 184
19.43406 201
19.45418 185
19.47429 188
19.4944 170
19.51452 174
19.53463 190
19.55475 180
19.57486 195
19.59497 200
19.61509 187
19.6352 225
19.65531 213
19.67543 231
19.69554 209
19.71565 229
19.73577 253
19.75588 252
19.776 268
19.79611 257
19.81622 294
19.83634 298
19.85645 277
19.87656 283
19.89668 274
19.91679 284
19.93691 297
19.95702 284
19.97713 283
19.99725 301
20.01736 269
20.03747 269
20.05759 277
20.0777 271
20.09782 301
20.11793 319
20.13804 284
20.15816 279
20.17827 302
20.19838 307
20.2185 323
20.23861 289
20.25872 268
20.27884 309
20.29895 325
20.31907 326
20.33918 308
20.35929 323
20.37941 344
20.39952 328
20.41963 326
20.43975 321
20.45986 363
20.47998 329
20.50009 365
20.5202 349
20.54032 371
20.56043 393
20.58054 452
20.60066 451
20.62077 502
20.64088 624
20.661 750
20.68111 969
20.70123 1332
20.72134 1790
20.74145 2354
20.76157 3162
20.78168 3868
20.80179 4756
20.82191 5185
20.84202 5364
20.86214 4866
20.88225 3946
20.90236 3017
20.92248 2114
20.94259 1539
20.9627 1217
20.98282 1112
21.00293 1045
21.02305 1004
21.04316 868
21.06327 778
21.08339 633
21.1035 544
21.12361 459
21.14373 390
21.16384 369
21.18395 328
21.20407 358
21.22418 286
21.2443 302
21.26441 263
21.28452 272
21.30464 297
21.32475 321
21.34486 253
21.36498 264
21.38509 246
21.40521 273
21.42532 273
21.44543 276
21.46555 252
21.48566 265
21.50577 264
21.52589 280
21.546 240
21.56612 258
21.58623 279
21.60634 270
21.62646 244
21.64657 226
21.66668 250
21.6868 225
21.70691 199
21.72702 216
21.74714 220
21.76725 237
21.78737 244
21.80748 261
21.82759 280
21.84771 297
21.86782 336
21.88793 337
21.90805 443
21.92816 380
21.94828 467
21.96839 467
21.9885 495
22.00862 421
22.02873 340
22.04884 346
22.06896 354
22.08907 257
22.10919 279
22.1293 242
22.14941 259
22.16953 305
22.18964 269
22.20975 322
22.22987 299
22.24998 309
22.27009 310
22.29021 325
22.31032 339
22.33044 326
22.35055 307
22.37066 319
22.39078 295
22.41089 270
22.431 277
22.45112 281
22.47123 243
22.49135 264
22.51146 273
22.53157 246
22.55169 310
22.5718 268
22.59191 266
22.61203 273
22.63214 263
22.65225 258
22.67237 251
22.69248 238
22.7126 228
22.73271 228
22.75282 235
22.77294 233
22.79305 234
22.81316 236
22.83328 228
22.85339 239
22.87351 252
22.89362 275
22.91373 284
22.93385 288
22.95396 273
22.97407 304
22.99419 308
23.0143 308
23.03442 340
23.05453 333
23.07464 339
23.09476 397
23.11487 373
23.13498 401
23.1551 391
23.17521 434
23.19532 433
23.21544 428
23.23555 406
23.25567 345
23.27578 330
23.29589 314
23.31601 322
23.33612 311
23.35623 344
23.37635 295
23.39646 298
23.41658 299
23.43669 316
23.4568 343
23.47692 364
23.49703 369
23.51714 361
23.53726 392
23.55737 399
23.57749 389
23.5976 397
23.61771 363
23.63783 321
23.65794 343
23.67805 303
23.69817 320
23.71828 312
23.73839 311
23.75851 353
23.77862 328
23.79874 347
23.81885 391
23.83896 389
23.85908 400
23.87919 468
23.8993 492
23.91942 502
23.93953 526
23.95965 555
23.97976 594
23.99987 557
24.01999 493
24.0401 451
24.06021 385
24.08033 285
24.10044 334
24.12056 307
24.14067 332
24.16078 317
24.1809 340
24.20101 326
24.22112 334
24.24124 377
24.26135 358
24.28146 387
24.30158 390
24.32169 421
24.34181 382
24.36192 345
24.38203 329
24.40215 302
24.42226 289
24.44237 292
24.46249 285
24.4826 274
24.50272 293
24.52283 257
24.54294 278
24.56306 270
24.58317 306
24.60328 313
24.6234 297
24.64351 297
24.66362 330
24.68374 349
24.70385 323
24.72397 331
24.74408 318
24.76419 314
24.78431 325
24.80442 301
24.82453 319
24.84465 339
24.86476 327
24.88488 284
24.90499 316
24.9251 307
24.94522 282
24.96533 270
24.98544 296
25.00556 257
25.02567 258
25.04579 257
25.0659 284
25.08601 264
25.10613 260
25.12624 278
25.14635 262
25.16647 265
25.18658 288
25.20669 292
25.22681 270
25.24692 288
25.26704 300
25.28715 292
25.30726 274
25.32738 325
25.34749 320
25.3676 324
25.38772 358
25.40783 386
25.42795 449
25.44806 538
25.46817 567
25.48829 572
25.5084 653
25.52851 658
25.54863 698
25.56874 715
25.58886 629
25.60897 727
25.62908 629
25.6492 641
25.66931 576
25.68942 518
25.70954 483
25.72965 449
25.74976 451
25.76988 384
25.78999 423
25.81011 395
25.83022 401
25.85033 397
25.87045 405
25.89056 396
25.91067 402
25.93079 359
25.9509 414
25.97102 387
25.99113 417
26.01124 428
26.03136 422
26.05147 411
26.07158 490
26.0917 461
26.11181 558
26.13193 575
26.15204 572
26.17215 668
26.19227 649
26.21238 731
26.23249 783
26.25261 838
26.27272 992
26.29283 1043
26.31295 1256
26.33306 1436
26.35318 1700
26.37329 1858
26.3934 2278
26.41352 2954
26.43363 3591
26.45374 4661
26.47386 6354
26.49397 8304
26.51409 11061
26.5342 14000
26.55431 17706
26.57443 20821
26.59454 23050
26.61465 23746
26.63477 21581
26.65488 17961
26.67499 13462
26.69511 9977
26.71522 7107
26.73534 4263
26.75545 2530
26.77556 1830
26.79568 1440
26.81579 1285
26.8359 1146
26.85602 1032
26.87613 985
26.89625 988
26.91636 971
26.93647 963
26.95659 1001
26.9767 1011
26.99681 1022
27.01693 1057
27.03704 1075
27.05716 1060
27.07727 1002
27.09738 901
27.1175 824
27.13761 730
27.15772 689
27.17784 594
27.19795 606
27.21806 705
27.23818 692
27.25829 729
27.27841 842
27.29852 837
27.31863 909
27.33875 1130
27.35886 1234
27.37897 1329
27.39909 1474
27.4192 1520
27.43932 1506
27.45943 1490
27.47954 1372
27.49966 1186
27.51977 1068
27.53988 859
27.56 706
27.58011 633
27.60023 534
27.62034 535
27.64045 591
27.66057 563
27.68068 584
27.70079 649
27.72091 599
27.74102 676
27.76113 693
27.78125 676
27.80136 631
27.82148 732
27.84159 644
27.8617 612
27.88182 662
27.90193 691
27.92204 656
27.94216 698
27.96227 603
27.98239 608
28.0025 508
28.02261 476
28.04273 409
28.06284 363
28.08295 350
28.10307 309
28.12318 305
28.1433 322
28.16341 340
28.18352 326
28.20364 345
28.22375 376
28.24386 328
28.26398 341
28.28409 285
28.3042 280
28.32432 273
28.34443 287
28.36455 292
28.38466 264
28.40477 227
28.42489 244
28.445 243
28.46511 256
28.48523 230
28.50534 251
28.52546 222
28.54557 236
28.56568 223
28.5858 209
28.60591 219
28.62602 233
28.64614 210
28.66625 188
28.68636 249
28.70648 224
28.72659 230
28.74671 223
28.76682 219
28.78693 241
28.80705 177
28.82716 239
28.84727 209
28.86739 219
28.8875 215
28.90762 221
28.92773 198
28.94784 201
28.96796 238
28.98807 184
29.00818 218
29.0283 221
29.04841 212
29.06853 241
29.08864 242
29.10875 235
29.12887 230
29.14898 233
29.16909 227
29.18921 237
29.20932 238
29.22943 228
29.24955 236
29.26966 261
29.28978 291
29.30989 297
29.33 298
29.35012 325
29.37023 341
29.39034 355
29.41046 356
29.43057 411
29.45069 378
29.4708 353
29.49091 343
29.51103 339
29.53114 307
29.55125 285
29.57137 291
29.59148 288
29.6116 281
29.63171 262
29.65182 335
29.67194 302
29.69205 324
29.71216 274
29.73228 334
29.75239 339
29.7725 298
29.79262 294
29.81273 292
29.83285 322
29.85296 316
29.87307 318
29.89319 288
29.9133 311
29.93341 288
29.95353 294
29.97364 287
29.99376 348
30.01387 306
30.03398 326
30.0541 346
30.07421 344
30.09432 376
30.11444 409
30.13455 410
30.15467 456
30.17478 452
30.19489 413
30.21501 415
30.23512 398
30.25523 342
30.27535 366
30.29546 323
30.31557 355
30.33569 353
30.3558 324
30.37592 330
30.39603 294
30.41614 322
30.43626 300
30.45637 287
30.47648 309
30.4966 283
30.51671 281
30.53683 279
30.55694 283
30.57705 276
30.59717 316
30.61728 312
30.63739 348
30.65751 372
30.67762 402
30.69773 386
30.71785 439
30.73796 408
30.75808 392
30.77819 381
30.7983 412
30.81842 401
30.83853 418
30.85864 367
30.87876 328
30.89887 311
30.91899 284
30.9391 293
30.95921 224
30.97933 219
30.99944 200
31.01955 207
31.03967 170
31.05978 187
31.0799 200
31.10001 216
31.12012 185
31.14024 211
31.16035 184
31.18046 224
31.20058 210
31.22069 215
31.2408 198
31.26092 223
31.28103 189
31.30115 210
31.32126 236
31.34137 231
31.36149 221
31.3816 244
31.40171 229
31.42183 199
31.44194 204
31.46206 205
31.48217 172
31.50228 174
31.5224 195
31.54251 190
31.56262 177
31.58274 184
31.60285 201
31.62297 163
31.64308 176
31.66319 177
31.68331 167
31.70342 186
31.72353 170
31.74365 188
31.76376 178
31.78387 170
31.80399 196
31.8241 160
31.84422 184
31.86433 150
31.88444 178
31.90456 176
31.92467 182
31.94478 199
31.9649 183
31.98501 195
32.00513 213
32.02524 220
32.04535 216
32.06547 222
32.08558 227
32.10569 250
32.12581 266
32.14592 218
32.16604 259
32.18615 233
32.20626 236
32.22638 230
32.24649 217
32.2666 220
32.28672 203
32.30683 235
32.32694 265
32.34706 226
32.36717 237
32.38729 244
32.4074 248
32.42751 276
32.44763 265
32.46774 226
32.48785 203
32.50797 209
32.52808 198
32.5482 212
32.56831 173
32.58842 189
32.60854 171
32.62865 174
32.64876 170
32.66888 181
32.68899 160
32.7091 163
32.72922 168
32.74933 133
32.76945 174
32.78956 153
32.80967 185
32.82979 157
32.8499 166
32.87001 156
32.89013 151
32.91024 167
32.93036 188
32.95047 155
32.97058 159
32.9907 171
33.01081 168
33.03092 159
33.05104 160
33.07115 161
33.09127 171
33.11138 163
33.13149 149
33.15161 183
33.17172 162
33.19183 163
33.21195 166
33.23206 168
33.25217 162
33.27229 153
33.2924 165
33.31252 170
33.33263 162
33.35274 161
33.37286 166
33.39297 147
33.41308 157
33.4332 157
33.45331 192
33.47343 167
33.49354 173
33.51365 179
33.53377 136
33.55388 168
33.57399 178
33.59411 163
33.61422 173
33.63434 190
33.65445 161
33.67456 175
33.69468 193
33.71479 201
33.7349 180
33.75502 185
33.77513 173
33.79524 178
33.81536 190
33.83547 175
33.85559 199
33.8757 199
33.89581 181
33.91593 152
33.93604 217
33.95615 194
33.97627 171
33.99638 215
34.0165 220
34.03661 226
34.05672 250
34.07684 238
34.09695 262
34.11706 299
34.13718 269
34.15729 295
34.17741 340
34.19752 344
34.21763 310
34.23775 305
34.25786 290
34.27797 253
34.29809 277
34.3182 262
34.33831 244
34.35843 260
34.37854 250
34.39866 233
34.41877 272
34.43888 248
34.459 252
34.47911 226
34.49922 250
34.51934 251
34.53945 250
34.55957 266
34.57968 244
34.59979 268
34.61991 252
34.64002 271
34.66013 268
34.68025 261
34.70036 270
34.72047 278
34.74059 252
34.7607 243
34.78082 238
34.80093 277
34.82104 294
34.84116 286
34.86127 293
34.88138 308
34.9015 302
34.92161 267
34.94173 306
34.96184 304
34.98195 286
35.00207 283
35.02218 275
35.04229 270
35.06241 278
35.08252 288
35.10264 275
35.12275 267
35.14286 253
35.16298 314
35.18309 319
35.2032 288
35.22332 313
35.24343 285
35.26354 300
35.28366 292
35.30377 276
35.32389 295
35.344 297
35.36411 270
35.38423 309
35.40434 272
35.42445 330
35.44457 326
35.46468 314
35.4848 334
35.50491 359
35.52502 328
35.54514 306
35.56525 300
35.58536 293
35.60548 269
35.62559 285
35.64571 298
35.66582 258
35.68593 246
35.70605 264
35.72616 242
35.74627 240
35.76639 236
35.7865 231
35.80661 247
35.82673 250
35.84684 195
35.86696 234
35.88707 233
35.90718 216
35.9273 227
35.94741 232
35.96752 239
35.98764 227
36.00775 223
36.02787 232
36.04798 244
36.06809 250
36.08821 221
36.10832 233
36.12843 241
36.14855 261
36.16866 244
36.18878 254
36.20889 259
36.229 297
36.24912 281
36.26923 314
36.28934 377
36.30946 395
36.32957 430
36.34968 601
36.3698 653
36.38991 804
36.41003 936
36.43014 1157
36.45025 1349
36.47037 1560
36.49048 1614
36.51059 1715
36.53071 1559
36.55082 1483
36.57094 1132
36.59105 1007
36.61116 868
36.63128 729
36.65139 572
36.6715 439
36.69162 310
36.71173 280
36.73184 289
36.75196 286
36.77207 277
36.79219 277
36.8123 268
36.83241 266
36.85253 313
36.87264 305
36.89275 301
36.91287 294
36.93298 306
36.9531 298
36.97321 313
36.99332 313
37.01344 327
37.03355 284
37.05366 263
37.07378 254
37.09389 261
37.11401 239
37.13412 221
37.15423 217
37.17435 216
37.19446 186
37.21457 201
37.23469 228
37.2548 231
37.27491 219
37.29503 236
37.31514 209
37.33526 211
37.35537 210
37.37548 229
37.3956 200
37.41571 200
37.43582 236
37.45594 215
37.47605 216
37.49617 207
37.51628 208
37.53639 207
37.55651 194
37.57662 221
37.59673 240
37.61685 219
37.63696 222
37.65708 190
37.67719 218
37.6973 208
37.71742 189
37.73753 211
37.75764 192
37.77776 183
37.79787 200
37.81798 176
37.8381 202
37.85821 203
37.87833 195
37.89844 181
37.91855 194
37.93867 193
37.95878 172
37.97889 198
37.99901 176
38.01912 202
38.03924 184
38.05935 163
38.07946 208
38.09958 190
38.11969 212
38.1398 202
38.15992 200
38.18003 202
38.20015 193
38.22026 204
38.24037 212
38.26049 182
38.2806 209
38.30071 187
38.32083 232
38.34094 208
38.36105 203
38.38117 221
38.40128 228
38.4214 238
38.44151 226
38.46162 217
38.48174 262
38.50185 271
38.52196 264
38.54208 226
38.56219 276
38.58231 229
38.60242 247
38.62253 207
38.64265 268
38.66276 213
38.68287 211
38.70299 221
38.7231 195
38.74321 190
38.76333 181
38.78344 199
38.80356 202
38.82367 195
38.84378 203
38.8639 196
38.88401 189
38.90412 220
38.92424 195
38.94435 190
38.96447 191
38.98458 208
39.00469 223
39.02481 237
39.04492 248
39.06503 252
39.08515 242
39.10526 220
39.12538 249
39.14549 269
39.1656 268
39.18572 292
39.20583 355
39.22594 396
39.24606 429
39.26617 484
39.28628 612
39.3064 709
39.32651 835
39.34663 1041
39.36674 1226
39.38685 1360
39.40697 1502
39.42708 1568
39.44719 1429
39.46731 1283
39.48742 1107
39.50754 944
39.52765 839
39.54776 759
39.56788 636
39.58799 454
39.6081 347
39.62822 286
39.64833 243
39.66845 219
39.68856 253
39.70867 216
39.72879 233
39.7489 209
39.76901 176
39.78913 211
39.80924 201
39.82935 204
39.84947 207
39.86958 170
39.8897 202
39.90981 204
39.92992 220
39.95004 208
39.97015 217
39.99026 220
40.01038 239
40.03049 235
40.05061 282
40.07072 292
40.09083 338
40.11095 396
40.13106 443
40.15117 484
40.17129 554
40.1914 649
40.21152 772
40.23163 821
40.25174 773
40.27186 790
40.29197 708
40.31208 592
40.3322 541
40.35231 454
40.37242 451
40.39254 388
40.41265 333
40.43277 260
40.45288 228
40.47299 241
40.49311 191
40.51322 196
40.53333 192
40.55345 179
40.57356 203
40.59368 203
40.61379 185
40.6339 180
40.65402 175
40.67413 195
40.69424 192
40.71436 199
40.73447 169
40.75458 206
40.7747 167
40.79481 164
40.81493 192
40.83504 172
40.85515 176
40.87527 189
40.89538 172
40.91549 167
40.93561 154
40.95572 195
40.97584 180
40.99595 179
41.01606 177
41.03618 211
41.05629 187
41.0764 179
41.09652 181
41.11663 171
41.13675 170
41.15686 183
41.17697 200
41.19709 220
41.2172 176
41.23731 176
41.25743 174
41.27754 168
41.29765 183
41.31777 153
41.33788 169
41.358 191
41.37811 197
41.39822 146
41.41834 216
41.43845 215
41.45856 205
41.47868 218
41.49879 213
41.51891 202
41.53902 214
41.55913 197
41.57925 231
41.59936 248
41.61947 256
41.63959 281
41.6597 314
41.67982 348
41.69993 352
41.72004 387
41.74016 380
41.76027 382
41.78038 380
41.8005 371
41.82061 340
41.84072 327
41.86084 332
41.88095 324
41.90107 295
41.92118 238
41.94129 231
41.96141 220
41.98152 216
42.00163 211
42.02175 226
42.04186 207
42.06198 206
42.08209 232
42.1022 228
42.12232 235
42.14243 270
42.16254 259
42.18266 295
42.20277 334
42.22289 363
42.243 404
42.26311 438
42.28323 576
42.30334 653
42.32345 780
42.34357 878
42.36368 1013
42.38379 1078
42.40391 1086
42.42402 1099
42.44414 990
42.46425 835
42.48436 779
42.50448 693
42.52459 567
42.5447 565
42.56482 456
42.58493 369
42.60505 314
42.62516 275
42.64527 277
42.66539 267
42.6855 245
42.70561 233
42.72573 246
42.74584 236
42.76595 233
42.78607 262
42.80618 239
42.8263 239
42.84641 202
42.86652 239
42.88664 217
42.90675 211
42.92686 218
42.94698 197
42.96709 187
42.98721 185
43.00732 215
43.02743 182
43.04755 193
43.06766 201
43.08777 186
43.10789 184
43.128 184
43.14812 174
43.16823 192
43.18834 185
43.20846 182
43.22857 159
43.24868 176
43.2688 192
43.28891 152
43.30902 162
43.32914 186
43.34925 160
43.36937 157
43.38948 177
43.40959 189
43.42971 174
43.44982 164
43.46993 163
43.49005 195
43.51016 152
43.53028 181
43.55039 183
43.5705 189
43.59062 173
43.61073 154
43.63084 191
43.65096 155
43.67107 165
43.69119 163
43.7113 156
43.73141 156
43.75153 148
43.77164 150
43.79175 171
43.81187 158
43.83198 145
43.85209 155
43.87221 149
43.89232 139
43.91244 157
43.93255 170
43.95266 186
43.97278 154
43.99289 157
44.013 153
44.03312 162
44.05323 198
44.07335 176
44.09346 174
44.11357 192
44.13369 183
44.1538 180
44.17391 164
44.19403 206
44.21414 195
44.23426 174
44.25437 179
44.27448 170
44.2946 176
44.31471 183
44.33482 175
44.35494 157
44.37505 175
44.39516 186
44.41528 166
44.43539 161
44.45551 158
44.47562 182
44.49573 165
44.51585 166
44.53596 164
44.55607 174
44.57619 165
44.5963 172
44.61642 169
44.63653 150
44.65664 170
44.67676 145
44.69687 165
44.71698 194
44.7371 172
44.75721 163
44.77732 151
44.79744 182
44.81755 179
44.83767 144
44.85778 162
44.87789 178
44.89801 178
44.91812 161
44.93823 187
44.95835 168
44.97846 171
44.99858 164
45.01869 198
45.0388 163
45.05892 190
45.07903 179
45.09914 159
45.11926 162
45.13937 184
45.15949 176
45.1796 175
45.19971 182
45.21983 166
45.23994 185
45.26005 192
45.28017 186
45.30028 188
45.32039 214
45.34051 199
45.36062 183
45.38074 207
45.40085 222
45.42096 229
45.44108 221
45.46119 271
45.4813 295
45.50142 298
45.52153 296
45.54165 327
45.56176 357
45.58187 370
45.60199 395
45.6221 510
45.64221 517
45.66233 575
45.68244 686
45.70256 774
45.72267 801
45.74278 825
45.7629 806
45.78301 716
45.80312 641
45.82324 595
45.84335 529
45.86346 476
45.88358 454
45.90369 411
45.92381 326
45.94392 297
45.96403 225
45.98415 215
46.00426 221
46.02437 212
46.04449 203
46.0646 186
46.08472 175
46.10483 201
46.12494 174
46.14506 188
46.16517 175
46.18528 185
46.2054 206
46.22551 201
46.24563 176
46.26574 190
46.28585 179
46.30597 171
46.32608 158
46.34619 180
46.36631 172
46.38642 152
46.40653 157
46.42665 163
46.44676 170
46.46688 172
46.48699 162
46.5071 151
46.52722 161
46.54733 165
46.56744 163
46.58756 155
46.60767 160
46.62779 162
46.6479 185
46.66801 145
46.68813 151
46.70824 140
46.72835 166
46.74847 157
46.76858 165
46.78869 174
46.80881 173
46.82892 174
46.84904 159
46.86915 183
46.88926 157
46.90938 195
46.92949 172
46.9496 185
46.96972 185
46.98983 180
47.00995 203
47.03006 206
47.05017 186
47.07029 225
47.0904 197
47.11051 228
47.13063 204
47.15074 209
47.17086 215
47.19097 224
47.21108 211
47.2312 189
47.25131 194
47.27142 192
47.29154 187
47.31165 192
47.33176 183
47.35188 195
47.37199 193
47.39211 203
47.41222 201
47.43233 243
47.45245 192
47.47256 202
47.49267 194
47.51279 185
47.5329 183
47.55302 202
47.57313 199
47.59324 175
47.61336 168
47.63347 154
47.65358 166
47.6737 150
47.69381 145
47.71393 174
47.73404 150
47.75415 143
47.77427 159
47.79438 144
47.81449 150
47.83461 143
47.85472 145
47.87483 173
47.89495 154
47.91506 182
47.93518 153
47.95529 175
47.9754 163
47.99552 144
48.01563 157
48.03574 160
48.05586 148
48.07597 157
48.09609 151
48.1162 144
48.13631 179
48.15643 156
48.17654 154
48.19665 177
48.21677 146
48.23688 140
48.257 179
48.27711 161
48.29722 165
48.31734 155
48.33745 170
48.35756 184
48.37768 145
48.39779 152
48.4179 181
48.43802 159
48.45813 160
48.47825 151
48.49836 136
48.51847 167
48.53859 160
48.5587 143
48.57881 158
48.59893 160
48.61904 158
48.63916 176
48.65927 175
48.67938 191
48.6995 193
48.71961 178
48.73972 164
48.75984 181
48.77995 202
48.80006 204
48.82018 217
48.84029 180
48.86041 187
48.88052 214
48.90063 235
48.92075 211
48.94086 225
48.96097 194
48.98109 207
49.0012 207
49.02132 204
49.04143 198
49.06154 205
49.08166 207
49.10177 182
49.12188 200
49.142 215
49.16211 215
49.18223 206
49.20234 208
49.22245 189
49.24257 176
49.26268 188
49.28279 179
49.30291 148
49.32302 167
49.34313 164
49.36325 171
49.38336 171
49.40348 182
49.42359 156
49.4437 175
49.46382 181
49.48393 193
49.50404 197
49.52416 179
49.54427 191
49.56439 195
49.5845 220
49.60461 187
49.62473 240
49.64484 246
49.66495 251
49.68507 252
49.70518 241
49.7253 289
49.74541 308
49.76552 326
49.78564 345
49.80575 396
49.82586 416
49.84598 512
49.86609 523
49.8862 597
49.90632 670
49.92643 794
49.94655 935
49.96666 1102
49.98677 1349
50.00689 1542
50.027 1843
50.04711 2177
50.06723 2192
50.08734 2328
50.10746 2294
50.12757 2153
50.14768 1830
50.1678 1520
50.18791 1255
50.20802 1304
50.22814 1169
50.24825 1080
50.26837 903
50.28848 717
50.30859 491
50.32871 400
50.34882 362
50.36893 355
50.38905 357
50.40916 396
50.42927 382
50.44939 413
50.4695 446
50.48962 440
50.50973 443
50.52984 437
50.54996 419
50.57007 411
50.59018 403
50.6103 394
50.63041 366
50.65053 303
50.67064 348
50.69075 300
50.71087 288
50.73098 307
50.75109 281
50.77121 280
50.79132 274
50.81143 282
50.83155 242
50.85166 242
50.87178 249
50.89189 203
50.912 225
50.93212 204
50.95223 193
50.97234 199
50.99246 205
51.01257 228
51.03269 176
51.0528 203
51.07291 175
51.09303 204
51.11314 192
51.13325 183
51.15337 208
51.17348 175
51.1936 190
51.21371 165
51.23382 195
51.25394 163
51.27405 203
51.29416 176
51.31428 210
51.33439 180
51.3545 172
51.37462 181
51.39473 170
51.41485 156
51.43496 156
51.45507 166
51.47519 142
51.4953 163
51.51541 172
51.53553 145
51.55564 142
51.57576 148
51.59587 167
51.61598 134
51.6361 137
51.65621 150
51.67632 138
51.69644 147
51.71655 149
51.73667 130
51.75678 142
51.77689 156
51.79701 140
51.81712 150
51.83723 174
51.85735 143
51.87746 153
51.89757 147
51.91769 136
51.9378 140
51.95792 136
51.97803 146
51.99814 151
52.01826 138
52.03837 127
52.05848 142
52.0786 146
52.09871 158
52.11883 153
52.13894 141
52.15905 155
52.17917 159
52.19928 176
52.21939 139
52.23951 175
52.25962 147
52.27974 155
52.29985 158
52.31996 170
52.34008 146
52.36019 147
52.3803 156
52.40042 141
52.42053 169
52.44064 158
52.46076 138
52.48087 157
52.50099 157
52.5211 140
52.54121 165
52.56133 147
52.58144 160
52.60155 161
52.62167 179
52.64178 179
52.6619 175
52.68201 172
52.70212 175
52.72224 176
52.74235 182
52.76246 197
52.78258 174
52.80269 158
52.8228 168
52.84292 160
52.86303 182
52.88315 163
52.90326 175
52.92337 153
52.94349 158
52.9636 169
52.98371 144
53.00383 131
53.02394 154
53.04406 155
53.06417 145
53.08428 158
53.1044 182
53.12451 174
53.14462 147
53.16474 145
53.18485 161
53.20497 138
53.22508 145
53.24519 158
53.26531 154
53.28542 165
53.30553 150
53.32565 128
53.34576 148
53.36587 149
53.38599 150
53.4061 150
53.42622 175
53.44633 156
53.46644 143
53.48656 168
53.50667 172
53.52678 158
53.5469 155
53.56701 164
53.58713 144
53.60724 147
53.62735 153
53.64747 155
53.66758 160
53.68769 161
53.70781 175
53.72792 145
53.74804 146
53.76815 139
53.78826 167
53.80838 161
53.82849 160
53.8486 169
53.86872 172
53.88883 162
53.90894 194
53.92906 193
53.94917 161
53.96929 177
53.9894 144
54.00951 184
54.02963 158
54.04974 158
54.06985 183
54.08997 169
54.11008 160
54.1302 167
54.15031 165
54.17042 199
54.19054 193
54.21065 167
54.23076 145
54.25088 175
54.27099 165
54.29111 173
54.31122 201
54.33133 175
54.35145 187
54.37156 187
54.39167 190
54.41179 209
54.4319 206
54.45201 185
54.47213 185
54.49224 209
54.51236 186
54.53247 224
54.55258 240
54.5727 260
54.59281 267
54.61292 298
54.63304 283
54.65315 342
54.67327 373
54.69338 422
54.71349 476
54.73361 575
54.75372 625
54.77383 745
54.79395 730
54.81406 750
54.83417 759
54.85429 701
54.8744 642
54.89452 525
54.91463 531
54.93474 488
54.95486 480
54.97497 453
54.99508 415
55.0152 392
55.03531 352
55.05543 261
55.07554 286
55.09565 279
55.11577 254
55.13588 280
55.15599 289
55.17611 284
55.19622 354
55.21634 382
55.23645 448
55.25656 449
55.27668 412
55.29679 412
55.3169 377
55.33702 368
55.35713 345
55.37724 303
55.39736 348
55.41747 334
55.43759 284
55.4577 281
55.47781 275
55.49793 257
55.51804 187
55.53815 201
55.55827 173
55.57838 185
55.5985 175
55.61861 169
55.63872 163
55.65884 156
55.67895 170
55.69906 147
55.71918 160
55.73929 179
55.75941 150
55.77952 175
55.79963 179
55.81975 152
55.83986 138
55.85997 171
55.88009 144
55.9002 143
55.92031 165
55.94043 175
55.96054 153
55.98066 176
56.00077 166
56.02088 147
56.041 142
56.06111 158
56.08122 164
56.10134 147
56.12145 140
56.14157 136
56.16168 163
56.18179 147
56.20191 140
56.22202 135
56.24213 163
56.26225 146
56.28236 151
56.30248 135
56.32259 136
56.3427 159
56.36282 138
56.38293 152
56.40304 134
56.42316 146
56.44327 145
56.46338 139
56.4835 150
56.50361 156
56.52373 161
56.54384 160
56.56395 156
56.58407 166
56.60418 172
56.62429 162
56.64441 151
56.66452 146
56.68464 167
56.70475 187
56.72486 160
56.74498 166
56.76509 173
56.7852 159
56.80532 159
56.82543 159
56.84554 165
56.86566 148
56.88577 163
56.90589 164
56.926 137
56.94611 153
56.96623 140
56.98634 142
57.00645 145
57.02657 174
57.04668 138
57.0668 181
57.08691 159
57.10702 182
57.12714 174
57.14725 174
57.16736 192
57.18748 178
57.20759 189
57.22771 185
57.24782 170
57.26793 160
57.28805 193
57.30816 198
57.32827 158
57.34839 157
57.3685 176
57.38861 155
57.40873 168
57.42884 161
57.44896 153
57.46907 151
57.48918 167
57.5093 153
57.52941 136
57.54952 130
57.56964 182
57.58975 135
57.60987 149
57.62998 167
57.65009 140
57.67021 175
57.69032 142
57.71043 134
57.73055 139
57.75066 155
57.77078 156
57.79089 131
57.811 145
57.83112 154
57.85123 132
57.87134 164
57.89146 169
57.91157 147
57.93168 158
57.9518 142
57.97191 157
57.99203 150
58.01214 149
58.03225 147
58.05237 154
58.07248 153
58.09259 149
58.11271 161
58.13282 150
58.15294 177
58.17305 171
58.19316 151
58.21328 165
58.23339 161
58.2535 152
58.27362 135
58.29373 183
58.31385 190
58.33396 162
58.35407 168
58.37419 166
58.3943 165
58.41441 176
58.43453 143
58.45464 165
58.47475 174
58.49487 178
58.51498 179
58.5351 159
58.55521 194
58.57532 189
58.59544 182
58.61555 171
58.63566 195
58.65578 176
58.67589 180
58.69601 168
58.71612 177
58.73623 166
58.75635 173
58.77646 149
58.79657 154
58.81669 169
58.8368 145
58.85691 147
58.87703 149
58.89714 124
58.91726 139
58.93737 132
58.95748 143
58.9776 140
58.99771 146
59.01782 140
59.03794 158
59.05805 133
59.07817 136
59.09828 160
59.11839 159
59.13851 148
59.15862 166
59.17873 144
59.19885 169
59.21896 157
59.23908 160
59.25919 152
59.2793 185
59.29942 181
59.31953 163
59.33964 157
59.35976 182
59.37987 202
59.39998 227
59.4201 193
59.44021 185
59.46033 201
59.48044 220
59.50055 230
59.52067 260
59.54078 236
59.56089 259
59.58101 269
59.60112 308
59.62124 308
59.64135 334
59.66146 356
59.68158 408
59.70169 467
59.7218 517
59.74192 617
59.76203 708
59.78215 825
59.80226 989
59.82237 1110
59.84249 1277
59.8626 1336
59.88271 1521
59.90283 1478
59.92294 1428
59.94305 1273
59.96317 1095
59.98328 972
60.0034 915
60.02351 848
60.04362 844
60.06374 796
60.08385 782
60.10396 639
60.12408 535
60.14419 404
60.16431 305
60.18442 248
60.20453 224
60.22465 221
60.24476 206
60.26487 197
60.28499 213
60.3051 176
60.32522 190
60.34533 185
60.36544 208
60.38556 186
60.40567 194
60.42578 170
60.4459 182
60.46601 162
60.48612 180
60.50624 166
60.52635 183
60.54647 170
60.56658 154
60.58669 161
60.60681 157
60.62692 175
60.64703 177
60.66715 161
60.68726 178
60.70738 161
60.72749 145
60.7476 151
60.76772 168
60.78783 188
60.80794 161
60.82806 159
60.84817 140
60.86828 167
60.8884 157
60.90851 161
60.92863 171
60.94874 168
60.96885 187
60.98897 154
61.00908 185
61.02919 202
61.04931 190
61.06942 182
61.08954 208
61.10965 197
61.12976 188
61.14988 181
61.16999 200
61.1901 189
61.21022 181
61.23033 198
61.25045 197
61.27056 163
61.29067 163
61.31079 179
61.3309 189
61.35101 155
61.37113 161
61.39124 146
61.41135 156
61.43147 182
61.45158 177
61.4717 138
61.49181 146
61.51192 135
61.53204 151
61.55215 162
61.57226 157
61.59238 165
61.61249 169
61.63261 150
61.65272 167
61.67283 177
61.69295 172
61.71306 166
61.73317 139
61.75329 152
61.7734 156
61.79352 151
61.81363 151
61.83374 159
61.85386 145
61.87397 189
61.89408 166
61.9142 182
61.93431 159
61.95442 160
61.97454 177
61.99465 146
62.01477 153
62.03488 174
62.05499 176
62.07511 187
62.09522 175
62.11533 181
62.13545 173
62.15556 202
62.17568 195
62.19579 177
62.2159 175
62.23602 192
62.25613 185
62.27624 171
62.29636 177
62.31647 176
62.33659 182
62.3567 180
62.37681 169
62.39693 173
62.41704 164
62.43715 180
62.45727 171
62.47738 195
62.49749 152
62.51761 177
62.53772 162
62.55784 163
62.57795 172
62.59806 178
62.61818 158
62.63829 173
62.6584 162
62.67852 175
62.69863 169
62.71875 173
62.73886 155
62.75897 172
62.77909 178
62.7992 152
62.81931 161
62.83943 151
62.85954 167
62.87965 196
62.89977 182
62.91988 191
62.94 159
62.96011 173
62.98022 177
63.00034 179
63.02045 172
63.04056 177
63.06068 181
63.08079 164
63.10091 171
63.12102 188
63.14113 192
63.16125 181
63.18136 183
63.20147 156
63.22159 169
63.2417 193
63.26182 182
63.28193 176
63.30204 152
63.32216 155
63.34227 152
63.36238 160
63.3825 148
63.40261 170
63.42272 183
63.44284 169
63.46295 174
63.48307 170
63.50318 147
63.52329 146
63.54341 168
63.56352 197
63.58363 194
63.60375 198
63.62386 196
63.64398 191
63.66409 188
63.6842 240
63.70432 210
63.72443 228
63.74454 234
63.76466 238
63.78477 290
63.80489 294
63.825 286
63.84511 331
63.86523 330
63.88534 353
63.90545 396
63.92557 409
63.94568 418
63.96579 460
63.98591 406
64.00602 402
64.02614 375
64.04625 338
64.06636 283
64.08648 302
64.10659 334
64.1267 291
64.14682 300
64.16693 273
64.18705 269
64.20716 232
64.22727 231
64.24739 201
64.2675 175
64.28761 166
64.30773 149
64.32784 150
64.34796 147
64.36807 142
64.38818 135
64.4083 164
64.42841 145
64.44852 151
64.46864 142
64.48875 124
64.50886 141
64.52898 153
64.54909 154
64.56921 151
64.58932 131
64.60943 154
64.62955 145
64.64966 139
64.66977 160
64.68989 153
64.71 142
64.73012 140
64.75023 144
64.77034 143
64.79046 127
64.81057 158
64.83068 139
64.8508 152
64.87091 136
64.89102 168
64.91114 151
64.93125 160
64.95137 161
64.97148 196
64.99159 165
65.01171 163
65.03182 151
65.05193 172
65.07205 152
65.09216 142
65.11228 174
65.13239 160
65.1525 164
65.17262 152
65.19273 172
65.21284 186
65.23296 170
65.25307 164
65.27319 184
65.2933 194
65.31341 164
65.33353 186
65.35364 168
65.37375 179
65.39387 170
65.41398 171
65.43409 179
65.45421 157
65.47432 168
65.49444 174
65.51455 173
65.53466 171
65.55478 154
65.57489 179
65.595 181
65.61512 201
65.63523 196
65.65535 173
65.67546 200
65.69557 202
65.71569 196
65.7358 190
65.75591 193
65.77603 173
65.79614 187
65.81626 154
65.83637 171
65.85648 168
65.8766 166
65.89671 166
65.91682 164
65.93694 166
65.95705 164
65.97716 154
65.99728 158
66.01739 151
66.03751 147
66.05762 146
66.07773 169
66.09785 134
66.11796 156
66.13807 161
66.15819 173
66.1783 159
66.19842 165
66.21853 178
66.23864 177
66.25876 157
66.27887 172
66.29898 180
66.3191 149
66.33921 184
66.35933 158
66.37944 153
66.39955 158
66.41967 148
66.43978 165
66.45989 172
66.48001 153
66.50012 148
66.52023 149
66.54035 165
66.56046 147
66.58058 155
66.60069 147
66.6208 134
66.64092 131
66.66103 149
66.68114 158
66.70126 146
66.72137 142
66.74149 167
66.7616 166
66.78171 170
66.80183 153
66.82194 160
66.84205 165
66.86217 167
66.88228 151
66.90239 155
66.92251 164
66.94262 177
66.96274 172
66.98285 168
67.00296 191
67.02308 140
67.04319 173
67.0633 185
67.08342 177
67.10353 162
67.12365 151
67.14376 195
67.16387 198
67.18399 158
67.2041 162
67.22421 178
67.24433 195
67.26444 214
67.28456 206
67.30467 188
67.32478 197
67.3449 235
67.36501 224
67.38512 235
67.40524 280
67.42535 256
67.44546 268
67.46558 309
67.48569 349
67.50581 366
67.52592 450
67.54603 517
67.56615 599
67.58626 618
67.60637 721
67.62649 814
67.6466 916
67.66672 922
67.68683 918
67.70694 881
67.72706 809
67.74717 700
67.76728 665
67.7874 680
67.80751 654
67.82763 646
67.84774 734
67.86785 713
67.88797 716
67.90808 716
67.92819 779
67.94831 766
67.96842 782
67.98853 906
68.00865 958
68.02876 1051
68.04888 1151
68.06899 1261
68.0891 1270
68.10922 1243
68.12933 1184
68.14944 1142
68.16956 1080
68.18967 1068
68.20979 1039
68.2299 1119
68.25001 1120
68.27013 1153
68.29024 1056
68.31035 903
68.33047 745
68.35058 668
68.3707 568
68.39081 489
68.41092 503
68.43104 491
68.45115 428
68.47126 391
68.49138 392
68.51149 328
68.5316 281
68.55172 238
68.57183 226
68.59195 183
68.61206 171
68.63217 175
68.65229 169
68.6724 173
68.69251 169
68.71263 173
68.73274 156
68.75286 156
68.77297 156
68.79308 165
68.8132 161
68.83331 160
68.85342 158
68.87354 144
68.89365 148
68.91376 140
68.93388 160
68.95399 143
68.97411 153
68.99422 157
69.01433 164
69.03445 159
69.05456 171
69.07467 140
69.09479 156
69.1149 183
69.13502 144
69.15513 159
69.17524 144
69.19536 156
69.21547 160
69.23558 163
69.2557 144
69.27581 159
69.29593 140
69.31604 147
69.33615 134
69.35627 148
69.37638 163
69.39649 161
69.41661 148
69.43672 135
69.45683 139
69.47695 154
69.49706 125
69.51718 140
69.53729 153
69.5574 137
69.57752 122
69.59763 130
69.61774 147
69.63786 147
69.65797 128
69.67809 151
69.6982 146
69.71831 140
69.73843 142
69.75854 143
69.77865 147
69.79877 147
69.81888 128
69.839 139
69.85911 116
69.87922 142
69.89934 135
69.91945 142
69.93956 136
69.95968 155
69.97979 139
69.9999 138
70.02002 122
70.04013 148
70.06025 134
70.08036 138
70.10047 146
70.12059 139
70.1407 134
70.16081 134
70.18093 155
70.20104 132
70.22116 137
70.24127 125
70.26138 131
70.2815 136
70.30161 146
70.32172 126
70.34184 150
70.36195 134
70.38207 131
70.40218 119
70.42229 150
70.44241 142
70.46252 119
70.48263 123
70.50275 108
70.52286 134
70.54297 145
70.56309 134
70.5832 126
70.60332 143
70.62343 130
70.64354 134
70.66366 138
70.68377 141
70.70388 129
70.724 144
70.74411 136
70.76423 146
70.78434 138
70.80445 125
70.82457 150
70.84468 145
70.86479 142
70.88491 140
70.90502 127
70.92513 133
70.94525 140
70.96536 146
70.98548 138
71.00559 133
71.0257 144
71.04582 144
71.06593 132
71.08604 164
71.10616 131
71.12627 140
71.14639 136
71.1665 118
71.18661 132
71.20673 135
71.22684 138
71.24695 138
71.26707 136
71.28718 131
71.3073 143
71.32741 142
71.34752 154
71.36764 145
71.38775 146
71.40786 148
71.42798 155
71.44809 141
71.4682 140
71.48832 167
71.50843 140
71.52855 162
71.54866 143
71.56877 148
71.58889 122
71.609 143
71.62911 159
71.64923 149
71.66934 152
71.68946 160
71.70957 151
71.72968 141
71.7498 157
71.76991 137
71.79002 139
71.81014 138
71.83025 152
71.85037 166
71.87048 148
71.89059 156
71.91071 152
71.93082 156
71.95093 125
71.97105 142
71.99116 142
72.01127 163
72.03139 150
72.0515 132
72.07162 146
72.09173 140
72.11184 167
72.13196 155
72.15207 156
72.17218 143
72.1923 144
72.21241 141
72.23253 157
72.25264 155
72.27275 164
72.29287 163
72.31298 152
72.33309 137
72.35321 153
72.37332 155
72.39344 154
72.41355 143
72.43366 137
72.45378 161
72.47389 157
72.494 165
72.51412 150
72.53423 140
72.55434 128
72.57446 172
72.59457 154
72.61469 154
72.6348 139
72.65491 139
72.67503 157
72.69514 143
72.71525 156
72.73537 142
72.75548 146
72.7756 145
72.79571 153
72.81582 134
72.83594 139
72.85605 136
72.87616 159
72.89628 167
72.91639 178
72.9365 166
72.95662 153
72.97673 184
72.99685 164
73.01696 181
73.03707 182
73.05719 163
73.0773 187
73.09741 161
73.11753 177
73.13764 198
73.15776 188
73.17787 187
73.19798 198
73.2181 232
73.23821 244
73.25832 251
73.27844 278
73.29855 283
73.31867 330
73.33878 370
73.35889 393
73.37901 386
73.39912 383
73.41923 403
73.43935 350
73.45946 342
73.47957 301
73.49969 295
73.5198 270
73.53992 286
73.56003 257
73.58014 270
73.60026 308
73.62037 287
73.64048 267
73.6606 231
73.68071 206
73.70083 181
73.72094 177
73.74105 163
73.76117 155
73.78128 166
73.80139 138
73.82151 140
73.84162 163
73.86174 156
73.88185 149
73.90196 160
73.92208 165
73.94219 167
73.9623 140
73.98242 140
74.00253 140
74.02264 137
74.04276 150
74.06287 157
74.08299 138
74.1031 147
74.12321 147
74.14333 142
74.16344 120
74.18355 151
74.20367 145
74.22378 132
74.2439 125
74.26401 126
74.28412 107
74.30424 137
74.32435 147
74.34446 154
74.36458 136
74.38469 149
74.40481 148
74.42492 151
74.44503 170
74.46515 147
74.48526 162
74.50537 142
74.52549 132
74.5456 136
74.56571 160
74.58583 176
74.60594 154
74.62606 153
74.64617 134
74.66628 172
74.6864 156
74.70651 171
74.72662 146
74.74674 139
74.76685 157
74.78697 150
74.80708 148
74.82719 184
74.84731 175
74.86742 152
74.88753 164
74.90765 129
74.92776 144
74.94787 148
74.96799 148
74.9881 141
75.00822 159
