3.00117 20177
3.02128 19988
3.0414 18917
3.06151 18933
3.08162 17940
3.10174 17595
3.12185 17409
3.14197 16620
3.16208 16307
3.18219 15760
3.20231 15127
3.22242 14900
3.24253 14278
3.26265 13988
3.28276 13412
3.30288 13031
3.32299 12944
3.3431 11843
3.36322 11864
3.38333 11390
3.40344 10993
3.42356 10875
3.44367 10179
3.46379 9965
3.4839 9642
3.50401 9351
3.52413 9219
3.54424 8584
3.56435 8291
3.58447 7889
3.60458 7568
3.62469 7438
3.64481 7031
3.66492 6923
3.68504 6669
3.70515 6379
3.72526 6323
3.74538 5597
3.76549 5686
3.7856 5448
3.80572 4952
3.82583 5049
3.84595 4532
3.86606 4604
3.88617 4320
3.90629 4242
3.9264 4016
3.94651 3659
3.96663 3680
3.98674 3544
4.00686 3222
4.02697 3170
4.04708 3040
4.0672 2979
4.08731 2731
4.10742 2568
4.12754 2743
4.14765 2371
4.16776 2272
4.18788 2226
4.20799 2229
4.22811 2097
4.24822 1968
4.26833 1880
4.28845 1878
4.30856 1889
4.32867 1804
4.34879 1658
4.3689 1625
4.38902 1609
4.40913 1620
4.42924 1650
4.44936 1530
4.46947 1441
4.48958 1400
4.5097 1320
4.52981 1415
4.54992 1225
4.57004 1265
4.59015 1268
4.61027 1195
4.63038 1237
4.65049 1178
4.67061 1133
4.69072 1084
4.71083 1100
4.73095 1093
4.75106 1024
4.77118 1065
4.79129 977
4.8114 1053
4.83152 950
4.85163 956
4.87174 844
4.89186 869
4.91197 868
4.93209 872
4.9522 806
4.97231 825
4.99243 820
5.01254 767
5.03265 759
5.05277 751
5.07288 752
5.09299 740
5.11311 725
5.13322 628
5.15334 663
5.17345 639
5.19356 654
5.21368 658
5.23379 562
5.2539 630
5.27402 595
5.29413 574
5.31425 561
5.33436 569
5.35447 544
5.37459 550
5.3947 525
5.41481 577
5.43493 482
5.45504 508
5.47516 455
5.49527 471
5.51538 507
5.5355 419
5.55561 445
5.57572 428
5.59584 481
5.61595 459
5.63606 419
5.65618 433
5.67629 422
5.69641 441
5.71652 474
5.73663 385
5.75675 434
5.77686 397
5.79697 391
5.81709 414
5.8372 381
5.85732 351
5.87743 386
5.89754 356
5.91766 389
5.93777 351
5.95788 363
5.978 341
5.99811 387
6.01823 312
6.03834 345
6.05845 320
6.07857 309
6.09868 358
6.11879 321
6.13891 333
6.15902 295
6.17913 315
6.19925 334
6.21936 351
6.23948 307
6.25959 331
6.2797 335
6.29982 320
6.31993 351
6.34004 296
6.36016 343
6.38027 304
6.40039 280
6.4205 302
6.44061 316
6.46073 320
6.48084 295
6.50095 310
6.52107 267
6.54118 319
6.56129 278
6.58141 288
6.60152 308
6.62164 305
6.64175 307
6.66186 320
6.68198 303
6.70209 318
6.7222 298
6.74232 269
6.76243 276
6.78255 301
6.80266 272
6.82277 294
6.84289 294
6.863 316
6.88311 300
6.90323 293
6.92334 254
6.94346 281
6.96357 277
6.98368 283
7.0038 274
7.02391 275
7.04402 279
7.06414 279
7.08425 262
7.10436 273
7.12448 278
7.14459 309
7.16471 314
7.18482 249
7.20493 298
7.22505 284
7.24516 283
7.26527 289
7.28539 289
7.3055 285
7.32562 298
7.34573 327
7.36584 288
7.38596 299
7.40607 234
7.42618 266
7.4463 278
7.46641 257
7.48653 268
7.50664 287
7.52675 278
7.54687 302
7.56698 293
7.58709 292
7.60721 279
7.62732 318
7.64743 281
7.66755 272
7.68766 297
7.70778 299
7.72789 311
7.748 324
7.76812 301
7.78823 303
7.80834 284
7.82846 309
7.84857 315
7.86869 307
7.8888 273
7.90891 291
7.92903 304
7.94914 307
7.96925 283
7.98937 313
8.00948 297
8.0296 292
8.04971 262
8.06982 298
8.08994 281
8.11005 265
8.13016 286
8.15028 300
8.17039 269
8.1905 298
8.21062 306
8.23073 325
8.25085 306
8.27096 299
8.29107 295
8.31119 300
8.3313 289
8.35141 310
8.37153 295
8.39164 316
8.41176 324
8.43187 273
8.45198 341
8.4721 297
8.49221 297
8.51232 333
8.53244 314
8.55255 317
8.57266 337
8.59278 313
8.61289 324
8.63301 297
8.65312 340
8.67323 307
8.69335 324
8.71346 328
8.73357 364
8.75369 330
8.7738 345
8.79392 356
8.81403 338
8.83414 355
8.85426 375
8.87437 367
8.89448 348
8.9146 394
8.93471 363
8.95483 344
8.97494 362
8.99505 320
9.01517 331
9.03528 331
9.05539 256
9.07551 320
9.09562 292
9.11573 293
9.13585 293
9.15596 304
9.17608 314
9.19619 320
9.2163 265
9.23642 319
9.25653 296
9.27664 272
9.29676 280
9.31687 286
9.33699 282
9.3571 311
9.37721 306
9.39733 293
9.41744 278
9.43755 300
9.45767 299
9.47778 276
9.4979 315
9.51801 292
9.53812 271
9.55824 273
9.57835 285
9.59846 292
9.61858 280
9.63869 263
9.6588 249
9.67892 258
9.69903 288
9.71915 280
9.73926 290
9.75937 294
9.77949 325
9.7996 278
9.81971 278
9.83983 282
9.85994 318
9.88006 276
9.90017 276
9.92028 287
9.9404 292
9.96051 258
9.98062 302
10.00074 280
10.02085 269
10.04097 271
10.06108 285
10.08119 312
10.10131 312
10.12142 252
10.14153 255
10.16165 295
10.18176 293
10.20187 284
10.22199 306
10.2421 283
10.26222 285
10.28233 270
10.30244 292
10.32256 278
10.34267 273
10.36278 301
10.3829 273
10.40301 283
10.42313 280
10.44324 278
10.46335 317
10.48347 303
10.50358 295
10.52369 272
10.54381 271
10.56392 292
10.58403 312
10.60415 277
10.62426 329
10.64438 270
10.66449 273
10.6846 294
10.70472 275
10.72483 306
10.74494 287
10.76506 278
10.78517 302
10.80529 292
10.8254 285
10.84551 289
10.86563 310
10.88574 294
10.90585 305
10.92597 264
10.94608 327
10.9662 304
10.98631 310
11.00642 316
11.02654 284
11.04665 293
11.06676 291
11.08688 270
11.10699 303
11.1271 266
11.14722 298
11.16733 297
11.18745 268
11.20756 299
11.22767 288
11.24779 259
11.2679 329
11.28801 275
11.30813 286
11.32824 274
11.34836 282
11.36847 287
11.38858 274
11.4087 283
11.42881 304
11.44892 342
11.46904 247
11.48915 269
11.50927 328
11.52938 250
11.54949 306
11.56961 298
11.58972 279
11.60983 288
11.62995 282
11.65006 268
11.67017 333
11.69029 295
11.7104 303
11.73052 257
11.75063 297
11.77074 275
11.79086 313
11.81097 298
11.83108 331
11.8512 325
11.87131 295
11.89143 308
11.91154 328
11.93165 302
11.95177 285
11.97188 285
11.99199 314
12.01211 302
12.03222 304
12.05234 310
12.07245 297
12.09256 317
12.11268 320
12.13279 314
12.1529 305
12.17302 290
12.19313 252
12.21324 303
12.23336 304
12.25347 322
12.27359 317
12.2937 286
12.31381 323
12.33393 300
12.35404 323
12.37415 313
12.39427 294
12.41438 321
12.4345 311
12.45461 305
12.47472 302
12.49484 266
12.51495 313
12.53506 292
12.55518 325
12.57529 267
12.5954 326
12.61552 288
12.63563 299
12.65575 272
12.67586 265
12.69597 285
12.71609 302
12.7362 276
12.75631 242
12.77643 258
12.79654 254
12.81666 270
12.83677 304
12.85688 271
12.877 319
12.89711 266
12.91722 252
12.93734 276
12.95745 286
12.97757 271
12.99768 277
13.01779 269
13.03791 236
13.05802 246
13.07813 242
13.09825 234
13.11836 267
13.13847 273
13.15859 273
13.1787 265
13.19882 283
13.21893 258
13.23904 257
13.25916 259
13.27927 263
13.29938 225
13.3195 277
13.33961 295
13.35973 267
13.37984 267
13.39995 276
13.42007 261
13.44018 248
13.46029 252
13.48041 223
13.50052 227
13.52064 265
13.54075 251
13.56086 232
13.58098 258
13.60109 264
13.6212 241
13.64132 259
13.66143 282
13.68154 242
13.70166 247
13.72177 268
13.74189 289
13.762 263
13.78211 268
13.80223 268
13.82234 267
13.84245 257
13.86257 291
13.88268 263
13.9028 260
13.92291 279
13.94302 248
13.96314 276
13.98325 255
14.00336 259
14.02348 241
14.04359 237
14.06371 285
14.08382 242
14.10393 250
14.12405 244
14.14416 214
14.16427 221
14.18439 252
14.2045 231
14.22461 241
14.24473 236
14.26484 256
14.28496 245
14.30507 247
14.32518 266
14.3453 264
14.36541 242
14.38552 252
14.40564 239
14.42575 230
14.44587 262
14.46598 234
14.48609 239
14.50621 257
14.52632 237
14.54643 232
14.56655 230
14.58666 215
14.60677 241
14.62689 254
14.647 242
14.66712 226
14.68723 265
14.70734 229
14.72746 225
14.74757 247
14.76768 218
14.7878 231
14.80791 236
14.82803 241
14.84814 211
14.86825 238
14.88837 226
14.90848 227
14.92859 262
14.94871 267
14.96882 247
14.98894 252
15.00905 243
15.02916 245
15.04928 249
15.06939 248
15.0895 224
15.10962 243
15.12973 240
15.14984 269
15.16996 248
15.19007 224
15.21019 236
15.2303 234
15.25041 245
15.27053 223
15.29064 224
15.31075 250
15.33087 205
15.35098 242
15.3711 207
15.39121 246
15.41132 246
15.43144 206
15.45155 229
15.47166 259
15.49178 236
15.51189 233
15.53201 240
15.55212 242
15.57223 219
15.59235 259
15.61246 247
15.63257 240
15.65269 233
15.6728 248
15.69291 234
15.71303 238
15.73314 242
15.75326 247
15.77337 268
15.79348 213
15.8136 279
15.83371 220
15.85382 256
15.87394 217
15.89405 252
15.91417 233
15.93428 266
15.95439 207
15.97451 233
15.99462 208
16.01473 203
16.03485 208
16.05496 248
16.07508 224
16.09519 247
16.1153 227
16.13542 225
16.15553 218
16.17564 216
16.19576 219
16.21587 243
16.23598 242
16.2561 214
16.27621 216
16.29633 228
16.31644 222
16.33655 242
16.35667 259
16.37678 233
16.39689 246
16.41701 222
16.43712 221
16.45724 234
16.47735 219
16.49746 206
16.51758 231
16.53769 244
16.5578 247
16.57792 221
16.59803 262
16.61814 233
16.63826 205
16.65837 199
16.67849 236
16.6986 265
16.71871 216
16.73883 224
16.75894 244
16.77905 206
16.79917 210
16.81928 217
16.8394 215
16.85951 239
16.87962 209
16.89974 228
16.91985 245
16.93996 221
16.96008 219
16.98019 207
17.00031 227
17.02042 222
17.04053 215
17.06065 215
17.08076 246
17.10087 244
17.12099 214
17.1411 245
17.16121 224
17.18133 242
17.20144 216
17.22156 228
17.24167 221
17.26178 212
17.2819 228
17.30201 221
17.32212 277
17.34224 247
17.36235 233
17.38247 231
17.40258 205
17.42269 217
17.44281 218
17.46292 237
17.48303 211
17.50315 243
17.52326 239
17.54338 222
17.56349 245
17.5836 236
17.60372 234
17.62383 250
17.64394 240
17.66406 250
17.68417 245
17.70428 271
17.7244 240
17.74451 240
17.76463 241
17.78474 255
17.80485 268
17.82497 228
17.84508 240
17.86519 248
17.88531 253
17.90542 273
17.92554 243
17.94565 251
17.96576 216
17.98588 220
18.00599 251
18.0261 230
18.04622 235
18.06633 252
18.08645 242
18.10656 254
18.12667 250
18.14679 249
18.1669 271
18.18701 229
18.20713 231
18.22724 260
18.24735 215
18.26747 247
18.28758 222
18.3077 259
18.32781 206
18.34792 222
18.36804 226
18.38815 227
18.40826 203
18.42838 210
18.44849 239
18.46861 210
18.48872 234
18.50883 252
18.52895 208
18.54906 226
18.56917 222
18.58929 231
18.6094 224
18.62951 245
18.64963 246
18.66974 219
18.68986 247
18.70997 239
18.73008 224
18.7502 230
18.77031 259
18.79042 245
18.81054 233
18.83065 272
18.85077 252
18.87088 229
18.89099 223
18.91111 204
18.93122 249
18.95133 245
18.97145 234
18.99156 231
19.01168 240
19.03179 286
19.0519 250
19.07202 220
19.09213 252
19.11224 263
19.13236 266
19.15247 246
19.17258 234
19.1927 221
19.21281 267
19.23293 252
19.25304 275
19.27315 258
19.29327 254
19.31338 272
19.33349 271
19.35361 287
19.37372 273
19.39384 264
19.41395 282
19.43406 259
19.45418 267
19.47429 281
19.4944 292
19.51452 267
19.53463 302
19.55475 286
19.57486 358
19.59497 322
19.61509 356
19.6352 403
19.65531 383
19.67543 356
19.69554 422
19.71565 445
19.73577 446
19.75588 493
19.776 503
19.79611 543
19.81622 522
19.83634 512
19.85645 494
19.87656 474
19.89668 454
19.91679 452
19.93691 428
19.95702 460
19.97713 388
19.99725 359
20.01736 438
20.03747 379
20.05759 406
20.0777 409
20.09782 405
20.11793 368
20.13804 407
20.15816 396
20.17827 424
20.19838 423
20.2185 414
20.23861 419
20.25872 379
20.27884 429
20.29895 403
20.31907 410
20.33918 384
20.35929 413
20.37941 423
20.39952 454
20.41963 418
20.43975 477
20.45986 446
20.47998 498
20.50009 445
20.5202 478
20.54032 498
20.56043 553
20.58054 532
20.60066 602
20.62077 634
20.64088 703
20.661 846
20.68111 1050
20.70123 1381
20.72134 1868
20.74145 2526
20.76157 3423
20.78168 4347
20.80179 5411
20.82191 5920
20.84202 6049
20.86214 5734
20.88225 4674
20.90236 3474
20.92248 2317
20.94259 1528
20.9627 991
20.98282 822
21.00293 650
21.02305 632
21.04316 539
21.06327 532
21.08339 496
21.1035 471
21.12361 482
21.14373 458
21.16384 468
21.18395 442
21.20407 419
21.22418 469
21.2443 427
21.26441 446
21.28452 458
21.30464 374
21.32475 427
21.34486 408
21.36498 427
21.38509 418
21.40521 396
21.42532 381
21.44543 362
21.46555 348
21.48566 396
21.50577 382
21.52589 391
21.546 392
21.56612 344
21.58623 364
21.60634 348
21.62646 360
21.64657 351
21.66668 350
21.6868 357
21.70691 308
21.72702 368
21.74714 315
21.76725 335
21.78737 297
21.80748 352
21.82759 350
21.84771 344
21.86782 390
21.88793 362
21.90805 374
21.92816 397
21.94828 408
21.96839 445
21.9885 480
22.00862 471
22.02873 483
22.04884 473
22.06896 384
22.08907 419
22.10919 341
22.1293 337
22.14941 335
22.16953 291
22.18964 334
22.20975 311
22.22987 311
22.24998 304
22.27009 336
22.29021 302
22.31032 333
22.33044 291
22.35055 312
22.37066 307
22.39078 313
22.41089 305
22.431 328
22.45112 325
22.47123 291
22.49135 300
22.51146 327
22.53157 310
22.55169 311
22.5718 275
22.59191 308
22.61203 280
22.63214 307
22.65225 307
22.67237 311
22.69248 325
22.7126 279
22.73271 276
22.75282 342
22.77294 331
22.79305 278
22.81316 283
22.83328 321
22.85339 387
22.87351 335
22.89362 347
22.91373 320
22.93385 370
22.95396 331
22.97407 307
22.99419 327
23.0143 325
23.03442 306
23.05453 298
23.07464 334
23.09476 305
23.11487 322
23.13498 303
23.1551 315
23.17521 293
23.19532 296
23.21544 294
23.23555 351
23.25567 293
23.27578 276
23.29589 288
23.31601 274
23.33612 294
23.35623 278
23.37635 307
23.39646 320
23.41658 311
23.43669 308
23.4568 322
23.47692 347
23.49703 308
23.51714 364
23.53726 371
23.55737 381
23.57749 365
23.5976 348
23.61771 345
23.63783 334
23.65794 328
23.67805 274
23.69817 311
23.71828 324
23.73839 346
23.75851 302
23.77862 349
23.79874 346
23.81885 337
23.83896 327
23.85908 337
23.87919 341
23.8993 329
23.91942 367
23.93953 347
23.95965 390
23.97976 374
23.99987 356
24.01999 377
24.0401 391
24.06021 347
24.08033 355
24.10044 330
24.12056 360
24.14067 350
24.16078 384
24.1809 374
24.20101 365
24.22112 414
24.24124 424
24.26135 386
24.28146 401
24.30158 382
24.32169 354
24.34181 362
24.36192 323
24.38203 333
24.40215 304
24.42226 335
24.44237 332
24.46249 336
24.4826 295
24.50272 292
24.52283 313
24.54294 307
24.56306 306
24.58317 332
24.60328 348
24.6234 312
24.64351 308
24.66362 331
24.68374 300
24.70385 319
24.72397 308
24.74408 300
24.76419 297
24.78431 336
24.80442 321
24.82453 323
24.84465 278
24.86476 326
24.88488 337
24.90499 338
24.9251 335
24.94522 324
24.96533 340
24.98544 316
25.00556 314
25.02567 325
25.04579 329
25.0659 333
25.08601 323
25.10613 364
25.12624 332
25.14635 337
25.16647 347
25.18658 361
25.20669 365
25.22681 357
25.24692 371
25.26704 401
25.28715 356
25.30726 378
25.32738 393
25.34749 435
25.3676 378
25.38772 388
25.40783 393
25.42795 399
25.44806 445
25.46817 410
25.48829 385
25.5084 407
25.52851 407
25.54863 401
25.56874 428
25.58886 434
25.60897 385
25.62908 414
25.6492 460
25.66931 479
25.68942 433
25.70954 441
25.72965 511
25.74976 492
25.76988 526
25.78999 462
25.81011 477
25.83022 467
25.85033 510
25.87045 494
25.89056 490
25.91067 505
25.93079 508
25.9509 531
25.97102 534
25.99113 562
26.01124 540
26.03136 561
26.05147 616
26.07158 602
26.0917 656
26.11181 661
26.13193 680
26.15204 736
26.17215 783
26.19227 893
26.21238 927
26.23249 991
26.25261 1042
26.27272 1071
26.29283 1093
26.31295 1273
26.33306 1424
26.35318 1577
26.37329 1771
26.3934 2167
26.41352 2620
26.43363 3402
26.45374 4409
26.47386 6177
26.49397 8362
26.51409 11259
26.5342 15331
26.55431 19430
26.57443 24191
26.59454 26903
26.61465 27655
26.63477 25820
26.65488 21939
26.67499 17016
26.69511 12591
26.71522 8740
26.73534 5685
26.75545 3421
26.77556 2282
26.79568 1772
26.81579 1517
26.8359 1462
26.85602 1284
26.87613 1149
26.89625 1067
26.91636 938
26.93647 879
26.95659 828
26.9767 722
26.99681 668
27.01693 637
27.03704 653
27.05716 586
27.07727 601
27.09738 591
27.1175 541
27.13761 497
27.15772 474
27.17784 458
27.19795 478
27.21806 471
27.23818 464
27.25829 511
27.27841 452
27.29852 486
27.31863 486
27.33875 485
27.35886 536
27.37897 481
27.39909 521
27.4192 514
27.43932 506
27.45943 466
27.47954 466
27.49966 490
27.51977 431
27.53988 442
27.56 440
27.58011 440
27.60023 438
27.62034 474
27.64045 496
27.66057 508
27.68068 532
27.70079 536
27.72091 517
27.74102 534
27.76113 535
27.78125 543
27.80136 550
27.82148 626
27.84159 629
27.8617 617
27.88182 644
27.90193 663
27.92204 671
27.94216 603
27.96227 597
27.98239 563
28.0025 518
28.02261 483
28.04273 478
28.06284 436
28.08295 448
28.10307 399
28.12318 416
28.1433 425
28.16341 409
28.18352 411
28.20364 426
28.22375 383
28.24386 399
28.26398 408
28.28409 374
28.3042 386
28.32432 382
28.34443 339
28.36455 363
28.38466 370
28.40477 337
28.42489 316
28.445 289
28.46511 314
28.48523 287
28.50534 324
28.52546 288
28.54557 324
28.56568 299
28.5858 287
28.60591 309
28.62602 343
28.64614 299
28.66625 297
28.68636 323
28.70648 332
28.72659 333
28.74671 325
28.76682 298
28.78693 309
28.80705 314
28.82716 325
28.84727 310
28.86739 301
28.8875 330
28.90762 296
28.92773 339
28.94784 308
28.96796 304
28.98807 311
29.00818 332
29.0283 336
29.04841 295
29.06853 287
29.08864 280
29.10875 333
29.12887 274
29.14898 297
29.16909 319
29.18921 308
29.20932 276
29.22943 319
29.24955 298
29.26966 300
29.28978 305
29.30989 309
29.33 269
29.35012 278
29.37023 322
29.39034 309
29.41046 277
29.43057 309
29.45069 300
29.4708 307
29.49091 291
29.51103 306
29.53114 302
29.55125 272
29.57137 289
29.59148 307
29.6116 297
29.63171 292
29.65182 296
29.67194 285
29.69205 302
29.71216 278
29.73228 311
29.75239 268
29.7725 301
29.79262 340
29.81273 333
29.83285 307
29.85296 301
29.87307 330
29.89319 320
29.9133 307
29.93341 321
29.95353 303
29.97364 300
29.99376 325
30.01387 293
30.03398 331
30.0541 326
30.07421 301
30.09432 330
30.11444 338
30.13455 347
30.15467 311
30.17478 319
30.19489 328
30.21501 341
30.23512 326
30.25523 327
30.27535 326
30.29546 313
30.31557 368
30.33569 279
30.3558 315
30.37592 295
30.39603 326
30.41614 301
30.43626 325
30.45637 316
30.47648 322
30.4966 323
30.51671 305
30.53683 312
30.55694 311
30.57705 292
30.59717 274
30.61728 304
30.63739 292
30.65751 302
30.67762 275
30.69773 261
30.71785 289
30.73796 305
30.75808 301
30.77819 272
30.7983 312
30.81842 295
30.83853 278
30.85864 274
30.87876 273
30.89887 273
30.91899 270
30.9391 286
30.95921 288
30.97933 266
30.99944 242
31.01955 269
31.03967 269
31.05978 296
31.0799 282
31.10001 292
31.12012 284
31.14024 345
31.16035 303
31.18046 292
31.20058 276
31.22069 307
31.2408 285
31.26092 295
31.28103 315
31.30115 313
31.32126 301
31.34137 298
31.36149 289
31.3816 266
31.40171 246
31.42183 282
31.44194 242
31.46206 275
31.48217 244
31.50228 251
31.5224 259
31.54251 251
31.56262 237
31.58274 286
31.60285 258
31.62297 253
31.64308 257
31.66319 275
31.68331 273
31.70342 275
31.72353 264
31.74365 247
31.76376 267
31.78387 253
31.80399 252
31.8241 233
31.84422 275
31.86433 244
31.88444 257
31.90456 250
31.92467 289
31.94478 265
31.9649 275
31.98501 299
32.00513 281
32.02524 268
32.04535 292
32.06547 263
32.08558 262
32.10569 258
32.12581 269
32.14592 244
32.16604 269
32.18615 268
32.20626 244
32.22638 231
32.24649 228
32.2666 260
32.28672 276
32.30683 268
32.32694 235
32.34706 226
32.36717 280
32.38729 262
32.4074 200
32.42751 240
32.44763 260
32.46774 259
32.48785 241
32.50797 247
32.52808 258
32.5482 241
32.56831 279
32.58842 256
32.60854 270
32.62865 245
32.64876 263
32.66888 241
32.68899 268
32.7091 229
32.72922 237
32.74933 229
32.76945 271
32.78956 269
32.80967 240
32.82979 256
32.8499 250
32.87001 254
32.89013 263
32.91024 246
32.93036 253
32.95047 207
32.97058 267
32.9907 261
33.01081 221
33.03092 249
33.05104 235
33.07115 237
33.09127 226
33.11138 250
33.13149 254
33.15161 266
33.17172 273
33.19183 263
33.21195 243
33.23206 268
33.25217 259
33.27229 300
33.2924 255
33.31252 273
33.33263 258
33.35274 267
33.37286 256
33.39297 291
33.41308 247
33.4332 278
33.45331 273
33.47343 299
33.49354 257
33.51365 268
33.53377 276
33.55388 289
33.57399 242
33.59411 263
33.61422 253
33.63434 266
33.65445 269
33.67456 257
33.69468 226
33.71479 231
33.7349 265
33.75502 255
33.77513 252
33.79524 256
33.81536 274
33.83547 273
33.85559 240
33.8757 256
33.89581 261
33.91593 240
33.93604 281
33.95615 264
33.97627 241
33.99638 228
34.0165 268
34.03661 264
34.05672 244
34.07684 238
34.09695 257
34.11706 255
34.13718 239
34.15729 273
34.17741 242
34.19752 260
34.21763 264
34.23775 263
34.25786 263
34.27797 272
34.29809 298
34.3182 265
34.33831 262
34.35843 315
34.37854 330
34.39866 331
34.41877 296
34.43888 325
34.459 365
34.47911 345
34.49922 346
34.51934 323
34.53945 334
34.55957 338
34.57968 331
34.59979 330
34.61991 343
34.64002 322
34.66013 344
34.68025 349
34.70036 357
34.72047 377
34.74059 330
34.7607 397
34.78082 382
34.80093 451
34.82104 394
34.84116 421
34.86127 422
34.88138 451
34.9015 491
34.92161 476
34.94173 470
34.96184 427
34.98195 427
35.00207 440
35.02218 445
35.04229 447
35.06241 378
35.08252 371
35.10264 350
35.12275 359
35.14286 397
35.16298 313
35.18309 309
35.2032 331
35.22332 304
35.24343 309
35.26354 318
35.28366 324
35.30377 327
35.32389 291
35.344 308
35.36411 329
35.38423 341
35.40434 299
35.42445 341
35.44457 318
35.46468 310
35.4848 272
35.50491 290
35.52502 315
35.54514 301
35.56525 290
35.58536 286
35.60548 298
35.62559 302
35.64571 349
35.66582 319
35.68593 276
35.70605 324
35.72616 296
35.74627 322
35.76639 309
35.7865 317
35.80661 310
35.82673 308
35.84684 298
35.86696 305
35.88707 315
35.90718 288
35.9273 357
35.94741 365
35.96752 340
35.98764 313
36.00775 336
36.02787 347
36.04798 361
36.06809 350
36.08821 358
36.10832 362
36.12843 332
36.14855 387
36.16866 341
36.18878 380
36.20889 364
36.229 344
36.24912 363
36.26923 454
36.28934 449
36.30946 480
36.32957 607
36.34968 643
36.3698 823
36.38991 908
36.41003 1151
36.43014 1336
36.45025 1562
36.47037 1849
36.49048 2001
36.51059 2100
36.53071 1964
36.55082 1738
36.57094 1501
36.59105 1317
36.61116 1067
36.63128 916
36.65139 742
36.6715 606
36.69162 513
36.71173 480
36.73184 398
36.75196 355
36.77207 382
36.79219 355
36.8123 349
36.83241 382
36.85253 368
36.87264 355
36.89275 351
36.91287 323
36.93298 356
36.9531 321
36.97321 334
36.99332 310
37.01344 316
37.03355 351
37.05366 322
37.07378 336
37.09389 321
37.11401 307
37.13412 309
37.15423 312
37.17435 319
37.19446 286
37.21457 290
37.23469 285
37.2548 253
37.27491 288
37.29503 325
37.31514 349
37.33526 336
37.35537 331
37.37548 301
37.3956 328
37.41571 300
37.43582 279
37.45594 329
37.47605 296
37.49617 340
37.51628 269
37.53639 310
37.55651 287
37.57662 316
37.59673 296
37.61685 299
37.63696 309
37.65708 321
37.67719 320
37.6973 305
37.71742 305
37.73753 306
37.75764 302
37.77776 302
37.79787 308
37.81798 287
37.8381 259
37.85821 272
37.87833 273
37.89844 249
37.91855 281
37.93867 270
37.95878 264
37.97889 274
37.99901 278
38.01912 241
38.03924 257
38.05935 280
38.07946 273
38.09958 272
38.11969 256
38.1398 288
38.15992 265
38.18003 263
38.20015 276
38.22026 273
38.24037 272
38.26049 283
38.2806 282
38.30071 294
38.32083 258
38.34094 264
38.36105 271
38.38117 261
38.40128 289
38.4214 276
38.44151 240
38.46162 282
38.48174 266
38.50185 276
38.52196 263
38.54208 275
38.56219 262
38.58231 273
38.60242 247
38.62253 258
38.64265 270
38.66276 279
38.68287 298
38.70299 268
38.7231 264
38.74321 252
38.76333 283
38.78344 286
38.80356 261
38.82367 277
38.84378 271
38.8639 255
38.88401 283
38.90412 289
38.92424 264
38.94435 260
38.96447 295
38.98458 297
39.00469 266
39.02481 292
39.04492 294
39.06503 310
39.08515 322
39.10526 339
39.12538 317
39.14549 336
39.1656 350
39.18572 389
39.20583 410
39.22594 462
39.24606 483
39.26617 593
39.28628 679
39.3064 837
39.32651 1013
39.34663 1181
39.36674 1412
39.38685 1608
39.40697 1825
39.42708 1884
39.44719 1752
39.46731 1575
39.48742 1350
39.50754 1208
39.52765 1016
39.54776 903
39.56788 787
39.58799 642
39.6081 472
39.62822 358
39.64833 324
39.66845 350
39.68856 286
39.70867 297
39.72879 297
39.7489 297
39.76901 284
39.78913 286
39.80924 285
39.82935 298
39.84947 281
39.86958 313
39.8897 272
39.90981 313
39.92992 298
39.95004 305
39.97015 335
39.99026 325
40.01038 345
40.03049 362
40.05061 357
40.07072 411
40.09083 409
40.11095 510
40.13106 561
40.15117 685
40.17129 745
40.1914 790
40.21152 963
40.23163 1031
40.25174 990
40.27186 950
40.29197 947
40.31208 777
40.3322 687
40.35231 604
40.37242 590
40.39254 498
40.41265 469
40.43277 381
40.45288 328
40.47299 315
40.49311 319
40.51322 280
40.53333 262
40.55345 263
40.57356 274
40.59368 258
40.61379 268
40.6339 272
40.65402 265
40.67413 272
40.69424 239
40.71436 257
40.73447 266
40.75458 259
40.7747 276
40.79481 259
40.81493 284
40.83504 273
40.85515 262
40.87527 268
40.89538 265
40.91549 260
40.93561 261
40.95572 247
40.97584 296
40.99595 295
41.01606 282
41.03618 283
41.05629 246
41.0764 269
41.09652 255
41.11663 276
41.13675 267
41.15686 280
41.17697 285
41.19709 257
41.2172 273
41.23731 271
41.25743 245
41.27754 269
41.29765 259
41.31777 245
41.33788 272
41.358 280
41.37811 252
41.39822 258
41.41834 267
41.43845 251
41.45856 238
41.47868 245
41.49879 237
41.51891 234
41.53902 232
41.55913 270
41.57925 241
41.59936 271
41.61947 256
41.63959 243
41.6597 248
41.67982 267
41.69993 274
41.72004 267
41.74016 265
41.76027 269
41.78038 291
41.8005 265
41.82061 273
41.84072 304
41.86084 263
41.88095 294
41.90107 267
41.92118 296
41.94129 275
41.96141 312
41.98152 271
42.00163 301
42.02175 263
42.04186 291
42.06198 304
42.08209 301
42.1022 313
42.12232 305
42.14243 325
42.16254 325
42.18266 356
42.20277 435
42.22289 434
42.243 541
42.26311 546
42.28323 611
42.30334 817
42.32345 923
42.34357 1042
42.36368 1227
42.38379 1310
42.40391 1431
42.42402 1269
42.44414 1270
42.46425 1053
42.48436 924
42.50448 870
42.52459 814
42.5447 778
42.56482 637
42.58493 428
42.60505 355
42.62516 351
42.64527 313
42.66539 273
42.6855 287
42.70561 273
42.72573 302
42.74584 281
42.76595 234
42.78607 232
42.80618 238
42.8263 264
42.84641 232
42.86652 241
42.88664 219
42.90675 239
42.92686 243
42.94698 238
42.96709 226
42.98721 223
43.00732 222
43.02743 239
43.04755 248
43.06766 259
43.08777 227
43.10789 248
43.128 237
43.14812 208
43.16823 232
43.18834 220
43.20846 240
43.22857 215
43.24868 213
43.2688 241
43.28891 239
43.30902 235
43.32914 238
43.34925 230
43.36937 217
43.38948 211
43.40959 242
43.42971 210
43.44982 222
43.46993 245
43.49005 261
43.51016 244
43.53028 231
43.55039 216
43.5705 218
43.59062 221
43.61073 242
43.63084 244
43.65096 251
43.67107 205
43.69119 216
43.7113 227
43.73141 209
43.75153 194
43.77164 245
43.79175 235
43.81187 228
43.83198 212
43.85209 230
43.87221 249
43.89232 234
43.91244 228
43.93255 223
43.95266 228
43.97278 236
43.99289 218
44.013 194
44.03312 246
44.05323 235
44.07335 221
44.09346 216
44.11357 205
44.13369 236
44.1538 242
44.17391 233
44.19403 229
44.21414 247
44.23426 207
44.25437 247
44.27448 211
44.2946 204
44.31471 204
44.33482 229
44.35494 243
44.37505 208
44.39516 208
44.41528 232
44.43539 209
44.45551 208
44.47562 205
44.49573 235
44.51585 220
44.53596 228
44.55607 223
44.57619 223
44.5963 214
44.61642 237
44.63653 232
44.65664 221
44.67676 219
44.69687 213
44.71698 215
44.7371 240
44.75721 228
44.77732 239
44.79744 216
44.81755 212
44.83767 250
44.85778 221
44.87789 224
44.89801 223
44.91812 257
44.93823 219
44.95835 248
44.97846 240
44.99858 235
45.01869 224
45.0388 224
45.05892 211
45.07903 243
45.09914 262
45.11926 247
45.13937 223
45.15949 242
45.1796 269
45.19971 234
45.21983 257
45.23994 247
45.26005 259
45.28017 253
45.30028 246
45.32039 227
45.34051 259
45.36062 255
45.38074 261
45.40085 293
45.42096 309
45.44108 265
45.46119 311
45.4813 318
45.50142 303
45.52153 321
45.54165 354
45.56176 400
45.58187 405
45.60199 409
45.6221 511
45.64221 555
45.66233 671
45.68244 792
45.70256 886
45.72267 918
45.74278 970
45.7629 914
45.78301 851
45.80312 852
45.82324 697
45.84335 658
45.86346 609
45.88358 546
45.90369 479
45.92381 415
45.94392 370
45.96403 315
45.98415 274
46.00426 255
46.02437 277
46.04449 274
46.0646 235
46.08472 254
46.10483 229
46.12494 228
46.14506 246
46.16517 229
46.18528 202
46.2054 210
46.22551 238
46.24563 230
46.26574 219
46.28585 234
46.30597 212
46.32608 244
46.34619 255
46.36631 211
46.38642 213
46.40653 213
46.42665 228
46.44676 235
46.46688 247
46.48699 246
46.5071 216
46.52722 223
46.54733 216
46.56744 208
46.58756 213
46.60767 215
46.62779 204
46.6479 261
46.66801 191
46.68813 218
46.70824 216
46.72835 213
46.74847 230
46.76858 216
46.78869 201
46.80881 243
46.82892 226
46.84904 221
46.86915 229
46.88926 214
46.90938 221
46.92949 207
46.9496 227
46.96972 214
46.98983 224
47.00995 219
47.03006 192
47.05017 242
47.07029 195
47.0904 217
47.11051 218
47.13063 209
47.15074 216
47.17086 209
47.19097 204
47.21108 209
47.2312 209
47.25131 212
47.27142 233
47.29154 227
47.31165 225
47.33176 235
47.35188 208
47.37199 207
47.39211 206
47.41222 192
47.43233 185
47.45245 191
47.47256 205
47.49267 220
47.51279 244
47.5329 225
47.55302 220
47.57313 214
47.59324 219
47.61336 234
47.63347 203
47.65358 208
47.6737 196
47.69381 271
47.71393 208
47.73404 202
47.75415 203
47.77427 215
47.79438 197
47.81449 208
47.83461 214
47.85472 231
47.87483 252
47.89495 214
47.91506 198
47.93518 240
47.95529 227
47.9754 235
47.99552 239
48.01563 210
48.03574 232
48.05586 224
48.07597 242
48.09609 206
48.1162 240
48.13631 261
48.15643 210
48.17654 238
48.19665 253
48.21677 236
48.23688 220
48.257 219
48.27711 214
48.29722 245
48.31734 223
48.33745 202
48.35756 220
48.37768 244
48.39779 212
48.4179 230
48.43802 206
48.45813 213
48.47825 227
48.49836 216
48.51847 231
48.53859 243
48.5587 207
48.57881 219
48.59893 214
48.61904 204
48.63916 212
48.65927 227
48.67938 241
48.6995 229
48.71961 216
48.73972 214
48.75984 231
48.77995 192
48.80006 231
48.82018 227
48.84029 217
48.86041 221
48.88052 219
48.90063 256
48.92075 233
48.94086 233
48.96097 216
48.98109 228
49.0012 231
49.02132 237
49.04143 209
49.06154 247
49.08166 226
49.10177 222
49.12188 265
49.142 222
49.16211 238
49.18223 217
49.20234 237
49.22245 243
49.24257 250
49.26268 231
49.28279 248
49.30291 238
49.32302 233
49.34313 231
49.36325 238
49.38336 249
49.40348 250
49.42359 266
49.4437 226
49.46382 234
49.48393 297
49.50404 257
49.52416 280
49.54427 254
49.56439 242
49.5845 274
49.60461 277
49.62473 270
49.64484 274
49.66495 317
49.68507 304
49.70518 331
49.7253 354
49.74541 375
49.76552 405
49.78564 376
49.80575 474
49.82586 459
49.84598 531
49.86609 571
49.8862 682
49.90632 805
49.92643 871
49.94655 1017
49.96666 1285
49.98677 1533
50.00689 1828
50.027 2205
50.04711 2509
50.06723 2766
50.08734 2890
50.10746 2762
50.12757 2488
50.14768 2107
50.1678 1864
50.18791 1686
50.20802 1622
50.22814 1459
50.24825 1298
50.26837 1075
50.28848 811
50.30859 623
50.32871 464
50.34882 395
50.36893 387
50.38905 355
50.40916 310
50.42927 311
50.44939 330
50.4695 333
50.48962 316
50.50973 318
50.52984 321
50.54996 305
50.57007 333
50.59018 335
50.6103 328
50.63041 287
50.65053 281
50.67064 268
50.69075 283
50.71087 287
50.73098 254
50.75109 275
50.77121 241
50.79132 269
50.81143 244
50.83155 226
50.85166 245
50.87178 215
50.89189 251
50.912 248
50.93212 240
50.95223 216
50.97234 239
50.99246 243
51.01257 240
51.03269 250
51.0528 257
51.07291 270
51.09303 246
51.11314 241
51.13325 232
51.15337 248
51.17348 245
51.1936 247
51.21371 207
51.23382 256
51.25394 240
51.27405 229
51.29416 204
51.31428 223
51.33439 201
51.3545 194
51.37462 187
51.39473 219
51.41485 219
51.43496 190
51.45507 220
51.47519 202
51.4953 208
51.51541 215
51.53553 191
51.55564 224
51.57576 214
51.59587 223
51.61598 207
51.6361 192
51.65621 222
51.67632 184
51.69644 189
51.71655 173
51.73667 213
51.75678 224
51.77689 206
51.79701 208
51.81712 231
51.83723 221
51.85735 233
51.87746 190
51.89757 190
51.91769 212
51.9378 223
51.95792 200
51.97803 222
51.99814 211
52.01826 239
52.03837 208
52.05848 215
52.0786 228
52.09871 207
52.11883 206
52.13894 218
52.15905 227
52.17917 209
52.19928 230
52.21939 223
52.23951 213
52.25962 199
52.27974 207
52.29985 202
52.31996 202
52.34008 228
52.36019 230
52.3803 213
52.40042 177
52.42053 210
52.44064 222
52.46076 231
52.48087 244
52.50099 201
52.5211 208
52.54121 218
52.56133 224
52.58144 205
52.60155 215
52.62167 208
52.64178 240
52.6619 212
52.68201 202
52.70212 218
52.72224 219
52.74235 235
52.76246 246
52.78258 229
52.80269 225
52.8228 228
52.84292 225
52.86303 233
52.88315 209
52.90326 204
52.92337 204
52.94349 213
52.9636 241
52.98371 228
53.00383 247
53.02394 211
53.04406 230
53.06417 237
53.08428 254
53.1044 231
53.12451 229
53.14462 214
53.16474 231
53.18485 232
53.20497 260
53.22508 240
53.24519 228
53.26531 228
53.28542 229
53.30553 239
53.32565 235
53.34576 267
53.36587 238
53.38599 242
53.4061 266
53.42622 237
53.44633 252
53.46644 239
53.48656 247
53.50667 232
53.52678 266
53.5469 256
53.56701 290
53.58713 265
53.60724 263
53.62735 244
53.64747 247
53.66758 255
53.68769 262
53.70781 265
53.72792 246
53.74804 263
53.76815 235
53.78826 254
53.80838 262
53.82849 262
53.8486 250
53.86872 222
53.88883 283
53.90894 267
53.92906 293
53.94917 243
53.96929 249
53.9894 239
54.00951 226
54.02963 254
54.04974 235
54.06985 259
54.08997 255
54.11008 265
54.1302 275
54.15031 271
54.17042 282
54.19054 282
54.21065 266
54.23076 277
54.25088 279
54.27099 307
54.29111 282
54.31122 291
54.33133 319
54.35145 286
54.37156 283
54.39167 270
54.41179 318
54.4319 292
54.45201 273
54.47213 298
54.49224 303
54.51236 328
54.53247 340
54.55258 312
54.5727 338
54.59281 340
54.61292 378
54.63304 398
54.65315 452
54.67327 442
54.69338 514
54.71349 614
54.73361 754
54.75372 823
54.77383 889
54.79395 986
54.81406 988
54.83417 988
54.85429 898
54.8744 832
54.89452 703
54.91463 675
54.93474 688
54.95486 643
54.97497 658
54.99508 597
55.0152 530
55.03531 452
55.05543 405
55.07554 395
55.09565 390
55.11577 368
55.13588 402
55.15599 426
55.17611 466
55.19622 498
55.21634 552
55.23645 537
55.25656 548
55.27668 572
55.29679 584
55.3169 527
55.33702 486
55.35713 442
55.37724 441
55.39736 426
55.41747 405
55.43759 394
55.4577 367
55.47781 374
55.49793 269
55.51804 296
55.53815 280
55.55827 284
55.57838 262
55.5985 250
55.61861 270
55.63872 274
55.65884 251
55.67895 228
55.69906 246
55.71918 251
55.73929 236
55.75941 251
55.77952 258
55.79963 215
55.81975 293
55.83986 247
55.85997 240
55.88009 225
55.9002 223
55.92031 258
55.94043 238
55.96054 232
55.98066 237
56.00077 236
56.02088 233
56.041 247
56.06111 248
56.08122 220
56.10134 222
56.12145 229
56.14157 202
56.16168 218
56.18179 208
56.20191 218
56.22202 239
56.24213 230
56.26225 208
56.28236 240
56.30248 200
56.32259 223
56.3427 254
56.36282 225
56.38293 220
56.40304 232
56.42316 225
56.44327 230
56.46338 229
56.4835 250
56.50361 215
56.52373 246
56.54384 209
56.56395 230
56.58407 228
56.60418 233
56.62429 236
56.64441 238
56.66452 244
56.68464 249
56.70475 247
56.72486 227
56.74498 216
56.76509 219
56.7852 235
56.80532 209
56.82543 220
56.84554 242
56.86566 202
56.88577 222
56.90589 225
56.926 208
56.94611 244
56.96623 234
56.98634 228
57.00645 218
57.02657 216
57.04668 232
57.0668 231
57.08691 267
57.10702 251
57.12714 228
57.14725 252
57.16736 284
57.18748 258
57.20759 258
57.22771 269
57.24782 255
57.26793 247
57.28805 231
57.30816 268
57.32827 224
57.34839 232
57.3685 244
57.38861 231
57.40873 228
57.42884 224
57.44896 231
57.46907 244
57.48918 248
57.5093 208
57.52941 181
57.54952 230
57.56964 208
57.58975 231
57.60987 223
57.62998 235
57.65009 208
57.67021 214
57.69032 225
57.71043 212
57.73055 229
57.75066 237
57.77078 204
57.79089 222
57.811 233
57.83112 213
57.85123 236
57.87134 235
57.89146 188
57.91157 225
57.93168 246
57.9518 232
57.97191 230
57.99203 227
58.01214 238
58.03225 234
58.05237 198
58.07248 245
58.09259 232
58.11271 202
58.13282 206
58.15294 193
58.17305 207
58.19316 223
58.21328 239
58.23339 236
58.2535 210
58.27362 227
58.29373 206
58.31385 230
58.33396 208
58.35407 209
58.37419 193
58.3943 237
58.41441 224
58.43453 231
58.45464 202
58.47475 230
58.49487 220
58.51498 215
58.5351 220
58.55521 214
58.57532 214
58.59544 226
58.61555 233
58.63566 248
58.65578 218
58.67589 196
58.69601 240
58.71612 220
58.73623 216
58.75635 236
58.77646 233
58.79657 231
58.81669 201
58.8368 232
58.85691 214
58.87703 230
58.89714 222
58.91726 191
58.93737 222
58.95748 241
58.9776 207
58.99771 220
59.01782 218
59.03794 225
59.05805 238
59.07817 218
59.09828 247
59.11839 247
59.13851 249
59.15862 253
59.17873 229
59.19885 255
59.21896 252
59.23908 263
59.25919 241
59.2793 250
59.29942 257
59.31953 268
59.33964 256
59.35976 257
59.37987 240
59.39998 239
59.4201 285
59.44021 257
59.46033 281
59.48044 277
59.50055 310
59.52067 287
59.54078 320
59.56089 298
59.58101 346
59.60112 394
59.62124 395
59.64135 410
59.66146 461
59.68158 490
59.70169 579
59.7218 666
59.74192 727
59.76203 865
59.78215 1000
59.80226 1131
59.82237 1331
59.84249 1586
59.8626 1751
59.88271 1864
59.90283 1930
59.92294 1778
59.94305 1578
59.96317 1419
59.98328 1216
60.0034 1102
60.02351 1067
60.04362 1130
60.06374 1083
60.08385 983
60.10396 865
60.12408 671
60.14419 601
60.16431 481
60.18442 384
60.20453 339
60.22465 301
60.24476 311
60.26487 289
60.28499 281
60.3051 285
60.32522 289
60.34533 256
60.36544 289
60.38556 247
60.40567 274
60.42578 274
60.4459 244
60.46601 246
60.48612 252
60.50624 239
60.52635 218
60.54647 244
60.56658 250
60.58669 265
60.60681 236
60.62692 242
60.64703 232
60.66715 248
60.68726 232
60.70738 220
60.72749 236
60.7476 232
60.76772 243
60.78783 237
60.80794 244
60.82806 229
60.84817 215
60.86828 230
60.8884 208
60.90851 238
60.92863 246
60.94874 234
60.96885 233
60.98897 224
61.00908 235
61.02919 245
61.04931 218
61.06942 232
61.08954 249
61.10965 212
61.12976 239
61.14988 215
61.16999 242
61.1901 220
61.21022 235
61.23033 215
61.25045 253
61.27056 213
61.29067 246
61.31079 248
61.3309 246
61.35101 269
61.37113 247
61.39124 275
61.41135 253
61.43147 259
61.45158 249
61.4717 283
61.49181 280
61.51192 284
61.53204 247
61.55215 265
61.57226 290
61.59238 308
61.61249 317
61.63261 316
61.65272 282
61.67283 280
61.69295 277
61.71306 273
61.73317 308
61.75329 270
61.7734 295
61.79352 250
61.81363 284
61.83374 284
61.85386 262
61.87397 277
61.89408 271
61.9142 241
61.93431 266
61.95442 246
61.97454 268
61.99465 246
62.01477 254
62.03488 253
62.05499 263
62.07511 278
62.09522 264
62.11533 226
62.13545 281
62.15556 246
62.17568 229
62.19579 229
62.2159 249
62.23602 245
62.25613 262
62.27624 270
62.29636 252
62.31647 239
62.33659 235
62.3567 225
62.37681 251
62.39693 236
62.41704 252
62.43715 243
62.45727 240
62.47738 224
62.49749 226
62.51761 227
62.53772 240
62.55784 215
62.57795 232
62.59806 207
62.61818 213
62.63829 205
62.6584 218
62.67852 219
62.69863 201
62.71875 223
62.73886 224
62.75897 213
62.77909 231
62.7992 217
62.81931 227
62.83943 225
62.85954 227
62.87965 220
62.89977 209
62.91988 223
62.94 220
62.96011 207
62.98022 205
63.00034 214
63.02045 219
63.04056 248
63.06068 223
63.08079 218
63.10091 240
63.12102 233
63.14113 199
63.16125 189
63.18136 221
63.20147 234
63.22159 238
63.2417 225
63.26182 216
63.28193 225
63.30204 220
63.32216 220
63.34227 231
63.36238 221
63.3825 226
63.40261 228
63.42272 228
63.44284 233
63.46295 230
63.48307 254
63.50318 241
63.52329 232
63.54341 240
63.56352 236
63.58363 221
63.60375 262
63.62386 229
63.64398 262
63.66409 242
63.6842 269
63.70432 251
63.72443 255
63.74454 298
63.76466 267
63.78477 275
63.80489 298
63.825 318
63.84511 336
63.86523 348
63.88534 409
63.90545 438
63.92557 469
63.94568 481
63.96579 550
63.98591 532
64.00602 482
64.02614 469
64.04625 377
64.06636 401
64.08648 356
64.10659 359
64.1267 383
64.14682 359
64.16693 368
64.18705 322
64.20716 296
64.22727 297
64.24739 240
64.2675 245
64.28761 212
64.30773 256
64.32784 231
64.34796 211
64.36807 214
64.38818 218
64.4083 231
64.42841 225
64.44852 224
64.46864 222
64.48875 209
64.50886 207
64.52898 210
64.54909 233
64.56921 221
64.58932 208
64.60943 216
64.62955 207
64.64966 202
64.66977 203
64.68989 216
64.71 201
64.73012 200
64.75023 202
64.77034 223
64.79046 218
64.81057 220
64.83068 179
64.8508 217
64.87091 197
64.89102 173
64.91114 199
64.93125 191
64.95137 200
64.97148 224
64.99159 219
65.01171 203
65.03182 237
65.05193 198
65.07205 217
65.09216 193
65.11228 205
65.13239 215
65.1525 248
65.17262 193
65.19273 214
65.21284 207
65.23296 203
65.25307 207
65.27319 215
65.2933 196
65.31341 243
65.33353 222
65.35364 242
65.37375 194
65.39387 215
65.41398 193
65.43409 200
65.45421 216
65.47432 228
65.49444 217
65.51455 198
65.53466 246
65.55478 218
65.57489 237
65.595 255
65.61512 253
65.63523 287
65.65535 287
65.67546 266
65.69557 283
65.71569 279
65.7358 316
65.75591 271
65.77603 282
65.79614 274
65.81626 254
65.83637 221
65.85648 239
65.8766 276
65.89671 244
65.91682 255
65.93694 257
65.95705 236
65.97716 212
65.99728 213
66.01739 225
66.03751 226
66.05762 247
66.07773 216
66.09785 202
66.11796 211
66.13807 229
66.15819 203
66.1783 216
66.19842 197
66.21853 216
66.23864 207
66.25876 214
66.27887 196
66.29898 215
66.3191 224
66.33921 211
66.35933 219
66.37944 204
66.39955 203
66.41967 212
66.43978 232
66.45989 202
66.48001 189
66.50012 204
66.52023 201
66.54035 215
66.56046 192
66.58058 212
66.60069 221
66.6208 194
66.64092 235
66.66103 227
66.68114 199
66.70126 204
66.72137 212
66.74149 223
66.7616 216
66.78171 214
66.80183 204
66.82194 198
66.84205 222
66.86217 225
66.88228 232
66.90239 238
66.92251 238
66.94262 212
66.96274 221
66.98285 236
67.00296 232
67.02308 231
67.04319 223
67.0633 244
67.08342 229
67.10353 236
67.12365 209
67.14376 244
67.16387 236
67.18399 238
67.2041 266
67.22421 252
67.24433 261
67.26444 285
67.28456 268
67.30467 295
67.32478 269
67.3449 293
67.36501 320
67.38512 313
67.40524 314
67.42535 325
67.44546 379
67.46558 382
67.48569 451
67.50581 461
67.52592 543
67.54603 616
67.56615 682
67.58626 782
67.60637 907
67.62649 1018
67.6466 1180
67.66672 1191
67.68683 1258
67.70694 1197
67.72706 1068
67.74717 909
67.76728 884
67.7874 794
67.80751 842
67.82763 898
67.84774 929
67.86785 948
67.88797 934
67.90808 991
67.92819 932
67.94831 964
67.96842 973
67.98853 1065
68.00865 1218
68.02876 1368
68.04888 1498
68.06899 1578
68.0891 1704
68.10922 1572
68.12933 1453
68.14944 1437
68.16956 1307
68.18967 1299
68.20979 1366
68.2299 1527
68.25001 1489
68.27013 1485
68.29024 1397
68.31035 1225
68.33047 924
68.35058 887
68.3707 791
68.39081 669
68.41092 668
68.43104 610
68.45115 603
68.47126 573
68.49138 525
68.51149 482
68.5316 431
68.55172 359
68.57183 318
68.59195 275
68.61206 262
68.63217 279
68.65229 274
68.6724 259
68.69251 271
68.71263 250
68.73274 255
68.75286 253
68.77297 261
68.79308 239
68.8132 235
68.83331 242
68.85342 236
68.87354 237
68.89365 248
68.91376 216
68.93388 231
68.95399 225
68.97411 229
68.99422 231
69.01433 219
69.03445 232
69.05456 245
69.07467 251
69.09479 233
69.1149 213
69.13502 235
69.15513 246
69.17524 206
69.19536 242
69.21547 229
69.23558 248
69.2557 242
69.27581 225
69.29593 207
69.31604 224
69.33615 212
69.35627 242
69.37638 253
69.39649 241
69.41661 234
69.43672 233
69.45683 221
69.47695 245
69.49706 235
69.51718 198
69.53729 216
69.5574 260
69.57752 231
69.59763 236
69.61774 239
69.63786 204
69.65797 207
69.67809 236
69.6982 222
69.71831 220
69.73843 228
69.75854 241
69.77865 204
69.79877 232
69.81888 244
69.839 213
69.85911 220
69.87922 217
69.89934 233
69.91945 205
69.93956 196
69.95968 189
69.97979 210
69.9999 219
70.02002 209
70.04013 212
70.06025 210
70.08036 235
70.10047 196
70.12059 202
70.1407 231
70.16081 215
70.18093 226
70.20104 242
70.22116 212
70.24127 225
70.26138 231
70.2815 218
70.30161 198
70.32172 185
70.34184 201
70.36195 214
70.38207 185
70.40218 224
70.42229 194
70.44241 186
70.46252 210
70.48263 194
70.50275 184
70.52286 205
70.54297 209
70.56309 207
70.5832 205
70.60332 200
70.62343 192
70.64354 208
70.66366 210
70.68377 212
70.70388 212
70.724 216
70.74411 217
70.76423 217
70.78434 189
70.80445 215
70.82457 208
70.84468 212
70.86479 215
70.88491 226
70.90502 186
70.92513 224
70.94525 180
70.96536 178
70.98548 204
71.00559 197
71.0257 201
71.04582 221
71.06593 208
71.08604 197
71.10616 213
71.12627 199
71.14639 186
71.1665 212
71.18661 209
71.20673 206
71.22684 216
71.24695 197
71.26707 216
71.28718 237
71.3073 179
71.32741 206
71.34752 186
71.36764 192
71.38775 201
71.40786 203
71.42798 189
71.44809 203
71.4682 228
71.48832 212
71.50843 197
71.52855 195
71.54866 200
71.56877 180
71.58889 198
71.609 205
71.62911 180
71.64923 225
71.66934 207
71.68946 205
71.70957 221
71.72968 199
71.7498 212
71.76991 174
71.79002 214
71.81014 211
71.83025 204
71.85037 201
71.87048 204
71.89059 186
71.91071 216
71.93082 184
71.95093 185
71.97105 187
71.99116 193
72.01127 183
72.03139 193
72.0515 185
72.07162 206
72.09173 234
72.11184 219
72.13196 238
72.15207 211
72.17218 192
72.1923 183
72.21241 231
72.23253 211
72.25264 212
72.27275 201
72.29287 194
72.31298 204
72.33309 224
72.35321 220
72.37332 210
72.39344 221
72.41355 207
72.43366 225
72.45378 210
72.47389 217
72.494 228
72.51412 191
72.53423 254
72.55434 204
72.57446 230
72.59457 224
72.61469 217
72.6348 219
72.65491 218
72.67503 238
72.69514 222
72.71525 228
72.73537 198
72.75548 219
72.7756 225
72.79571 232
72.81582 211
72.83594 256
72.85605 238
72.87616 219
72.89628 223
72.91639 206
72.9365 247
72.95662 208
72.97673 220
72.99685 235
73.01696 251
73.03707 253
73.05719 263
73.0773 230
73.09741 250
73.11753 247
73.13764 261
73.15776 248
73.17787 285
73.19798 303
73.2181 295
73.23821 310
73.25832 339
73.27844 348
73.29855 424
73.31867 426
73.33878 447
73.35889 470
73.37901 537
73.39912 529
73.41923 537
73.43935 534
73.45946 467
73.47957 430
73.49969 364
73.5198 391
73.53992 340
73.56003 362
73.58014 391
73.60026 347
73.62037 389
73.64048 400
73.6606 336
73.68071 334
73.70083 286
73.72094 234
73.74105 241
73.76117 236
73.78128 219
73.80139 185
73.82151 227
73.84162 213
73.86174 207
73.88185 224
73.90196 206
73.92208 206
73.94219 233
73.9623 189
73.98242 218
74.00253 228
74.02264 202
74.04276 226
74.06287 224
74.08299 184
74.1031 207
74.12321 193
74.14333 204
74.16344 186
74.18355 195
74.20367 203
74.22378 196
74.2439 185
74.26401 199
74.28412 226
74.30424 193
74.32435 202
74.34446 200
74.36458 191
74.38469 202
74.40481 219
74.42492 192
74.44503 201
74.46515 211
74.48526 192
74.50537 219
74.52549 212
74.5456 203
74.56571 205
74.58583 205
74.60594 186
74.62606 198
74.64617 198
74.66628 203
74.6864 215
74.70651 184
74.72662 202
74.74674 193
74.76685 211
74.78697 219
74.80708 225
74.82719 220
74.84731 201
74.86742 195
74.88753 205
74.90765 183
74.92776 210
74.94787 192
74.96799 190
74.9881 220
75.00822 211
