3.00117 23077
3.02128 22584
3.0414 22127
3.06151 21349
3.08162 21067
3.10174 20566
3.12185 19919
3.14197 19510
3.16208 18446
3.18219 18372
3.20231 18039
3.22242 16934
3.24253 16599
3.26265 16084
3.28276 15801
3.30288 15164
3.32299 15232
3.3431 14255
3.36322 13589
3.38333 13545
3.40344 12988
3.42356 12501
3.44367 12375
3.46379 11437
3.4839 11474
3.50401 10974
3.52413 10650
3.54424 10608
3.56435 9864
3.58447 9654
3.60458 9289
3.62469 8901
3.64481 8888
3.66492 7921
3.68504 8105
3.70515 7828
3.72526 7511
3.74538 7345
3.76549 7017
3.7856 6735
3.80572 6459
3.82583 6171
3.84595 6104
3.86606 5584
3.88617 5580
3.90629 5289
3.9264 5220
3.94651 4966
3.96663 4751
3.98674 4632
4.00686 4366
4.02697 4198
4.04708 4177
4.0672 3814
4.08731 3797
4.10742 3739
4.12754 3557
4.14765 3474
4.16776 3108
4.18788 3138
4.20799 3120
4.22811 2950
4.24822 2909
4.26833 2729
4.28845 2799
4.30856 2670
4.32867 2555
4.34879 2685
4.3689 2334
4.38902 2439
4.40913 2428
4.42924 2444
4.44936 2465
4.46947 2122
4.48958 2246
4.5097 2133
4.52981 2158
4.54992 2243
4.57004 2011
4.59015 2050
4.61027 2000
4.63038 1967
4.65049 2005
4.67061 1897
4.69072 1924
4.71083 1941
4.73095 1884
4.75106 1773
4.77118 1721
4.79129 1728
4.8114 1749
4.83152 1725
4.85163 1646
4.87174 1583
4.89186 1629
4.91197 1591
4.93209 1636
4.9522 1541
4.97231 1578
4.99243 1540
5.01254 1513
5.03265 1596
5.05277 1472
5.07288 1422
5.09299 1442
5.11311 1466
5.13322 1467
5.15334 1399
5.17345 1367
5.19356 1330
5.21368 1428
5.23379 1323
5.2539 1267
5.27402 1362
5.29413 1296
5.31425 1303
5.33436 1298
5.35447 1242
5.37459 1301
5.3947 1188
5.41481 1258
5.43493 1207
5.45504 1240
5.47516 1115
5.49527 1127
5.51538 1199
5.5355 1138
5.55561 1129
5.57572 1120
5.59584 1127
5.61595 1101
5.63606 1097
5.65618 1062
5.67629 1066
5.69641 1079
5.71652 1109
5.73663 1022
5.75675 983
5.77686 975
5.79697 1032
5.81709 989
5.8372 988
5.85732 1012
5.87743 1011
5.89754 989
5.91766 1027
5.93777 931
5.95788 912
5.978 918
5.99811 921
6.01823 911
6.03834 972
6.05845 961
6.07857 838
6.09868 880
6.11879 874
6.13891 926
6.15902 892
6.17913 897
6.19925 903
6.21936 818
6.23948 823
6.25959 797
6.2797 835
6.29982 831
6.31993 829
6.34004 766
6.36016 779
6.38027 788
6.40039 820
6.4205 776
6.44061 775
6.46073 803
6.48084 744
6.50095 776
6.52107 755
6.54118 737
6.56129 764
6.58141 721
6.60152 716
6.62164 784
6.64175 695
6.66186 710
6.68198 726
6.70209 631
6.7222 668
6.74232 704
6.76243 656
6.78255 669
6.80266 642
6.82277 712
6.84289 703
6.863 627
6.88311 703
6.90323 636
6.92334 663
6.94346 620
6.96357 652
6.98368 631
7.0038 639
7.02391 656
7.04402 603
7.06414 596
7.08425 599
7.10436 598
7.12448 585
7.14459 606
7.16471 592
7.18482 529
7.20493 605
7.22505 601
7.24516 584
7.26527 571
7.28539 571
7.3055 544
7.32562 570
7.34573 578
7.36584 594
7.38596 580
7.40607 552
7.42618 526
7.4463 520
7.46641 579
7.48653 562
7.50664 531
7.52675 554
7.54687 555
7.56698 551
7.58709 559
7.60721 526
7.62732 550
7.64743 536
7.66755 552
7.68766 499
7.70778 537
7.72789 557
7.748 507
7.76812 519
7.78823 582
7.80834 525
7.82846 530
7.84857 524
7.86869 537
7.8888 510
7.90891 438
7.92903 510
7.94914 519
7.96925 497
7.98937 503
8.00948 532
8.0296 511
8.04971 538
8.06982 534
8.08994 536
8.11005 528
8.13016 514
8.15028 547
8.17039 502
8.1905 518
8.21062 528
8.23073 579
8.25085 600
8.27096 537
8.29107 605
8.31119 587
8.3313 568
8.35141 594
8.37153 571
8.39164 539
8.41176 568
8.43187 605
8.45198 544
8.4721 577
8.49221 543
8.51232 559
8.53244 547
8.55255 555
8.57266 526
8.59278 551
8.61289 538
8.63301 493
8.65312 490
8.67323 530
8.69335 479
8.71346 522
8.73357 502
8.75369 477
8.7738 423
8.79392 432
8.81403 486
8.83414 426
8.85426 457
8.87437 431
8.89448 446
8.9146 413
8.93471 386
8.95483 422
8.97494 448
8.99505 440
9.01517 413
9.03528 389
9.05539 376
9.07551 360
9.09562 393
9.11573 443
9.13585 419
9.15596 399
9.17608 378
9.19619 430
9.2163 438
9.23642 322
9.25653 403
9.27664 364
9.29676 378
9.31687 396
9.33699 366
9.3571 390
9.37721 375
9.39733 389
9.41744 404
9.43755 349
9.45767 346
9.47778 370
9.4979 374
9.51801 336
9.53812 371
9.55824 352
9.57835 372
9.59846 339
9.61858 394
9.63869 361
9.6588 339
9.67892 374
9.69903 348
9.71915 335
9.73926 363
9.75937 340
9.77949 358
9.7996 340
9.81971 370
9.83983 353
9.85994 358
9.88006 332
9.90017 315
9.92028 329
9.9404 301
9.96051 350
9.98062 323
10.00074 328
10.02085 369
10.04097 372
10.06108 304
10.08119 316
10.10131 337
10.12142 339
10.14153 299
10.16165 322
10.18176 313
10.20187 340
10.22199 338
10.2421 309
10.26222 322
10.28233 325
10.30244 313
10.32256 337
10.34267 329
10.36278 330
10.3829 339
10.40301 342
10.42313 340
10.44324 276
10.46335 354
10.48347 326
10.50358 308
10.52369 347
10.54381 322
10.56392 308
10.58403 319
10.60415 330
10.62426 332
10.64438 330
10.66449 336
10.6846 284
10.70472 297
10.72483 354
10.74494 346
10.76506 297
10.78517 310
10.80529 315
10.8254 267
10.84551 277
10.86563 306
10.88574 325
10.90585 308
10.92597 299
10.94608 329
10.9662 274
10.98631 331
11.00642 304
11.02654 319
11.04665 326
11.06676 348
11.08688 284
11.10699 280
11.1271 304
11.14722 329
11.16733 296
11.18745 322
11.20756 306
11.22767 276
11.24779 288
11.2679 300
11.28801 313
11.30813 280
11.32824 278
11.34836 327
11.36847 292
11.38858 318
11.4087 270
11.42881 297
11.44892 311
11.46904 362
11.48915 296
11.50927 326
11.52938 324
11.54949 314
11.56961 287
11.58972 297
11.60983 298
11.62995 307
11.65006 254
11.67017 301
11.69029 297
11.7104 322
11.73052 304
11.75063 294
11.77074 292
11.79086 305
11.81097 300
11.83108 330
11.8512 311
11.87131 289
11.89143 286
11.91154 301
11.93165 283
11.95177 297
11.97188 332
11.99199 284
12.01211 309
12.03222 294
12.05234 316
12.07245 332
12.09256 304
12.11268 286
12.13279 327
12.1529 286
12.17302 277
12.19313 360
12.21324 294
12.23336 313
12.25347 312
12.27359 320
12.2937 251
12.31381 278
12.33393 317
12.35404 327
12.37415 265
12.39427 290
12.41438 349
12.4345 307
12.45461 290
12.47472 299
12.49484 296
12.51495 284
12.53506 288
12.55518 316
12.57529 312
12.5954 279
12.61552 312
12.63563 289
12.65575 300
12.67586 304
12.69597 272
12.71609 295
12.7362 270
12.75631 288
12.77643 283
12.79654 286
12.81666 269
12.83677 304
12.85688 283
12.877 284
12.89711 271
12.91722 320
12.93734 283
12.95745 309
12.97757 248
12.99768 281
13.01779 308
13.03791 301
13.05802 284
13.07813 274
13.09825 284
13.11836 314
13.13847 266
13.15859 289
13.1787 299
13.19882 310
13.21893 272
13.23904 291
13.25916 305
13.27927 271
13.29938 304
13.3195 330
13.33961 309
13.35973 319
13.37984 282
13.39995 303
13.42007 290
13.44018 313
13.46029 309
13.48041 306
13.50052 285
13.52064 309
13.54075 304
13.56086 316
13.58098 290
13.60109 323
13.6212 297
13.64132 316
13.66143 289
13.68154 303
13.70166 280
13.72177 317
13.74189 295
13.762 299
13.78211 302
13.80223 308
13.82234 314
13.84245 336
13.86257 285
13.88268 273
13.9028 297
13.92291 293
13.94302 296
13.96314 325
13.98325 308
14.00336 305
14.02348 275
14.04359 290
14.06371 286
14.08382 268
14.10393 268
14.12405 299
14.14416 280
14.16427 308
14.18439 249
14.2045 279
14.22461 303
14.24473 316
14.26484 296
14.28496 301
14.30507 275
14.32518 273
14.3453 250
14.36541 317
14.38552 318
14.40564 295
14.42575 278
14.44587 300
14.46598 273
14.48609 291
14.50621 299
14.52632 271
14.54643 269
14.56655 276
14.58666 269
14.60677 298
14.62689 290
14.647 285
14.66712 284
14.68723 283
14.70734 293
14.72746 328
14.74757 278
14.76768 299
14.7878 303
14.80791 280
14.82803 297
14.84814 284
14.86825 285
14.88837 290
14.90848 305
14.92859 300
14.94871 273
14.96882 287
14.98894 279
15.00905 299
15.02916 286
15.04928 304
15.06939 275
15.0895 300
15.10962 286
15.12973 311
15.14984 281
15.16996 281
15.19007 300
15.21019 299
15.2303 276
15.25041 290
15.27053 304
15.29064 304
15.31075 287
15.33087 266
15.35098 251
15.3711 298
15.39121 294
15.41132 300
15.43144 275
15.45155 287
15.47166 272
15.49178 283
15.51189 305
15.53201 266
15.55212 285
15.57223 273
15.59235 244
15.61246 282
15.63257 251
15.65269 308
15.6728 250
15.69291 299
15.71303 293
15.73314 273
15.75326 290
15.77337 259
15.79348 271
15.8136 272
15.83371 290
15.85382 288
15.87394 258
15.89405 280
15.91417 282
15.93428 284
15.95439 295
15.97451 345
15.99462 279
16.01473 274
16.03485 260
16.05496 296
16.07508 291
16.09519 317
16.1153 271
16.13542 297
16.15553 312
16.17564 298
16.19576 285
16.21587 299
16.23598 274
16.2561 307
16.27621 292
16.29633 285
16.31644 318
16.33655 301
16.35667 283
16.37678 315
16.39689 305
16.41701 289
16.43712 342
16.45724 276
16.47735 304
16.49746 272
16.51758 294
16.53769 276
16.5578 293
16.57792 293
16.59803 301
16.61814 316
16.63826 274
16.65837 300
16.67849 301
16.6986 286
16.71871 263
16.73883 265
16.75894 285
16.77905 320
16.79917 328
16.81928 317
16.8394 283
16.85951 280
16.87962 298
16.89974 318
16.91985 263
16.93996 291
16.96008 305
16.98019 318
17.00031 284
17.02042 314
17.04053 307
17.06065 285
17.08076 309
17.10087 299
17.12099 275
17.1411 278
17.16121 279
17.18133 318
17.20144 277
17.22156 307
17.24167 298
17.26178 298
17.2819 309
17.30201 300
17.32212 328
17.34224 291
17.36235 302
17.38247 347
17.40258 310
17.42269 309
17.44281 270
17.46292 300
17.48303 283
17.50315 270
17.52326 303
17.54338 325
17.56349 296
17.5836 313
17.60372 302
17.62383 328
17.64394 287
17.66406 290
17.68417 343
17.70428 303
17.7244 294
17.74451 304
17.76463 265
17.78474 296
17.80485 306
17.82497 311
17.84508 330
17.86519 297
17.88531 323
17.90542 278
17.92554 307
17.94565 284
17.96576 277
17.98588 304
18.00599 309
18.0261 290
18.04622 319
18.06633 283
18.08645 290
18.10656 298
18.12667 296
18.14679 308
18.1669 302
18.18701 323
18.20713 326
18.22724 320
18.24735 315
18.26747 287
18.28758 318
18.3077 292
18.32781 269
18.34792 276
18.36804 329
18.38815 296
18.40826 318
18.42838 300
18.44849 280
18.46861 300
18.48872 291
18.50883 316
18.52895 321
18.54906 301
18.56917 307
18.58929 317
18.6094 289
18.62951 273
18.64963 302
18.66974 308
18.68986 317
18.70997 343
18.73008 332
18.7502 313
18.77031 322
18.79042 339
18.81054 329
18.83065 335
18.85077 322
18.87088 358
18.89099 324
18.91111 323
18.93122 313
18.95133 341
18.97145 325
18.99156 325
19.01168 306
19.03179 319
19.0519 300
19.07202 358
19.09213 325
19.11224 342
19.13236 362
19.15247 365
19.17258 362
19.1927 402
19.21281 378
19.23293 386
19.25304 385
19.27315 404
19.29327 414
19.31338 421
19.33349 443
19.35361 435
19.37372 412
19.39384 489
19.41395 505
19.43406 552
19.45418 540
19.47429 582
19.4944 561
19.51452 583
19.53463 605
19.55475 640
19.57486 679
19.59497 686
19.61509 736
19.6352 706
19.65531 717
19.67543 757
19.69554 789
19.71565 792
19.73577 772
19.75588 765
19.776 795
19.79611 801
19.81622 775
19.83634 813
19.85645 829
19.87656 747
19.89668 743
19.91679 722
19.93691 748
19.95702 678
19.97713 663
19.99725 695
20.01736 693
20.03747 630
20.05759 690
20.0777 654
20.09782 608
20.11793 670
20.13804 645
20.15816 603
20.17827 616
20.19838 569
20.2185 595
20.23861 603
20.25872 601
20.27884 619
20.29895 613
20.31907 635
20.33918 606
20.35929 601
20.37941 581
20.39952 600
20.41963 632
20.43975 654
20.45986 610
20.47998 645
20.50009 617
20.5202 668
20.54032 640
20.56043 743
20.58054 802
20.60066 816
20.62077 852
20.64088 1064
20.661 1195
20.68111 1539
20.70123 1989
20.72134 2447
20.74145 3156
20.76157 3877
20.78168 4593
20.80179 5167
20.82191 5374
20.84202 5264
20.86214 4589
20.88225 3898
20.90236 2928
20.92248 2134
20.94259 1577
20.9627 1143
20.98282 931
21.00293 770
21.02305 740
21.04316 645
21.06327 654
21.08339 604
21.1035 568
21.12361 564
21.14373 554
21.16384 502
21.18395 508
21.20407 547
21.22418 490
21.2443 477
21.26441 479
21.28452 513
21.30464 468
21.32475 501
21.34486 479
21.36498 461
21.38509 464
21.40521 525
21.42532 466
21.44543 480
21.46555 463
21.48566 470
21.50577 465
21.52589 439
21.546 434
21.56612 420
21.58623 435
21.60634 435
21.62646 487
21.64657 443
21.66668 445
21.6868 459
21.70691 446
21.72702 422
21.74714 436
21.76725 449
21.78737 426
21.80748 421
21.82759 417
21.84771 444
21.86782 411
21.88793 422
21.90805 448
21.92816 453
21.94828 424
21.96839 439
21.9885 446
22.00862 462
22.02873 463
22.04884 460
22.06896 442
22.08907 457
22.10919 425
22.1293 423
22.14941 457
22.16953 403
22.18964 422
22.20975 388
22.22987 415
22.24998 481
22.27009 508
22.29021 426
22.31032 432
22.33044 404
22.35055 426
22.37066 416
22.39078 455
22.41089 406
22.431 414
22.45112 414
22.47123 442
22.49135 412
22.51146 464
22.53157 398
22.55169 400
22.5718 455
22.59191 463
22.61203 418
22.63214 429
22.65225 369
22.67237 402
22.69248 389
22.7126 387
22.73271 382
22.75282 417
22.77294 400
22.79305 407
22.81316 420
22.83328 436
22.85339 380
22.87351 346
22.89362 351
22.91373 430
22.93385 390
22.95396 411
22.97407 405
22.99419 407
23.0143 428
23.03442 405
23.05453 379
23.07464 380
23.09476 397
23.11487 398
23.13498 443
23.1551 392
23.17521 431
23.19532 396
23.21544 422
23.23555 380
23.25567 384
23.27578 407
23.29589 417
23.31601 416
23.33612 433
23.35623 443
23.37635 402
23.39646 440
23.41658 439
23.43669 434
23.4568 423
23.47692 483
23.49703 445
23.51714 479
23.53726 468
23.55737 417
23.57749 405
23.5976 447
23.61771 395
23.63783 443
23.65794 428
23.67805 442
23.69817 424
23.71828 416
23.73839 427
23.75851 445
23.77862 416
23.79874 403
23.81885 457
23.83896 450
23.85908 457
23.87919 429
23.8993 477
23.91942 453
23.93953 440
23.95965 460
23.97976 465
23.99987 461
24.01999 465
24.0401 454
24.06021 462
24.08033 436
24.10044 382
24.12056 432
24.14067 403
24.16078 440
24.1809 435
24.20101 418
24.22112 447
24.24124 457
24.26135 392
24.28146 434
24.30158 442
24.32169 394
24.34181 446
24.36192 416
24.38203 400
24.40215 371
24.42226 415
24.44237 413
24.46249 424
24.4826 385
24.50272 441
24.52283 375
24.54294 443
24.56306 425
24.58317 391
24.60328 428
24.6234 369
24.64351 397
24.66362 413
24.68374 468
24.70385 399
24.72397 418
24.74408 401
24.76419 426
24.78431 429
24.80442 437
24.82453 445
24.84465 383
24.86476 410
24.88488 451
24.90499 375
24.9251 410
24.94522 423
24.96533 433
24.98544 437
25.00556 445
25.02567 428
25.04579 442
25.0659 441
25.08601 451
25.10613 455
25.12624 466
25.14635 396
25.16647 441
25.18658 420
25.20669 474
25.22681 458
25.24692 469
25.26704 450
25.28715 469
25.30726 420
25.32738 460
25.34749 439
25.3676 408
25.38772 408
25.40783 464
25.42795 481
25.44806 464
25.46817 505
25.48829 462
25.5084 451
25.52851 472
25.54863 479
25.56874 474
25.58886 477
25.60897 486
25.62908 532
25.6492 606
25.66931 580
25.68942 594
25.70954 598
25.72965 555
25.74976 562
25.76988 603
25.78999 535
25.81011 561
25.83022 585
25.85033 562
25.87045 618
25.89056 638
25.91067 638
25.93079 577
25.9509 652
25.97102 670
25.99113 666
26.01124 655
26.03136 696
26.05147 683
26.07158 710
26.0917 764
26.11181 788
26.13193 841
26.15204 892
26.17215 878
26.19227 921
26.21238 1045
26.23249 1084
26.25261 1187
26.27272 1229
26.29283 1365
26.31295 1519
26.33306 1803
26.35318 1999
26.37329 2393
26.3934 3109
26.41352 3702
26.43363 4858
26.45374 6368
26.47386 8224
26.49397 10607
26.51409 13771
26.5342 16873
26.55431 20132
26.57443 22581
26.59454 23472
26.61465 22738
26.63477 20293
26.65488 16771
26.67499 13103
26.69511 9578
26.71522 6645
26.73534 4445
26.75545 3016
26.77556 2038
26.79568 1665
26.81579 1407
26.8359 1389
26.85602 1223
26.87613 1140
26.89625 1102
26.91636 961
26.93647 930
26.95659 954
26.9767 912
26.99681 778
27.01693 770
27.03704 827
27.05716 766
27.07727 738
27.09738 694
27.1175 700
27.13761 703
27.15772 661
27.17784 621
27.19795 620
27.21806 626
27.23818 588
27.25829 584
27.27841 660
27.29852 603
27.31863 629
27.33875 709
27.35886 668
27.37897 720
27.39909 660
27.4192 681
27.43932 709
27.45943 680
27.47954 658
27.49966 646
27.51977 594
27.53988 629
27.56 657
27.58011 572
27.60023 557
27.62034 557
27.64045 573
27.66057 555
27.68068 532
27.70079 521
27.72091 577
27.74102 515
27.76113 553
27.78125 569
27.80136 506
27.82148 485
27.84159 527
27.8617 457
27.88182 540
27.90193 531
27.92204 509
27.94216 539
27.96227 492
27.98239 477
28.0025 454
28.02261 487
28.04273 485
28.06284 475
28.08295 484
28.10307 508
28.12318 454
28.1433 506
28.16341 471
28.18352 486
28.20364 460
28.22375 508
28.24386 464
28.26398 459
28.28409 439
28.3042 461
28.32432 444
28.34443 454
28.36455 485
28.38466 421
28.40477 494
28.42489 476
28.445 422
28.46511 440
28.48523 409
28.50534 397
28.52546 470
28.54557 472
28.56568 446
28.5858 435
28.60591 448
28.62602 404
28.64614 482
28.66625 418
28.68636 420
28.70648 432
28.72659 432
28.74671 445
28.76682 395
28.78693 424
28.80705 441
28.82716 431
28.84727 492
28.86739 409
28.8875 431
28.90762 399
28.92773 421
28.94784 436
28.96796 380
28.98807 438
29.00818 441
29.0283 458
29.04841 423
29.06853 438
29.08864 450
29.10875 454
29.12887 417
29.14898 398
29.16909 448
29.18921 428
29.20932 439
29.22943 401
29.24955 403
29.26966 448
29.28978 409
29.30989 413
29.33 438
29.35012 404
29.37023 405
29.39034 391
29.41046 405
29.43057 414
29.45069 419
29.4708 432
29.49091 394
29.51103 414
29.53114 427
29.55125 438
29.57137 390
29.59148 431
29.6116 444
29.63171 385
29.65182 417
29.67194 458
29.69205 385
29.71216 421
29.73228 431
29.75239 385
29.7725 434
29.79262 441
29.81273 397
29.83285 431
29.85296 411
29.87307 417
29.89319 430
29.9133 448
29.93341 410
29.95353 443
29.97364 399
29.99376 400
30.01387 364
30.03398 368
30.0541 375
30.07421 396
30.09432 377
30.11444 418
30.13455 398
30.15467 412
30.17478 415
30.19489 438
30.21501 419
30.23512 366
30.25523 402
30.27535 410
30.29546 392
30.31557 417
30.33569 381
30.3558 370
30.37592 396
30.39603 383
30.41614 350
30.43626 398
30.45637 400
30.47648 341
30.4966 393
30.51671 358
30.53683 400
30.55694 390
30.57705 381
30.59717 358
30.61728 395
30.63739 348
30.65751 363
30.67762 388
30.69773 372
30.71785 402
30.73796 384
30.75808 381
30.77819 401
30.7983 379
30.81842 399
30.83853 381
30.85864 387
30.87876 368
30.89887 391
30.91899 390
30.9391 410
30.95921 345
30.97933 369
30.99944 352
31.01955 343
31.03967 349
31.05978 378
31.0799 342
31.10001 362
31.12012 387
31.14024 333
31.16035 325
31.18046 375
31.20058 358
31.22069 335
31.2408 367
31.26092 338
31.28103 322
31.30115 339
31.32126 324
31.34137 367
31.36149 349
31.3816 307
31.40171 336
31.42183 388
31.44194 349
31.46206 321
31.48217 329
31.50228 351
31.5224 354
31.54251 370
31.56262 335
31.58274 343
31.60285 352
31.62297 326
31.64308 349
31.66319 371
31.68331 320
31.70342 311
31.72353 328
31.74365 320
31.76376 358
31.78387 348
31.80399 319
31.8241 343
31.84422 332
31.86433 340
31.88444 385
31.90456 285
31.92467 346
31.94478 294
31.9649 335
31.98501 323
32.00513 348
32.02524 343
32.04535 378
32.06547 309
32.08558 341
32.10569 313
32.12581 354
32.14592 360
32.16604 334
32.18615 354
32.20626 342
32.22638 361
32.24649 336
32.2666 361
32.28672 372
32.30683 316
32.32694 307
32.34706 358
32.36717 310
32.38729 348
32.4074 337
32.42751 317
32.44763 346
32.46774 334
32.48785 339
32.50797 348
32.52808 306
32.5482 362
32.56831 294
32.58842 309
32.60854 358
32.62865 349
32.64876 334
32.66888 344
32.68899 348
32.7091 342
32.72922 311
32.74933 290
32.76945 316
32.78956 323
32.80967 338
32.82979 316
32.8499 340
32.87001 337
32.89013 346
32.91024 324
32.93036 330
32.95047 339
32.97058 324
32.9907 343
33.01081 291
33.03092 325
33.05104 332
33.07115 291
33.09127 321
33.11138 341
33.13149 318
33.15161 328
33.17172 314
33.19183 311
33.21195 318
33.23206 321
33.25217 329
33.27229 317
33.2924 280
33.31252 309
33.33263 360
33.35274 340
33.37286 317
33.39297 336
33.41308 358
33.4332 313
33.45331 329
33.47343 306
33.49354 289
33.51365 318
33.53377 328
33.55388 315
33.57399 329
33.59411 323
33.61422 314
33.63434 337
33.65445 325
33.67456 300
33.69468 325
33.71479 315
33.7349 343
33.75502 323
33.77513 333
33.79524 315
33.81536 364
33.83547 359
33.85559 313
33.8757 322
33.89581 332
33.91593 351
33.93604 345
33.95615 373
33.97627 330
33.99638 346
34.0165 390
34.03661 373
34.05672 374
34.07684 381
34.09695 364
34.11706 376
34.13718 368
34.15729 419
34.17741 380
34.19752 426
34.21763 424
34.23775 399
34.25786 398
34.27797 443
34.29809 415
34.3182 449
34.33831 448
34.35843 447
34.37854 429
34.39866 455
34.41877 488
34.43888 471
34.459 483
34.47911 533
34.49922 451
34.51934 503
34.53945 524
34.55957 520
34.57968 516
34.59979 512
34.61991 499
34.64002 485
34.66013 536
34.68025 534
34.70036 537
34.72047 552
34.74059 538
34.7607 551
34.78082 515
34.80093 563
34.82104 507
34.84116 532
34.86127 538
34.88138 537
34.9015 534
34.92161 524
34.94173 465
34.96184 529
34.98195 524
35.00207 493
35.02218 514
35.04229 511
35.06241 510
35.08252 523
35.10264 433
35.12275 501
35.14286 494
35.16298 464
35.18309 515
35.2032 491
35.22332 500
35.24343 488
35.26354 493
35.28366 484
35.30377 504
35.32389 433
35.344 494
35.36411 506
35.38423 446
35.40434 475
35.42445 470
35.44457 408
35.46468 471
35.4848 451
35.50491 472
35.52502 484
35.54514 463
35.56525 467
35.58536 439
35.60548 409
35.62559 394
35.64571 435
35.66582 444
35.68593 437
35.70605 404
35.72616 449
35.74627 457
35.76639 423
35.7865 399
35.80661 418
35.82673 431
35.84684 411
35.86696 431
35.88707 403
35.90718 441
35.9273 430
35.94741 415
35.96752 453
35.98764 432
36.00775 420
36.02787 422
36.04798 441
36.06809 464
36.08821 431
36.10832 421
36.12843 479
36.14855 450
36.16866 437
36.18878 481
36.20889 530
36.229 571
36.24912 578
36.26923 598
36.28934 668
36.30946 678
36.32957 751
36.34968 912
36.3698 993
36.38991 1233
36.41003 1382
36.43014 1525
36.45025 1767
36.47037 1883
36.49048 1831
36.51059 1868
36.53071 1685
36.55082 1510
36.57094 1346
36.59105 1175
36.61116 954
36.63128 873
36.65139 703
36.6715 596
36.69162 556
36.71173 492
36.73184 460
36.75196 461
36.77207 421
36.79219 429
36.8123 443
36.83241 446
36.85253 469
36.87264 445
36.89275 422
36.91287 424
36.93298 402
36.9531 381
36.97321 415
36.99332 453
37.01344 445
37.03355 384
37.05366 395
37.07378 423
37.09389 363
37.11401 386
37.13412 391
37.15423 414
37.17435 408
37.19446 350
37.21457 403
37.23469 427
37.2548 391
37.27491 355
37.29503 362
37.31514 408
37.33526 366
37.35537 393
37.37548 356
37.3956 351
37.41571 403
37.43582 367
37.45594 369
37.47605 404
37.49617 409
37.51628 381
37.53639 350
37.55651 403
37.57662 399
37.59673 401
37.61685 407
37.63696 405
37.65708 356
37.67719 403
37.6973 371
37.71742 365
37.73753 349
37.75764 369
37.77776 370
37.79787 378
37.81798 353
37.8381 346
37.85821 368
37.87833 404
37.89844 401
37.91855 365
37.93867 348
37.95878 338
37.97889 387
37.99901 366
38.01912 392
38.03924 372
38.05935 336
38.07946 341
38.09958 381
38.11969 392
38.1398 359
38.15992 335
38.18003 370
38.20015 375
38.22026 360
38.24037 335
38.26049 400
38.2806 349
38.30071 321
38.32083 368
38.34094 385
38.36105 342
38.38117 344
38.40128 381
38.4214 343
38.44151 368
38.46162 350
38.48174 357
38.50185 391
38.52196 359
38.54208 366
38.56219 348
38.58231 386
38.60242 353
38.62253 379
38.64265 367
38.66276 346
38.68287 379
38.70299 363
38.7231 362
38.74321 344
38.76333 357
38.78344 335
38.80356 368
38.82367 341
38.84378 346
38.8639 313
38.88401 361
38.90412 377
38.92424 369
38.94435 353
38.96447 380
38.98458 349
39.00469 395
39.02481 353
39.04492 386
39.06503 387
39.08515 405
39.10526 428
39.12538 414
39.14549 499
39.1656 498
39.18572 501
39.20583 654
39.22594 618
39.24606 745
39.26617 831
39.28628 865
39.3064 1039
39.32651 1214
39.34663 1365
39.36674 1509
39.38685 1601
39.40697 1655
39.42708 1664
39.44719 1565
39.46731 1392
39.48742 1194
39.50754 1149
39.52765 921
39.54776 787
39.56788 705
39.58799 596
39.6081 495
39.62822 441
39.64833 465
39.66845 405
39.68856 393
39.70867 423
39.72879 446
39.7489 364
39.76901 395
39.78913 405
39.80924 402
39.82935 362
39.84947 380
39.86958 408
39.8897 365
39.90981 387
39.92992 426
39.95004 394
39.97015 454
39.99026 413
40.01038 504
40.03049 435
40.05061 531
40.07072 503
40.09083 548
40.11095 678
40.13106 680
40.15117 784
40.17129 883
40.1914 987
40.21152 991
40.23163 965
40.25174 1071
40.27186 978
40.29197 872
40.31208 738
40.3322 674
40.35231 658
40.37242 600
40.39254 516
40.41265 479
40.43277 418
40.45288 399
40.47299 375
40.49311 388
40.51322 366
40.53333 419
40.55345 353
40.57356 345
40.59368 338
40.61379 345
40.6339 372
40.65402 381
40.67413 342
40.69424 369
40.71436 322
40.73447 355
40.75458 348
40.7747 366
40.79481 325
40.81493 355
40.83504 322
40.85515 364
40.87527 353
40.89538 346
40.91549 348
40.93561 347
40.95572 355
40.97584 332
40.99595 330
41.01606 357
41.03618 359
41.05629 322
41.0764 353
41.09652 331
41.11663 358
41.13675 370
41.15686 335
41.17697 326
41.19709 363
41.2172 337
41.23731 340
41.25743 340
41.27754 337
41.29765 359
41.31777 336
41.33788 351
41.358 336
41.37811 332
41.39822 370
41.41834 339
41.43845 343
41.45856 351
41.47868 356
41.49879 343
41.51891 373
41.53902 354
41.55913 378
41.57925 398
41.59936 335
41.61947 387
41.63959 324
41.6597 373
41.67982 343
41.69993 375
41.72004 399
41.74016 406
41.76027 351
41.78038 367
41.8005 341
41.82061 370
41.84072 334
41.86084 364
41.88095 345
41.90107 381
41.92118 371
41.94129 353
41.96141 365
41.98152 357
42.00163 382
42.02175 380
42.04186 377
42.06198 384
42.08209 386
42.1022 406
42.12232 459
42.14243 440
42.16254 439
42.18266 513
42.20277 533
42.22289 576
42.243 714
42.26311 733
42.28323 826
42.30334 907
42.32345 1060
42.34357 1149
42.36368 1224
42.38379 1306
42.40391 1332
42.42402 1188
42.44414 1173
42.46425 1024
42.48436 919
42.50448 870
42.52459 752
42.5447 618
42.56482 514
42.58493 471
42.60505 421
42.62516 423
42.64527 351
42.66539 356
42.6855 337
42.70561 333
42.72573 353
42.74584 336
42.76595 338
42.78607 361
42.80618 316
42.8263 312
42.84641 329
42.86652 297
42.88664 342
42.90675 326
42.92686 346
42.94698 313
42.96709 295
42.98721 326
43.00732 279
43.02743 302
43.04755 318
43.06766 315
43.08777 334
43.10789 316
43.128 309
43.14812 298
43.16823 318
43.18834 333
43.20846 310
43.22857 311
43.24868 329
43.2688 302
43.28891 296
43.30902 343
43.32914 327
43.34925 291
43.36937 315
43.38948 347
43.40959 317
43.42971 298
43.44982 331
43.46993 309
43.49005 349
43.51016 296
43.53028 293
43.55039 292
43.5705 278
43.59062 325
43.61073 296
43.63084 333
43.65096 312
43.67107 294
43.69119 295
43.7113 286
43.73141 302
43.75153 310
43.77164 305
43.79175 312
43.81187 299
43.83198 308
43.85209 314
43.87221 330
43.89232 319
43.91244 283
43.93255 311
43.95266 305
43.97278 277
43.99289 295
44.013 309
44.03312 312
44.05323 282
44.07335 318
44.09346 281
44.11357 305
44.13369 317
44.1538 313
44.17391 279
44.19403 306
44.21414 335
44.23426 307
44.25437 313
44.27448 301
44.2946 281
44.31471 299
44.33482 300
44.35494 358
44.37505 295
44.39516 297
44.41528 326
44.43539 309
44.45551 295
44.47562 305
44.49573 312
44.51585 313
44.53596 307
44.55607 283
44.57619 300
44.5963 278
44.61642 316
44.63653 273
44.65664 314
44.67676 300
44.69687 293
44.71698 257
44.7371 282
44.75721 321
44.77732 296
44.79744 293
44.81755 292
44.83767 289
44.85778 290
44.87789 290
44.89801 315
44.91812 306
44.93823 301
44.95835 291
44.97846 314
44.99858 292
45.01869 292
45.0388 294
45.05892 327
45.07903 300
45.09914 334
45.11926 304
45.13937 311
45.15949 311
45.1796 312
45.19971 349
45.21983 321
45.23994 303
45.26005 313
45.28017 310
45.30028 303
45.32039 288
45.34051 298
45.36062 347
45.38074 337
45.40085 289
45.42096 351
45.44108 347
45.46119 378
45.4813 366
45.50142 422
45.52153 438
45.54165 467
45.56176 517
45.58187 532
45.60199 565
45.6221 637
45.64221 645
45.66233 775
45.68244 793
45.70256 897
45.72267 910
45.74278 910
45.7629 892
45.78301 795
45.80312 703
45.82324 612
45.84335 635
45.86346 536
45.88358 539
45.90369 487
45.92381 449
45.94392 377
45.96403 318
45.98415 327
46.00426 337
46.02437 319
46.04449 281
46.0646 284
46.08472 349
46.10483 301
46.12494 300
46.14506 265
46.16517 303
46.18528 299
46.2054 286
46.22551 297
46.24563 311
46.26574 279
46.28585 275
46.30597 272
46.32608 304
46.34619 272
46.36631 296
46.38642 253
46.40653 271
46.42665 272
46.44676 262
46.46688 303
46.48699 270
46.5071 271
46.52722 277
46.54733 285
46.56744 289
46.58756 265
46.60767 268
46.62779 255
46.6479 275
46.66801 260
46.68813 252
46.70824 287
46.72835 264
46.74847 289
46.76858 289
46.78869 289
46.80881 277
46.82892 283
46.84904 259
46.86915 277
46.88926 268
46.90938 263
46.92949 264
46.9496 299
46.96972 271
46.98983 280
47.00995 279
47.03006 291
47.05017 280
47.07029 313
47.0904 271
47.11051 282
47.13063 302
47.15074 256
47.17086 318
47.19097 298
47.21108 312
47.2312 291
47.25131 317
47.27142 248
47.29154 277
47.31165 290
47.33176 290
47.35188 277
47.37199 303
47.39211 262
47.41222 281
47.43233 291
47.45245 265
47.47256 283
47.49267 299
47.51279 301
47.5329 250
47.55302 249
47.57313 283
47.59324 243
47.61336 269
47.63347 315
47.65358 261
47.6737 266
47.69381 269
47.71393 268
47.73404 269
47.75415 260
47.77427 301
47.79438 281
47.81449 261
47.83461 267
47.85472 294
47.87483 267
47.89495 268
47.91506 291
47.93518 298
47.95529 262
47.9754 255
47.99552 275
48.01563 265
48.03574 276
48.05586 283
48.07597 276
48.09609 273
48.1162 274
48.13631 282
48.15643 239
48.17654 262
48.19665 306
48.21677 256
48.23688 296
48.257 259
48.27711 267
48.29722 274
48.31734 276
48.33745 254
48.35756 274
48.37768 276
48.39779 280
48.4179 277
48.43802 292
48.45813 276
48.47825 307
48.49836 246
48.51847 271
48.53859 268
48.5587 304
48.57881 284
48.59893 296
48.61904 291
48.63916 260
48.65927 294
48.67938 293
48.6995 293
48.71961 288
48.73972 290
48.75984 284
48.77995 316
48.80006 293
48.82018 286
48.84029 321
48.86041 306
48.88052 261
48.90063 265
48.92075 290
48.94086 310
48.96097 294
48.98109 292
49.0012 297
49.02132 294
49.04143 294
49.06154 285
49.08166 288
49.10177 286
49.12188 298
49.142 293
49.16211 277
49.18223 258
49.20234 297
49.22245 253
49.24257 290
49.26268 288
49.28279 266
49.30291 267
49.32302 308
49.34313 285
49.36325 305
49.38336 303
49.40348 279
49.42359 302
49.4437 309
49.46382 315
49.48393 326
49.50404 323
49.52416 323
49.54427 316
49.56439 330
49.5845 347
49.60461 341
49.62473 334
49.64484 337
49.66495 370
49.68507 378
49.70518 397
49.7253 403
49.74541 460
49.76552 453
49.78564 478
49.80575 573
49.82586 585
49.84598 696
49.86609 716
49.8862 863
49.90632 968
49.92643 1146
49.94655 1261
49.96666 1534
49.98677 1750
50.00689 2049
50.027 2301
50.04711 2501
50.06723 2550
50.08734 2461
50.10746 2332
50.12757 2140
50.14768 1839
50.1678 1623
50.18791 1532
50.20802 1371
50.22814 1161
50.24825 1016
50.26837 878
50.28848 684
50.30859 567
50.32871 498
50.34882 442
50.36893 395
50.38905 378
50.40916 401
50.42927 396
50.44939 400
50.4695 367
50.48962 361
50.50973 387
50.52984 346
50.54996 380
50.57007 355
50.59018 362
50.6103 369
50.63041 341
50.65053 316
50.67064 355
50.69075 345
50.71087 324
50.73098 309
50.75109 297
50.77121 293
50.79132 274
50.81143 302
50.83155 320
50.85166 295
50.87178 272
50.89189 282
50.912 291
50.93212 279
50.95223 282
50.97234 284
50.99246 266
51.01257 294
51.03269 281
51.0528 234
51.07291 297
51.09303 249
51.11314 278
51.13325 254
51.15337 264
51.17348 287
51.1936 246
51.21371 282
51.23382 268
51.25394 272
51.27405 288
51.29416 278
51.31428 244
51.33439 259
51.3545 251
51.37462 269
51.39473 286
51.41485 276
51.43496 277
51.45507 266
51.47519 279
51.4953 255
51.51541 241
51.53553 289
51.55564 266
51.57576 271
51.59587 264
51.61598 289
51.6361 259
51.65621 245
51.67632 267
51.69644 256
51.71655 248
51.73667 238
51.75678 268
51.77689 253
51.79701 279
51.81712 283
51.83723 257
51.85735 258
51.87746 254
51.89757 256
51.91769 274
51.9378 255
51.95792 253
51.97803 252
51.99814 296
52.01826 273
52.03837 236
52.05848 268
52.0786 267
52.09871 252
52.11883 301
52.13894 261
52.15905 279
52.17917 278
52.19928 261
52.21939 259
52.23951 247
52.25962 281
52.27974 249
52.29985 263
52.31996 274
52.34008 269
52.36019 249
52.3803 286
52.40042 267
52.42053 269
52.44064 269
52.46076 253
52.48087 259
52.50099 294
52.5211 264
52.54121 296
52.56133 251
52.58144 248
52.60155 296
52.62167 278
52.64178 281
52.6619 301
52.68201 292
52.70212 248
52.72224 246
52.74235 275
52.76246 287
52.78258 259
52.80269 287
52.8228 284
52.84292 266
52.86303 298
52.88315 252
52.90326 272
52.92337 270
52.94349 299
52.9636 278
52.98371 300
53.00383 259
53.02394 300
53.04406 299
53.06417 262
53.08428 304
53.1044 306
53.12451 301
53.14462 288
53.16474 283
53.18485 320
53.20497 286
53.22508 313
53.24519 307
53.26531 295
53.28542 288
53.30553 320
53.32565 328
53.34576 323
53.36587 292
53.38599 296
53.4061 298
53.42622 324
53.44633 306
53.46644 296
53.48656 308
53.50667 310
53.52678 305
53.5469 321
53.56701 313
53.58713 290
53.60724 341
53.62735 297
53.64747 307
53.66758 304
53.68769 325
53.70781 316
53.72792 360
53.74804 320
53.76815 336
53.78826 309
53.80838 308
53.82849 328
53.8486 335
53.86872 337
53.88883 313
53.90894 290
53.92906 332
53.94917 320
53.96929 316
53.9894 307
54.00951 341
54.02963 346
54.04974 352
54.06985 307
54.08997 313
54.11008 320
54.1302 329
54.15031 336
54.17042 347
54.19054 352
54.21065 311
54.23076 324
54.25088 311
54.27099 334
54.29111 346
54.31122 342
54.33133 350
54.35145 321
54.37156 350
54.39167 335
54.41179 352
54.4319 401
54.45201 362
54.47213 386
54.49224 355
54.51236 406
54.53247 403
54.55258 403
54.5727 431
54.59281 459
54.61292 489
54.63304 538
54.65315 561
54.67327 611
54.69338 673
54.71349 742
54.73361 794
54.75372 858
54.77383 955
54.79395 969
54.81406 960
54.83417 942
54.85429 879
54.8744 817
54.89452 755
54.91463 715
54.93474 701
54.95486 662
54.97497 624
54.99508 625
55.0152 494
55.03531 510
55.05543 434
55.07554 469
55.09565 436
55.11577 445
55.13588 437
55.15599 526
55.17611 476
55.19622 554
55.21634 577
55.23645 621
55.25656 572
55.27668 593
55.29679 554
55.3169 505
55.33702 453
55.35713 456
55.37724 435
55.39736 452
55.41747 455
55.43759 417
55.4577 403
55.47781 390
55.49793 326
55.51804 360
55.53815 341
55.55827 307
55.57838 341
55.5985 312
55.61861 309
55.63872 330
55.65884 295
55.67895 298
55.69906 305
55.71918 328
55.73929 305
55.75941 288
55.77952 304
55.79963 299
55.81975 272
55.83986 295
55.85997 288
55.88009 323
55.9002 309
55.92031 308
55.94043 302
55.96054 321
55.98066 299
56.00077 305
56.02088 300
56.041 288
56.06111 280
56.08122 277
56.10134 299
56.12145 280
56.14157 274
56.16168 278
56.18179 284
56.20191 293
56.22202 268
56.24213 293
56.26225 281
56.28236 303
56.30248 297
56.32259 314
56.3427 307
56.36282 280
56.38293 299
56.40304 306
56.42316 285
56.44327 275
56.46338 282
56.4835 282
56.50361 307
56.52373 337
56.54384 298
56.56395 283
56.58407 311
56.60418 314
56.62429 274
56.64441 273
56.66452 261
56.68464 298
56.70475 315
56.72486 314
56.74498 288
56.76509 285
56.7852 263
56.80532 301
56.82543 310
56.84554 296
56.86566 322
56.88577 258
56.90589 291
56.926 297
56.94611 307
56.96623 316
56.98634 328
57.00645 260
57.02657 311
57.04668 301
57.0668 272
57.08691 300
57.10702 333
57.12714 317
57.14725 339
57.16736 341
57.18748 330
57.20759 326
57.22771 332
57.24782 291
57.26793 314
57.28805 269
57.30816 296
57.32827 285
57.34839 260
57.3685 291
57.38861 290
57.40873 305
57.42884 271
57.44896 294
57.46907 294
57.48918 254
57.5093 292
57.52941 272
57.54952 307
57.56964 307
57.58975 274
57.60987 268
57.62998 283
57.65009 270
57.67021 255
57.69032 289
57.71043 238
57.73055 274
57.75066 272
57.77078 277
57.79089 266
57.811 297
57.83112 261
57.85123 290
57.87134 267
57.89146 290
57.91157 287
57.93168 269
57.9518 298
57.97191 294
57.99203 258
58.01214 274
58.03225 295
58.05237 251
58.07248 281
58.09259 284
58.11271 275
58.13282 291
58.15294 255
58.17305 269
58.19316 276
58.21328 260
58.23339 267
58.2535 280
58.27362 279
58.29373 280
58.31385 287
58.33396 248
58.35407 236
58.37419 263
58.3943 262
58.41441 274
58.43453 263
58.45464 307
58.47475 277
58.49487 273
58.51498 267
58.5351 291
58.55521 280
58.57532 273
58.59544 316
58.61555 269
58.63566 277
58.65578 260
58.67589 281
58.69601 294
58.71612 283
58.73623 295
58.75635 284
58.77646 267
58.79657 302
58.81669 286
58.8368 300
58.85691 274
58.87703 299
58.89714 263
58.91726 296
58.93737 262
58.95748 280
58.9776 278
58.99771 282
59.01782 253
59.03794 285
59.05805 288
59.07817 272
59.09828 297
59.11839 288
59.13851 304
59.15862 293
59.17873 260
59.19885 309
59.21896 315
59.23908 292
59.25919 328
59.2793 288
59.29942 310
59.31953 298
59.33964 313
59.35976 317
59.37987 337
59.39998 319
59.4201 290
59.44021 354
59.46033 316
59.48044 357
59.50055 379
59.52067 400
59.54078 409
59.56089 423
59.58101 419
59.60112 474
59.62124 508
59.64135 541
59.66146 590
59.68158 637
59.70169 692
59.7218 810
59.74192 873
59.76203 1012
59.78215 1191
59.80226 1293
59.82237 1481
59.84249 1655
59.8626 1720
59.88271 1701
59.90283 1691
59.92294 1578
59.94305 1336
59.96317 1261
59.98328 1127
60.0034 1042
60.02351 1114
60.04362 975
60.06374 974
60.08385 847
60.10396 761
60.12408 636
60.14419 540
60.16431 472
60.18442 377
60.20453 390
60.22465 371
60.24476 377
60.26487 311
60.28499 341
60.3051 321
60.32522 333
60.34533 301
60.36544 329
60.38556 302
60.40567 334
60.42578 302
60.4459 343
60.46601 286
60.48612 307
60.50624 318
60.52635 291
60.54647 275
60.56658 314
60.58669 284
60.60681 299
60.62692 285
60.64703 309
60.66715 318
60.68726 330
60.70738 342
60.72749 310
60.7476 335
60.76772 312
60.78783 319
60.80794 300
60.82806 330
60.84817 287
60.86828 295
60.8884 312
60.90851 308
60.92863 357
60.94874 313
60.96885 312
60.98897 312
61.00908 342
61.02919 344
61.04931 335
61.06942 339
61.08954 339
61.10965 335
61.12976 355
61.14988 375
61.16999 341
61.1901 348
61.21022 354
61.23033 387
61.25045 364
61.27056 379
61.29067 361
61.31079 409
61.3309 381
61.35101 368
61.37113 362
61.39124 387
61.41135 381
61.43147 379
61.45158 389
61.4717 385
61.49181 395
61.51192 408
61.53204 390
61.55215 384
61.57226 398
61.59238 395
61.61249 381
61.63261 374
61.65272 377
61.67283 352
61.69295 391
61.71306 403
61.73317 377
61.75329 402
61.7734 354
61.79352 386
61.81363 361
61.83374 362
61.85386 369
61.87397 355
61.89408 359
61.9142 349
61.93431 356
61.95442 335
61.97454 331
61.99465 385
62.01477 376
62.03488 349
62.05499 333
62.07511 342
62.09522 384
62.11533 320
62.13545 358
62.15556 331
62.17568 290
62.19579 325
62.2159 342
62.23602 312
62.25613 331
62.27624 312
62.29636 290
62.31647 332
62.33659 319
62.3567 328
62.37681 327
62.39693 296
62.41704 279
62.43715 289
62.45727 309
62.47738 312
62.49749 298
62.51761 282
62.53772 306
62.55784 284
62.57795 286
62.59806 288
62.61818 285
62.63829 279
62.6584 262
62.67852 305
62.69863 290
62.71875 287
62.73886 272
62.75897 257
62.77909 287
62.7992 264
62.81931 274
62.83943 274
62.85954 272
62.87965 297
62.89977 247
62.91988 254
62.94 280
62.96011 255
62.98022 266
63.00034 300
63.02045 228
63.04056 269
63.06068 322
63.08079 289
63.10091 279
63.12102 256
63.14113 283
63.16125 287
63.18136 267
63.20147 272
63.22159 288
63.2417 251
63.26182 277
63.28193 265
63.30204 252
63.32216 291
63.34227 282
63.36238 298
63.3825 260
63.40261 263
63.42272 282
63.44284 287
63.46295 262
63.48307 287
63.50318 276
63.52329 262
63.54341 263
63.56352 276
63.58363 278
63.60375 294
63.62386 303
63.64398 313
63.66409 307
63.6842 300
63.70432 312
63.72443 317
63.74454 342
63.76466 318
63.78477 376
63.80489 384
63.825 406
63.84511 442
63.86523 439
63.88534 476
63.90545 492
63.92557 541
63.94568 567
63.96579 554
63.98591 480
64.00602 499
64.02614 451
64.04625 394
64.06636 417
64.08648 400
64.10659 411
64.1267 374
64.14682 418
64.16693 347
64.18705 351
64.20716 323
64.22727 319
64.24739 323
64.2675 283
64.28761 320
64.30773 286
64.32784 293
64.34796 290
64.36807 270
64.38818 260
64.4083 264
64.42841 266
64.44852 248
64.46864 238
64.48875 265
64.50886 234
64.52898 289
64.54909 255
64.56921 292
64.58932 261
64.60943 267
64.62955 256
64.64966 266
64.66977 238
64.68989 262
64.71 264
64.73012 262
64.75023 271
64.77034 260
64.79046 258
64.81057 248
64.83068 278
64.8508 249
64.87091 276
64.89102 266
64.91114 292
64.93125 274
64.95137 254
64.97148 275
64.99159 268
65.01171 267
65.03182 250
65.05193 277
65.07205 282
65.09216 273
65.11228 278
65.13239 294
65.1525 255
65.17262 264
65.19273 240
65.21284 275
65.23296 270
65.25307 274
65.27319 297
65.2933 278
65.31341 281
65.33353 268
65.35364 283
65.37375 269
65.39387 278
65.41398 263
65.43409 300
65.45421 264
65.47432 277
65.49444 285
65.51455 289
65.53466 283
65.55478 307
65.57489 296
65.595 294
65.61512 297
65.63523 302
65.65535 306
65.67546 324
65.69557 323
65.71569 318
65.7358 321
65.75591 337
65.77603 310
65.79614 302
65.81626 303
65.83637 267
65.85648 295
65.8766 329
65.89671 274
65.91682 288
65.93694 265
65.95705 317
65.97716 299
65.99728 250
66.01739 278
66.03751 285
66.05762 283
66.07773 268
66.09785 246
66.11796 259
66.13807 294
66.15819 244
66.1783 274
66.19842 277
66.21853 278
66.23864 264
66.25876 286
66.27887 272
66.29898 234
66.3191 280
66.33921 280
66.35933 272
66.37944 249
66.39955 266
66.41967 241
66.43978 273
66.45989 253
66.48001 267
66.50012 269
66.52023 286
66.54035 253
66.56046 281
66.58058 265
66.60069 270
66.6208 246
66.64092 278
66.66103 285
66.68114 295
66.70126 304
66.72137 277
66.74149 253
66.7616 246
66.78171 294
66.80183 282
66.82194 284
66.84205 285
66.86217 287
66.88228 265
66.90239 267
66.92251 270
66.94262 288
66.96274 287
66.98285 277
67.00296 281
67.02308 302
67.04319 295
67.0633 271
67.08342 271
67.10353 277
67.12365 282
67.14376 294
67.16387 315
67.18399 287
67.2041 307
67.22421 329
67.24433 324
67.26444 318
67.28456 333
67.30467 372
67.32478 400
67.3449 347
67.36501 403
67.38512 416
67.40524 416
67.42535 498
67.44546 470
67.46558 538
67.48569 552
67.50581 622
67.52592 678
67.54603 675
67.56615 841
67.58626 884
67.60637 948
67.62649 1081
67.6466 1144
67.66672 1186
67.68683 1134
67.70694 1078
67.72706 1001
67.74717 971
67.76728 863
67.7874 849
67.80751 910
67.82763 934
67.84774 942
67.86785 994
67.88797 1032
67.90808 1012
67.92819 968
67.94831 1024
67.96842 1061
67.98853 1219
68.00865 1309
68.02876 1396
68.04888 1500
68.06899 1556
68.0891 1624
68.10922 1611
68.12933 1437
68.14944 1374
68.16956 1331
68.18967 1293
68.20979 1344
68.2299 1386
68.25001 1417
68.27013 1371
68.29024 1250
68.31035 1058
68.33047 920
68.35058 764
68.3707 734
68.39081 703
68.41092 709
68.43104 620
68.45115 601
68.47126 552
68.49138 502
68.51149 433
68.5316 382
68.55172 367
68.57183 379
68.59195 343
68.61206 332
68.63217 347
68.65229 314
68.6724 339
68.69251 304
68.71263 314
68.73274 298
68.75286 288
68.77297 295
68.79308 280
68.8132 285
68.83331 310
68.85342 306
68.87354 306
68.89365 264
68.91376 287
68.93388 269
68.95399 264
68.97411 293
68.99422 255
69.01433 274
69.03445 254
69.05456 254
69.07467 288
69.09479 277
69.1149 256
69.13502 286
69.15513 269
69.17524 295
69.19536 265
69.21547 263
69.23558 261
69.2557 277
69.27581 270
69.29593 266
69.31604 274
69.33615 265
69.35627 244
69.37638 276
69.39649 278
69.41661 280
69.43672 293
69.45683 269
69.47695 283
69.49706 267
69.51718 260
69.53729 241
69.5574 261
69.57752 259
69.59763 256
69.61774 274
69.63786 282
69.65797 309
69.67809 259
69.6982 245
69.71831 293
69.73843 272
69.75854 270
69.77865 251
69.79877 283
69.81888 269
69.839 258
69.85911 300
69.87922 278
69.89934 286
69.91945 255
69.93956 253
69.95968 263
69.97979 274
69.9999 271
70.02002 289
70.04013 237
70.06025 247
70.08036 278
70.10047 299
70.12059 292
70.1407 263
70.16081 278
70.18093 263
70.20104 271
70.22116 272
70.24127 272
70.26138 248
70.2815 299
70.30161 240
70.32172 263
70.34184 257
70.36195 263
70.38207 272
70.40218 244
70.42229 251
70.44241 239
70.46252 257
70.48263 246
70.50275 263
70.52286 256
70.54297 252
70.56309 264
70.5832 287
70.60332 269
70.62343 258
70.64354 269
70.66366 245
70.68377 286
70.70388 292
70.724 264
70.74411 248
70.76423 266
70.78434 272
70.80445 248
70.82457 266
70.84468 288
70.86479 260
70.88491 261
70.90502 252
70.92513 250
70.94525 270
70.96536 293
70.98548 225
71.00559 254
71.0257 232
71.04582 245
71.06593 269
71.08604 258
71.10616 235
71.12627 255
71.14639 255
71.1665 263
71.18661 270
71.20673 252
71.22684 253
71.24695 262
71.26707 237
71.28718 268
71.3073 271
71.32741 285
71.34752 281
71.36764 269
71.38775 250
71.40786 295
71.42798 254
71.44809 273
71.4682 248
71.48832 287
71.50843 271
71.52855 254
71.54866 267
71.56877 250
71.58889 259
71.609 266
71.62911 255
71.64923 263
71.66934 268
71.68946 258
71.70957 292
71.72968 282
71.7498 276
71.76991 298
71.79002 276
71.81014 279
71.83025 271
71.85037 271
71.87048 257
71.89059 237
71.91071 271
71.93082 265
71.95093 269
71.97105 282
71.99116 264
72.01127 312
72.03139 251
72.0515 254
72.07162 273
72.09173 302
72.11184 299
72.13196 276
72.15207 257
72.17218 277
72.1923 283
72.21241 277
72.23253 268
72.25264 280
72.27275 290
72.29287 274
72.31298 314
72.33309 273
72.35321 288
72.37332 311
72.39344 310
72.41355 297
72.43366 307
72.45378 284
72.47389 283
72.494 276
72.51412 297
72.53423 297
72.55434 293
72.57446 274
72.59457 287
72.61469 299
72.6348 310
72.65491 313
72.67503 265
72.69514 292
72.71525 266
72.73537 323
72.75548 292
72.7756 287
72.79571 272
72.81582 297
72.83594 314
72.85605 310
72.87616 310
72.89628 303
72.91639 293
72.9365 322
72.95662 317
72.97673 291
72.99685 333
73.01696 324
73.03707 294
73.05719 301
73.0773 345
73.09741 299
73.11753 354
73.13764 359
73.15776 357
73.17787 368
73.19798 363
73.2181 390
73.23821 407
73.25832 415
73.27844 437
73.29855 507
73.31867 536
73.33878 564
73.35889 596
73.37901 581
73.39912 580
73.41923 592
73.43935 557
73.45946 505
73.47957 471
73.49969 429
73.5198 390
73.53992 401
73.56003 424
73.58014 410
73.60026 440
73.62037 433
73.64048 443
73.6606 382
73.68071 375
73.70083 324
73.72094 284
73.74105 331
73.76117 297
73.78128 287
73.80139 313
73.82151 324
73.84162 287
73.86174 309
73.88185 275
73.90196 300
73.92208 278
73.94219 321
73.9623 283
73.98242 252
74.00253 272
74.02264 285
74.04276 273
74.06287 269
74.08299 289
74.1031 274
74.12321 253
74.14333 263
74.16344 284
74.18355 263
74.20367 268
74.22378 235
74.2439 272
74.26401 267
74.28412 294
74.30424 276
74.32435 271
74.34446 254
74.36458 283
74.38469 267
74.40481 271
74.42492 275
74.44503 259
74.46515 244
74.48526 285
74.50537 260
74.52549 265
74.5456 264
74.56571 270
74.58583 258
74.60594 236
74.62606 285
74.64617 269
74.66628 246
74.6864 238
74.70651 268
74.72662 245
74.74674 256
74.76685 253
74.78697 287
74.80708 296
74.82719 266
74.84731 257
74.86742 280
74.88753 278
74.90765 296
74.92776 254
74.94787 265
74.96799 305
74.9881 277
75.00822 276
