3.00117 21464
3.02128 20909
3.0414 20660
3.06151 19883
3.08162 19279
3.10174 18942
3.12185 17965
3.14197 17911
3.16208 17071
3.18219 16809
3.20231 16441
3.22242 15664
3.24253 15591
3.26265 14844
3.28276 14381
3.30288 13824
3.32299 13457
3.3431 13201
3.36322 12464
3.38333 12309
3.40344 11617
3.42356 11345
3.44367 11095
3.46379 10614
3.4839 10146
3.50401 9979
3.52413 9473
3.54424 9153
3.56435 8796
3.58447 8485
3.60458 8123
3.62469 8103
3.64481 7900
3.66492 7431
3.68504 7127
3.70515 6845
3.72526 6417
3.74538 6202
3.76549 5998
3.7856 5827
3.80572 5547
3.82583 5127
3.84595 5100
3.86606 4729
3.88617 4670
3.90629 4419
3.9264 4205
3.94651 4025
3.96663 3756
3.98674 3787
4.00686 3478
4.02697 3327
4.04708 3196
4.0672 3024
4.08731 2951
4.10742 2857
4.12754 2696
4.14765 2670
4.16776 2442
4.18788 2362
4.20799 2186
4.22811 2111
4.24822 2129
4.26833 2021
4.28845 1951
4.30856 1761
4.32867 1769
4.34879 1833
4.3689 1733
4.38902 1686
4.40913 1461
4.42924 1436
4.44936 1561
4.46947 1556
4.48958 1382
4.5097 1414
4.52981 1310
4.54992 1452
4.57004 1315
4.59015 1213
4.61027 1219
4.63038 1086
4.65049 1200
4.67061 1236
4.69072 1068
4.71083 1129
4.73095 1041
4.75106 994
4.77118 1051
4.79129 972
4.8114 973
4.83152 891
4.85163 890
4.87174 930
4.89186 838
4.91197 790
4.93209 778
4.9522 824
4.97231 782
4.99243 751
5.01254 773
5.03265 712
5.05277 639
5.07288 663
5.09299 648
5.11311 673
5.13322 627
5.15334 594
5.17345 608
5.19356 587
5.21368 602
5.23379 580
5.2539 543
5.27402 601
5.29413 508
5.31425 487
5.33436 577
5.35447 498
5.37459 462
5.3947 437
5.41481 497
5.43493 441
5.45504 458
5.47516 444
5.49527 416
5.51538 375
5.5355 410
5.55561 445
5.57572 419
5.59584 343
5.61595 367
5.63606 410
5.65618 389
5.67629 318
5.69641 362
5.71652 329
5.73663 369
5.75675 352
5.77686 291
5.79697 312
5.81709 330
5.8372 299
5.85732 315
5.87743 295
5.89754 280
5.91766 288
5.93777 279
5.95788 281
5.978 272
5.99811 251
6.01823 279
6.03834 236
6.05845 260
6.07857 266
6.09868 279
6.11879 258
6.13891 272
6.15902 235
6.17913 268
6.19925 219
6.21936 275
6.23948 255
6.25959 221
6.2797 253
6.29982 243
6.31993 230
6.34004 270
6.36016 244
6.38027 247
6.40039 219
6.4205 208
6.44061 241
6.46073 238
6.48084 233
6.50095 228
6.52107 208
6.54118 226
6.56129 236
6.58141 233
6.60152 243
6.62164 224
6.64175 249
6.66186 226
6.68198 227
6.70209 218
6.7222 236
6.74232 242
6.76243 218
6.78255 223
6.80266 244
6.82277 250
6.84289 214
6.863 224
6.88311 221
6.90323 214
6.92334 245
6.94346 222
6.96357 222
6.98368 219
7.0038 214
7.02391 216
7.04402 197
7.06414 174
7.08425 240
7.10436 205
7.12448 229
7.14459 210
7.16471 217
7.18482 218
7.20493 209
7.22505 231
7.24516 221
7.26527 210
7.28539 217
7.3055 215
7.32562 224
7.34573 200
7.36584 214
7.38596 202
7.40607 195
7.42618 210
7.4463 171
7.46641 216
7.48653 204
7.50664 214
7.52675 186
7.54687 206
7.56698 226
7.58709 200
7.60721 199
7.62732 226
7.64743 252
7.66755 202
7.68766 205
7.70778 214
7.72789 227
7.748 202
7.76812 217
7.78823 228
7.80834 178
7.82846 216
7.84857 199
7.86869 231
7.8888 223
7.90891 225
7.92903 237
7.94914 245
7.96925 246
7.98937 215
8.00948 210
8.0296 222
8.04971 241
8.06982 201
8.08994 202
8.11005 185
8.13016 191
8.15028 216
8.17039 238
8.1905 218
8.21062 241
8.23073 227
8.25085 224
8.27096 216
8.29107 251
8.31119 220
8.3313 239
8.35141 244
8.37153 232
8.39164 242
8.41176 243
8.43187 258
8.45198 242
8.4721 237
8.49221 232
8.51232 225
8.53244 221
8.55255 225
8.57266 242
8.59278 217
8.61289 252
8.63301 290
8.65312 255
8.67323 224
8.69335 246
8.71346 240
8.73357 268
8.75369 272
8.7738 287
8.79392 258
8.81403 265
8.83414 278
8.85426 245
8.87437 267
8.89448 256
8.9146 273
8.93471 226
8.95483 279
8.97494 255
8.99505 248
9.01517 206
9.03528 221
9.05539 199
9.07551 209
9.09562 234
9.11573 231
9.13585 209
9.15596 233
9.17608 249
9.19619 230
9.2163 242
9.23642 213
9.25653 241
9.27664 189
9.29676 232
9.31687 238
9.33699 227
9.3571 228
9.37721 224
9.39733 262
9.41744 228
9.43755 218
9.45767 232
9.47778 198
9.4979 239
9.51801 217
9.53812 239
9.55824 214
9.57835 231
9.59846 228
9.61858 227
9.63869 230
9.6588 220
9.67892 233
9.69903 210
9.71915 212
9.73926 216
9.75937 221
9.77949 205
9.7996 220
9.81971 232
9.83983 269
9.85994 240
9.88006 207
9.90017 240
9.92028 210
9.9404 238
9.96051 241
9.98062 222
10.00074 220
10.02085 219
10.04097 198
10.06108 228
10.08119 235
10.10131 218
10.12142 226
10.14153 237
10.16165 235
10.18176 202
10.20187 239
10.22199 251
10.2421 219
10.26222 237
10.28233 256
10.30244 232
10.32256 240
10.34267 222
10.36278 252
10.3829 222
10.40301 228
10.42313 225
10.44324 221
10.46335 229
10.48347 229
10.50358 203
10.52369 202
10.54381 199
10.56392 214
10.58403 211
10.60415 241
10.62426 234
10.64438 240
10.66449 226
10.6846 217
10.70472 217
10.72483 227
10.74494 221
10.76506 228
10.78517 211
10.80529 224
10.8254 240
10.84551 248
10.86563 218
10.88574 226
10.90585 228
10.92597 221
10.94608 217
10.9662 223
10.98631 214
11.00642 264
11.02654 222
11.04665 252
11.06676 247
11.08688 250
11.10699 216
11.1271 215
11.14722 216
11.16733 267
11.18745 186
11.20756 226
11.22767 235
11.24779 269
11.2679 204
11.28801 221
11.30813 230
11.32824 243
11.34836 219
11.36847 221
11.38858 240
11.4087 270
11.42881 248
11.44892 205
11.46904 234
11.48915 227
11.50927 248
11.52938 264
11.54949 213
11.56961 242
11.58972 252
11.60983 212
11.62995 220
11.65006 247
11.67017 219
11.69029 260
11.7104 238
11.73052 244
11.75063 293
11.77074 237
11.79086 258
11.81097 229
11.83108 264
11.8512 240
11.87131 282
11.89143 261
11.91154 303
11.93165 268
11.95177 283
11.97188 266
11.99199 290
12.01211 290
12.03222 286
12.05234 269
12.07245 285
12.09256 319
12.11268 317
12.13279 311
12.1529 347
12.17302 339
12.19313 350
12.21324 358
12.23336 331
12.25347 300
12.27359 332
12.2937 332
12.31381 339
12.33393 333
12.35404 364
12.37415 327
12.39427 301
12.41438 276
12.4345 292
12.45461 283
12.47472 276
12.49484 293
12.51495 306
12.53506 265
12.55518 277
12.57529 265
12.5954 259
12.61552 256
12.63563 240
12.65575 267
12.67586 263
12.69597 246
12.71609 243
12.7362 270
12.75631 272
12.77643 246
12.79654 262
12.81666 235
12.83677 207
12.85688 267
12.877 235
12.89711 228
12.91722 248
12.93734 214
12.95745 212
12.97757 221
12.99768 218
13.01779 236
13.03791 241
13.05802 242
13.07813 262
13.09825 261
13.11836 254
13.13847 280
13.15859 274
13.1787 307
13.19882 260
13.21893 289
13.23904 292
13.25916 262
13.27927 253
13.29938 265
13.3195 256
13.33961 256
13.35973 260
13.37984 254
13.39995 239
13.42007 267
13.44018 217
13.46029 239
13.48041 254
13.50052 237
13.52064 283
13.54075 294
13.56086 291
13.58098 356
13.60109 361
13.6212 414
13.64132 422
13.66143 407
13.68154 354
13.70166 328
13.72177 278
13.74189 241
13.762 251
13.78211 227
13.80223 226
13.82234 219
13.84245 232
13.86257 247
13.88268 215
13.9028 219
13.92291 228
13.94302 235
13.96314 199
13.98325 193
14.00336 209
14.02348 204
14.04359 181
14.06371 230
14.08382 188
14.10393 206
14.12405 218
14.14416 222
14.16427 220
14.18439 202
14.2045 199
14.22461 206
14.24473 235
14.26484 218
14.28496 215
14.30507 190
14.32518 197
14.3453 227
14.36541 230
14.38552 181
14.40564 213
14.42575 199
14.44587 222
14.46598 208
14.48609 209
14.50621 198
14.52632 222
14.54643 182
14.56655 184
14.58666 179
14.60677 204
14.62689 198
14.647 179
14.66712 241
14.68723 226
14.70734 184
14.72746 208
14.74757 252
14.76768 201
14.7878 236
14.80791 206
14.82803 217
14.84814 230
14.86825 257
14.88837 256
14.90848 269
14.92859 281
14.94871 317
14.96882 324
14.98894 293
15.00905 286
15.02916 271
15.04928 289
15.06939 258
15.0895 270
15.10962 257
15.12973 251
15.14984 254
15.16996 254
15.19007 232
15.21019 267
15.2303 211
15.25041 240
15.27053 222
15.29064 226
15.31075 203
15.33087 212
15.35098 201
15.3711 186
15.39121 199
15.41132 190
15.43144 219
15.45155 229
15.47166 197
15.49178 191
15.51189 178
15.53201 235
15.55212 191
15.57223 217
15.59235 185
15.61246 187
15.63257 202
15.65269 202
15.6728 190
15.69291 195
15.71303 179
15.73314 192
15.75326 226
15.77337 224
15.79348 204
15.8136 190
15.83371 173
15.85382 185
15.87394 189
15.89405 223
15.91417 197
15.93428 189
15.95439 196
15.97451 200
15.99462 200
16.01473 183
16.03485 205
16.05496 200
16.07508 190
16.09519 181
16.1153 184
16.13542 196
16.15553 196
16.17564 177
16.19576 196
16.21587 190
16.23598 162
16.2561 187
16.27621 213
16.29633 182
16.31644 191
16.33655 180
16.35667 192
16.37678 192
16.39689 192
16.41701 183
16.43712 171
16.45724 197
16.47735 191
16.49746 179
16.51758 190
16.53769 189
16.5578 203
16.57792 206
16.59803 205
16.61814 176
16.63826 210
16.65837 198
16.67849 181
16.6986 189
16.71871 172
16.73883 177
16.75894 198
16.77905 177
16.79917 165
16.81928 202
16.8394 185
16.85951 179
16.87962 168
16.89974 188
16.91985 183
16.93996 187
16.96008 191
16.98019 230
17.00031 196
17.02042 198
17.04053 176
17.06065 221
17.08076 192
17.10087 170
17.12099 193
17.1411 183
17.16121 192
17.18133 165
17.20144 187
17.22156 166
17.24167 176
17.26178 182
17.2819 171
17.30201 195
17.32212 188
17.34224 186
17.36235 220
17.38247 184
17.40258 194
17.42269 197
17.44281 193
17.46292 170
17.48303 189
17.50315 193
17.52326 194
17.54338 207
17.56349 181
17.5836 201
17.60372 196
17.62383 194
17.64394 194
17.66406 184
17.68417 208
17.70428 196
17.7244 205
17.74451 184
17.76463 175
17.78474 211
17.80485 205
17.82497 191
17.84508 204
17.86519 170
17.88531 200
17.90542 180
17.92554 197
17.94565 207
17.96576 171
17.98588 206
18.00599 200
18.0261 200
18.04622 168
18.06633 195
18.08645 199
18.10656 172
18.12667 204
18.14679 146
18.1669 208
18.18701 179
18.20713 175
18.22724 174
18.24735 183
18.26747 223
18.28758 178
18.3077 196
18.32781 160
18.34792 237
18.36804 195
18.38815 180
18.40826 189
18.42838 182
18.44849 196
18.46861 208
18.48872 179
18.50883 153
18.52895 214
18.54906 174
18.56917 214
18.58929 179
18.6094 177
18.62951 179
18.64963 192
18.66974 179
18.68986 203
18.70997 195
18.73008 196
18.7502 158
18.77031 180
18.79042 184
18.81054 193
18.83065 187
18.85077 167
18.87088 168
18.89099 189
18.91111 192
18.93122 218
18.95133 201
18.97145 214
18.99156 217
19.01168 227
19.03179 191
19.0519 206
19.07202 193
19.09213 196
19.11224 202
19.13236 208
19.15247 210
19.17258 208
19.1927 211
19.21281 228
19.23293 235
19.25304 246
19.27315 259
19.29327 248
19.31338 271
19.33349 273
19.35361 244
19.37372 232
19.39384 214
19.41395 232
19.43406 228
19.45418 215
19.47429 212
19.4944 211
19.51452 211
19.53463 214
19.55475 225
19.57486 219
19.59497 223
19.61509 240
19.6352 224
19.65531 228
19.67543 235
19.69554 265
19.71565 264
19.73577 281
19.75588 296
19.776 287
19.79611 301
19.81622 329
19.83634 332
19.85645 339
19.87656 369
19.89668 347
19.91679 337
19.93691 391
19.95702 387
19.97713 350
19.99725 357
20.01736 352
20.03747 375
20.05759 328
20.0777 347
20.09782 303
20.11793 356
20.13804 324
20.15816 359
20.17827 324
20.19838 326
20.2185 343
20.23861 322
20.25872 316
20.27884 320
20.29895 333
20.31907 355
20.33918 356
20.35929 389
20.37941 357
20.39952 358
20.41963 339
20.43975 351
20.45986 384
20.47998 394
20.50009 388
20.5202 376
20.54032 414
20.56043 398
20.58054 427
20.60066 412
20.62077 457
20.64088 502
20.661 500
20.68111 619
20.70123 775
20.72134 961
20.74145 1345
20.76157 1774
20.78168 2274
20.80179 2938
20.82191 3684
20.84202 3993
20.86214 3977
20.88225 3543
20.90236 3031
20.92248 2303
20.94259 1899
20.9627 1728
20.98282 1638
21.00293 1615
21.02305 1565
21.04316 1408
21.06327 1122
21.08339 956
21.1035 727
21.12361 628
21.14373 480
21.16384 501
21.18395 411
21.20407 392
21.22418 364
21.2443 408
21.26441 371
21.28452 358
21.30464 337
21.32475 326
21.34486 341
21.36498 349
21.38509 318
21.40521 343
21.42532 324
21.44543 325
21.46555 349
21.48566 328
21.50577 337
21.52589 302
21.546 324
21.56612 314
21.58623 302
21.60634 270
21.62646 308
21.64657 307
21.66668 266
21.6868 310
21.70691 290
21.72702 276
21.74714 262
21.76725 240
21.78737 266
21.80748 310
21.82759 298
21.84771 263
21.86782 320
21.88793 287
21.90805 355
21.92816 375
21.94828 346
21.96839 340
21.9885 351
22.00862 389
22.02873 409
22.04884 378
22.06896 393
22.08907 305
22.10919 317
22.1293 264
22.14941 330
22.16953 343
22.18964 318
22.20975 347
22.22987 391
22.24998 388
22.27009 487
22.29021 454
22.31032 472
22.33044 431
22.35055 457
22.37066 512
22.39078 441
22.41089 441
22.431 425
22.45112 376
22.47123 388
22.49135 405
22.51146 389
22.53157 371
22.55169 404
22.5718 379
22.59191 407
22.61203 348
22.63214 314
22.65225 340
22.67237 330
22.69248 274
22.7126 308
22.73271 271
22.75282 292
22.77294 274
22.79305 322
22.81316 286
22.83328 276
22.85339 302
22.87351 299
22.89362 311
22.91373 327
22.93385 346
22.95396 357
22.97407 338
22.99419 380
23.0143 413
23.03442 426
23.05453 471
23.07464 477
23.09476 471
23.11487 475
23.13498 567
23.1551 499
23.17521 608
23.19532 625
23.21544 628
23.23555 629
23.25567 637
23.27578 575
23.29589 559
23.31601 537
23.33612 506
23.35623 491
23.37635 524
23.39646 479
23.41658 493
23.43669 464
23.4568 452
23.47692 436
23.49703 483
23.51714 463
23.53726 520
23.55737 494
23.57749 583
23.5976 473
23.61771 521
23.63783 491
23.65794 497
23.67805 526
23.69817 513
23.71828 519
23.73839 486
23.75851 485
23.77862 512
23.79874 524
23.81885 590
23.83896 580
23.85908 577
23.87919 637
23.8993 582
23.91942 640
23.93953 690
23.95965 600
23.97976 606
23.99987 574
24.01999 529
24.0401 473
24.06021 495
24.08033 440
24.10044 405
24.12056 372
24.14067 405
24.16078 359
24.1809 371
24.20101 399
24.22112 363
24.24124 428
24.26135 422
24.28146 432
24.30158 497
24.32169 469
24.34181 445
24.36192 432
24.38203 452
24.40215 438
24.42226 445
24.44237 462
24.46249 372
24.4826 391
24.50272 395
24.52283 376
24.54294 367
24.56306 435
24.58317 408
24.60328 441
24.6234 416
24.64351 451
24.66362 454
24.68374 479
24.70385 483
24.72397 501
24.74408 502
24.76419 502
24.78431 504
24.80442 466
24.82453 463
24.84465 468
24.86476 433
24.88488 436
24.90499 448
24.9251 433
24.94522 402
24.96533 391
24.98544 381
25.00556 378
25.02567 385
25.04579 331
25.0659 361
25.08601 388
25.10613 369
25.12624 395
25.14635 350
25.16647 374
25.18658 372
25.20669 368
25.22681 346
25.24692 358
25.26704 385
25.28715 390
25.30726 354
25.32738 379
25.34749 435
25.3676 431
25.38772 438
25.40783 476
25.42795 554
25.44806 611
25.46817 773
25.48829 887
25.5084 994
25.52851 1080
25.54863 1109
25.56874 1289
25.58886 1230
25.60897 1173
25.62908 1063
25.6492 979
25.66931 880
25.68942 747
25.70954 673
25.72965 541
25.74976 489
25.76988 457
25.78999 424
25.81011 438
25.83022 433
25.85033 443
25.87045 405
25.89056 396
25.91067 419
25.93079 388
25.9509 407
25.97102 396
25.99113 426
26.01124 433
26.03136 425
26.05147 467
26.07158 480
26.0917 438
26.11181 478
26.13193 532
26.15204 599
26.17215 560
26.19227 635
26.21238 600
26.23249 754
26.25261 757
26.27272 782
26.29283 897
26.31295 930
26.33306 1104
26.35318 1254
26.37329 1432
26.3934 1600
26.41352 1914
26.43363 2219
26.45374 2772
26.47386 3436
26.49397 4339
26.51409 5716
26.5342 7816
26.55431 10416
26.57443 13119
26.59454 15014
26.61465 16870
26.63477 17014
26.65488 14676
26.67499 11602
26.69511 8704
26.71522 6499
26.73534 4287
26.75545 2576
26.77556 1779
26.79568 1440
26.81579 1253
26.8359 1165
26.85602 1142
26.87613 1102
26.89625 1127
26.91636 1136
26.93647 1184
26.95659 1271
26.9767 1345
26.99681 1502
27.01693 1720
27.03704 1705
27.05716 1790
27.07727 1767
27.09738 1570
27.1175 1393
27.13761 1179
27.15772 1080
27.17784 920
27.19795 987
27.21806 969
27.23818 1050
27.25829 1043
27.27841 1102
27.29852 1263
27.31863 1323
27.33875 1525
27.35886 1742
27.37897 2038
27.39909 2370
27.4192 2636
27.43932 2926
27.45943 2871
27.47954 2750
27.49966 2351
27.51977 2070
27.53988 1635
27.56 1252
27.58011 997
27.60023 783
27.62034 630
27.64045 554
27.66057 549
27.68068 505
27.70079 470
27.72091 463
27.74102 466
27.76113 457
27.78125 452
27.80136 498
27.82148 462
27.84159 470
27.8617 424
27.88182 482
27.90193 464
27.92204 442
27.94216 446
27.96227 435
27.98239 381
28.0025 392
28.02261 360
28.04273 369
28.06284 361
28.08295 368
28.10307 294
28.12318 337
28.1433 304
28.16341 317
28.18352 318
28.20364 281
28.22375 308
28.24386 290
28.26398 299
28.28409 282
28.3042 293
28.32432 316
28.34443 263
28.36455 276
28.38466 282
28.40477 287
28.42489 285
28.445 269
28.46511 281
28.48523 243
28.50534 251
28.52546 265
28.54557 233
28.56568 286
28.5858 246
28.60591 287
28.62602 262
28.64614 256
28.66625 283
28.68636 291
28.70648 256
28.72659 253
28.74671 267
28.76682 260
28.78693 274
28.80705 283
28.82716 283
28.84727 284
28.86739 266
28.8875 258
28.90762 249
28.92773 275
28.94784 283
28.96796 259
28.98807 242
29.00818 272
29.0283 266
29.04841 266
29.06853 248
29.08864 232
29.10875 264
29.12887 252
29.14898 296
29.16909 297
29.18921 262
29.20932 286
29.22943 300
29.24955 296
29.26966 293
29.28978 346
29.30989 316
29.33 365
29.35012 373
29.37023 433
29.39034 456
29.41046 490
29.43057 485
29.45069 534
29.4708 504
29.49091 464
29.51103 495
29.53114 476
29.55125 529
29.57137 474
29.59148 487
29.6116 432
29.63171 446
29.65182 428
29.67194 413
29.69205 432
29.71216 422
29.73228 445
29.75239 414
29.7725 409
29.79262 391
29.81273 445
29.83285 377
29.85296 465
29.87307 452
29.89319 466
29.9133 483
29.93341 462
29.95353 479
29.97364 482
29.99376 516
30.01387 477
30.03398 534
30.0541 516
30.07421 546
30.09432 584
30.11444 600
30.13455 637
30.15467 578
30.17478 595
30.19489 564
30.21501 519
30.23512 530
30.25523 485
30.27535 439
30.29546 384
30.31557 416
30.33569 391
30.3558 357
30.37592 336
30.39603 365
30.41614 409
30.43626 353
30.45637 354
30.47648 328
30.4966 383
30.51671 328
30.53683 345
30.55694 344
30.57705 376
30.59717 394
30.61728 434
30.63739 467
30.65751 540
30.67762 570
30.69773 637
30.71785 671
30.73796 732
30.75808 747
30.77819 748
30.7983 743
30.81842 692
30.83853 698
30.85864 604
30.87876 574
30.89887 505
30.91899 399
30.9391 383
30.95921 350
30.97933 336
30.99944 304
31.01955 251
31.03967 275
31.05978 259
31.0799 252
31.10001 247
31.12012 265
31.14024 207
31.16035 252
31.18046 242
31.20058 263
31.22069 204
31.2408 241
31.26092 236
31.28103 250
31.30115 267
31.32126 200
31.34137 262
31.36149 248
31.3816 253
31.40171 220
31.42183 237
31.44194 233
31.46206 258
31.48217 215
31.50228 197
31.5224 212
31.54251 173
31.56262 237
31.58274 211
31.60285 225
31.62297 226
31.64308 211
31.66319 200
31.68331 198
31.70342 240
31.72353 197
31.74365 222
31.76376 231
31.78387 231
31.80399 225
31.8241 236
31.84422 207
31.86433 220
31.88444 231
31.90456 238
31.92467 191
31.94478 214
31.9649 219
31.98501 228
32.00513 255
32.02524 261
32.04535 310
32.06547 277
32.08558 313
32.10569 315
32.12581 338
32.14592 333
32.16604 399
32.18615 416
32.20626 371
32.22638 377
32.24649 404
32.2666 410
32.28672 401
32.30683 439
32.32694 403
32.34706 371
32.36717 411
32.38729 400
32.4074 395
32.42751 426
32.44763 369
32.46774 387
32.48785 349
32.50797 335
32.52808 327
32.5482 264
32.56831 299
32.58842 297
32.60854 219
32.62865 260
32.64876 246
32.66888 243
32.68899 272
32.7091 261
32.72922 221
32.74933 211
32.76945 215
32.78956 214
32.80967 232
32.82979 240
32.8499 254
32.87001 230
32.89013 218
32.91024 239
32.93036 242
32.95047 223
32.97058 226
32.9907 267
33.01081 248
33.03092 248
33.05104 268
33.07115 245
33.09127 267
33.11138 275
33.13149 253
33.15161 287
33.17172 241
33.19183 257
33.21195 237
33.23206 212
33.25217 268
33.27229 240
33.2924 259
33.31252 236
33.33263 226
33.35274 218
33.37286 229
33.39297 182
33.41308 208
33.4332 204
33.45331 218
33.47343 214
33.49354 202
33.51365 215
33.53377 207
33.55388 189
33.57399 184
33.59411 222
33.61422 224
33.63434 186
33.65445 226
33.67456 201
33.69468 223
33.71479 229
33.7349 222
33.75502 201
33.77513 230
33.79524 245
33.81536 209
33.83547 252
33.85559 223
33.8757 215
33.89581 247
33.91593 241
33.93604 224
33.95615 238
33.97627 263
33.99638 264
34.0165 265
34.03661 284
34.05672 298
34.07684 336
34.09695 339
34.11706 379
34.13718 407
34.15729 448
34.17741 403
34.19752 454
34.21763 475
34.23775 487
34.25786 418
34.27797 479
34.29809 453
34.3182 453
34.33831 418
34.35843 378
34.37854 429
34.39866 389
34.41877 376
34.43888 395
34.459 381
34.47911 387
34.49922 369
34.51934 396
34.53945 404
34.55957 423
34.57968 412
34.59979 377
34.61991 423
34.64002 380
34.66013 394
34.68025 361
34.70036 367
34.72047 408
34.74059 348
34.7607 388
34.78082 380
34.80093 403
34.82104 407
34.84116 378
34.86127 391
34.88138 442
34.9015 429
34.92161 421
34.94173 423
34.96184 459
34.98195 439
35.00207 455
35.02218 416
35.04229 424
35.06241 418
35.08252 448
35.10264 461
35.12275 450
35.14286 461
35.16298 419
35.18309 430
35.2032 453
35.22332 440
35.24343 469
35.26354 448
35.28366 437
35.30377 467
35.32389 441
35.344 446
35.36411 476
35.38423 486
35.40434 488
35.42445 480
35.44457 471
35.46468 463
35.4848 480
35.50491 519
35.52502 455
35.54514 474
35.56525 455
35.58536 421
35.60548 388
35.62559 415
35.64571 367
35.66582 384
35.68593 376
35.70605 394
35.72616 366
35.74627 390
35.76639 348
35.7865 339
35.80661 340
35.82673 337
35.84684 367
35.86696 330
35.88707 309
35.90718 294
35.9273 303
35.94741 321
35.96752 279
35.98764 313
36.00775 282
36.02787 263
36.04798 305
36.06809 285
36.08821 294
36.10832 247
36.12843 259
36.14855 300
36.16866 302
36.18878 281
36.20889 249
36.229 256
36.24912 304
36.26923 312
36.28934 311
36.30946 353
36.32957 338
36.34968 395
36.3698 463
36.38991 525
36.41003 659
36.43014 797
36.45025 911
36.47037 1064
36.49048 1167
36.51059 1226
36.53071 1268
36.55082 1150
36.57094 1027
36.59105 830
36.61116 781
36.63128 680
36.65139 582
36.6715 442
36.69162 337
36.71173 329
36.73184 318
36.75196 325
36.77207 289
36.79219 306
36.8123 306
36.83241 305
36.85253 326
36.87264 342
36.89275 322
36.91287 343
36.93298 381
36.9531 379
36.97321 355
36.99332 360
37.01344 337
37.03355 392
37.05366 336
37.07378 356
37.09389 328
37.11401 345
37.13412 320
37.15423 283
37.17435 335
37.19446 294
37.21457 318
37.23469 316
37.2548 310
37.27491 307
37.29503 316
37.31514 272
37.33526 278
37.35537 288
37.37548 287
37.3956 258
37.41571 278
37.43582 276
37.45594 277
37.47605 276
37.49617 268
37.51628 272
37.53639 279
37.55651 288
37.57662 236
37.59673 271
37.61685 270
37.63696 265
37.65708 269
37.67719 260
37.6973 258
37.71742 245
37.73753 225
37.75764 254
37.77776 243
37.79787 256
37.81798 243
37.8381 241
37.85821 225
37.87833 234
37.89844 261
37.91855 219
37.93867 219
37.95878 218
37.97889 229
37.99901 256
38.01912 240
38.03924 231
38.05935 226
38.07946 268
38.09958 245
38.11969 267
38.1398 274
38.15992 251
38.18003 246
38.20015 266
38.22026 283
38.24037 275
38.26049 255
38.2806 257
38.30071 287
38.32083 289
38.34094 300
38.36105 265
38.38117 281
38.40128 288
38.4214 323
38.44151 289
38.46162 324
38.48174 333
38.50185 381
38.52196 357
38.54208 364
38.56219 342
38.58231 395
38.60242 321
38.62253 302
38.64265 293
38.66276 288
38.68287 322
38.70299 268
38.7231 247
38.74321 259
38.76333 270
38.78344 226
38.80356 257
38.82367 240
38.84378 227
38.8639 227
38.88401 227
38.90412 225
38.92424 220
38.94435 219
38.96447 224
38.98458 214
39.00469 234
39.02481 247
39.04492 236
39.06503 251
39.08515 250
39.10526 248
39.12538 273
39.14549 265
39.1656 276
39.18572 257
39.20583 278
39.22594 359
39.24606 329
39.26617 378
39.28628 376
39.3064 463
39.32651 530
39.34663 651
39.36674 748
39.38685 920
39.40697 1106
39.42708 1169
39.44719 1187
39.46731 1070
39.48742 886
39.50754 777
39.52765 761
39.54776 696
39.56788 583
39.58799 487
39.6081 354
39.62822 281
39.64833 275
39.66845 250
39.68856 261
39.70867 228
39.72879 230
39.7489 222
39.76901 249
39.78913 237
39.80924 216
39.82935 237
39.84947 237
39.86958 225
39.8897 207
39.90981 209
39.92992 241
39.95004 232
39.97015 258
39.99026 235
40.01038 253
40.03049 291
40.05061 296
40.07072 270
40.09083 304
40.11095 301
40.13106 353
40.15117 462
40.17129 454
40.1914 540
40.21152 595
40.23163 641
40.25174 733
40.27186 665
40.29197 638
40.31208 600
40.3322 508
40.35231 528
40.37242 425
40.39254 411
40.41265 372
40.43277 285
40.45288 277
40.47299 254
40.49311 252
40.51322 219
40.53333 280
40.55345 253
40.57356 224
40.59368 241
40.61379 253
40.6339 204
40.65402 208
40.67413 245
40.69424 208
40.71436 225
40.73447 226
40.75458 229
40.7747 243
40.79481 206
40.81493 236
40.83504 217
40.85515 240
40.87527 213
40.89538 248
40.91549 228
40.93561 227
40.95572 251
40.97584 209
40.99595 218
41.01606 214
41.03618 227
41.05629 245
41.0764 222
41.09652 231
41.11663 205
41.13675 231
41.15686 232
41.17697 230
41.19709 232
41.2172 217
41.23731 210
41.25743 250
41.27754 245
41.29765 237
41.31777 250
41.33788 259
41.358 232
41.37811 241
41.39822 200
41.41834 243
41.43845 243
41.45856 274
41.47868 235
41.49879 276
41.51891 277
41.53902 258
41.55913 285
41.57925 288
41.59936 326
41.61947 338
41.63959 382
41.6597 398
41.67982 484
41.69993 530
41.72004 604
41.74016 658
41.76027 630
41.78038 664
41.8005 608
41.82061 542
41.84072 523
41.86084 471
41.88095 420
41.90107 390
41.92118 387
41.94129 342
41.96141 293
41.98152 295
42.00163 261
42.02175 281
42.04186 261
42.06198 269
42.08209 289
42.1022 266
42.12232 292
42.14243 276
42.16254 275
42.18266 295
42.20277 311
42.22289 314
42.243 334
42.26311 366
42.28323 396
42.30334 490
42.32345 485
42.34357 616
42.36368 747
42.38379 792
42.40391 902
42.42402 943
42.44414 792
42.46425 740
42.48436 639
42.50448 625
42.52459 569
42.5447 559
42.56482 459
42.58493 419
42.60505 360
42.62516 330
42.64527 323
42.66539 305
42.6855 322
42.70561 311
42.72573 297
42.74584 312
42.76595 322
42.78607 283
42.80618 277
42.8263 268
42.84641 271
42.86652 239
42.88664 233
42.90675 234
42.92686 265
42.94698 213
42.96709 208
42.98721 223
43.00732 212
43.02743 223
43.04755 230
43.06766 216
43.08777 189
43.10789 212
43.128 211
43.14812 216
43.16823 208
43.18834 226
43.20846 217
43.22857 229
43.24868 204
43.2688 229
43.28891 211
43.30902 199
43.32914 180
43.34925 205
43.36937 213
43.38948 204
43.40959 217
43.42971 230
43.44982 236
43.46993 212
43.49005 216
43.51016 235
43.53028 213
43.55039 223
43.5705 235
43.59062 227
43.61073 210
43.63084 229
43.65096 192
43.67107 216
43.69119 186
43.7113 206
43.73141 210
43.75153 201
43.77164 198
43.79175 200
43.81187 214
43.83198 208
43.85209 222
43.87221 213
43.89232 215
43.91244 227
43.93255 200
43.95266 217
43.97278 231
43.99289 241
44.013 225
44.03312 252
44.05323 239
44.07335 216
44.09346 238
44.11357 250
44.13369 249
44.1538 221
44.17391 227
44.19403 224
44.21414 251
44.23426 212
44.25437 215
44.27448 227
44.2946 224
44.31471 199
44.33482 199
44.35494 209
44.37505 181
44.39516 206
44.41528 216
44.43539 211
44.45551 174
44.47562 203
44.49573 213
44.51585 192
44.53596 193
44.55607 207
44.57619 202
44.5963 208
44.61642 215
44.63653 236
44.65664 220
44.67676 204
44.69687 214
44.71698 222
44.7371 207
44.75721 213
44.77732 209
44.79744 201
44.81755 206
44.83767 197
44.85778 198
44.87789 186
44.89801 197
44.91812 205
44.93823 204
44.95835 232
44.97846 223
44.99858 200
45.01869 191
45.0388 193
45.05892 234
45.07903 213
45.09914 188
45.11926 215
45.13937 198
45.15949 216
45.1796 223
45.19971 238
45.21983 221
45.23994 209
45.26005 220
45.28017 245
45.30028 248
45.32039 239
45.34051 233
45.36062 268
45.38074 280
45.40085 265
45.42096 295
45.44108 323
45.46119 298
45.4813 337
45.50142 351
45.52153 378
45.54165 374
45.56176 377
45.58187 413
45.60199 389
45.6221 479
45.64221 446
45.66233 486
45.68244 551
45.70256 640
45.72267 668
45.74278 701
45.7629 671
45.78301 649
45.80312 596
45.82324 565
45.84335 465
45.86346 442
45.88358 477
45.90369 424
45.92381 379
45.94392 272
45.96403 280
45.98415 289
46.00426 234
46.02437 261
46.04449 233
46.0646 222
46.08472 235
46.10483 261
46.12494 251
46.14506 238
46.16517 238
46.18528 207
46.2054 232
46.22551 238
46.24563 213
46.26574 242
46.28585 234
46.30597 223
46.32608 214
46.34619 220
46.36631 212
46.38642 221
46.40653 213
46.42665 193
46.44676 216
46.46688 197
46.48699 199
46.5071 183
46.52722 204
46.54733 190
46.56744 191
46.58756 209
46.60767 180
46.62779 191
46.6479 235
46.66801 192
46.68813 200
46.70824 176
46.72835 208
46.74847 171
46.76858 214
46.78869 186
46.80881 203
46.82892 175
46.84904 201
46.86915 211
46.88926 235
46.90938 235
46.92949 232
46.9496 215
46.96972 257
46.98983 278
47.00995 253
47.03006 282
47.05017 282
47.07029 298
47.0904 305
47.11051 342
47.13063 286
47.15074 324
47.17086 267
47.19097 295
47.21108 249
47.2312 274
47.25131 276
47.27142 257
47.29154 265
47.31165 255
47.33176 253
47.35188 256
47.37199 288
47.39211 262
47.41222 248
47.43233 309
47.45245 294
47.47256 251
47.49267 252
47.51279 260
47.5329 264
47.55302 218
47.57313 218
47.59324 253
47.61336 238
47.63347 224
47.65358 205
47.6737 196
47.69381 209
47.71393 173
47.73404 212
47.75415 196
47.77427 193
47.79438 209
47.81449 194
47.83461 218
47.85472 218
47.87483 207
47.89495 226
47.91506 197
47.93518 226
47.95529 211
47.9754 187
47.99552 199
48.01563 210
48.03574 186
48.05586 178
48.07597 197
48.09609 199
48.1162 211
48.13631 199
48.15643 192
48.17654 214
48.19665 187
48.21677 198
48.23688 177
48.257 214
48.27711 218
48.29722 196
48.31734 224
48.33745 209
48.35756 189
48.37768 192
48.39779 194
48.4179 188
48.43802 212
48.45813 204
48.47825 229
48.49836 202
48.51847 220
48.53859 218
48.5587 221
48.57881 207
48.59893 244
48.61904 232
48.63916 259
48.65927 222
48.67938 248
48.6995 258
48.71961 264
48.73972 283
48.75984 245
48.77995 283
48.80006 298
48.82018 314
48.84029 298
48.86041 283
48.88052 301
48.90063 295
48.92075 290
48.94086 256
48.96097 282
48.98109 268
49.0012 280
49.02132 274
49.04143 257
49.06154 274
49.08166 268
49.10177 275
49.12188 247
49.142 257
49.16211 252
49.18223 240
49.20234 243
49.22245 241
49.24257 229
49.26268 216
49.28279 218
49.30291 218
49.32302 203
49.34313 222
49.36325 239
49.38336 220
49.40348 244
49.42359 214
49.4437 226
49.46382 202
49.48393 214
49.50404 236
49.52416 258
49.54427 250
49.56439 222
49.5845 233
49.60461 216
49.62473 242
49.64484 276
49.66495 259
49.68507 257
49.70518 301
49.7253 274
49.74541 244
49.76552 285
49.78564 311
49.80575 317
49.82586 345
49.84598 358
49.86609 348
49.8862 390
49.90632 483
49.92643 549
49.94655 591
49.96666 724
49.98677 837
50.00689 1003
50.027 1241
50.04711 1348
50.06723 1593
50.08734 1754
50.10746 1800
50.12757 1599
50.14768 1455
50.1678 1178
50.18791 1058
50.20802 1021
50.22814 1001
50.24825 946
50.26837 770
50.28848 592
50.30859 520
50.32871 446
50.34882 389
50.36893 425
50.38905 389
50.40916 481
50.42927 478
50.44939 557
50.4695 580
50.48962 631
50.50973 656
50.52984 676
50.54996 595
50.57007 584
50.59018 573
50.6103 510
50.63041 561
50.65053 513
50.67064 496
50.69075 474
50.71087 435
50.73098 436
50.75109 396
50.77121 420
50.79132 409
50.81143 373
50.83155 331
50.85166 347
50.87178 335
50.89189 330
50.912 313
50.93212 307
50.95223 276
50.97234 278
50.99246 259
51.01257 279
51.03269 253
51.0528 245
51.07291 254
51.09303 247
51.11314 234
51.13325 223
51.15337 203
51.17348 186
51.1936 215
51.21371 203
51.23382 205
51.25394 223
51.27405 234
51.29416 193
51.31428 205
51.33439 197
51.3545 209
51.37462 191
51.39473 181
51.41485 214
51.43496 180
51.45507 174
51.47519 192
51.4953 184
51.51541 196
51.53553 188
51.55564 192
51.57576 186
51.59587 186
51.61598 206
51.6361 190
51.65621 162
51.67632 190
51.69644 211
51.71655 173
51.73667 183
51.75678 182
51.77689 188
51.79701 208
51.81712 187
51.83723 202
51.85735 182
51.87746 172
51.89757 156
51.91769 192
51.9378 160
51.95792 187
51.97803 185
51.99814 180
52.01826 183
52.03837 201
52.05848 168
52.0786 190
52.09871 157
52.11883 191
52.13894 190
52.15905 179
52.17917 205
52.19928 206
52.21939 197
52.23951 200
52.25962 171
52.27974 215
52.29985 183
52.31996 213
52.34008 186
52.36019 186
52.3803 171
52.40042 180
52.42053 212
52.44064 199
52.46076 188
52.48087 233
52.50099 197
52.5211 194
52.54121 211
52.56133 218
52.58144 185
52.60155 219
52.62167 203
52.64178 222
52.6619 208
52.68201 205
52.70212 227
52.72224 223
52.74235 215
52.76246 216
52.78258 209
52.80269 217
52.8228 212
52.84292 217
52.86303 232
52.88315 180
52.90326 183
52.92337 203
52.94349 188
52.9636 207
52.98371 216
53.00383 201
53.02394 221
53.04406 197
53.06417 217
53.08428 197
53.1044 197
53.12451 233
53.14462 221
53.16474 210
53.18485 192
53.20497 219
53.22508 212
53.24519 195
53.26531 220
53.28542 215
53.30553 201
53.32565 211
53.34576 190
53.36587 194
53.38599 202
53.4061 207
53.42622 185
53.44633 207
53.46644 201
53.48656 182
53.50667 209
53.52678 209
53.5469 193
53.56701 194
53.58713 198
53.60724 209
53.62735 196
53.64747 205
53.66758 204
53.68769 190
53.70781 207
53.72792 195
53.74804 199
53.76815 210
53.78826 192
53.80838 195
53.82849 204
53.8486 202
53.86872 213
53.88883 213
53.90894 228
53.92906 209
53.94917 235
53.96929 193
53.9894 217
54.00951 244
54.02963 224
54.04974 204
54.06985 229
54.08997 204
54.11008 223
54.1302 241
54.15031 216
54.17042 247
54.19054 242
54.21065 217
54.23076 218
54.25088 202
54.27099 211
54.29111 212
54.31122 213
54.33133 237
54.35145 204
54.37156 231
54.39167 238
54.41179 215
54.4319 224
54.45201 215
54.47213 223
54.49224 221
54.51236 231
54.53247 226
54.55258 248
54.5727 231
54.59281 233
54.61292 236
54.63304 272
54.65315 304
54.67327 311
54.69338 340
54.71349 345
54.73361 404
54.75372 490
54.77383 573
54.79395 533
54.81406 619
54.83417 604
54.85429 550
54.8744 524
54.89452 451
54.91463 448
54.93474 430
54.95486 396
54.97497 446
54.99508 373
55.0152 358
55.03531 355
55.05543 292
55.07554 285
55.09565 282
55.11577 266
55.13588 280
55.15599 286
55.17611 318
55.19622 322
55.21634 392
55.23645 371
55.25656 391
55.27668 405
55.29679 374
55.3169 393
55.33702 343
55.35713 350
55.37724 354
55.39736 359
55.41747 373
55.43759 333
55.4577 301
55.47781 291
55.49793 324
55.51804 284
55.53815 239
55.55827 241
55.57838 243
55.5985 220
55.61861 228
55.63872 228
55.65884 228
55.67895 204
55.69906 190
55.71918 204
55.73929 211
55.75941 225
55.77952 217
55.79963 188
55.81975 197
55.83986 189
55.85997 193
55.88009 208
55.9002 208
55.92031 203
55.94043 201
55.96054 169
55.98066 185
56.00077 174
56.02088 178
56.041 190
56.06111 177
56.08122 198
56.10134 177
56.12145 195
56.14157 207
56.16168 196
56.18179 207
56.20191 178
56.22202 199
56.24213 191
56.26225 181
56.28236 180
56.30248 179
56.32259 163
56.3427 177
56.36282 186
56.38293 189
56.40304 191
56.42316 181
56.44327 198
56.46338 201
56.4835 190
56.50361 194
56.52373 181
56.54384 184
56.56395 200
56.58407 183
56.60418 193
56.62429 222
56.64441 216
56.66452 194
56.68464 193
56.70475 242
56.72486 220
56.74498 234
56.76509 190
56.7852 227
56.80532 205
56.82543 185
56.84554 236
56.86566 198
56.88577 194
56.90589 193
56.926 189
56.94611 201
56.96623 190
56.98634 172
57.00645 207
57.02657 190
57.04668 224
57.0668 196
57.08691 189
57.10702 215
57.12714 209
57.14725 181
57.16736 233
57.18748 218
57.20759 230
57.22771 222
57.24782 226
57.26793 231
57.28805 205
57.30816 233
57.32827 199
57.34839 204
57.3685 199
57.38861 227
57.40873 207
57.42884 219
57.44896 203
57.46907 214
57.48918 185
57.5093 169
57.52941 183
57.54952 187
57.56964 201
57.58975 207
57.60987 184
57.62998 201
57.65009 185
57.67021 172
57.69032 161
57.71043 154
57.73055 165
57.75066 175
57.77078 177
57.79089 188
57.811 176
57.83112 159
57.85123 175
57.87134 189
57.89146 172
57.91157 176
57.93168 160
57.9518 174
57.97191 163
57.99203 195
58.01214 187
58.03225 172
58.05237 186
58.07248 198
58.09259 196
58.11271 182
58.13282 162
58.15294 188
58.17305 197
58.19316 165
58.21328 211
58.23339 184
58.2535 217
58.27362 165
58.29373 179
58.31385 176
58.33396 189
58.35407 200
58.37419 190
58.3943 187
58.41441 204
58.43453 195
58.45464 223
58.47475 223
58.49487 220
58.51498 217
58.5351 210
58.55521 227
58.57532 236
58.59544 228
58.61555 190
58.63566 241
58.65578 225
58.67589 243
58.69601 213
58.71612 202
58.73623 230
58.75635 199
58.77646 185
58.79657 194
58.81669 207
58.8368 202
58.85691 164
58.87703 186
58.89714 176
58.91726 177
58.93737 191
58.95748 171
58.9776 178
58.99771 170
59.01782 156
59.03794 161
59.05805 188
59.07817 184
59.09828 158
59.11839 149
59.13851 166
59.15862 182
59.17873 153
59.19885 195
59.21896 177
59.23908 178
59.25919 190
59.2793 203
59.29942 195
59.31953 194
59.33964 189
59.35976 200
59.37987 225
59.39998 229
59.4201 205
59.44021 209
59.46033 232
59.48044 238
59.50055 246
59.52067 245
59.54078 236
59.56089 223
59.58101 223
59.60112 251
59.62124 282
59.64135 266
59.66146 346
59.68158 316
59.70169 345
59.7218 363
59.74192 418
59.76203 474
59.78215 504
59.80226 668
59.82237 697
59.84249 833
59.8626 964
59.88271 1084
59.90283 1113
59.92294 1064
59.94305 982
59.96317 866
59.98328 742
60.0034 658
60.02351 631
60.04362 645
60.06374 653
60.08385 601
60.10396 554
60.12408 475
60.14419 378
60.16431 324
60.18442 290
60.20453 241
60.22465 214
60.24476 245
60.26487 241
60.28499 217
60.3051 230
60.32522 227
60.34533 219
60.36544 242
60.38556 212
60.40567 228
60.42578 202
60.4459 211
60.46601 202
60.48612 199
60.50624 205
60.52635 202
60.54647 205
60.56658 211
60.58669 186
60.60681 228
60.62692 182
60.64703 205
60.66715 206
60.68726 185
60.70738 223
60.72749 173
60.7476 197
60.76772 186
60.78783 211
60.80794 194
60.82806 204
60.84817 203
60.86828 188
60.8884 204
60.90851 220
60.92863 205
60.94874 223
60.96885 185
60.98897 192
61.00908 210
61.02919 209
61.04931 215
61.06942 259
61.08954 244
61.10965 246
61.12976 237
61.14988 242
61.16999 248
61.1901 244
61.21022 220
61.23033 256
61.25045 254
61.27056 236
61.29067 253
61.31079 208
61.3309 222
61.35101 231
61.37113 212
61.39124 227
61.41135 243
61.43147 228
61.45158 202
61.4717 233
61.49181 232
61.51192 212
61.53204 207
61.55215 192
61.57226 204
61.59238 219
61.61249 192
61.63261 201
61.65272 181
61.67283 185
61.69295 214
61.71306 206
61.73317 162
61.75329 161
61.7734 200
61.79352 202
61.81363 217
61.83374 221
61.85386 194
61.87397 205
61.89408 191
61.9142 152
61.93431 204
61.95442 222
61.97454 223
61.99465 211
62.01477 225
62.03488 220
62.05499 237
62.07511 202
62.09522 208
62.11533 212
62.13545 211
62.15556 243
62.17568 237
62.19579 246
62.2159 239
62.23602 202
62.25613 234
62.27624 231
62.29636 272
62.31647 275
62.33659 222
62.3567 237
62.37681 237
62.39693 218
62.41704 231
62.43715 256
62.45727 239
62.47738 239
62.49749 221
62.51761 241
62.53772 217
62.55784 239
62.57795 251
62.59806 248
62.61818 237
62.63829 235
62.6584 243
62.67852 235
62.69863 247
62.71875 236
62.73886 239
62.75897 234
62.77909 202
62.7992 223
62.81931 228
62.83943 246
62.85954 231
62.87965 258
62.89977 263
62.91988 212
62.94 224
62.96011 253
62.98022 235
63.00034 253
63.02045 224
63.04056 211
63.06068 257
63.08079 224
63.10091 250
63.12102 254
63.14113 266
63.16125 224
63.18136 241
63.20147 239
63.22159 215
63.2417 201
63.26182 216
63.28193 183
63.30204 215
63.32216 199
63.34227 204
63.36238 203
63.3825 199
63.40261 196
63.42272 215
63.44284 197
63.46295 206
63.48307 202
63.50318 218
63.52329 192
63.54341 239
63.56352 181
63.58363 225
63.60375 238
63.62386 207
63.64398 239
63.66409 258
63.6842 227
63.70432 268
63.72443 272
63.74454 256
63.76466 256
63.78477 309
63.80489 315
63.825 311
63.84511 297
63.86523 345
63.88534 381
63.90545 382
63.92557 358
63.94568 410
63.96579 408
63.98591 405
64.00602 415
64.02614 354
64.04625 356
64.06636 334
64.08648 320
64.10659 274
64.1267 299
64.14682 327
64.16693 306
64.18705 303
64.20716 256
64.22727 234
64.24739 222
64.2675 222
64.28761 207
64.30773 219
64.32784 188
64.34796 202
64.36807 201
64.38818 202
64.4083 219
64.42841 187
64.44852 188
64.46864 188
64.48875 179
64.50886 187
64.52898 183
64.54909 172
64.56921 181
64.58932 181
64.60943 172
64.62955 165
64.64966 162
64.66977 185
64.68989 183
64.71 171
64.73012 177
64.75023 170
64.77034 196
64.79046 169
64.81057 172
64.83068 167
64.8508 224
64.87091 180
64.89102 199
64.91114 219
64.93125 193
64.95137 188
64.97148 208
64.99159 211
65.01171 211
65.03182 194
65.05193 210
65.07205 218
65.09216 210
65.11228 224
65.13239 242
65.1525 239
65.17262 227
65.19273 216
65.21284 253
65.23296 251
65.25307 198
65.27319 225
65.2933 256
65.31341 225
65.33353 214
65.35364 218
65.37375 229
65.39387 194
65.41398 201
65.43409 214
65.45421 198
65.47432 202
65.49444 203
65.51455 188
65.53466 203
65.55478 184
65.57489 203
65.595 178
65.61512 194
65.63523 206
65.65535 197
65.67546 207
65.69557 190
65.71569 198
65.7358 206
65.75591 221
65.77603 186
65.79614 188
65.81626 191
65.83637 182
65.85648 184
65.8766 186
65.89671 176
65.91682 232
65.93694 171
65.95705 173
65.97716 174
65.99728 187
66.01739 202
66.03751 179
66.05762 191
66.07773 183
66.09785 196
66.11796 192
66.13807 208
66.15819 212
66.1783 194
66.19842 237
66.21853 238
66.23864 234
66.25876 243
66.27887 201
66.29898 222
66.3191 217
66.33921 223
66.35933 204
66.37944 194
66.39955 189
66.41967 208
66.43978 217
66.45989 194
66.48001 187
66.50012 186
66.52023 185
66.54035 161
66.56046 172
66.58058 179
66.60069 176
66.6208 179
66.64092 169
66.66103 168
66.68114 179
66.70126 173
66.72137 174
66.74149 170
66.7616 159
66.78171 183
66.80183 173
66.82194 177
66.84205 176
66.86217 172
66.88228 192
66.90239 173
66.92251 188
66.94262 178
66.96274 194
66.98285 194
67.00296 194
67.02308 189
67.04319 195
67.0633 197
67.08342 189
67.10353 186
67.12365 203
67.14376 210
67.16387 190
67.18399 205
67.2041 207
67.22421 180
67.24433 168
67.26444 188
67.28456 186
67.30467 209
67.32478 211
67.3449 205
67.36501 235
67.38512 242
67.40524 218
67.42535 215
67.44546 283
67.46558 259
67.48569 286
67.50581 328
67.52592 328
67.54603 339
67.56615 426
67.58626 449
67.60637 515
67.62649 563
67.6466 630
67.66672 679
67.68683 663
67.70694 688
67.72706 647
67.74717 586
67.76728 532
67.7874 435
67.80751 505
67.82763 478
67.84774 483
67.86785 540
67.88797 579
67.90808 578
67.92819 534
67.94831 545
67.96842 573
67.98853 589
68.00865 662
68.02876 760
68.04888 800
68.06899 865
68.0891 890
68.10922 878
68.12933 874
68.14944 793
68.16956 754
68.18967 730
68.20979 698
68.2299 809
68.25001 824
68.27013 816
68.29024 760
68.31035 734
68.33047 593
68.35058 493
68.3707 468
68.39081 446
68.41092 394
68.43104 379
68.45115 346
68.47126 366
68.49138 375
68.51149 300
68.5316 266
68.55172 248
68.57183 233
68.59195 214
68.61206 206
68.63217 207
68.65229 186
68.6724 180
68.69251 192
68.71263 185
68.73274 175
68.75286 202
68.77297 175
68.79308 167
68.8132 198
68.83331 181
68.85342 191
68.87354 191
68.89365 153
68.91376 182
68.93388 175
68.95399 155
68.97411 169
68.99422 170
69.01433 159
69.03445 193
69.05456 174
69.07467 153
69.09479 149
69.1149 165
69.13502 167
69.15513 161
69.17524 175
69.19536 165
69.21547 149
69.23558 155
69.2557 150
69.27581 153
69.29593 138
69.31604 140
69.33615 154
69.35627 156
69.37638 161
69.39649 152
69.41661 165
69.43672 161
69.45683 159
69.47695 152
69.49706 158
69.51718 147
69.53729 151
69.5574 135
69.57752 153
69.59763 161
69.61774 149
69.63786 141
69.65797 145
69.67809 145
69.6982 147
69.71831 142
69.73843 160
69.75854 134
69.77865 151
69.79877 157
69.81888 177
69.839 157
69.85911 149
69.87922 138
69.89934 154
69.91945 149
69.93956 188
69.95968 142
69.97979 158
69.9999 162
70.02002 189
70.04013 173
70.06025 178
70.08036 178
70.10047 171
70.12059 157
70.1407 194
70.16081 173
70.18093 170
70.20104 148
70.22116 162
70.24127 155
70.26138 149
70.2815 172
70.30161 148
70.32172 159
70.34184 178
70.36195 145
70.38207 156
70.40218 170
70.42229 137
70.44241 165
70.46252 167
70.48263 144
70.50275 154
70.52286 187
70.54297 174
70.56309 177
70.5832 179
70.60332 185
70.62343 150
70.64354 183
70.66366 172
70.68377 162
70.70388 178
70.724 161
70.74411 148
70.76423 157
70.78434 192
70.80445 182
70.82457 170
70.84468 155
70.86479 168
70.88491 163
70.90502 128
70.92513 145
70.94525 159
70.96536 140
70.98548 145
71.00559 150
71.0257 174
71.04582 134
71.06593 147
71.08604 145
71.10616 162
71.12627 174
71.14639 136
71.1665 151
71.18661 149
71.20673 151
71.22684 153
71.24695 168
71.26707 155
71.28718 170
71.3073 186
71.32741 144
71.34752 165
71.36764 183
71.38775 170
71.40786 155
71.42798 168
71.44809 185
71.4682 184
71.48832 203
71.50843 205
71.52855 198
71.54866 220
71.56877 195
71.58889 221
71.609 174
71.62911 216
71.64923 182
71.66934 210
71.68946 185
71.70957 180
71.72968 192
71.7498 199
71.76991 177
71.79002 198
71.81014 170
71.83025 179
71.85037 188
71.87048 184
71.89059 188
71.91071 193
71.93082 189
71.95093 183
71.97105 201
71.99116 190
72.01127 194
72.03139 190
72.0515 192
72.07162 181
72.09173 188
72.11184 194
72.13196 190
72.15207 200
72.17218 190
72.1923 185
72.21241 194
72.23253 171
72.25264 196
72.27275 172
72.29287 174
72.31298 163
72.33309 219
72.35321 196
72.37332 172
72.39344 182
72.41355 196
72.43366 194
72.45378 178
72.47389 179
72.494 184
72.51412 147
72.53423 176
72.55434 156
72.57446 179
72.59457 144
72.61469 165
72.6348 180
72.65491 155
72.67503 187
72.69514 194
72.71525 148
72.73537 177
72.75548 165
72.7756 180
72.79571 201
72.81582 182
72.83594 208
72.85605 152
72.87616 190
72.89628 195
72.91639 188
72.9365 199
72.95662 193
72.97673 203
72.99685 198
73.01696 175
73.03707 204
73.05719 188
73.0773 202
73.09741 206
73.11753 204
73.13764 222
73.15776 212
73.17787 228
73.19798 219
73.2181 229
73.23821 273
73.25832 261
73.27844 224
73.29855 261
73.31867 284
73.33878 292
73.35889 293
73.37901 302
73.39912 355
73.41923 345
73.43935 324
73.45946 336
73.47957 320
73.49969 261
73.5198 254
73.53992 221
73.56003 274
73.58014 255
73.60026 274
73.62037 261
73.64048 288
73.6606 259
73.68071 246
73.70083 217
73.72094 192
73.74105 194
73.76117 206
73.78128 196
73.80139 189
73.82151 196
73.84162 192
73.86174 196
73.88185 184
73.90196 166
73.92208 201
73.94219 199
73.9623 173
73.98242 166
74.00253 171
74.02264 176
74.04276 167
74.06287 173
74.08299 181
74.1031 182
74.12321 158
74.14333 169
74.16344 142
74.18355 167
74.20367 158
74.22378 170
74.2439 184
74.26401 159
74.28412 170
74.30424 170
74.32435 148
74.34446 176
74.36458 187
74.38469 183
74.40481 164
74.42492 200
74.44503 186
74.46515 172
74.48526 181
74.50537 176
74.52549 181
74.5456 158
74.56571 164
74.58583 199
74.60594 192
74.62606 179
74.64617 180
74.66628 172
74.6864 186
74.70651 175
74.72662 195
74.74674 191
74.76685 199
74.78697 184
74.80708 181
74.82719 186
74.84731 201
74.86742 185
74.88753 196
74.90765 196
74.92776 172
74.94787 175
74.96799 184
74.9881 183
75.00822 171
