3.00117 20336
3.02128 20116
3.0414 19270
3.06151 18689
3.08162 17847
3.10174 17353
3.12185 17132
3.14197 16699
3.16208 16394
3.18219 15688
3.20231 15217
3.22242 14721
3.24253 14006
3.26265 13791
3.28276 13301
3.30288 13131
3.32299 12678
3.3431 12092
3.36322 12005
3.38333 11343
3.40344 10888
3.42356 10764
3.44367 10370
3.46379 9928
3.4839 9480
3.50401 9274
3.52413 9059
3.54424 8286
3.56435 8316
3.58447 7763
3.60458 7690
3.62469 7425
3.64481 7080
3.66492 6779
3.68504 6455
3.70515 6207
3.72526 5972
3.74538 5656
3.76549 5629
3.7856 5237
3.80572 4989
3.82583 4892
3.84595 4595
3.86606 4553
3.88617 4079
3.90629 3937
3.9264 3987
3.94651 3713
3.96663 3637
3.98674 3152
4.00686 3115
4.02697 3130
4.04708 2919
4.0672 2907
4.08731 2563
4.10742 2459
4.12754 2412
4.14765 2221
4.16776 2271
4.18788 2076
4.20799 2080
4.22811 1963
4.24822 1974
4.26833 1795
4.28845 1636
4.30856 1683
4.32867 1671
4.34879 1539
4.3689 1489
4.38902 1513
4.40913 1359
4.42924 1438
4.44936 1302
4.46947 1324
4.48958 1214
4.5097 1232
4.52981 1281
4.54992 1231
4.57004 1211
4.59015 1090
4.61027 1117
4.63038 1131
4.65049 1023
4.67061 1094
4.69072 1006
4.71083 936
4.73095 1026
4.75106 978
4.77118 861
4.79129 927
4.8114 820
4.83152 782
4.85163 859
4.87174 816
4.89186 809
4.91197 729
4.93209 745
4.9522 722
4.97231 706
4.99243 724
5.01254 645
5.03265 677
5.05277 730
5.07288 647
5.09299 646
5.11311 591
5.13322 591
5.15334 546
5.17345 552
5.19356 533
5.21368 543
5.23379 523
5.2539 526
5.27402 467
5.29413 466
5.31425 491
5.33436 487
5.35447 527
5.37459 394
5.3947 440
5.41481 445
5.43493 415
5.45504 407
5.47516 382
5.49527 390
5.51538 395
5.5355 369
5.55561 370
5.57572 371
5.59584 314
5.61595 373
5.63606 314
5.65618 327
5.67629 325
5.69641 327
5.71652 316
5.73663 285
5.75675 308
5.77686 314
5.79697 277
5.81709 303
5.8372 290
5.85732 262
5.87743 258
5.89754 273
5.91766 268
5.93777 261
5.95788 249
5.978 233
5.99811 258
6.01823 282
6.03834 278
6.05845 225
6.07857 229
6.09868 271
6.11879 254
6.13891 246
6.15902 243
6.17913 229
6.19925 206
6.21936 240
6.23948 247
6.25959 239
6.2797 245
6.29982 218
6.31993 195
6.34004 263
6.36016 233
6.38027 215
6.40039 239
6.4205 222
6.44061 186
6.46073 198
6.48084 218
6.50095 204
6.52107 206
6.54118 210
6.56129 197
6.58141 236
6.60152 219
6.62164 232
6.64175 212
6.66186 220
6.68198 209
6.70209 206
6.7222 198
6.74232 191
6.76243 197
6.78255 215
6.80266 225
6.82277 188
6.84289 186
6.863 189
6.88311 196
6.90323 168
6.92334 200
6.94346 207
6.96357 215
6.98368 190
7.0038 184
7.02391 220
7.04402 213
7.06414 209
7.08425 191
7.10436 211
7.12448 231
7.14459 195
7.16471 200
7.18482 214
7.20493 194
7.22505 207
7.24516 196
7.26527 219
7.28539 256
7.3055 217
7.32562 201
7.34573 220
7.36584 207
7.38596 202
7.40607 202
7.42618 209
7.4463 214
7.46641 226
7.48653 183
7.50664 190
7.52675 195
7.54687 210
7.56698 185
7.58709 195
7.60721 211
7.62732 208
7.64743 231
7.66755 242
7.68766 215
7.70778 225
7.72789 210
7.748 207
7.76812 213
7.78823 201
7.80834 208
7.82846 199
7.84857 232
7.86869 248
7.8888 206
7.90891 234
7.92903 225
7.94914 243
7.96925 210
7.98937 241
8.00948 239
8.0296 221
8.04971 203
8.06982 235
8.08994 221
8.11005 222
8.13016 218
8.15028 216
8.17039 217
8.1905 202
8.21062 238
8.23073 221
8.25085 228
8.27096 230
8.29107 201
8.31119 227
8.3313 212
8.35141 228
8.37153 249
8.39164 225
8.41176 216
8.43187 252
8.45198 244
8.4721 208
8.49221 243
8.51232 251
8.53244 238
8.55255 225
8.57266 198
8.59278 219
8.61289 213
8.63301 237
8.65312 226
8.67323 220
8.69335 217
8.71346 245
8.73357 236
8.75369 226
8.7738 229
8.79392 257
8.81403 272
8.83414 246
8.85426 227
8.87437 234
8.89448 231
8.9146 219
8.93471 254
8.95483 243
8.97494 247
8.99505 197
9.01517 248
9.03528 216
9.05539 218
9.07551 219
9.09562 227
9.11573 217
9.13585 244
9.15596 249
9.17608 223
9.19619 238
9.2163 231
9.23642 224
9.25653 217
9.27664 242
9.29676 215
9.31687 239
9.33699 217
9.3571 239
9.37721 212
9.39733 261
9.41744 227
9.43755 231
9.45767 270
9.47778 199
9.4979 218
9.51801 232
9.53812 226
9.55824 245
9.57835 236
9.59846 224
9.61858 226
9.63869 222
9.6588 259
9.67892 206
9.69903 217
9.71915 238
9.73926 249
9.75937 241
9.77949 230
9.7996 209
9.81971 223
9.83983 236
9.85994 236
9.88006 201
9.90017 216
9.92028 222
9.9404 241
9.96051 230
9.98062 236
10.00074 263
10.02085 265
10.04097 219
10.06108 244
10.08119 235
10.10131 220
10.12142 235
10.14153 255
10.16165 218
10.18176 232
10.20187 232
10.22199 228
10.2421 209
10.26222 237
10.28233 226
10.30244 173
10.32256 214
10.34267 221
10.36278 234
10.3829 214
10.40301 256
10.42313 219
10.44324 212
10.46335 238
10.48347 242
10.50358 222
10.52369 231
10.54381 242
10.56392 252
10.58403 244
10.60415 207
10.62426 223
10.64438 203
10.66449 235
10.6846 210
10.70472 235
10.72483 238
10.74494 229
10.76506 218
10.78517 212
10.80529 216
10.8254 243
10.84551 251
10.86563 256
10.88574 217
10.90585 240
10.92597 240
10.94608 212
10.9662 215
10.98631 248
11.00642 220
11.02654 216
11.04665 213
11.06676 242
11.08688 245
11.10699 242
11.1271 227
11.14722 232
11.16733 247
11.18745 246
11.20756 247
11.22767 236
11.24779 174
11.2679 242
11.28801 216
11.30813 200
11.32824 222
11.34836 225
11.36847 206
11.38858 244
11.4087 226
11.42881 229
11.44892 210
11.46904 215
11.48915 218
11.50927 231
11.52938 230
11.54949 193
11.56961 213
11.58972 216
11.60983 231
11.62995 221
11.65006 205
11.67017 212
11.69029 228
11.7104 221
11.73052 193
11.75063 232
11.77074 231
11.79086 200
11.81097 200
11.83108 246
11.8512 215
11.87131 214
11.89143 202
11.91154 215
11.93165 222
11.95177 234
11.97188 227
11.99199 236
12.01211 232
12.03222 194
12.05234 251
12.07245 202
12.09256 248
12.11268 223
12.13279 252
12.1529 253
12.17302 237
12.19313 218
12.21324 228
12.23336 225
12.25347 254
12.27359 228
12.2937 244
12.31381 213
12.33393 219
12.35404 224
12.37415 230
12.39427 229
12.41438 230
12.4345 225
12.45461 228
12.47472 219
12.49484 197
12.51495 205
12.53506 234
12.55518 247
12.57529 200
12.5954 232
12.61552 217
12.63563 208
12.65575 213
12.67586 217
12.69597 248
12.71609 219
12.7362 213
12.75631 200
12.77643 197
12.79654 184
12.81666 215
12.83677 237
12.85688 204
12.877 220
12.89711 206
12.91722 198
12.93734 221
12.95745 216
12.97757 218
12.99768 224
13.01779 208
13.03791 194
13.05802 229
13.07813 222
13.09825 205
13.11836 217
13.13847 211
13.15859 197
13.1787 187
13.19882 190
13.21893 200
13.23904 177
13.25916 187
13.27927 203
13.29938 189
13.3195 189
13.33961 191
13.35973 208
13.37984 194
13.39995 212
13.42007 203
13.44018 213
13.46029 196
13.48041 190
13.50052 170
13.52064 188
13.54075 191
13.56086 176
13.58098 223
13.60109 211
13.6212 212
13.64132 196
13.66143 212
13.68154 203
13.70166 208
13.72177 207
13.74189 175
13.762 196
13.78211 194
13.80223 192
13.82234 211
13.84245 201
13.86257 189
13.88268 179
13.9028 218
13.92291 195
13.94302 195
13.96314 199
13.98325 192
14.00336 203
14.02348 201
14.04359 183
14.06371 178
14.08382 190
14.10393 213
14.12405 177
14.14416 224
14.16427 189
14.18439 203
14.2045 171
14.22461 174
14.24473 193
14.26484 183
14.28496 195
14.30507 208
14.32518 190
14.3453 186
14.36541 202
14.38552 172
14.40564 176
14.42575 198
14.44587 200
14.46598 168
14.48609 200
14.50621 188
14.52632 194
14.54643 166
14.56655 223
14.58666 208
14.60677 201
14.62689 177
14.647 180
14.66712 191
14.68723 204
14.70734 184
14.72746 193
14.74757 175
14.76768 182
14.7878 206
14.80791 171
14.82803 196
14.84814 173
14.86825 219
14.88837 165
14.90848 189
14.92859 185
14.94871 170
14.96882 185
14.98894 199
15.00905 176
15.02916 177
15.04928 167
15.06939 176
15.0895 156
15.10962 169
15.12973 165
15.14984 195
15.16996 191
15.19007 176
15.21019 180
15.2303 189
15.25041 174
15.27053 181
15.29064 175
15.31075 163
15.33087 168
15.35098 177
15.3711 167
15.39121 195
15.41132 195
15.43144 176
15.45155 180
15.47166 172
15.49178 179
15.51189 177
15.53201 170
15.55212 169
15.57223 185
15.59235 184
15.61246 192
15.63257 157
15.65269 140
15.6728 169
15.69291 175
15.71303 182
15.73314 158
15.75326 172
15.77337 165
15.79348 178
15.8136 183
15.83371 179
15.85382 171
15.87394 174
15.89405 183
15.91417 158
15.93428 164
15.95439 160
15.97451 176
15.99462 178
16.01473 147
16.03485 189
16.05496 162
16.07508 182
16.09519 158
16.1153 169
16.13542 180
16.15553 146
16.17564 171
16.19576 177
16.21587 173
16.23598 179
16.2561 155
16.27621 161
16.29633 152
16.31644 175
16.33655 153
16.35667 189
16.37678 174
16.39689 173
16.41701 168
16.43712 143
16.45724 184
16.47735 153
16.49746 180
16.51758 178
16.53769 169
16.5578 157
16.57792 149
16.59803 189
16.61814 158
16.63826 167
16.65837 163
16.67849 157
16.6986 153
16.71871 173
16.73883 171
16.75894 146
16.77905 172
16.79917 152
16.81928 176
16.8394 150
16.85951 174
16.87962 177
16.89974 156
16.91985 155
16.93996 155
16.96008 152
16.98019 151
17.00031 164
17.02042 177
17.04053 162
17.06065 186
17.08076 142
17.10087 182
17.12099 179
17.1411 151
17.16121 179
17.18133 154
17.20144 174
17.22156 165
17.24167 163
17.26178 181
17.2819 172
17.30201 158
17.32212 168
17.34224 184
17.36235 166
17.38247 165
17.40258 162
17.42269 156
17.44281 185
17.46292 164
17.48303 195
17.50315 165
17.52326 155
17.54338 163
17.56349 162
17.5836 177
17.60372 179
17.62383 174
17.64394 188
17.66406 162
17.68417 197
17.70428 174
17.7244 160
17.74451 164
17.76463 166
17.78474 167
17.80485 149
17.82497 182
17.84508 153
17.86519 192
17.88531 157
17.90542 184
17.92554 165
17.94565 176
17.96576 192
17.98588 172
18.00599 172
18.0261 146
18.04622 177
18.06633 184
18.08645 185
18.10656 173
18.12667 180
18.14679 140
18.1669 186
18.18701 176
18.20713 191
18.22724 167
18.24735 194
18.26747 169
18.28758 181
18.3077 182
18.32781 161
18.34792 162
18.36804 175
18.38815 175
18.40826 189
18.42838 174
18.44849 175
18.46861 180
18.48872 149
18.50883 164
18.52895 180
18.54906 165
18.56917 182
18.58929 167
18.6094 155
18.62951 167
18.64963 204
18.66974 148
18.68986 155
18.70997 167
18.73008 201
18.7502 177
18.77031 190
18.79042 181
18.81054 195
18.83065 198
18.85077 185
18.87088 181
18.89099 224
18.91111 187
18.93122 175
18.95133 170
18.97145 150
18.99156 190
19.01168 157
19.03179 183
19.0519 168
19.07202 192
19.09213 160
19.11224 159
19.13236 176
19.15247 173
19.17258 169
19.1927 212
19.21281 151
19.23293 186
19.25304 189
19.27315 222
19.29327 202
19.31338 186
19.33349 167
19.35361 192
19.37372 184
19.39384 190
19.41395 167
19.43406 169
19.45418 202
19.47429 174
19.4944 210
19.51452 207
19.53463 210
19.55475 212
19.57486 196
19.59497 218
19.61509 199
19.6352 198
19.65531 203
19.67543 234
19.69554 205
19.71565 215
19.73577 231
19.75588 219
19.776 261
19.79611 258
19.81622 260
19.83634 261
19.85645 293
19.87656 275
19.89668 287
19.91679 278
19.93691 244
19.95702 275
19.97713 252
19.99725 259
20.01736 274
20.03747 263
20.05759 266
20.0777 286
20.09782 257
20.11793 265
20.13804 281
20.15816 292
20.17827 288
20.19838 307
20.2185 307
20.23861 286
20.25872 293
20.27884 306
20.29895 285
20.31907 327
20.33918 294
20.35929 312
20.37941 328
20.39952 293
20.41963 317
20.43975 376
20.45986 363
20.47998 383
20.50009 386
20.5202 371
20.54032 386
20.56043 406
20.58054 395
20.60066 416
20.62077 513
20.64088 486
20.661 552
20.68111 673
20.70123 944
20.72134 1095
20.74145 1598
20.76157 2204
20.78168 3166
20.80179 4594
20.82191 6493
20.84202 8152
20.86214 9170
20.88225 9297
20.90236 7901
20.92248 5853
20.94259 3994
20.9627 2404
20.98282 1347
21.00293 779
21.02305 697
21.04316 639
21.06327 556
21.08339 448
21.1035 455
21.12361 450
21.14373 453
21.16384 385
21.18395 346
21.20407 337
21.22418 317
21.2443 294
21.26441 279
21.28452 307
21.30464 319
21.32475 266
21.34486 273
21.36498 276
21.38509 283
21.40521 257
21.42532 258
21.44543 284
21.46555 262
21.48566 263
21.50577 241
21.52589 252
21.546 239
21.56612 242
21.58623 224
21.60634 253
21.62646 254
21.64657 240
21.66668 211
21.6868 231
21.70691 199
21.72702 245
21.74714 230
21.76725 235
21.78737 240
21.80748 207
21.82759 223
21.84771 232
21.86782 245
21.88793 205
21.90805 214
21.92816 232
21.94828 239
21.96839 200
21.9885 223
22.00862 247
22.02873 248
22.04884 212
22.06896 218
22.08907 247
22.10919 209
22.1293 253
22.14941 216
22.16953 238
22.18964 219
22.20975 229
22.22987 217
22.24998 227
22.27009 213
22.29021 222
22.31032 226
22.33044 212
22.35055 206
22.37066 249
22.39078 248
22.41089 207
22.431 216
22.45112 228
22.47123 226
22.49135 212
22.51146 207
22.53157 214
22.55169 201
22.5718 217
22.59191 221
22.61203 186
22.63214 219
22.65225 236
22.67237 203
22.69248 221
22.7126 207
22.73271 198
22.75282 199
22.77294 177
22.79305 194
22.81316 198
22.83328 237
22.85339 209
22.87351 214
22.89362 214
22.91373 225
22.93385 226
22.95396 215
22.97407 205
22.99419 202
23.0143 204
23.03442 219
23.05453 211
23.07464 230
23.09476 238
23.11487 220
23.13498 216
23.1551 214
23.17521 224
23.19532 229
23.21544 248
23.23555 216
23.25567 226
23.27578 207
23.29589 214
23.31601 212
23.33612 185
23.35623 190
23.37635 206
23.39646 196
23.41658 212
23.43669 216
23.4568 204
23.47692 188
23.49703 213
23.51714 225
23.53726 218
23.55737 202
23.57749 204
23.5976 211
23.61771 204
23.63783 228
23.65794 207
23.67805 222
23.69817 207
23.71828 191
23.73839 229
23.75851 211
23.77862 199
23.79874 193
23.81885 211
23.83896 211
23.85908 222
23.87919 219
23.8993 242
23.91942 252
23.93953 262
23.95965 259
23.97976 306
23.99987 318
24.01999 357
24.0401 329
24.06021 307
24.08033 269
24.10044 231
24.12056 253
24.14067 198
24.16078 200
24.1809 197
24.20101 222
24.22112 210
24.24124 215
24.26135 222
24.28146 232
24.30158 198
24.32169 206
24.34181 205
24.36192 220
24.38203 224
24.40215 218
24.42226 185
24.44237 209
24.46249 201
24.4826 216
24.50272 214
24.52283 216
24.54294 210
24.56306 197
24.58317 209
24.60328 198
24.6234 202
24.64351 206
24.66362 207
24.68374 219
24.70385 227
24.72397 226
24.74408 234
24.76419 240
24.78431 227
24.80442 222
24.82453 217
24.84465 207
24.86476 230
24.88488 263
24.90499 239
24.9251 241
24.94522 240
24.96533 225
24.98544 206
25.00556 221
25.02567 230
25.04579 219
25.0659 217
25.08601 235
25.10613 209
25.12624 210
25.14635 253
25.16647 205
25.18658 250
25.20669 209
25.22681 238
25.24692 242
25.26704 227
25.28715 237
25.30726 250
25.32738 209
25.34749 227
25.3676 219
25.38772 247
25.40783 258
25.42795 247
25.44806 225
25.46817 236
25.48829 262
25.5084 271
25.52851 281
25.54863 307
25.56874 241
25.58886 292
25.60897 294
25.62908 293
25.6492 336
25.66931 328
25.68942 341
25.70954 397
25.72965 452
25.74976 465
25.76988 429
25.78999 492
25.81011 427
25.83022 455
25.85033 472
25.87045 458
25.89056 478
25.91067 444
25.93079 478
25.9509 483
25.97102 506
25.99113 498
26.01124 522
26.03136 429
26.05147 516
26.07158 532
26.0917 535
26.11181 549
26.13193 583
26.15204 630
26.17215 702
26.19227 676
26.21238 770
26.23249 835
26.25261 871
26.27272 923
26.29283 1028
26.31295 1076
26.33306 1134
26.35318 1327
26.37329 1359
26.3934 1594
26.41352 1922
26.43363 2232
26.45374 2861
26.47386 3880
26.49397 5142
26.51409 7460
26.5342 10605
26.55431 14888
26.57443 21027
26.59454 28534
26.61465 36282
26.63477 41877
26.65488 42376
26.67499 36548
26.69511 28258
26.71522 21214
26.73534 15653
26.75545 9498
26.77556 4938
26.79568 2877
26.81579 2156
26.8359 1802
26.85602 1640
26.87613 1472
26.89625 1321
26.91636 1172
26.93647 1107
26.95659 982
26.9767 901
26.99681 788
27.01693 755
27.03704 688
27.05716 673
27.07727 593
27.09738 598
27.1175 552
27.13761 511
27.15772 509
27.17784 466
27.19795 495
27.21806 447
27.23818 469
27.25829 409
27.27841 451
27.29852 439
27.31863 401
27.33875 413
27.35886 462
27.37897 508
27.39909 465
27.4192 512
27.43932 500
27.45943 482
27.47954 465
27.49966 448
27.51977 467
27.53988 430
27.56 428
27.58011 393
27.60023 387
27.62034 373
27.64045 346
27.66057 314
27.68068 312
27.70079 324
27.72091 294
27.74102 322
27.76113 292
27.78125 287
27.80136 283
27.82148 300
27.84159 307
27.8617 306
27.88182 306
27.90193 274
27.92204 301
27.94216 305
27.96227 317
27.98239 284
28.0025 270
28.02261 310
28.04273 291
28.06284 295
28.08295 279
28.10307 277
28.12318 285
28.1433 252
28.16341 295
28.18352 265
28.20364 270
28.22375 281
28.24386 274
28.26398 229
28.28409 300
28.3042 296
28.32432 242
28.34443 270
28.36455 236
28.38466 258
28.40477 242
28.42489 256
28.445 269
28.46511 263
28.48523 252
28.50534 245
28.52546 249
28.54557 238
28.56568 254
28.5858 246
28.60591 236
28.62602 205
28.64614 239
28.66625 243
28.68636 239
28.70648 272
28.72659 252
28.74671 224
28.76682 198
28.78693 215
28.80705 233
28.82716 230
28.84727 248
28.86739 243
28.8875 249
28.90762 243
28.92773 226
28.94784 252
28.96796 242
28.98807 278
29.00818 219
29.0283 224
29.04841 269
29.06853 237
29.08864 234
29.10875 221
29.12887 256
29.14898 230
29.16909 229
29.18921 222
29.20932 214
29.22943 224
29.24955 229
29.26966 219
29.28978 238
29.30989 230
29.33 226
29.35012 224
29.37023 244
29.39034 249
29.41046 276
29.43057 237
29.45069 233
29.4708 246
29.49091 246
29.51103 257
29.53114 241
29.55125 228
29.57137 227
29.59148 209
29.6116 216
29.63171 214
29.65182 219
29.67194 212
29.69205 232
29.71216 227
29.73228 202
29.75239 220
29.7725 219
29.79262 192
29.81273 231
29.83285 217
29.85296 206
29.87307 229
29.89319 226
29.9133 224
29.93341 231
29.95353 225
29.97364 177
29.99376 224
30.01387 212
30.03398 210
30.0541 215
30.07421 218
30.09432 214
30.11444 217
30.13455 210
30.15467 224
30.17478 205
30.19489 241
30.21501 239
30.23512 250
30.25523 205
30.27535 227
30.29546 219
30.31557 216
30.33569 218
30.3558 202
30.37592 211
30.39603 189
30.41614 203
30.43626 187
30.45637 201
30.47648 204
30.4966 213
30.51671 214
30.53683 201
30.55694 224
30.57705 183
30.59717 215
30.61728 190
30.63739 203
30.65751 209
30.67762 226
30.69773 200
30.71785 218
30.73796 237
30.75808 227
30.77819 233
30.7983 215
30.81842 240
30.83853 229
30.85864 210
30.87876 212
30.89887 230
30.91899 180
30.9391 202
30.95921 164
30.97933 180
30.99944 188
31.01955 162
31.03967 197
31.05978 176
31.0799 196
31.10001 169
31.12012 176
31.14024 185
31.16035 177
31.18046 194
31.20058 195
31.22069 184
31.2408 184
31.26092 192
31.28103 157
31.30115 166
31.32126 174
31.34137 187
31.36149 180
31.3816 170
31.40171 198
31.42183 167
31.44194 160
31.46206 196
31.48217 168
31.50228 175
31.5224 169
31.54251 184
31.56262 180
31.58274 178
31.60285 174
31.62297 166
31.64308 180
31.66319 160
31.68331 159
31.70342 176
31.72353 176
31.74365 185
31.76376 183
31.78387 162
31.80399 156
31.8241 168
31.84422 163
31.86433 175
31.88444 181
31.90456 166
31.92467 173
31.94478 153
31.9649 157
31.98501 162
32.00513 167
32.02524 145
32.04535 162
32.06547 184
32.08558 156
32.10569 192
32.12581 175
32.14592 177
32.16604 152
32.18615 183
32.20626 167
32.22638 176
32.24649 162
32.2666 176
32.28672 193
32.30683 176
32.32694 170
32.34706 159
32.36717 171
32.38729 166
32.4074 159
32.42751 166
32.44763 172
32.46774 162
32.48785 174
32.50797 176
32.52808 186
32.5482 168
32.56831 176
32.58842 177
32.60854 165
32.62865 180
32.64876 169
32.66888 158
32.68899 156
32.7091 173
32.72922 152
32.74933 170
32.76945 194
32.78956 149
32.80967 178
32.82979 177
32.8499 157
32.87001 157
32.89013 172
32.91024 180
32.93036 165
32.95047 173
32.97058 172
32.9907 178
33.01081 166
33.03092 152
33.05104 178
33.07115 177
33.09127 160
33.11138 163
33.13149 175
33.15161 146
33.17172 163
33.19183 158
33.21195 154
33.23206 169
33.25217 151
33.27229 158
33.2924 179
33.31252 171
33.33263 146
33.35274 140
33.37286 169
33.39297 155
33.41308 153
33.4332 147
33.45331 144
33.47343 147
33.49354 163
33.51365 167
33.53377 176
33.55388 158
33.57399 135
33.59411 129
33.61422 148
33.63434 137
33.65445 163
33.67456 139
33.69468 123
33.71479 154
33.7349 149
33.75502 133
33.77513 151
33.79524 151
33.81536 141
33.83547 137
33.85559 155
33.8757 169
33.89581 168
33.91593 156
33.93604 133
33.95615 132
33.97627 149
33.99638 138
34.0165 145
34.03661 121
34.05672 166
34.07684 166
34.09695 134
34.11706 159
34.13718 124
34.15729 160
34.17741 187
34.19752 176
34.21763 165
34.23775 151
34.25786 165
34.27797 184
34.29809 160
34.3182 175
34.33831 163
34.35843 143
34.37854 169
34.39866 153
34.41877 165
34.43888 175
34.459 170
34.47911 144
34.49922 181
34.51934 167
34.53945 150
34.55957 136
34.57968 182
34.59979 184
34.61991 157
34.64002 171
34.66013 154
34.68025 211
34.70036 186
34.72047 187
34.74059 187
34.7607 184
34.78082 160
34.80093 196
34.82104 186
34.84116 204
34.86127 181
34.88138 212
34.9015 184
34.92161 196
34.94173 195
34.96184 191
34.98195 181
35.00207 219
35.02218 178
35.04229 201
35.06241 179
35.08252 177
35.10264 167
35.12275 169
35.14286 192
35.16298 213
35.18309 198
35.2032 187
35.22332 174
35.24343 204
35.26354 198
35.28366 159
35.30377 192
35.32389 214
35.344 186
35.36411 196
35.38423 163
35.40434 211
35.42445 199
35.44457 218
35.46468 228
35.4848 214
35.50491 224
35.52502 211
35.54514 225
35.56525 214
35.58536 187
35.60548 200
35.62559 199
35.64571 219
35.66582 173
35.68593 181
35.70605 220
35.72616 184
35.74627 188
35.76639 201
35.7865 199
35.80661 208
35.82673 213
35.84684 199
35.86696 197
35.88707 196
35.90718 202
35.9273 187
35.94741 202
35.96752 190
35.98764 192
36.00775 165
36.02787 230
36.04798 233
36.06809 195
36.08821 212
36.10832 188
36.12843 230
36.14855 199
36.16866 215
36.18878 223
36.20889 223
36.229 258
36.24912 257
36.26923 288
36.28934 333
36.30946 307
36.32957 337
36.34968 412
36.3698 500
36.38991 639
36.41003 759
36.43014 1050
36.45025 1299
36.47037 1672
36.49048 2086
36.51059 2460
36.53071 2812
36.55082 2804
36.57094 2440
36.59105 2027
36.61116 1620
36.63128 1464
36.65139 1238
36.6715 939
36.69162 649
36.71173 401
36.73184 317
36.75196 301
36.77207 255
36.79219 257
36.8123 213
36.83241 205
36.85253 216
36.87264 227
36.89275 224
36.91287 219
36.93298 195
36.9531 213
36.97321 189
36.99332 186
37.01344 195
37.03355 190
37.05366 201
37.07378 175
37.09389 166
37.11401 201
37.13412 190
37.15423 162
37.17435 189
37.19446 173
37.21457 184
37.23469 163
37.2548 163
37.27491 150
37.29503 165
37.31514 171
37.33526 149
37.35537 154
37.37548 142
37.3956 149
37.41571 148
37.43582 171
37.45594 170
37.47605 160
37.49617 177
37.51628 172
37.53639 178
37.55651 176
37.57662 163
37.59673 174
37.61685 159
37.63696 160
37.65708 163
37.67719 174
37.6973 153
37.71742 164
37.73753 181
37.75764 182
37.77776 188
37.79787 170
37.81798 183
37.8381 157
37.85821 170
37.87833 152
37.89844 181
37.91855 163
37.93867 163
37.95878 154
37.97889 182
37.99901 161
38.01912 175
38.03924 172
38.05935 174
38.07946 191
38.09958 169
38.11969 184
38.1398 172
38.15992 169
38.18003 186
38.20015 193
38.22026 175
38.24037 196
38.26049 190
38.2806 158
38.30071 175
38.32083 155
38.34094 167
38.36105 191
38.38117 174
38.40128 183
38.4214 161
38.44151 184
38.46162 171
38.48174 191
38.50185 171
38.52196 165
38.54208 196
38.56219 182
38.58231 207
38.60242 172
38.62253 191
38.64265 190
38.66276 186
38.68287 164
38.70299 163
38.7231 137
38.74321 172
38.76333 191
38.78344 167
38.80356 163
38.82367 186
38.84378 177
38.8639 179
38.88401 191
38.90412 172
38.92424 171
38.94435 156
38.96447 190
38.98458 193
39.00469 196
39.02481 202
39.04492 200
39.06503 205
39.08515 218
39.10526 198
39.12538 230
39.14549 244
39.1656 255
39.18572 280
39.20583 285
39.22594 333
39.24606 373
39.26617 388
39.28628 426
39.3064 580
39.32651 742
39.34663 902
39.36674 1145
39.38685 1481
39.40697 1892
39.42708 2265
39.44719 2537
39.46731 2647
39.48742 2336
39.50754 1826
39.52765 1473
39.54776 1329
39.56788 1297
39.58799 1080
39.6081 777
39.62822 463
39.64833 376
39.66845 303
39.68856 274
39.70867 247
39.72879 250
39.7489 226
39.76901 223
39.78913 242
39.80924 198
39.82935 219
39.84947 185
39.86958 199
39.8897 195
39.90981 204
39.92992 213
39.95004 219
39.97015 205
39.99026 216
40.01038 238
40.03049 252
40.05061 244
40.07072 271
40.09083 301
40.11095 363
40.13106 400
40.15117 434
40.17129 576
40.1914 704
40.21152 796
40.23163 978
40.25174 1195
40.27186 1326
40.29197 1358
40.31208 1173
40.3322 988
40.35231 825
40.37242 777
40.39254 696
40.41265 616
40.43277 453
40.45288 330
40.47299 253
40.49311 216
40.51322 215
40.53333 202
40.55345 194
40.57356 157
40.59368 203
40.61379 195
40.6339 168
40.65402 160
40.67413 147
40.69424 161
40.71436 195
40.73447 156
40.75458 160
40.7747 193
40.79481 179
40.81493 169
40.83504 158
40.85515 159
40.87527 182
40.89538 161
40.91549 171
40.93561 170
40.95572 173
40.97584 177
40.99595 163
41.01606 173
41.03618 147
41.05629 155
41.0764 170
41.09652 155
41.11663 169
41.13675 174
41.15686 185
41.17697 151
41.19709 169
41.2172 206
41.23731 168
41.25743 158
41.27754 164
41.29765 162
41.31777 162
41.33788 183
41.358 154
41.37811 160
41.39822 183
41.41834 151
41.43845 182
41.45856 153
41.47868 174
41.49879 168
41.51891 168
41.53902 207
41.55913 174
41.57925 173
41.59936 180
41.61947 169
41.63959 180
41.6597 212
41.67982 191
41.69993 192
41.72004 190
41.74016 169
41.76027 224
41.78038 226
41.8005 149
41.82061 187
41.84072 185
41.86084 196
41.88095 162
41.90107 169
41.92118 189
41.94129 164
41.96141 202
41.98152 172
42.00163 191
42.02175 174
42.04186 178
42.06198 183
42.08209 210
42.1022 200
42.12232 210
42.14243 205
42.16254 214
42.18266 251
42.20277 253
42.22289 312
42.243 327
42.26311 391
42.28323 492
42.30334 553
42.32345 663
42.34357 784
42.36368 1081
42.38379 1375
42.40391 1569
42.42402 1778
42.44414 1825
42.46425 1774
42.48436 1440
42.50448 1132
42.52459 1045
42.5447 965
42.56482 932
42.58493 745
42.60505 573
42.62516 339
42.64527 271
42.66539 241
42.6855 235
42.70561 195
42.72573 218
42.74584 224
42.76595 205
42.78607 189
42.80618 202
42.8263 189
42.84641 179
42.86652 186
42.88664 185
42.90675 190
42.92686 178
42.94698 145
42.96709 148
42.98721 175
43.00732 183
43.02743 163
43.04755 160
43.06766 168
43.08777 158
43.10789 145
43.128 160
43.14812 153
43.16823 160
43.18834 160
43.20846 159
43.22857 164
43.24868 122
43.2688 145
43.28891 165
43.30902 139
43.32914 156
43.34925 129
43.36937 130
43.38948 140
43.40959 147
43.42971 167
43.44982 162
43.46993 148
43.49005 148
43.51016 174
43.53028 161
43.55039 153
43.5705 148
43.59062 146
43.61073 139
43.63084 155
43.65096 168
43.67107 154
43.69119 131
43.7113 148
43.73141 123
43.75153 156
43.77164 153
43.79175 148
43.81187 152
43.83198 144
43.85209 153
43.87221 145
43.89232 139
43.91244 149
43.93255 163
43.95266 138
43.97278 158
43.99289 163
44.013 153
44.03312 159
44.05323 145
44.07335 150
44.09346 126
44.11357 137
44.13369 132
44.1538 141
44.17391 156
44.19403 145
44.21414 143
44.23426 130
44.25437 160
44.27448 152
44.2946 129
44.31471 150
44.33482 139
44.35494 168
44.37505 139
44.39516 143
44.41528 147
44.43539 142
44.45551 148
44.47562 138
44.49573 165
44.51585 147
44.53596 150
44.55607 156
44.57619 148
44.5963 157
44.61642 145
44.63653 131
44.65664 148
44.67676 156
44.69687 147
44.71698 145
44.7371 126
44.75721 135
44.77732 161
44.79744 139
44.81755 136
44.83767 142
44.85778 159
44.87789 142
44.89801 155
44.91812 149
44.93823 143
44.95835 155
44.97846 150
44.99858 152
45.01869 165
45.0388 148
45.05892 154
45.07903 163
45.09914 151
45.11926 156
45.13937 171
45.15949 143
45.1796 162
45.19971 139
45.21983 142
45.23994 168
45.26005 158
45.28017 132
45.30028 162
45.32039 175
45.34051 152
45.36062 193
45.38074 179
45.40085 170
45.42096 192
45.44108 176
45.46119 182
45.4813 197
45.50142 201
45.52153 215
45.54165 222
45.56176 230
45.58187 253
45.60199 309
45.6221 364
45.64221 433
45.66233 496
45.68244 605
45.70256 750
45.72267 855
45.74278 1045
45.7629 1172
45.78301 1213
45.80312 1131
45.82324 944
45.84335 779
45.86346 710
45.88358 694
45.90369 659
45.92381 558
45.94392 453
45.96403 355
45.98415 236
46.00426 196
46.02437 186
46.04449 177
46.0646 157
46.08472 171
46.10483 158
46.12494 184
46.14506 146
46.16517 173
46.18528 154
46.2054 150
46.22551 144
46.24563 139
46.26574 155
46.28585 157
46.30597 159
46.32608 143
46.34619 152
46.36631 134
46.38642 126
46.40653 156
46.42665 163
46.44676 151
46.46688 146
46.48699 134
46.5071 145
46.52722 125
46.54733 156
46.56744 133
46.58756 145
46.60767 141
46.62779 130
46.6479 149
46.66801 131
46.68813 150
46.70824 141
46.72835 135
46.74847 150
46.76858 154
46.78869 135
46.80881 146
46.82892 147
46.84904 139
46.86915 111
46.88926 142
46.90938 131
46.92949 139
46.9496 139
46.96972 131
46.98983 139
47.00995 140
47.03006 142
47.05017 145
47.07029 140
47.0904 142
47.11051 154
47.13063 151
47.15074 139
47.17086 139
47.19097 131
47.21108 143
47.2312 159
47.25131 138
47.27142 144
47.29154 136
47.31165 130
47.33176 128
47.35188 149
47.37199 130
47.39211 120
47.41222 133
47.43233 140
47.45245 152
47.47256 147
47.49267 149
47.51279 135
47.5329 125
47.55302 138
47.57313 135
47.59324 146
47.61336 125
47.63347 130
47.65358 128
47.6737 132
47.69381 119
47.71393 133
47.73404 131
47.75415 127
47.77427 111
47.79438 126
47.81449 124
47.83461 133
47.85472 136
47.87483 137
47.89495 155
47.91506 129
47.93518 132
47.95529 138
47.9754 153
47.99552 137
48.01563 141
48.03574 131
48.05586 143
48.07597 139
48.09609 132
48.1162 134
48.13631 112
48.15643 136
48.17654 122
48.19665 149
48.21677 131
48.23688 138
48.257 137
48.27711 136
48.29722 142
48.31734 138
48.33745 154
48.35756 142
48.37768 129
48.39779 159
48.4179 122
48.43802 151
48.45813 129
48.47825 146
48.49836 146
48.51847 146
48.53859 131
48.5587 141
48.57881 146
48.59893 148
48.61904 139
48.63916 131
48.65927 157
48.67938 147
48.6995 142
48.71961 144
48.73972 127
48.75984 143
48.77995 138
48.80006 131
48.82018 159
48.84029 181
48.86041 160
48.88052 130
48.90063 148
48.92075 151
48.94086 178
48.96097 133
48.98109 168
49.0012 126
49.02132 160
49.04143 141
49.06154 144
49.08166 146
49.10177 153
49.12188 151
49.142 170
49.16211 142
49.18223 169
49.20234 150
49.22245 146
49.24257 134
49.26268 166
49.28279 138
49.30291 148
49.32302 160
49.34313 171
49.36325 151
49.38336 175
49.40348 160
49.42359 147
49.4437 156
49.46382 167
49.48393 166
49.50404 172
49.52416 175
49.54427 191
49.56439 156
49.5845 161
49.60461 197
49.62473 171
49.64484 199
49.66495 191
49.68507 224
49.70518 227
49.7253 246
49.74541 262
49.76552 238
49.78564 259
49.80575 322
49.82586 353
49.84598 378
49.86609 420
49.8862 552
49.90632 543
49.92643 630
49.94655 787
49.96666 938
49.98677 1247
50.00689 1525
50.027 1886
50.04711 2366
50.06723 2978
50.08734 3391
50.10746 3767
50.12757 3853
50.14768 3652
50.1678 3165
50.18791 2412
50.20802 2146
50.22814 2153
50.24825 2076
50.26837 1922
50.28848 1555
50.30859 1173
50.32871 711
50.34882 485
50.36893 405
50.38905 359
50.40916 310
50.42927 280
50.44939 304
50.4695 251
50.48962 275
50.50973 284
50.52984 273
50.54996 259
50.57007 295
50.59018 261
50.6103 305
50.63041 264
50.65053 251
50.67064 212
50.69075 230
50.71087 214
50.73098 244
50.75109 184
50.77121 196
50.79132 180
50.81143 186
50.83155 179
50.85166 171
50.87178 136
50.89189 169
50.912 156
50.93212 177
50.95223 156
50.97234 151
50.99246 133
51.01257 126
51.03269 142
51.0528 146
51.07291 127
51.09303 159
51.11314 186
51.13325 132
51.15337 155
51.17348 140
51.1936 169
51.21371 146
51.23382 113
51.25394 126
51.27405 134
51.29416 132
51.31428 149
51.33439 123
51.3545 175
51.37462 145
51.39473 129
51.41485 127
51.43496 149
51.45507 135
51.47519 138
51.4953 138
51.51541 120
51.53553 127
51.55564 123
51.57576 140
51.59587 128
51.61598 129
51.6361 128
51.65621 143
51.67632 118
51.69644 124
51.71655 132
51.73667 119
51.75678 116
51.77689 127
51.79701 130
51.81712 126
51.83723 124
51.85735 132
51.87746 132
51.89757 123
51.91769 133
51.9378 116
51.95792 136
51.97803 116
51.99814 110
52.01826 127
52.03837 120
52.05848 145
52.0786 108
52.09871 123
52.11883 137
52.13894 116
52.15905 132
52.17917 141
52.19928 131
52.21939 126
52.23951 119
52.25962 123
52.27974 122
52.29985 132
52.31996 106
52.34008 120
52.36019 146
52.3803 123
52.40042 121
52.42053 122
52.44064 123
52.46076 133
52.48087 110
52.50099 132
52.5211 128
52.54121 129
52.56133 136
52.58144 127
52.60155 103
52.62167 126
52.64178 128
52.6619 107
52.68201 120
52.70212 119
52.72224 115
52.74235 139
52.76246 131
52.78258 140
52.80269 116
52.8228 119
52.84292 122
52.86303 128
52.88315 121
52.90326 133
52.92337 134
52.94349 118
52.9636 135
52.98371 133
53.00383 140
53.02394 134
53.04406 119
53.06417 139
53.08428 122
53.1044 135
53.12451 139
53.14462 120
53.16474 126
53.18485 132
53.20497 128
53.22508 131
53.24519 141
53.26531 135
53.28542 166
53.30553 156
53.32565 123
53.34576 136
53.36587 134
53.38599 110
53.4061 137
53.42622 144
53.44633 119
53.46644 121
53.48656 153
53.50667 139
53.52678 131
53.5469 136
53.56701 156
53.58713 154
53.60724 135
53.62735 148
53.64747 131
53.66758 148
53.68769 162
53.70781 128
53.72792 156
53.74804 150
53.76815 135
53.78826 132
53.80838 152
53.82849 123
53.8486 139
53.86872 145
53.88883 140
53.90894 148
53.92906 148
53.94917 148
53.96929 150
53.9894 141
54.00951 151
54.02963 140
54.04974 159
54.06985 156
54.08997 133
54.11008 148
54.1302 137
54.15031 144
54.17042 143
54.19054 141
54.21065 152
54.23076 154
54.25088 141
54.27099 152
54.29111 144
54.31122 150
54.33133 177
54.35145 158
54.37156 156
54.39167 139
54.41179 149
54.4319 144
54.45201 183
54.47213 166
54.49224 208
54.51236 195
54.53247 192
54.55258 205
54.5727 201
54.59281 220
54.61292 240
54.63304 262
54.65315 303
54.67327 322
54.69338 373
54.71349 438
54.73361 510
54.75372 653
54.77383 746
54.79395 878
54.81406 1050
54.83417 1183
54.85429 1179
54.8744 1139
54.89452 928
54.91463 831
54.93474 664
54.95486 711
54.97497 649
54.99508 676
55.0152 610
55.03531 587
55.05543 436
55.07554 345
55.09565 311
55.11577 300
55.13588 273
55.15599 299
55.17611 305
55.19622 327
55.21634 410
55.23645 467
55.25656 527
55.27668 595
55.29679 568
55.3169 605
55.33702 546
55.35713 471
55.37724 406
55.39736 335
55.41747 344
55.43759 394
55.4577 370
55.47781 319
55.49793 308
55.51804 222
55.53815 194
55.55827 194
55.57838 147
55.5985 175
55.61861 148
55.63872 146
55.65884 163
55.67895 128
55.69906 154
55.71918 155
55.73929 124
55.75941 142
55.77952 139
55.79963 143
55.81975 153
55.83986 125
55.85997 133
55.88009 132
55.9002 132
55.92031 127
55.94043 144
55.96054 130
55.98066 142
56.00077 124
56.02088 126
56.041 143
56.06111 153
56.08122 139
56.10134 127
56.12145 115
56.14157 116
56.16168 130
56.18179 124
56.20191 121
56.22202 138
56.24213 144
56.26225 143
56.28236 120
56.30248 135
56.32259 122
56.3427 119
56.36282 135
56.38293 114
56.40304 111
56.42316 138
56.44327 121
56.46338 109
56.4835 141
56.50361 127
56.52373 136
56.54384 148
56.56395 135
56.58407 130
56.60418 121
56.62429 123
56.64441 140
56.66452 148
56.68464 126
56.70475 124
56.72486 109
56.74498 147
56.76509 125
56.7852 131
56.80532 129
56.82543 134
56.84554 139
56.86566 142
56.88577 138
56.90589 131
56.926 130
56.94611 140
56.96623 127
56.98634 120
57.00645 138
57.02657 147
57.04668 142
57.0668 122
57.08691 186
57.10702 148
57.12714 162
57.14725 166
57.16736 177
57.18748 185
57.20759 175
57.22771 186
57.24782 173
57.26793 168
57.28805 153
57.30816 132
57.32827 173
57.34839 161
57.3685 150
57.38861 169
57.40873 160
57.42884 153
57.44896 140
57.46907 131
57.48918 117
57.5093 117
57.52941 107
57.54952 112
57.56964 124
57.58975 111
57.60987 134
57.62998 143
57.65009 114
57.67021 131
57.69032 128
57.71043 147
57.73055 142
57.75066 121
57.77078 123
57.79089 138
57.811 122
57.83112 110
57.85123 132
57.87134 109
57.89146 142
57.91157 138
57.93168 120
57.9518 123
57.97191 126
57.99203 110
58.01214 117
58.03225 118
58.05237 134
58.07248 120
58.09259 127
58.11271 137
58.13282 134
58.15294 150
58.17305 129
58.19316 142
58.21328 123
58.23339 122
58.2535 109
58.27362 127
58.29373 144
58.31385 122
58.33396 119
58.35407 131
58.37419 120
58.3943 144
58.41441 120
58.43453 115
58.45464 126
58.47475 125
58.49487 133
58.51498 113
58.5351 132
58.55521 123
58.57532 141
58.59544 115
58.61555 132
58.63566 125
58.65578 150
58.67589 132
58.69601 146
58.71612 133
58.73623 122
58.75635 123
58.77646 125
58.79657 135
58.81669 134
58.8368 129
58.85691 133
58.87703 125
58.89714 137
58.91726 130
58.93737 141
58.95748 118
58.9776 134
58.99771 128
59.01782 129
59.03794 136
59.05805 130
59.07817 110
59.09828 134
59.11839 149
59.13851 144
59.15862 136
59.17873 149
59.19885 129
59.21896 149
59.23908 140
59.25919 140
59.2793 149
59.29942 143
59.31953 159
59.33964 155
59.35976 139
59.37987 174
59.39998 158
59.4201 174
59.44021 176
59.46033 186
59.48044 184
59.50055 174
59.52067 198
59.54078 198
59.56089 207
59.58101 242
59.60112 230
59.62124 262
59.64135 309
59.66146 310
59.68158 362
59.70169 454
59.7218 463
59.74192 525
59.76203 620
59.78215 750
59.80226 914
59.82237 1106
59.84249 1482
59.8626 1639
59.88271 2001
59.90283 2240
59.92294 2334
59.94305 2309
59.96317 2184
59.98328 1765
60.0034 1413
60.02351 1227
60.04362 1239
60.06374 1222
60.08385 1254
60.10396 1240
60.12408 1132
60.14419 897
60.16431 642
60.18442 433
60.20453 339
60.22465 288
60.24476 270
60.26487 216
60.28499 226
60.3051 185
60.32522 184
60.34533 185
60.36544 146
60.38556 174
60.40567 165
60.42578 173
60.4459 174
60.46601 158
60.48612 138
60.50624 128
60.52635 126
60.54647 151
60.56658 150
60.58669 124
60.60681 146
60.62692 135
60.64703 123
60.66715 143
60.68726 155
60.70738 128
60.72749 122
60.7476 133
60.76772 168
60.78783 123
60.80794 141
60.82806 145
60.84817 125
60.86828 131
60.8884 124
60.90851 148
60.92863 164
60.94874 157
60.96885 130
60.98897 145
61.00908 125
61.02919 127
61.04931 122
61.06942 144
61.08954 140
61.10965 128
61.12976 123
61.14988 137
61.16999 157
61.1901 148
61.21022 141
61.23033 130
61.25045 135
61.27056 144
61.29067 148
61.31079 133
61.3309 124
61.35101 144
61.37113 126
61.39124 126
61.41135 122
61.43147 120
61.45158 143
61.4717 128
61.49181 120
61.51192 129
61.53204 138
61.55215 123
61.57226 132
61.59238 124
61.61249 138
61.63261 115
61.65272 130
61.67283 137
61.69295 155
61.71306 129
61.73317 135
61.75329 127
61.7734 142
61.79352 138
61.81363 125
61.83374 136
61.85386 132
61.87397 128
61.89408 146
61.9142 127
61.93431 138
61.95442 144
61.97454 131
61.99465 147
62.01477 143
62.03488 124
62.05499 142
62.07511 144
62.09522 139
62.11533 148
62.13545 134
62.15556 145
62.17568 132
62.19579 140
62.2159 136
62.23602 146
62.25613 143
62.27624 138
62.29636 142
62.31647 135
62.33659 137
62.3567 134
62.37681 144
62.39693 139
62.41704 148
62.43715 134
62.45727 151
62.47738 142
62.49749 117
62.51761 148
62.53772 127
62.55784 148
62.57795 125
62.59806 156
62.61818 137
62.63829 124
62.6584 137
62.67852 118
62.69863 117
62.71875 143
62.73886 121
62.75897 140
62.77909 141
62.7992 134
62.81931 136
62.83943 125
62.85954 115
62.87965 117
62.89977 134
62.91988 142
62.94 128
62.96011 111
62.98022 131
63.00034 129
63.02045 132
63.04056 132
63.06068 138
63.08079 130
63.10091 139
63.12102 138
63.14113 117
63.16125 134
63.18136 129
63.20147 128
63.22159 142
63.2417 121
63.26182 143
63.28193 108
63.30204 117
63.32216 135
63.34227 124
63.36238 135
63.3825 114
63.40261 113
63.42272 119
63.44284 122
63.46295 129
63.48307 122
63.50318 120
63.52329 132
63.54341 154
63.56352 135
63.58363 119
63.60375 141
63.62386 142
63.64398 141
63.66409 139
63.6842 133
63.70432 156
63.72443 152
63.74454 161
63.76466 159
63.78477 160
63.80489 184
63.825 204
63.84511 245
63.86523 209
63.88534 298
63.90545 320
63.92557 355
63.94568 392
63.96579 487
63.98591 515
64.00602 533
64.02614 483
64.04625 465
64.06636 418
64.08648 311
64.10659 324
64.1267 311
64.14682 304
64.16693 285
64.18705 306
64.20716 279
64.22727 272
64.24739 219
64.2675 172
64.28761 177
64.30773 134
64.32784 146
64.34796 136
64.36807 127
64.38818 116
64.4083 89
64.42841 110
64.44852 109
64.46864 121
64.48875 132
64.50886 110
64.52898 129
64.54909 123
64.56921 120
64.58932 137
64.60943 126
64.62955 116
64.64966 109
64.66977 105
64.68989 116
64.71 128
64.73012 120
64.75023 117
64.77034 109
64.79046 108
64.81057 108
64.83068 126
64.8508 117
64.87091 114
64.89102 129
64.91114 110
64.93125 117
64.95137 117
64.97148 112
64.99159 109
65.01171 122
65.03182 126
65.05193 107
65.07205 127
65.09216 138
65.11228 105
65.13239 128
65.1525 107
65.17262 117
65.19273 104
65.21284 139
65.23296 133
65.25307 92
65.27319 119
65.2933 135
65.31341 119
65.33353 144
65.35364 125
65.37375 128
65.39387 125
65.41398 130
65.43409 118
65.45421 102
65.47432 151
65.49444 136
65.51455 139
65.53466 149
65.55478 138
65.57489 139
65.595 151
65.61512 160
65.63523 145
65.65535 172
65.67546 190
65.69557 205
65.71569 202
65.7358 226
65.75591 217
65.77603 225
65.79614 207
65.81626 198
65.83637 161
65.85648 170
65.8766 184
65.89671 175
65.91682 191
65.93694 168
65.95705 169
65.97716 167
65.99728 147
66.01739 141
66.03751 116
66.05762 131
66.07773 124
66.09785 122
66.11796 114
66.13807 132
66.15819 148
66.1783 118
66.19842 137
66.21853 126
66.23864 127
66.25876 115
66.27887 126
66.29898 150
66.3191 127
66.33921 112
66.35933 135
66.37944 94
66.39955 119
66.41967 128
66.43978 128
66.45989 124
66.48001 119
66.50012 125
66.52023 117
66.54035 112
66.56046 127
66.58058 136
66.60069 126
66.6208 128
66.64092 116
66.66103 118
66.68114 127
66.70126 115
66.72137 101
66.74149 128
66.7616 123
66.78171 126
66.80183 129
66.82194 135
66.84205 132
66.86217 146
66.88228 140
66.90239 132
66.92251 152
66.94262 129
66.96274 150
66.98285 164
67.00296 148
67.02308 146
67.04319 129
67.0633 141
67.08342 132
67.10353 133
67.12365 165
67.14376 123
67.16387 165
67.18399 170
67.2041 150
67.22421 143
67.24433 155
67.26444 170
67.28456 169
67.30467 189
67.32478 182
67.3449 193
67.36501 239
67.38512 195
67.40524 224
67.42535 240
67.44546 273
67.46558 284
67.48569 333
67.50581 365
67.52592 385
67.54603 510
67.56615 561
67.58626 647
67.60637 715
67.62649 863
67.6466 989
67.66672 1213
67.68683 1263
67.70694 1398
67.72706 1364
67.74717 1223
67.76728 1120
67.7874 912
67.80751 787
67.82763 873
67.84774 835
67.86785 913
67.88797 1020
67.90808 993
67.92819 965
67.94831 967
67.96842 1007
67.98853 989
68.00865 1070
68.02876 1216
68.04888 1324
68.06899 1561
68.0891 1736
68.10922 1750
68.12933 1811
68.14944 1805
68.16956 1611
68.18967 1489
68.20979 1439
68.2299 1453
68.25001 1624
68.27013 1651
68.29024 1645
68.31035 1673
68.33047 1435
68.35058 1185
68.3707 1002
68.39081 808
68.41092 669
68.43104 681
68.45115 694
68.47126 599
68.49138 562
68.51149 538
68.5316 437
68.55172 349
68.57183 292
68.59195 251
68.61206 208
68.63217 202
68.65229 182
68.6724 187
68.69251 187
68.71263 169
68.73274 140
68.75286 164
68.77297 167
68.79308 163
68.8132 143
68.83331 157
68.85342 126
68.87354 138
68.89365 151
68.91376 138
68.93388 159
68.95399 145
68.97411 133
68.99422 130
69.01433 143
69.03445 120
69.05456 163
69.07467 140
69.09479 126
69.1149 133
69.13502 132
69.15513 136
69.17524 135
69.19536 116
69.21547 130
69.23558 120
69.2557 118
69.27581 128
69.29593 142
69.31604 114
69.33615 126
69.35627 150
69.37638 116
69.39649 110
69.41661 125
69.43672 122
69.45683 125
69.47695 115
69.49706 128
69.51718 107
69.53729 106
69.5574 115
69.57752 128
69.59763 110
69.61774 132
69.63786 113
69.65797 138
69.67809 94
69.6982 126
69.71831 130
69.73843 114
69.75854 103
69.77865 113
69.79877 111
69.81888 111
69.839 112
69.85911 113
69.87922 127
69.89934 125
69.91945 90
69.93956 117
69.95968 113
69.97979 111
69.9999 125
70.02002 100
70.04013 107
70.06025 112
70.08036 120
70.10047 133
70.12059 145
70.1407 120
70.16081 114
70.18093 103
70.20104 120
70.22116 107
70.24127 116
70.26138 96
70.2815 115
70.30161 89
70.32172 109
70.34184 121
70.36195 103
70.38207 105
70.40218 114
70.42229 118
70.44241 108
70.46252 119
70.48263 116
70.50275 108
70.52286 126
70.54297 114
70.56309 122
70.5832 128
70.60332 123
70.62343 102
70.64354 100
70.66366 107
70.68377 113
70.70388 93
70.724 126
70.74411 117
70.76423 122
70.78434 107
70.80445 127
70.82457 118
70.84468 113
70.86479 120
70.88491 112
70.90502 130
70.92513 107
70.94525 121
70.96536 116
70.98548 102
71.00559 112
71.0257 125
71.04582 117
71.06593 111
71.08604 103
71.10616 110
71.12627 110
71.14639 121
71.1665 105
71.18661 123
71.20673 122
71.22684 102
71.24695 125
71.26707 148
71.28718 119
71.3073 108
71.32741 110
71.34752 103
71.36764 135
71.38775 99
71.40786 123
71.42798 128
71.44809 113
71.4682 118
71.48832 120
71.50843 104
71.52855 111
71.54866 111
71.56877 130
71.58889 113
71.609 122
71.62911 117
71.64923 124
71.66934 112
71.68946 122
71.70957 111
71.72968 93
71.7498 121
71.76991 116
71.79002 111
71.81014 114
71.83025 117
71.85037 117
71.87048 98
71.89059 115
71.91071 102
71.93082 109
71.95093 132
71.97105 103
71.99116 119
72.01127 113
72.03139 113
72.0515 110
72.07162 122
72.09173 134
72.11184 105
72.13196 110
72.15207 119
72.17218 107
72.1923 109
72.21241 115
72.23253 109
72.25264 122
72.27275 126
72.29287 112
72.31298 128
72.33309 116
72.35321 112
72.37332 115
72.39344 118
72.41355 93
72.43366 112
72.45378 116
72.47389 107
72.494 115
72.51412 107
72.53423 116
72.55434 118
72.57446 108
72.59457 86
72.61469 109
72.6348 101
72.65491 114
72.67503 107
72.69514 94
72.71525 118
72.73537 116
72.75548 127
72.7756 116
72.79571 112
72.81582 132
72.83594 123
72.85605 132
72.87616 118
72.89628 107
72.91639 126
72.9365 123
72.95662 123
72.97673 147
72.99685 129
73.01696 122
73.03707 155
73.05719 125
73.0773 147
73.09741 146
73.11753 152
73.13764 159
73.15776 148
73.17787 159
73.19798 182
73.2181 174
73.23821 216
73.25832 197
73.27844 241
73.29855 300
73.31867 302
73.33878 352
73.35889 406
73.37901 468
73.39912 526
73.41923 531
73.43935 561
73.45946 520
73.47957 498
73.49969 388
73.5198 331
73.53992 305
73.56003 290
73.58014 291
73.60026 300
73.62037 309
73.64048 343
73.6606 328
73.68071 333
73.70083 280
73.72094 211
73.74105 167
73.76117 156
73.78128 136
73.80139 132
73.82151 151
73.84162 136
73.86174 125
73.88185 138
73.90196 122
73.92208 135
73.94219 118
73.9623 112
73.98242 135
74.00253 110
74.02264 118
74.04276 111
74.06287 101
74.08299 101
74.1031 97
74.12321 137
74.14333 120
74.16344 111
74.18355 129
74.20367 127
74.22378 112
74.2439 107
74.26401 122
74.28412 109
74.30424 112
74.32435 109
74.34446 112
74.36458 113
74.38469 96
74.40481 108
74.42492 113
74.44503 101
74.46515 109
74.48526 125
74.50537 122
74.52549 122
74.5456 113
74.56571 108
74.58583 121
74.60594 105
74.62606 115
74.64617 94
74.66628 118
74.6864 128
74.70651 104
74.72662 107
74.74674 111
74.76685 130
74.78697 113
74.80708 122
74.82719 139
74.84731 101
74.86742 130
74.88753 106
74.90765 128
74.92776 104
74.94787 114
74.96799 108
74.9881 130
75.00822 119
