3.00117 20780
3.02128 19953
3.0414 19504
3.06151 18629
3.08162 18392
3.10174 18063
3.12185 17364
3.14197 17360
3.16208 16254
3.18219 15849
3.20231 15489
3.22242 14785
3.24253 14760
3.26265 14099
3.28276 13923
3.30288 13278
3.32299 12728
3.3431 12572
3.36322 12007
3.38333 11827
3.40344 11508
3.42356 10852
3.44367 10849
3.46379 9975
3.4839 9932
3.50401 9534
3.52413 9123
3.54424 8909
3.56435 8585
3.58447 8423
3.60458 7880
3.62469 7576
3.64481 7365
3.66492 7032
3.68504 6942
3.70515 6683
3.72526 6118
3.74538 6027
3.76549 5564
3.7856 5418
3.80572 5638
3.82583 5106
3.84595 4963
3.86606 4606
3.88617 4625
3.90629 4250
3.9264 4009
3.94651 3891
3.96663 3719
3.98674 3670
4.00686 3665
4.02697 3281
4.04708 3279
4.0672 2906
4.08731 2992
4.10742 2843
4.12754 2766
4.14765 2513
4.16776 2382
4.18788 2338
4.20799 2359
4.22811 2106
4.24822 2111
4.26833 1962
4.28845 1955
4.30856 1967
4.32867 1780
4.34879 1792
4.3689 1705
4.38902 1753
4.40913 1679
4.42924 1495
4.44936 1563
4.46947 1442
4.48958 1534
4.5097 1484
4.52981 1384
4.54992 1406
4.57004 1450
4.59015 1296
4.61027 1304
4.63038 1180
4.65049 1205
4.67061 1159
4.69072 1161
4.71083 1137
4.73095 1138
4.75106 1128
4.77118 1050
4.79129 1084
4.8114 1094
4.83152 933
4.85163 966
4.87174 941
4.89186 959
4.91197 1034
4.93209 914
4.9522 858
4.97231 893
4.99243 876
5.01254 885
5.03265 818
5.05277 800
5.07288 772
5.09299 750
5.11311 744
5.13322 767
5.15334 648
5.17345 738
5.19356 697
5.21368 740
5.23379 603
5.2539 602
5.27402 645
5.29413 666
5.31425 607
5.33436 587
5.35447 590
5.37459 556
5.3947 600
5.41481 606
5.43493 595
5.45504 534
5.47516 554
5.49527 521
5.51538 549
5.5355 525
5.55561 488
5.57572 523
5.59584 499
5.61595 488
5.63606 463
5.65618 451
5.67629 501
5.69641 504
5.71652 431
5.73663 393
5.75675 467
5.77686 432
5.79697 441
5.81709 421
5.8372 418
5.85732 380
5.87743 442
5.89754 441
5.91766 416
5.93777 402
5.95788 427
5.978 409
5.99811 391
6.01823 387
6.03834 384
6.05845 391
6.07857 412
6.09868 382
6.11879 409
6.13891 381
6.15902 385
6.17913 409
6.19925 398
6.21936 355
6.23948 388
6.25959 395
6.2797 386
6.29982 365
6.31993 351
6.34004 366
6.36016 379
6.38027 371
6.40039 324
6.4205 364
6.44061 342
6.46073 316
6.48084 354
6.50095 347
6.52107 388
6.54118 317
6.56129 373
6.58141 351
6.60152 347
6.62164 353
6.64175 323
6.66186 323
6.68198 299
6.70209 346
6.7222 362
6.74232 335
6.76243 337
6.78255 367
6.80266 329
6.82277 309
6.84289 379
6.863 335
6.88311 327
6.90323 320
6.92334 324
6.94346 327
6.96357 326
6.98368 339
7.0038 335
7.02391 284
7.04402 328
7.06414 356
7.08425 283
7.10436 331
7.12448 296
7.14459 290
7.16471 346
7.18482 294
7.20493 343
7.22505 341
7.24516 315
7.26527 307
7.28539 344
7.3055 355
7.32562 314
7.34573 320
7.36584 336
7.38596 321
7.40607 346
7.42618 315
7.4463 316
7.46641 332
7.48653 306
7.50664 332
7.52675 348
7.54687 313
7.56698 336
7.58709 320
7.60721 319
7.62732 341
7.64743 324
7.66755 359
7.68766 335
7.70778 354
7.72789 333
7.748 370
7.76812 323
7.78823 337
7.80834 329
7.82846 308
7.84857 339
7.86869 286
7.8888 319
7.90891 341
7.92903 311
7.94914 326
7.96925 334
7.98937 346
8.00948 325
8.0296 320
8.04971 334
8.06982 303
8.08994 309
8.11005 295
8.13016 324
8.15028 325
8.17039 338
8.1905 332
8.21062 353
8.23073 358
8.25085 305
8.27096 321
8.29107 317
8.31119 307
8.3313 320
8.35141 307
8.37153 344
8.39164 345
8.41176 356
8.43187 338
8.45198 331
8.4721 332
8.49221 335
8.51232 305
8.53244 294
8.55255 302
8.57266 350
8.59278 312
8.61289 347
8.63301 323
8.65312 330
8.67323 334
8.69335 323
8.71346 319
8.73357 328
8.75369 332
8.7738 345
8.79392 324
8.81403 360
8.83414 337
8.85426 369
8.87437 350
8.89448 348
8.9146 324
8.93471 326
8.95483 328
8.97494 314
8.99505 317
9.01517 329
9.03528 286
9.05539 300
9.07551 340
9.09562 308
9.11573 318
9.13585 300
9.15596 280
9.17608 345
9.19619 327
9.2163 325
9.23642 326
9.25653 331
9.27664 337
9.29676 330
9.31687 304
9.33699 306
9.3571 315
9.37721 350
9.39733 319
9.41744 345
9.43755 315
9.45767 313
9.47778 291
9.4979 313
9.51801 309
9.53812 341
9.55824 337
9.57835 345
9.59846 317
9.61858 312
9.63869 292
9.6588 316
9.67892 301
9.69903 321
9.71915 290
9.73926 322
9.75937 310
9.77949 311
9.7996 295
9.81971 327
9.83983 341
9.85994 301
9.88006 331
9.90017 316
9.92028 320
9.9404 317
9.96051 333
9.98062 305
10.00074 302
10.02085 317
10.04097 301
10.06108 328
10.08119 298
10.10131 318
10.12142 342
10.14153 359
10.16165 304
10.18176 337
10.20187 294
10.22199 319
10.2421 328
10.26222 307
10.28233 306
10.30244 311
10.32256 341
10.34267 295
10.36278 284
10.3829 308
10.40301 345
10.42313 338
10.44324 303
10.46335 328
10.48347 349
10.50358 318
10.52369 315
10.54381 293
10.56392 337
10.58403 301
10.60415 379
10.62426 293
10.64438 310
10.66449 292
10.6846 283
10.70472 302
10.72483 313
10.74494 320
10.76506 337
10.78517 353
10.80529 349
10.8254 335
10.84551 314
10.86563 341
10.88574 319
10.90585 352
10.92597 313
10.94608 380
10.9662 335
10.98631 321
11.00642 317
11.02654 331
11.04665 325
11.06676 303
11.08688 293
11.10699 321
11.1271 345
11.14722 331
11.16733 331
11.18745 347
11.20756 336
11.22767 360
11.24779 357
11.2679 340
11.28801 324
11.30813 349
11.32824 336
11.34836 350
11.36847 338
11.38858 348
11.4087 343
11.42881 334
11.44892 349
11.46904 346
11.48915 379
11.50927 393
11.52938 327
11.54949 381
11.56961 352
11.58972 348
11.60983 300
11.62995 372
11.65006 360
11.67017 371
11.69029 395
11.7104 369
11.73052 390
11.75063 421
11.77074 408
11.79086 390
11.81097 441
11.83108 425
11.8512 439
11.87131 424
11.89143 470
11.91154 492
11.93165 464
11.95177 543
11.97188 512
11.99199 516
12.01211 595
12.03222 594
12.05234 629
12.07245 656
12.09256 679
12.11268 772
12.13279 841
12.1529 819
12.17302 881
12.19313 930
12.21324 985
12.23336 1061
12.25347 1058
12.27359 1096
12.2937 1060
12.31381 1085
12.33393 1087
12.35404 1025
12.37415 1046
12.39427 912
12.41438 824
12.4345 842
12.45461 826
12.47472 749
12.49484 694
12.51495 622
12.53506 586
12.55518 483
12.57529 535
12.5954 549
12.61552 504
12.63563 485
12.65575 455
12.67586 449
12.69597 424
12.71609 410
12.7362 398
12.75631 379
12.77643 364
12.79654 370
12.81666 342
12.83677 355
12.85688 325
12.877 356
12.89711 333
12.91722 340
12.93734 328
12.95745 331
12.97757 334
12.99768 316
13.01779 341
13.03791 319
13.05802 289
13.07813 288
13.09825 326
13.11836 327
13.13847 325
13.15859 335
13.1787 332
13.19882 299
13.21893 286
13.23904 316
13.25916 315
13.27927 288
13.29938 313
13.3195 316
13.33961 338
13.35973 301
13.37984 288
13.39995 289
13.42007 278
13.44018 263
13.46029 323
13.48041 320
13.50052 295
13.52064 277
13.54075 273
13.56086 298
13.58098 312
13.60109 288
13.6212 290
13.64132 288
13.66143 291
13.68154 297
13.70166 288
13.72177 298
13.74189 294
13.762 257
13.78211 275
13.80223 296
13.82234 277
13.84245 318
13.86257 294
13.88268 306
13.9028 277
13.92291 287
13.94302 303
13.96314 266
13.98325 292
14.00336 271
14.02348 271
14.04359 255
14.06371 248
14.08382 292
14.10393 276
14.12405 257
14.14416 269
14.16427 277
14.18439 278
14.2045 304
14.22461 269
14.24473 293
14.26484 280
14.28496 273
14.30507 278
14.32518 277
14.3453 271
14.36541 292
14.38552 276
14.40564 263
14.42575 284
14.44587 236
14.46598 269
14.48609 246
14.50621 277
14.52632 264
14.54643 234
14.56655 284
14.58666 270
14.60677 251
14.62689 258
14.647 280
14.66712 255
14.68723 289
14.70734 273
14.72746 270
14.74757 258
14.76768 287
14.7878 264
14.80791 262
14.82803 279
14.84814 291
14.86825 270
14.88837 242
14.90848 285
14.92859 273
14.94871 263
14.96882 260
14.98894 243
15.00905 267
15.02916 277
15.04928 292
15.06939 273
15.0895 286
15.10962 263
15.12973 266
15.14984 249
15.16996 263
15.19007 291
15.21019 305
15.2303 275
15.25041 244
15.27053 276
15.29064 236
15.31075 242
15.33087 260
15.35098 276
15.3711 254
15.39121 265
15.41132 254
15.43144 254
15.45155 264
15.47166 253
15.49178 274
15.51189 245
15.53201 245
15.55212 266
15.57223 230
15.59235 255
15.61246 263
15.63257 250
15.65269 254
15.6728 266
15.69291 243
15.71303 252
15.73314 257
15.75326 250
15.77337 280
15.79348 258
15.8136 245
15.83371 242
15.85382 277
15.87394 271
15.89405 258
15.91417 266
15.93428 267
15.95439 227
15.97451 262
15.99462 245
16.01473 257
16.03485 255
16.05496 238
16.07508 229
16.09519 265
16.1153 262
16.13542 256
16.15553 250
16.17564 269
16.19576 250
16.21587 224
16.23598 224
16.2561 255
16.27621 277
16.29633 279
16.31644 249
16.33655 260
16.35667 263
16.37678 239
16.39689 245
16.41701 234
16.43712 243
16.45724 273
16.47735 261
16.49746 243
16.51758 243
16.53769 247
16.5578 270
16.57792 259
16.59803 237
16.61814 270
16.63826 213
16.65837 254
16.67849 264
16.6986 258
16.71871 268
16.73883 247
16.75894 252
16.77905 277
16.79917 270
16.81928 271
16.8394 250
16.85951 241
16.87962 243
16.89974 273
16.91985 271
16.93996 268
16.96008 263
16.98019 287
17.00031 268
17.02042 263
17.04053 259
17.06065 294
17.08076 263
17.10087 257
17.12099 269
17.1411 273
17.16121 237
17.18133 267
17.20144 234
17.22156 259
17.24167 256
17.26178 253
17.2819 238
17.30201 265
17.32212 240
17.34224 247
17.36235 257
17.38247 279
17.40258 239
17.42269 275
17.44281 265
17.46292 291
17.48303 279
17.50315 253
17.52326 282
17.54338 265
17.56349 293
17.5836 271
17.60372 281
17.62383 250
17.64394 274
17.66406 280
17.68417 255
17.70428 291
17.7244 326
17.74451 283
17.76463 287
17.78474 283
17.80485 316
17.82497 286
17.84508 308
17.86519 261
17.88531 263
17.90542 252
17.92554 261
17.94565 270
17.96576 286
17.98588 284
18.00599 271
18.0261 297
18.04622 264
18.06633 243
18.08645 270
18.10656 302
18.12667 245
18.14679 245
18.1669 254
18.18701 274
18.20713 307
18.22724 322
18.24735 322
18.26747 278
18.28758 294
18.3077 280
18.32781 264
18.34792 285
18.36804 278
18.38815 295
18.40826 267
18.42838 247
18.44849 251
18.46861 236
18.48872 275
18.50883 273
18.52895 276
18.54906 280
18.56917 246
18.58929 267
18.6094 288
18.62951 291
18.64963 259
18.66974 268
18.68986 249
18.70997 262
18.73008 271
18.7502 267
18.77031 309
18.79042 329
18.81054 265
18.83065 254
18.85077 245
18.87088 264
18.89099 245
18.91111 268
18.93122 245
18.95133 273
18.97145 277
18.99156 289
19.01168 255
19.03179 238
19.0519 295
19.07202 237
19.09213 263
19.11224 268
19.13236 271
19.15247 285
19.17258 250
19.1927 286
19.21281 307
19.23293 289
19.25304 246
19.27315 262
19.29327 302
19.31338 316
19.33349 291
19.35361 275
19.37372 290
19.39384 293
19.41395 311
19.43406 318
19.45418 319
19.47429 304
19.4944 352
19.51452 333
19.53463 380
19.55475 362
19.57486 393
19.59497 380
19.61509 404
19.6352 471
19.65531 511
19.67543 536
19.69554 587
19.71565 646
19.73577 661
19.75588 678
19.776 738
19.79611 751
19.81622 802
19.83634 881
19.85645 816
19.87656 780
19.89668 783
19.91679 802
19.93691 818
19.95702 772
19.97713 734
19.99725 717
20.01736 729
20.03747 718
20.05759 687
20.0777 688
20.09782 654
20.11793 685
20.13804 640
20.15816 695
20.17827 683
20.19838 729
20.2185 704
20.23861 682
20.25872 691
20.27884 738
20.29895 714
20.31907 760
20.33918 717
20.35929 713
20.37941 766
20.39952 802
20.41963 746
20.43975 760
20.45986 735
20.47998 778
20.50009 800
20.5202 777
20.54032 841
20.56043 899
20.58054 921
20.60066 975
20.62077 1153
20.64088 1217
20.661 1517
20.68111 1749
20.70123 2112
20.72134 2648
20.74145 3165
20.76157 3821
20.78168 4117
20.80179 4383
20.82191 4364
20.84202 3809
20.86214 3342
20.88225 2666
20.90236 2056
20.92248 1574
20.94259 1219
20.9627 1035
20.98282 878
21.00293 830
21.02305 776
21.04316 748
21.06327 730
21.08339 782
21.1035 770
21.12361 719
21.14373 726
21.16384 675
21.18395 706
21.20407 740
21.22418 756
21.2443 720
21.26441 703
21.28452 633
21.30464 806
21.32475 742
21.34486 740
21.36498 673
21.38509 732
21.40521 721
21.42532 717
21.44543 653
21.46555 620
21.48566 644
21.50577 654
21.52589 672
21.546 637
21.56612 630
21.58623 625
21.60634 609
21.62646 593
21.64657 612
21.66668 572
21.6868 582
21.70691 558
21.72702 556
21.74714 557
21.76725 549
21.78737 508
21.80748 551
21.82759 505
21.84771 571
21.86782 518
21.88793 557
21.90805 494
21.92816 521
21.94828 522
21.96839 510
21.9885 509
22.00862 471
22.02873 471
22.04884 484
22.06896 486
22.08907 474
22.10919 466
22.1293 507
22.14941 476
22.16953 472
22.18964 475
22.20975 452
22.22987 473
22.24998 468
22.27009 453
22.29021 470
22.31032 454
22.33044 471
22.35055 490
22.37066 450
22.39078 454
22.41089 452
22.431 455
22.45112 446
22.47123 444
22.49135 452
22.51146 480
22.53157 441
22.55169 430
22.5718 424
22.59191 418
22.61203 422
22.63214 439
22.65225 411
22.67237 456
22.69248 438
22.7126 412
22.73271 420
22.75282 433
22.77294 409
22.79305 465
22.81316 436
22.83328 459
22.85339 426
22.87351 435
22.89362 417
22.91373 427
22.93385 373
22.95396 419
22.97407 426
22.99419 373
23.0143 406
23.03442 429
23.05453 410
23.07464 402
23.09476 403
23.11487 380
23.13498 390
23.1551 397
23.17521 432
23.19532 379
23.21544 374
23.23555 370
23.25567 395
23.27578 419
23.29589 377
23.31601 395
23.33612 401
23.35623 379
23.37635 367
23.39646 417
23.41658 393
23.43669 389
23.4568 349
23.47692 386
23.49703 377
23.51714 395
23.53726 367
23.55737 384
23.57749 393
23.5976 409
23.61771 417
23.63783 391
23.65794 384
23.67805 411
23.69817 426
23.71828 415
23.73839 370
23.75851 414
23.77862 432
23.79874 406
23.81885 415
23.83896 432
23.85908 392
23.87919 478
23.8993 442
23.91942 430
23.93953 451
23.95965 427
23.97976 445
23.99987 431
24.01999 432
24.0401 425
24.06021 404
24.08033 409
24.10044 425
24.12056 406
24.14067 429
24.16078 409
24.1809 445
24.20101 380
24.22112 460
24.24124 472
24.26135 441
24.28146 452
24.30158 463
24.32169 454
24.34181 475
24.36192 478
24.38203 488
24.40215 503
24.42226 496
24.44237 532
24.46249 498
24.4826 467
24.50272 526
24.52283 617
24.54294 588
24.56306 546
24.58317 657
24.60328 650
24.6234 646
24.64351 728
24.66362 751
24.68374 762
24.70385 770
24.72397 820
24.74408 824
24.76419 810
24.78431 857
24.80442 917
24.82453 907
24.84465 868
24.86476 885
24.88488 838
24.90499 845
24.9251 842
24.94522 730
24.96533 763
24.98544 714
25.00556 694
25.02567 685
25.04579 638
25.0659 618
25.08601 600
25.10613 614
25.12624 585
25.14635 534
25.16647 529
25.18658 606
25.20669 584
25.22681 515
25.24692 595
25.26704 544
25.28715 539
25.30726 547
25.32738 487
25.34749 500
25.3676 469
25.38772 471
25.40783 479
25.42795 471
25.44806 470
25.46817 458
25.48829 428
25.5084 428
25.52851 437
25.54863 445
25.56874 440
25.58886 469
25.60897 470
25.62908 477
25.6492 491
25.66931 528
25.68942 496
25.70954 491
25.72965 492
25.74976 505
25.76988 544
25.78999 482
25.81011 506
25.83022 552
25.85033 512
25.87045 516
25.89056 568
25.91067 500
25.93079 520
25.9509 530
25.97102 562
25.99113 603
26.01124 650
26.03136 626
26.05147 646
26.07158 584
26.0917 661
26.11181 706
26.13193 717
26.15204 786
26.17215 809
26.19227 865
26.21238 918
26.23249 987
26.25261 1091
26.27272 1113
26.29283 1268
26.31295 1466
26.33306 1691
26.35318 2099
26.37329 2450
26.3934 3131
26.41352 4012
26.43363 5069
26.45374 6492
26.47386 8422
26.49397 10875
26.51409 13303
26.5342 15381
26.55431 17385
26.57443 18068
26.59454 17230
26.61465 15685
26.63477 13533
26.65488 11304
26.67499 8180
26.69511 5775
26.71522 4115
26.73534 2790
26.75545 2002
26.77556 1551
26.79568 1257
26.81579 1087
26.8359 977
26.85602 909
26.87613 832
26.89625 780
26.91636 726
26.93647 697
26.95659 651
26.9767 567
26.99681 582
27.01693 528
27.03704 569
27.05716 536
27.07727 507
27.09738 485
27.1175 506
27.13761 499
27.15772 451
27.17784 495
27.19795 439
27.21806 427
27.23818 417
27.25829 432
27.27841 428
27.29852 437
27.31863 451
27.33875 382
27.35886 409
27.37897 442
27.39909 422
27.4192 439
27.43932 430
27.45943 397
27.47954 443
27.49966 437
27.51977 411
27.53988 407
27.56 405
27.58011 416
27.60023 422
27.62034 366
27.64045 377
27.66057 416
27.68068 403
27.70079 398
27.72091 420
27.74102 396
27.76113 393
27.78125 373
27.80136 391
27.82148 395
27.84159 399
27.8617 367
27.88182 379
27.90193 374
27.92204 357
27.94216 358
27.96227 350
27.98239 369
28.0025 356
28.02261 368
28.04273 345
28.06284 353
28.08295 318
28.10307 350
28.12318 313
28.1433 332
28.16341 349
28.18352 334
28.20364 354
28.22375 304
28.24386 349
28.26398 348
28.28409 366
28.3042 370
28.32432 345
28.34443 361
28.36455 367
28.38466 383
28.40477 341
28.42489 331
28.445 341
28.46511 324
28.48523 338
28.50534 341
28.52546 347
28.54557 364
28.56568 333
28.5858 354
28.60591 354
28.62602 314
28.64614 353
28.66625 354
28.68636 345
28.70648 330
28.72659 327
28.74671 304
28.76682 342
28.78693 339
28.80705 327
28.82716 339
28.84727 323
28.86739 356
28.8875 346
28.90762 282
28.92773 331
28.94784 335
28.96796 358
28.98807 347
29.00818 320
29.0283 300
29.04841 301
29.06853 302
29.08864 305
29.10875 332
29.12887 318
29.14898 357
29.16909 313
29.18921 349
29.20932 307
29.22943 337
29.24955 306
29.26966 330
29.28978 303
29.30989 341
29.33 314
29.35012 328
29.37023 319
29.39034 311
29.41046 299
29.43057 288
29.45069 354
29.4708 250
29.49091 297
29.51103 269
29.53114 300
29.55125 338
29.57137 356
29.59148 347
29.6116 314
29.63171 318
29.65182 312
29.67194 327
29.69205 287
29.71216 294
29.73228 336
29.75239 359
29.7725 319
29.79262 321
29.81273 294
29.83285 307
29.85296 317
29.87307 322
29.89319 326
29.9133 315
29.93341 318
29.95353 310
29.97364 289
29.99376 326
30.01387 293
30.03398 310
30.0541 303
30.07421 310
30.09432 307
30.11444 282
30.13455 308
30.15467 271
30.17478 323
30.19489 300
30.21501 302
30.23512 307
30.25523 301
30.27535 305
30.29546 277
30.31557 295
30.33569 314
30.3558 322
30.37592 337
30.39603 281
30.41614 284
30.43626 322
30.45637 312
30.47648 308
30.4966 316
30.51671 310
30.53683 304
30.55694 277
30.57705 308
30.59717 299
30.61728 298
30.63739 323
30.65751 306
30.67762 282
30.69773 296
30.71785 277
30.73796 270
30.75808 298
30.77819 298
30.7983 269
30.81842 300
30.83853 259
30.85864 290
30.87876 292
30.89887 269
30.91899 325
30.9391 306
30.95921 294
30.97933 276
30.99944 283
31.01955 265
31.03967 316
31.05978 303
31.0799 335
31.10001 276
31.12012 330
31.14024 286
31.16035 314
31.18046 323
31.20058 291
31.22069 280
31.2408 267
31.26092 264
31.28103 297
31.30115 308
31.32126 292
31.34137 300
31.36149 279
31.3816 279
31.40171 291
31.42183 310
31.44194 309
31.46206 281
31.48217 302
31.50228 271
31.5224 289
31.54251 282
31.56262 299
31.58274 287
31.60285 291
31.62297 283
31.64308 294
31.66319 310
31.68331 286
31.70342 299
31.72353 272
31.74365 273
31.76376 267
31.78387 266
31.80399 278
31.8241 287
31.84422 254
31.86433 279
31.88444 302
31.90456 282
31.92467 298
31.94478 311
31.9649 312
31.98501 268
32.00513 322
32.02524 262
32.04535 278
32.06547 303
32.08558 286
32.10569 318
32.12581 285
32.14592 281
32.16604 269
32.18615 279
32.20626 278
32.22638 308
32.24649 300
32.2666 298
32.28672 247
32.30683 293
32.32694 273
32.34706 271
32.36717 289
32.38729 288
32.4074 273
32.42751 289
32.44763 270
32.46774 307
32.48785 301
32.50797 289
32.52808 322
32.5482 311
32.56831 303
32.58842 287
32.60854 280
32.62865 262
32.64876 293
32.66888 284
32.68899 298
32.7091 292
32.72922 323
32.74933 298
32.76945 316
32.78956 308
32.80967 320
32.82979 307
32.8499 301
32.87001 290
32.89013 298
32.91024 288
32.93036 320
32.95047 327
32.97058 341
32.9907 284
33.01081 300
33.03092 303
33.05104 291
33.07115 325
33.09127 306
33.11138 323
33.13149 291
33.15161 310
33.17172 325
33.19183 346
33.21195 308
33.23206 341
33.25217 325
33.27229 310
33.2924 306
33.31252 343
33.33263 335
33.35274 336
33.37286 294
33.39297 339
33.41308 317
33.4332 334
33.45331 297
33.47343 339
33.49354 305
33.51365 354
33.53377 332
33.55388 328
33.57399 316
33.59411 299
33.61422 338
33.63434 282
33.65445 297
33.67456 319
33.69468 280
33.71479 342
33.7349 282
33.75502 323
33.77513 314
33.79524 330
33.81536 296
33.83547 296
33.85559 273
33.8757 334
33.89581 329
33.91593 314
33.93604 279
33.95615 310
33.97627 307
33.99638 295
34.0165 319
34.03661 308
34.05672 273
34.07684 280
34.09695 296
34.11706 308
34.13718 244
34.15729 271
34.17741 298
34.19752 269
34.21763 297
34.23775 257
34.25786 317
34.27797 306
34.29809 312
34.3182 317
34.33831 317
34.35843 318
34.37854 308
34.39866 333
34.41877 330
34.43888 333
34.459 334
34.47911 328
34.49922 371
34.51934 339
34.53945 364
34.55957 361
34.57968 406
34.59979 371
34.61991 410
34.64002 408
34.66013 402
34.68025 411
34.70036 440
34.72047 436
34.74059 504
34.7607 501
34.78082 560
34.80093 572
34.82104 582
34.84116 617
34.86127 596
34.88138 567
34.9015 585
34.92161 636
34.94173 609
34.96184 552
34.98195 577
35.00207 561
35.02218 556
35.04229 548
35.06241 534
35.08252 513
35.10264 487
35.12275 477
35.14286 531
35.16298 475
35.18309 477
35.2032 456
35.22332 475
35.24343 446
35.26354 504
35.28366 486
35.30377 528
35.32389 459
35.344 497
35.36411 504
35.38423 503
35.40434 494
35.42445 534
35.44457 519
35.46468 469
35.4848 442
35.50491 519
35.52502 481
35.54514 495
35.56525 439
35.58536 490
35.60548 479
35.62559 506
35.64571 477
35.66582 461
35.68593 515
35.70605 508
35.72616 528
35.74627 519
35.76639 547
35.7865 531
35.80661 523
35.82673 554
35.84684 529
35.86696 607
35.88707 591
35.90718 557
35.9273 619
35.94741 625
35.96752 519
35.98764 476
36.00775 492
36.02787 505
36.04798 456
36.06809 444
36.08821 492
36.10832 451
36.12843 468
36.14855 430
36.16866 488
36.18878 417
36.20889 529
36.229 498
36.24912 537
36.26923 614
36.28934 596
36.30946 699
36.32957 750
36.34968 823
36.3698 992
36.38991 1116
36.41003 1249
36.43014 1341
36.45025 1521
36.47037 1454
36.49048 1501
36.51059 1326
36.53071 1307
36.55082 1122
36.57094 1027
36.59105 868
36.61116 741
36.63128 633
36.65139 585
36.6715 517
36.69162 461
36.71173 475
36.73184 432
36.75196 372
36.77207 410
36.79219 425
36.8123 468
36.83241 432
36.85253 404
36.87264 418
36.89275 432
36.91287 410
36.93298 404
36.9531 442
36.97321 414
36.99332 424
37.01344 374
37.03355 413
37.05366 397
37.07378 441
37.09389 441
37.11401 377
37.13412 414
37.15423 389
37.17435 416
37.19446 417
37.21457 413
37.23469 410
37.2548 410
37.27491 370
37.29503 372
37.31514 366
37.33526 412
37.35537 398
37.37548 401
37.3956 406
37.41571 391
37.43582 401
37.45594 412
37.47605 412
37.49617 408
37.51628 444
37.53639 453
37.55651 432
37.57662 418
37.59673 410
37.61685 465
37.63696 448
37.65708 428
37.67719 451
37.6973 466
37.71742 436
37.73753 441
37.75764 435
37.77776 369
37.79787 444
37.81798 415
37.8381 426
37.85821 387
37.87833 454
37.89844 448
37.91855 396
37.93867 430
37.95878 399
37.97889 440
37.99901 412
38.01912 461
38.03924 460
38.05935 475
38.07946 522
38.09958 465
38.11969 516
38.1398 537
38.15992 528
38.18003 534
38.20015 530
38.22026 595
38.24037 597
38.26049 560
38.2806 614
38.30071 632
38.32083 635
38.34094 634
38.36105 650
38.38117 638
38.40128 630
38.4214 641
38.44151 653
38.46162 631
38.48174 543
38.50185 561
38.52196 555
38.54208 511
38.56219 461
38.58231 504
38.60242 464
38.62253 471
38.64265 423
38.66276 463
38.68287 451
38.70299 422
38.7231 474
38.74321 417
38.76333 466
38.78344 401
38.80356 395
38.82367 433
38.84378 417
38.8639 441
38.88401 427
38.90412 448
38.92424 437
38.94435 454
38.96447 458
38.98458 463
39.00469 480
39.02481 508
39.04492 488
39.06503 522
39.08515 520
39.10526 565
39.12538 545
39.14549 520
39.1656 589
39.18572 647
39.20583 638
39.22594 706
39.24606 759
39.26617 884
39.28628 1028
39.3064 1111
39.32651 1208
39.34663 1323
39.36674 1359
39.38685 1503
39.40697 1456
39.42708 1365
39.44719 1230
39.46731 1111
39.48742 961
39.50754 920
39.52765 700
39.54776 666
39.56788 542
39.58799 493
39.6081 450
39.62822 402
39.64833 392
39.66845 382
39.68856 345
39.70867 352
39.72879 371
39.7489 321
39.76901 322
39.78913 392
39.80924 337
39.82935 316
39.84947 326
39.86958 377
39.8897 342
39.90981 356
39.92992 343
39.95004 391
39.97015 429
39.99026 392
40.01038 428
40.03049 488
40.05061 478
40.07072 506
40.09083 519
40.11095 636
40.13106 668
40.15117 758
40.17129 736
40.1914 785
40.21152 817
40.23163 811
40.25174 832
40.27186 738
40.29197 745
40.31208 654
40.3322 574
40.35231 504
40.37242 471
40.39254 423
40.41265 390
40.43277 392
40.45288 347
40.47299 370
40.49311 344
40.51322 369
40.53333 390
40.55345 318
40.57356 306
40.59368 316
40.61379 342
40.6339 344
40.65402 354
40.67413 326
40.69424 350
40.71436 340
40.73447 327
40.75458 339
40.7747 367
40.79481 317
40.81493 369
40.83504 340
40.85515 357
40.87527 300
40.89538 322
40.91549 328
40.93561 365
40.95572 319
40.97584 357
40.99595 358
41.01606 357
41.03618 333
41.05629 317
41.0764 328
41.09652 348
41.11663 326
41.13675 337
41.15686 335
41.17697 320
41.19709 341
41.2172 317
41.23731 318
41.25743 361
41.27754 307
41.29765 322
41.31777 299
41.33788 315
41.358 287
41.37811 329
41.39822 348
41.41834 304
41.43845 311
41.45856 333
41.47868 328
41.49879 303
41.51891 319
41.53902 274
41.55913 311
41.57925 330
41.59936 295
41.61947 310
41.63959 317
41.6597 288
41.67982 317
41.69993 331
41.72004 325
41.74016 312
41.76027 330
41.78038 282
41.8005 315
41.82061 278
41.84072 320
41.86084 314
41.88095 326
41.90107 330
41.92118 341
41.94129 315
41.96141 329
41.98152 320
42.00163 331
42.02175 352
42.04186 357
42.06198 342
42.08209 365
42.1022 339
42.12232 403
42.14243 438
42.16254 434
42.18266 409
42.20277 461
42.22289 509
42.243 594
42.26311 678
42.28323 731
42.30334 845
42.32345 897
42.34357 977
42.36368 1049
42.38379 1035
42.40391 1005
42.42402 922
42.44414 845
42.46425 687
42.48436 704
42.50448 572
42.52459 536
42.5447 457
42.56482 430
42.58493 344
42.60505 349
42.62516 307
42.64527 269
42.66539 313
42.6855 305
42.70561 265
42.72573 306
42.74584 315
42.76595 297
42.78607 287
42.80618 266
42.8263 261
42.84641 265
42.86652 268
42.88664 260
42.90675 266
42.92686 252
42.94698 280
42.96709 255
42.98721 260
43.00732 270
43.02743 278
43.04755 266
43.06766 256
43.08777 253
43.10789 286
43.128 276
43.14812 239
43.16823 263
43.18834 248
43.20846 257
43.22857 282
43.24868 266
43.2688 283
43.28891 250
43.30902 248
43.32914 245
43.34925 249
43.36937 231
43.38948 283
43.40959 281
43.42971 253
43.44982 275
43.46993 262
43.49005 258
43.51016 241
43.53028 264
43.55039 286
43.5705 267
43.59062 267
43.61073 265
43.63084 252
43.65096 277
43.67107 287
43.69119 271
43.7113 262
43.73141 274
43.75153 240
43.77164 277
43.79175 244
43.81187 272
43.83198 246
43.85209 261
43.87221 235
43.89232 270
43.91244 256
43.93255 248
43.95266 266
43.97278 286
43.99289 264
44.013 269
44.03312 239
44.05323 283
44.07335 260
44.09346 231
44.11357 270
44.13369 246
44.1538 267
44.17391 263
44.19403 258
44.21414 286
44.23426 278
44.25437 248
44.27448 256
44.2946 264
44.31471 248
44.33482 266
44.35494 272
44.37505 262
44.39516 251
44.41528 284
44.43539 248
44.45551 258
44.47562 257
44.49573 263
44.51585 244
44.53596 265
44.55607 328
44.57619 255
44.5963 276
44.61642 301
44.63653 260
44.65664 253
44.67676 263
44.69687 279
44.71698 259
44.7371 304
44.75721 300
44.77732 253
44.79744 289
44.81755 268
44.83767 270
44.85778 290
44.87789 247
44.89801 300
44.91812 316
44.93823 305
44.95835 285
44.97846 289
44.99858 268
45.01869 352
45.0388 310
45.05892 321
45.07903 262
45.09914 313
45.11926 320
45.13937 328
45.15949 331
45.1796 324
45.19971 372
45.21983 339
45.23994 354
45.26005 392
45.28017 371
45.30028 390
45.32039 340
45.34051 366
45.36062 415
45.38074 398
45.40085 386
45.42096 362
45.44108 403
45.46119 371
45.4813 425
45.50142 470
45.52153 454
45.54165 455
45.56176 484
45.58187 567
45.60199 568
45.6221 620
45.64221 730
45.66233 746
45.68244 745
45.70256 771
45.72267 802
45.74278 758
45.7629 702
45.78301 654
45.80312 617
45.82324 560
45.84335 573
45.86346 495
45.88358 482
45.90369 408
45.92381 366
45.94392 342
45.96403 322
45.98415 301
46.00426 314
46.02437 293
46.04449 297
46.0646 285
46.08472 296
46.10483 290
46.12494 323
46.14506 289
46.16517 303
46.18528 284
46.2054 275
46.22551 310
46.24563 262
46.26574 269
46.28585 321
46.30597 287
46.32608 276
46.34619 275
46.36631 292
46.38642 275
46.40653 281
46.42665 290
46.44676 305
46.46688 308
46.48699 302
46.5071 291
46.52722 298
46.54733 274
46.56744 298
46.58756 304
46.60767 293
46.62779 262
46.6479 306
46.66801 296
46.68813 294
46.70824 261
46.72835 283
46.74847 292
46.76858 291
46.78869 278
46.80881 322
46.82892 313
46.84904 255
46.86915 273
46.88926 267
46.90938 277
46.92949 273
46.9496 277
46.96972 322
46.98983 278
47.00995 319
47.03006 259
47.05017 251
47.07029 248
47.0904 262
47.11051 288
47.13063 283
47.15074 288
47.17086 253
47.19097 279
47.21108 299
47.2312 276
47.25131 266
47.27142 291
47.29154 275
47.31165 263
47.33176 278
47.35188 268
47.37199 289
47.39211 289
47.41222 267
47.43233 294
47.45245 290
47.47256 285
47.49267 295
47.51279 291
47.5329 283
47.55302 262
47.57313 293
47.59324 287
47.61336 283
47.63347 277
47.65358 295
47.6737 286
47.69381 266
47.71393 267
47.73404 272
47.75415 296
47.77427 301
47.79438 291
47.81449 307
47.83461 328
47.85472 299
47.87483 290
47.89495 291
47.91506 323
47.93518 281
47.95529 289
47.9754 285
47.99552 266
48.01563 253
48.03574 299
48.05586 302
48.07597 296
48.09609 262
48.1162 310
48.13631 268
48.15643 293
48.17654 263
48.19665 295
48.21677 274
48.23688 287
48.257 299
48.27711 289
48.29722 271
48.31734 290
48.33745 259
48.35756 268
48.37768 302
48.39779 266
48.4179 259
48.43802 297
48.45813 240
48.47825 253
48.49836 267
48.51847 273
48.53859 279
48.5587 286
48.57881 297
48.59893 268
48.61904 284
48.63916 310
48.65927 289
48.67938 282
48.6995 256
48.71961 249
48.73972 273
48.75984 270
48.77995 266
48.80006 282
48.82018 316
48.84029 324
48.86041 276
48.88052 259
48.90063 293
48.92075 262
48.94086 282
48.96097 291
48.98109 276
49.0012 278
49.02132 279
49.04143 302
49.06154 311
49.08166 285
49.10177 293
49.12188 315
49.142 278
49.16211 269
49.18223 283
49.20234 270
49.22245 290
49.24257 301
49.26268 293
49.28279 288
49.30291 280
49.32302 283
49.34313 291
49.36325 325
49.38336 318
49.40348 313
49.42359 316
49.4437 311
49.46382 315
49.48393 320
49.50404 310
49.52416 288
49.54427 319
49.56439 329
49.5845 317
49.60461 313
49.62473 312
49.64484 351
49.66495 327
49.68507 373
49.70518 407
49.7253 381
49.74541 441
49.76552 452
49.78564 491
49.80575 528
49.82586 577
49.84598 655
49.86609 689
49.8862 765
49.90632 925
49.92643 1002
49.94655 1208
49.96666 1390
49.98677 1622
50.00689 1781
50.027 1972
50.04711 2141
50.06723 2021
50.08734 1930
50.10746 1792
50.12757 1521
50.14768 1486
50.1678 1254
50.18791 1197
50.20802 1075
50.22814 992
50.24825 764
50.26837 642
50.28848 517
50.30859 416
50.32871 414
50.34882 362
50.36893 382
50.38905 329
50.40916 336
50.42927 318
50.44939 317
50.4695 326
50.48962 335
50.50973 330
50.52984 331
50.54996 327
50.57007 315
50.59018 311
50.6103 311
50.63041 321
50.65053 323
50.67064 325
50.69075 276
50.71087 290
50.73098 303
50.75109 304
50.77121 297
50.79132 270
50.81143 283
50.83155 266
50.85166 298
50.87178 286
50.89189 256
50.912 272
50.93212 295
50.95223 281
50.97234 303
50.99246 295
51.01257 272
51.03269 267
51.0528 303
51.07291 313
51.09303 291
51.11314 263
51.13325 247
51.15337 243
51.17348 271
51.1936 294
51.21371 267
51.23382 242
51.25394 258
51.27405 266
51.29416 262
51.31428 279
51.33439 221
51.3545 253
51.37462 292
51.39473 262
51.41485 287
51.43496 265
51.45507 260
51.47519 267
51.4953 261
51.51541 242
51.53553 258
51.55564 257
51.57576 252
51.59587 238
51.61598 231
51.6361 237
51.65621 262
51.67632 273
51.69644 267
51.71655 257
51.73667 237
51.75678 259
51.77689 251
51.79701 252
51.81712 240
51.83723 234
51.85735 234
51.87746 234
51.89757 247
51.91769 255
51.9378 269
51.95792 232
51.97803 248
51.99814 247
52.01826 218
52.03837 255
52.05848 252
52.0786 227
52.09871 254
52.11883 260
52.13894 286
52.15905 207
52.17917 243
52.19928 243
52.21939 234
52.23951 272
52.25962 240
52.27974 241
52.29985 264
52.31996 264
52.34008 247
52.36019 239
52.3803 243
52.40042 255
52.42053 259
52.44064 254
52.46076 277
52.48087 248
52.50099 250
52.5211 220
52.54121 222
52.56133 259
52.58144 224
52.60155 277
52.62167 239
52.64178 255
52.6619 277
52.68201 256
52.70212 264
52.72224 262
52.74235 241
52.76246 243
52.78258 253
52.80269 240
52.8228 250
52.84292 252
52.86303 239
52.88315 247
52.90326 259
52.92337 247
52.94349 241
52.9636 254
52.98371 258
53.00383 258
53.02394 249
53.04406 273
53.06417 255
53.08428 286
53.1044 242
53.12451 251
53.14462 261
53.16474 282
53.18485 280
53.20497 270
53.22508 248
53.24519 299
53.26531 256
53.28542 266
53.30553 258
53.32565 274
53.34576 265
53.36587 289
53.38599 276
53.4061 279
53.42622 298
53.44633 296
53.46644 265
53.48656 283
53.50667 298
53.52678 296
53.5469 288
53.56701 328
53.58713 308
53.60724 319
53.62735 315
53.64747 319
53.66758 311
53.68769 314
53.70781 332
53.72792 313
53.74804 289
53.76815 291
53.78826 312
53.80838 305
53.82849 286
53.8486 358
53.86872 311
53.88883 369
53.90894 325
53.92906 336
53.94917 357
53.96929 296
53.9894 343
54.00951 329
54.02963 330
54.04974 343
54.06985 346
54.08997 367
54.11008 385
54.1302 368
54.15031 392
54.17042 341
54.19054 389
54.21065 361
54.23076 370
54.25088 367
54.27099 354
54.29111 381
54.31122 362
54.33133 326
54.35145 353
54.37156 370
54.39167 366
54.41179 392
54.4319 390
54.45201 392
54.47213 433
54.49224 401
54.51236 439
54.53247 415
54.55258 431
54.5727 481
54.59281 509
54.61292 534
54.63304 552
54.65315 534
54.67327 675
54.69338 704
54.71349 727
54.73361 805
54.75372 805
54.77383 878
54.79395 840
54.81406 819
54.83417 786
54.85429 687
54.8744 731
54.89452 731
54.91463 670
54.93474 673
54.95486 642
54.97497 613
54.99508 593
55.0152 539
55.03531 511
55.05543 516
55.07554 522
55.09565 566
55.11577 554
55.13588 513
55.15599 546
55.17611 588
55.19622 589
55.21634 604
55.23645 615
55.25656 593
55.27668 572
55.29679 536
55.3169 501
55.33702 489
55.35713 492
55.37724 450
55.39736 452
55.41747 401
55.43759 423
55.4577 424
55.47781 401
55.49793 424
55.51804 379
55.53815 344
55.55827 348
55.57838 336
55.5985 364
55.61861 347
55.63872 337
55.65884 339
55.67895 315
55.69906 348
55.71918 336
55.73929 300
55.75941 315
55.77952 323
55.79963 317
55.81975 303
55.83986 303
55.85997 315
55.88009 310
55.9002 318
55.92031 324
55.94043 319
55.96054 317
55.98066 330
56.00077 301
56.02088 304
56.041 312
56.06111 324
56.08122 287
56.10134 327
56.12145 297
56.14157 319
56.16168 299
56.18179 285
56.20191 289
56.22202 292
56.24213 334
56.26225 317
56.28236 263
56.30248 299
56.32259 283
56.3427 330
56.36282 272
56.38293 314
56.40304 321
56.42316 305
56.44327 290
56.46338 341
56.4835 308
56.50361 303
56.52373 330
56.54384 287
56.56395 321
56.58407 331
56.60418 292
56.62429 304
56.64441 284
56.66452 331
56.68464 319
56.70475 312
56.72486 322
56.74498 325
56.76509 276
56.7852 315
56.80532 314
56.82543 305
56.84554 293
56.86566 291
56.88577 291
56.90589 282
56.926 303
56.94611 331
56.96623 312
56.98634 299
57.00645 319
57.02657 298
57.04668 294
57.0668 318
57.08691 322
57.10702 307
57.12714 308
57.14725 326
57.16736 300
57.18748 323
57.20759 298
57.22771 279
57.24782 331
57.26793 285
57.28805 300
57.30816 301
57.32827 279
57.34839 276
57.3685 281
57.38861 269
57.40873 272
57.42884 254
57.44896 267
57.46907 259
57.48918 307
57.5093 311
57.52941 276
57.54952 288
57.56964 253
57.58975 252
57.60987 240
57.62998 239
57.65009 318
57.67021 285
57.69032 257
57.71043 308
57.73055 258
57.75066 261
57.77078 283
57.79089 254
57.811 286
57.83112 232
57.85123 277
57.87134 256
57.89146 289
57.91157 288
57.93168 264
57.9518 298
57.97191 264
57.99203 268
58.01214 273
58.03225 285
58.05237 288
58.07248 278
58.09259 279
58.11271 260
58.13282 304
58.15294 258
58.17305 279
58.19316 277
58.21328 281
58.23339 241
58.2535 272
58.27362 261
58.29373 238
58.31385 273
58.33396 278
58.35407 242
58.37419 271
58.3943 259
58.41441 261
58.43453 246
58.45464 259
58.47475 291
58.49487 269
58.51498 259
58.5351 276
58.55521 236
58.57532 246
58.59544 253
58.61555 248
58.63566 267
58.65578 256
58.67589 244
58.69601 260
58.71612 270
58.73623 266
58.75635 289
58.77646 277
58.79657 281
58.81669 264
58.8368 273
58.85691 288
58.87703 252
58.89714 269
58.91726 253
58.93737 286
58.95748 286
58.9776 271
58.99771 276
59.01782 260
59.03794 293
59.05805 281
59.07817 295
59.09828 269
59.11839 265
59.13851 283
59.15862 261
59.17873 286
59.19885 316
59.21896 279
59.23908 299
59.25919 318
59.2793 288
59.29942 305
59.31953 292
59.33964 306
59.35976 308
59.37987 305
59.39998 295
59.4201 321
59.44021 346
59.46033 350
59.48044 376
59.50055 390
59.52067 374
59.54078 413
59.56089 442
59.58101 436
59.60112 476
59.62124 477
59.64135 523
59.66146 606
59.68158 610
59.70169 698
59.7218 795
59.74192 855
59.76203 963
59.78215 1086
59.80226 1214
59.82237 1353
59.84249 1338
59.8626 1481
59.88271 1392
59.90283 1334
59.92294 1180
59.94305 1046
59.96317 994
59.98328 932
60.0034 892
60.02351 888
60.04362 780
60.06374 776
60.08385 664
60.10396 598
60.12408 464
60.14419 412
60.16431 377
60.18442 335
60.20453 332
60.22465 306
60.24476 311
60.26487 318
60.28499 286
60.3051 324
60.32522 284
60.34533 299
60.36544 303
60.38556 280
60.40567 282
60.42578 271
60.4459 318
60.46601 259
60.48612 267
60.50624 263
60.52635 279
60.54647 296
60.56658 282
60.58669 250
60.60681 257
60.62692 275
60.64703 285
60.66715 263
60.68726 266
60.70738 275
60.72749 245
60.7476 268
60.76772 241
60.78783 261
60.80794 253
60.82806 276
60.84817 258
60.86828 256
60.8884 235
60.90851 269
60.92863 257
60.94874 232
60.96885 259
60.98897 259
61.00908 246
61.02919 209
61.04931 248
61.06942 272
61.08954 265
61.10965 274
61.12976 248
61.14988 254
61.16999 246
61.1901 244
61.21022 277
61.23033 257
61.25045 294
61.27056 289
61.29067 281
61.31079 237
61.3309 271
61.35101 278
61.37113 275
61.39124 261
61.41135 290
61.43147 304
61.45158 291
61.4717 332
61.49181 294
61.51192 306
61.53204 307
61.55215 313
61.57226 306
61.59238 268
61.61249 280
61.63261 312
61.65272 304
61.67283 318
61.69295 305
61.71306 308
61.73317 353
61.75329 346
61.7734 321
61.79352 340
61.81363 352
61.83374 352
61.85386 338
61.87397 373
61.89408 337
61.9142 360
61.93431 362
61.95442 382
61.97454 392
61.99465 413
62.01477 401
62.03488 411
62.05499 451
62.07511 455
62.09522 444
62.11533 410
62.13545 441
62.15556 485
62.17568 491
62.19579 466
62.2159 500
62.23602 486
62.25613 459
62.27624 460
62.29636 453
62.31647 467
62.33659 441
62.3567 450
62.37681 437
62.39693 405
62.41704 374
62.43715 373
62.45727 385
62.47738 344
62.49749 354
62.51761 348
62.53772 325
62.55784 337
62.57795 327
62.59806 290
62.61818 291
62.63829 312
62.6584 277
62.67852 287
62.69863 263
62.71875 279
62.73886 265
62.75897 270
62.77909 263
62.7992 267
62.81931 285
62.83943 287
62.85954 277
62.87965 298
62.89977 255
62.91988 293
62.94 251
62.96011 235
62.98022 262
63.00034 264
63.02045 270
63.04056 271
63.06068 293
63.08079 279
63.10091 274
63.12102 282
63.14113 272
63.16125 263
63.18136 300
63.20147 288
63.22159 283
63.2417 267
63.26182 276
63.28193 278
63.30204 301
63.32216 275
63.34227 263
63.36238 278
63.3825 295
63.40261 302
63.42272 286
63.44284 303
63.46295 293
63.48307 325
63.50318 258
63.52329 314
63.54341 294
63.56352 290
63.58363 306
63.60375 300
63.62386 325
63.64398 333
63.66409 335
63.6842 298
63.70432 297
63.72443 333
63.74454 352
63.76466 348
63.78477 343
63.80489 350
63.825 426
63.84511 381
63.86523 435
63.88534 452
63.90545 490
63.92557 496
63.94568 463
63.96579 473
63.98591 455
64.00602 404
64.02614 389
64.04625 368
64.06636 390
64.08648 394
64.10659 368
64.1267 341
64.14682 347
64.16693 378
64.18705 316
64.20716 284
64.22727 279
64.24739 292
64.2675 274
64.28761 250
64.30773 253
64.32784 259
64.34796 293
64.36807 274
64.38818 232
64.4083 251
64.42841 241
64.44852 266
64.46864 259
64.48875 277
64.50886 230
64.52898 257
64.54909 255
64.56921 251
64.58932 254
64.60943 245
64.62955 248
64.64966 261
64.66977 273
64.68989 230
64.71 266
64.73012 250
64.75023 270
64.77034 264
64.79046 256
64.81057 258
64.83068 234
64.8508 281
64.87091 290
64.89102 247
64.91114 252
64.93125 249
64.95137 264
64.97148 245
64.99159 282
65.01171 243
65.03182 267
65.05193 239
65.07205 276
65.09216 236
65.11228 281
65.13239 258
65.1525 263
65.17262 263
65.19273 266
65.21284 258
65.23296 275
65.25307 260
65.27319 274
65.2933 253
65.31341 239
65.33353 252
65.35364 242
65.37375 276
65.39387 265
65.41398 249
65.43409 266
65.45421 263
65.47432 269
65.49444 277
65.51455 268
65.53466 243
65.55478 249
65.57489 296
65.595 270
65.61512 316
65.63523 300
65.65535 304
65.67546 286
65.69557 275
65.71569 309
65.7358 322
65.75591 269
65.77603 274
65.79614 285
65.81626 298
65.83637 290
65.85648 264
65.8766 270
65.89671 297
65.91682 244
65.93694 271
65.95705 261
65.97716 274
65.99728 269
66.01739 250
66.03751 250
66.05762 255
66.07773 251
66.09785 243
66.11796 247
66.13807 291
66.15819 247
66.1783 261
66.19842 229
66.21853 272
66.23864 217
66.25876 264
66.27887 261
66.29898 267
66.3191 224
66.33921 252
66.35933 236
66.37944 261
66.39955 263
66.41967 233
66.43978 267
66.45989 271
66.48001 261
66.50012 238
66.52023 229
66.54035 244
66.56046 239
66.58058 276
66.60069 258
66.6208 262
66.64092 292
66.66103 262
66.68114 274
66.70126 273
66.72137 289
66.74149 278
66.7616 281
66.78171 256
66.80183 289
66.82194 305
66.84205 255
66.86217 285
66.88228 259
66.90239 307
66.92251 259
66.94262 261
66.96274 304
66.98285 281
67.00296 270
67.02308 277
67.04319 313
67.0633 247
67.08342 275
67.10353 312
67.12365 292
67.14376 314
67.16387 311
67.18399 316
67.2041 281
67.22421 313
67.24433 312
67.26444 342
67.28456 315
67.30467 304
67.32478 324
67.3449 330
67.36501 346
67.38512 408
67.40524 371
67.42535 426
67.44546 456
67.46558 476
67.48569 515
67.50581 568
67.52592 652
67.54603 660
67.56615 730
67.58626 787
67.60637 929
67.62649 906
67.6466 972
67.66672 952
67.68683 875
67.70694 782
67.72706 820
67.74717 768
67.76728 722
67.7874 761
67.80751 760
67.82763 751
67.84774 798
67.86785 812
67.88797 775
67.90808 859
67.92819 857
67.94831 868
67.96842 994
67.98853 1079
68.00865 1099
68.02876 1185
68.04888 1204
68.06899 1201
68.0891 1151
68.10922 1111
68.12933 1102
68.14944 1111
68.16956 1044
68.18967 1105
68.20979 1136
68.2299 1112
68.25001 1012
68.27013 988
68.29024 876
68.31035 727
68.33047 715
68.35058 641
68.3707 614
68.39081 579
68.41092 584
68.43104 489
68.45115 467
68.47126 475
68.49138 373
68.51149 339
68.5316 304
68.55172 320
68.57183 304
68.59195 295
68.61206 276
68.63217 294
68.65229 277
68.6724 268
68.69251 251
68.71263 265
68.73274 285
68.75286 269
68.77297 266
68.79308 244
68.8132 257
68.83331 240
68.85342 255
68.87354 266
68.89365 257
68.91376 273
68.93388 255
68.95399 252
68.97411 268
68.99422 271
69.01433 240
69.03445 230
69.05456 267
69.07467 261
69.09479 255
69.1149 273
69.13502 258
69.15513 250
69.17524 261
69.19536 277
69.21547 244
69.23558 276
69.2557 252
69.27581 258
69.29593 260
69.31604 255
69.33615 233
69.35627 234
69.37638 265
69.39649 264
69.41661 259
69.43672 231
69.45683 243
69.47695 253
69.49706 222
69.51718 251
69.53729 249
69.5574 246
69.57752 203
69.59763 255
69.61774 254
69.63786 253
69.65797 238
69.67809 262
69.6982 281
69.71831 245
69.73843 247
69.75854 233
69.77865 249
69.79877 254
69.81888 233
69.839 266
69.85911 245
69.87922 260
69.89934 213
69.91945 265
69.93956 220
69.95968 269
69.97979 262
69.9999 222
70.02002 255
70.04013 265
70.06025 277
70.08036 272
70.10047 259
70.12059 233
70.1407 254
70.16081 249
70.18093 242
70.20104 257
70.22116 253
70.24127 249
70.26138 230
70.2815 260
70.30161 249
70.32172 239
70.34184 252
70.36195 218
70.38207 227
70.40218 255
70.42229 233
70.44241 239
70.46252 263
70.48263 238
70.50275 262
70.52286 233
70.54297 248
70.56309 245
70.5832 231
70.60332 249
70.62343 249
70.64354 248
70.66366 246
70.68377 227
70.70388 238
70.724 228
70.74411 243
70.76423 223
70.78434 250
70.80445 242
70.82457 247
70.84468 256
70.86479 225
70.88491 233
70.90502 248
70.92513 242
70.94525 235
70.96536 269
70.98548 257
71.00559 232
71.0257 257
71.04582 217
71.06593 250
71.08604 225
71.10616 237
71.12627 245
71.14639 217
71.1665 229
71.18661 232
71.20673 213
71.22684 249
71.24695 221
71.26707 237
71.28718 229
71.3073 234
71.32741 239
71.34752 212
71.36764 246
71.38775 259
71.40786 232
71.42798 245
71.44809 243
71.4682 229
71.48832 253
71.50843 238
71.52855 225
71.54866 238
71.56877 212
71.58889 240
71.609 256
71.62911 263
71.64923 254
71.66934 229
71.68946 223
71.70957 253
71.72968 247
71.7498 255
71.76991 272
71.79002 261
71.81014 266
71.83025 263
71.85037 244
71.87048 246
71.89059 260
71.91071 259
71.93082 251
71.95093 262
71.97105 245
71.99116 269
72.01127 256
72.03139 226
72.0515 233
72.07162 242
72.09173 264
72.11184 258
72.13196 277
72.15207 264
72.17218 293
72.1923 272
72.21241 270
72.23253 241
72.25264 245
72.27275 247
72.29287 250
72.31298 240
72.33309 242
72.35321 273
72.37332 262
72.39344 241
72.41355 239
72.43366 261
72.45378 293
72.47389 277
72.494 245
72.51412 281
72.53423 241
72.55434 278
72.57446 250
72.59457 273
72.61469 251
72.6348 257
72.65491 246
72.67503 262
72.69514 246
72.71525 252
72.73537 252
72.75548 252
72.7756 269
72.79571 235
72.81582 263
72.83594 262
72.85605 242
72.87616 244
72.89628 249
72.91639 255
72.9365 236
72.95662 282
72.97673 287
72.99685 278
73.01696 283
73.03707 283
73.05719 315
73.0773 303
73.09741 330
73.11753 276
73.13764 302
73.15776 326
73.17787 323
73.19798 328
73.2181 320
73.23821 359
73.25832 388
73.27844 392
73.29855 440
73.31867 487
73.33878 457
73.35889 478
73.37901 473
73.39912 485
73.41923 458
73.43935 446
73.45946 444
73.47957 419
73.49969 369
73.5198 390
73.53992 414
73.56003 385
73.58014 378
73.60026 393
73.62037 372
73.64048 348
73.6606 348
73.68071 298
73.70083 309
73.72094 268
73.74105 288
73.76117 299
73.78128 294
73.80139 299
73.82151 264
73.84162 256
73.86174 278
73.88185 276
73.90196 272
73.92208 242
73.94219 252
73.9623 253
73.98242 263
74.00253 236
74.02264 209
74.04276 243
74.06287 277
74.08299 246
74.1031 246
74.12321 241
74.14333 239
74.16344 239
74.18355 262
74.20367 242
74.22378 221
74.2439 251
74.26401 255
74.28412 240
74.30424 256
74.32435 212
74.34446 258
74.36458 242
74.38469 242
74.40481 228
74.42492 215
74.44503 228
74.46515 245
74.48526 242
74.50537 234
74.52549 245
74.5456 220
74.56571 250
74.58583 250
74.60594 243
74.62606 254
74.64617 243
74.66628 262
74.6864 255
74.70651 261
74.72662 228
74.74674 258
74.76685 237
74.78697 272
74.80708 232
74.82719 258
74.84731 279
74.86742 246
74.88753 257
74.90765 254
74.92776 242
74.94787 254
74.96799 264
74.9881 247
75.00822 223
