3.00117 21207
3.02128 20541
3.0414 19442
3.06151 19657
3.08162 18655
3.10174 18598
3.12185 17536
3.14197 17294
3.16208 17016
3.18219 16128
3.20231 16007
3.22242 15270
3.24253 15071
3.26265 14760
3.28276 14004
3.30288 13767
3.32299 13414
3.3431 12803
3.36322 12561
3.38333 11910
3.40344 11698
3.42356 11251
3.44367 11036
3.46379 10847
3.4839 10200
3.50401 10017
3.52413 9436
3.54424 9055
3.56435 8982
3.58447 8569
3.60458 8435
3.62469 8192
3.64481 7524
3.66492 7532
3.68504 7232
3.70515 6740
3.72526 6731
3.74538 6282
3.76549 6246
3.7856 5799
3.80572 5810
3.82583 5532
3.84595 5171
3.86606 5026
3.88617 4853
3.90629 4540
3.9264 4599
3.94651 4340
3.96663 4024
3.98674 3811
4.00686 3752
4.02697 3647
4.04708 3398
4.0672 3365
4.08731 3173
4.10742 3057
4.12754 2973
4.14765 2628
4.16776 2779
4.18788 2566
4.20799 2566
4.22811 2426
4.24822 2261
4.26833 2273
4.28845 2174
4.30856 2168
4.32867 2197
4.34879 1960
4.3689 1961
4.38902 1943
4.40913 1876
4.42924 1916
4.44936 1809
4.46947 1831
4.48958 1723
4.5097 1675
4.52981 1728
4.54992 1533
4.57004 1563
4.59015 1526
4.61027 1504
4.63038 1547
4.65049 1437
4.67061 1408
4.69072 1360
4.71083 1368
4.73095 1415
4.75106 1262
4.77118 1316
4.79129 1298
4.8114 1266
4.83152 1329
4.85163 1143
4.87174 1136
4.89186 1189
4.91197 1164
4.93209 1113
4.9522 1082
4.97231 1144
4.99243 1034
5.01254 981
5.03265 1009
5.05277 1001
5.07288 1024
5.09299 1044
5.11311 965
5.13322 929
5.15334 943
5.17345 924
5.19356 917
5.21368 907
5.23379 884
5.2539 866
5.27402 897
5.29413 868
5.31425 864
5.33436 774
5.35447 769
5.37459 802
5.3947 841
5.41481 838
5.43493 821
5.45504 803
5.47516 741
5.49527 763
5.51538 781
5.5355 728
5.55561 733
5.57572 724
5.59584 740
5.61595 748
5.63606 687
5.65618 636
5.67629 635
5.69641 703
5.71652 664
5.73663 612
5.75675 647
5.77686 648
5.79697 646
5.81709 568
5.8372 584
5.85732 690
5.87743 549
5.89754 652
5.91766 588
5.93777 621
5.95788 562
5.978 537
5.99811 635
6.01823 599
6.03834 594
6.05845 622
6.07857 610
6.09868 590
6.11879 613
6.13891 569
6.15902 543
6.17913 605
6.19925 567
6.21936 547
6.23948 548
6.25959 547
6.2797 582
6.29982 592
6.31993 579
6.34004 551
6.36016 544
6.38027 568
6.40039 557
6.4205 526
6.44061 560
6.46073 545
6.48084 539
6.50095 526
6.52107 518
6.54118 475
6.56129 520
6.58141 585
6.60152 543
6.62164 511
6.64175 525
6.66186 533
6.68198 531
6.70209 542
6.7222 511
6.74232 515
6.76243 544
6.78255 528
6.80266 513
6.82277 487
6.84289 498
6.863 533
6.88311 520
6.90323 509
6.92334 488
6.94346 556
6.96357 499
6.98368 528
7.0038 523
7.02391 526
7.04402 497
7.06414 537
7.08425 514
7.10436 550
7.12448 496
7.14459 510
7.16471 524
7.18482 499
7.20493 547
7.22505 470
7.24516 506
7.26527 524
7.28539 521
7.3055 461
7.32562 539
7.34573 533
7.36584 519
7.38596 521
7.40607 502
7.42618 532
7.4463 540
7.46641 524
7.48653 524
7.50664 521
7.52675 502
7.54687 536
7.56698 517
7.58709 485
7.60721 496
7.62732 490
7.64743 492
7.66755 529
7.68766 504
7.70778 531
7.72789 511
7.748 606
7.76812 464
7.78823 510
7.80834 485
7.82846 482
7.84857 535
7.86869 484
7.8888 563
7.90891 490
7.92903 521
7.94914 501
7.96925 495
7.98937 526
8.00948 490
8.0296 490
8.04971 479
8.06982 491
8.08994 544
8.11005 504
8.13016 476
8.15028 484
8.17039 538
8.1905 498
8.21062 517
8.23073 511
8.25085 530
8.27096 539
8.29107 516
8.31119 522
8.3313 472
8.35141 499
8.37153 559
8.39164 513
8.41176 501
8.43187 476
8.45198 543
8.4721 515
8.49221 510
8.51232 523
8.53244 500
8.55255 546
8.57266 539
8.59278 489
8.61289 502
8.63301 508
8.65312 520
8.67323 545
8.69335 526
8.71346 527
8.73357 537
8.75369 470
8.7738 511
8.79392 532
8.81403 520
8.83414 521
8.85426 546
8.87437 519
8.89448 512
8.9146 489
8.93471 536
8.95483 528
8.97494 511
8.99505 530
9.01517 515
9.03528 492
9.05539 481
9.07551 507
9.09562 523
9.11573 524
9.13585 516
9.15596 508
9.17608 502
9.19619 499
9.2163 516
9.23642 504
9.25653 503
9.27664 507
9.29676 527
9.31687 511
9.33699 478
9.3571 506
9.37721 516
9.39733 485
9.41744 522
9.43755 504
9.45767 537
9.47778 507
9.4979 491
9.51801 485
9.53812 484
9.55824 538
9.57835 504
9.59846 472
9.61858 509
9.63869 457
9.6588 476
9.67892 474
9.69903 486
9.71915 544
9.73926 508
9.75937 550
9.77949 529
9.7996 548
9.81971 532
9.83983 511
9.85994 481
9.88006 526
9.90017 491
9.92028 524
9.9404 500
9.96051 468
9.98062 492
10.00074 495
10.02085 533
10.04097 497
10.06108 514
10.08119 518
10.10131 495
10.12142 506
10.14153 525
10.16165 481
10.18176 524
10.20187 505
10.22199 499
10.2421 518
10.26222 521
10.28233 455
10.30244 521
10.32256 517
10.34267 562
10.36278 530
10.3829 514
10.40301 504
10.42313 517
10.44324 493
10.46335 501
10.48347 509
10.50358 491
10.52369 504
10.54381 489
10.56392 540
10.58403 513
10.60415 544
10.62426 528
10.64438 474
10.66449 502
10.6846 530
10.70472 545
10.72483 525
10.74494 593
10.76506 522
10.78517 546
10.80529 547
10.8254 513
10.84551 504
10.86563 554
10.88574 529
10.90585 506
10.92597 518
10.94608 508
10.9662 522
10.98631 517
11.00642 572
11.02654 563
11.04665 490
11.06676 532
11.08688 521
11.10699 549
11.1271 546
11.14722 529
11.16733 602
11.18745 528
11.20756 544
11.22767 570
11.24779 578
11.2679 539
11.28801 536
11.30813 562
11.32824 533
11.34836 546
11.36847 555
11.38858 537
11.4087 581
11.42881 573
11.44892 526
11.46904 568
11.48915 567
11.50927 599
11.52938 622
11.54949 516
11.56961 579
11.58972 580
11.60983 591
11.62995 582
11.65006 579
11.67017 618
11.69029 592
11.7104 646
11.73052 624
11.75063 621
11.77074 650
11.79086 651
11.81097 661
11.83108 667
11.8512 667
11.87131 677
11.89143 688
11.91154 717
11.93165 699
11.95177 756
11.97188 771
11.99199 811
12.01211 816
12.03222 796
12.05234 840
12.07245 857
12.09256 885
12.11268 944
12.13279 989
12.1529 1031
12.17302 1065
12.19313 1151
12.21324 1111
12.23336 1152
12.25347 1202
12.27359 1246
12.2937 1239
12.31381 1292
12.33393 1246
12.35404 1258
12.37415 1254
12.39427 1197
12.41438 1198
12.4345 1090
12.45461 948
12.47472 923
12.49484 900
12.51495 891
12.53506 878
12.55518 806
12.57529 772
12.5954 781
12.61552 694
12.63563 646
12.65575 664
12.67586 631
12.69597 658
12.71609 641
12.7362 577
12.75631 579
12.77643 638
12.79654 595
12.81666 578
12.83677 553
12.85688 563
12.877 527
12.89711 572
12.91722 510
12.93734 533
12.95745 542
12.97757 526
12.99768 520
13.01779 502
13.03791 543
13.05802 508
13.07813 561
13.09825 512
13.11836 530
13.13847 514
13.15859 498
13.1787 547
13.19882 493
13.21893 475
13.23904 509
13.25916 533
13.27927 515
13.29938 468
13.3195 511
13.33961 534
13.35973 484
13.37984 490
13.39995 487
13.42007 497
13.44018 462
13.46029 520
13.48041 501
13.50052 533
13.52064 562
13.54075 493
13.56086 426
13.58098 506
13.60109 478
13.6212 495
13.64132 448
13.66143 469
13.68154 488
13.70166 440
13.72177 477
13.74189 453
13.762 491
13.78211 439
13.80223 520
13.82234 500
13.84245 476
13.86257 494
13.88268 473
13.9028 488
13.92291 472
13.94302 488
13.96314 513
13.98325 489
14.00336 457
14.02348 445
14.04359 487
14.06371 540
14.08382 459
14.10393 535
14.12405 445
14.14416 492
14.16427 484
14.18439 474
14.2045 503
14.22461 455
14.24473 515
14.26484 484
14.28496 472
14.30507 510
14.32518 499
14.3453 475
14.36541 456
14.38552 500
14.40564 485
14.42575 508
14.44587 494
14.46598 471
14.48609 430
14.50621 515
14.52632 486
14.54643 455
14.56655 486
14.58666 482
14.60677 484
14.62689 487
14.647 456
14.66712 479
14.68723 472
14.70734 494
14.72746 453
14.74757 496
14.76768 435
14.7878 502
14.80791 461
14.82803 471
14.84814 474
14.86825 467
14.88837 466
14.90848 471
14.92859 500
14.94871 448
14.96882 496
14.98894 460
15.00905 453
15.02916 495
15.04928 461
15.06939 473
15.0895 443
15.10962 497
15.12973 444
15.14984 466
15.16996 463
15.19007 434
15.21019 430
15.2303 485
15.25041 484
15.27053 493
15.29064 515
15.31075 469
15.33087 464
15.35098 459
15.3711 423
15.39121 468
15.41132 503
15.43144 452
15.45155 434
15.47166 500
15.49178 439
15.51189 493
15.53201 505
15.55212 480
15.57223 497
15.59235 545
15.61246 429
15.63257 460
15.65269 453
15.6728 447
15.69291 453
15.71303 472
15.73314 490
15.75326 500
15.77337 496
15.79348 455
15.8136 444
15.83371 446
15.85382 495
15.87394 475
15.89405 462
15.91417 457
15.93428 481
15.95439 506
15.97451 500
15.99462 472
16.01473 473
16.03485 458
16.05496 510
16.07508 450
16.09519 468
16.1153 446
16.13542 479
16.15553 473
16.17564 427
16.19576 456
16.21587 476
16.23598 494
16.2561 479
16.27621 468
16.29633 457
16.31644 518
16.33655 461
16.35667 441
16.37678 496
16.39689 480
16.41701 467
16.43712 488
16.45724 485
16.47735 440
16.49746 461
16.51758 452
16.53769 496
16.5578 454
16.57792 495
16.59803 459
16.61814 486
16.63826 471
16.65837 447
16.67849 499
16.6986 462
16.71871 466
16.73883 483
16.75894 514
16.77905 428
16.79917 419
16.81928 479
16.8394 482
16.85951 507
16.87962 468
16.89974 522
16.91985 463
16.93996 486
16.96008 430
16.98019 437
17.00031 462
17.02042 459
17.04053 493
17.06065 510
17.08076 466
17.10087 403
17.12099 516
17.1411 477
17.16121 500
17.18133 447
17.20144 479
17.22156 457
17.24167 515
17.26178 478
17.2819 485
17.30201 472
17.32212 473
17.34224 506
17.36235 506
17.38247 432
17.40258 500
17.42269 464
17.44281 467
17.46292 456
17.48303 467
17.50315 478
17.52326 472
17.54338 483
17.56349 453
17.5836 504
17.60372 468
17.62383 475
17.64394 483
17.66406 467
17.68417 496
17.70428 465
17.7244 420
17.74451 476
17.76463 453
17.78474 478
17.80485 546
17.82497 489
17.84508 514
17.86519 489
17.88531 487
17.90542 480
17.92554 462
17.94565 481
17.96576 517
17.98588 520
18.00599 537
18.0261 481
18.04622 470
18.06633 494
18.08645 531
18.10656 510
18.12667 495
18.14679 510
18.1669 515
18.18701 527
18.20713 588
18.22724 572
18.24735 669
18.26747 620
18.28758 606
18.3077 595
18.32781 576
18.34792 550
18.36804 531
18.38815 524
18.40826 541
18.42838 506
18.44849 513
18.46861 514
18.48872 476
18.50883 495
18.52895 478
18.54906 500
18.56917 523
18.58929 476
18.6094 487
18.62951 457
18.64963 505
18.66974 503
18.68986 494
18.70997 457
18.73008 490
18.7502 496
18.77031 520
18.79042 494
18.81054 478
18.83065 449
18.85077 530
18.87088 461
18.89099 513
18.91111 506
18.93122 455
18.95133 525
18.97145 476
18.99156 507
19.01168 496
19.03179 532
19.0519 519
19.07202 491
19.09213 496
19.11224 459
19.13236 524
19.15247 561
19.17258 474
19.1927 489
19.21281 477
19.23293 517
19.25304 501
19.27315 529
19.29327 511
19.31338 527
19.33349 578
19.35361 529
19.37372 553
19.39384 522
19.41395 551
19.43406 538
19.45418 614
19.47429 535
19.4944 535
19.51452 548
19.53463 579
19.55475 556
19.57486 590
19.59497 624
19.61509 559
19.6352 624
19.65531 637
19.67543 635
19.69554 740
19.71565 746
19.73577 826
19.75588 860
19.776 899
19.79611 922
19.81622 965
19.83634 997
19.85645 1085
19.87656 992
19.89668 1025
19.91679 1076
19.93691 1076
19.95702 963
19.97713 978
19.99725 990
20.01736 945
20.03747 931
20.05759 949
20.0777 901
20.09782 952
20.11793 987
20.13804 929
20.15816 1007
20.17827 918
20.19838 915
20.2185 961
20.23861 968
20.25872 979
20.27884 976
20.29895 1014
20.31907 1018
20.33918 956
20.35929 994
20.37941 957
20.39952 921
20.41963 910
20.43975 912
20.45986 937
20.47998 975
20.50009 973
20.5202 938
20.54032 933
20.56043 958
20.58054 992
20.60066 988
20.62077 976
20.64088 963
20.661 1000
20.68111 1090
20.70123 1176
20.72134 1224
20.74145 1292
20.76157 1424
20.78168 1583
20.80179 1756
20.82191 1885
20.84202 1867
20.86214 1836
20.88225 1683
20.90236 1532
20.92248 1314
20.94259 1178
20.9627 1102
20.98282 987
21.00293 976
21.02305 989
21.04316 917
21.06327 929
21.08339 932
21.1035 935
21.12361 988
21.14373 982
21.16384 893
21.18395 925
21.20407 927
21.22418 988
21.2443 1003
21.26441 961
21.28452 985
21.30464 924
21.32475 1010
21.34486 1026
21.36498 988
21.38509 985
21.40521 969
21.42532 966
21.44543 936
21.46555 924
21.48566 969
21.50577 920
21.52589 841
21.546 873
21.56612 855
21.58623 898
21.60634 859
21.62646 817
21.64657 908
21.66668 826
21.6868 788
21.70691 782
21.72702 805
21.74714 809
21.76725 808
21.78737 816
21.80748 737
21.82759 802
21.84771 783
21.86782 770
21.88793 788
21.90805 727
21.92816 752
21.94828 706
21.96839 767
21.9885 792
22.00862 721
22.02873 696
22.04884 753
22.06896 688
22.08907 758
22.10919 667
22.1293 689
22.14941 760
22.16953 712
22.18964 724
22.20975 670
22.22987 673
22.24998 705
22.27009 685
22.29021 694
22.31032 681
22.33044 656
22.35055 690
22.37066 710
22.39078 693
22.41089 672
22.431 691
22.45112 656
22.47123 657
22.49135 733
22.51146 661
22.53157 669
22.55169 681
22.5718 703
22.59191 653
22.61203 712
22.63214 696
22.65225 653
22.67237 676
22.69248 653
22.7126 657
22.73271 663
22.75282 659
22.77294 661
22.79305 627
22.81316 625
22.83328 684
22.85339 609
22.87351 674
22.89362 666
22.91373 664
22.93385 636
22.95396 654
22.97407 645
22.99419 664
23.0143 692
23.03442 602
23.05453 644
23.07464 618
23.09476 664
23.11487 632
23.13498 571
23.1551 579
23.17521 600
23.19532 617
23.21544 620
23.23555 624
23.25567 633
23.27578 581
23.29589 599
23.31601 657
23.33612 569
23.35623 602
23.37635 597
23.39646 610
23.41658 597
23.43669 626
23.4568 646
23.47692 630
23.49703 610
23.51714 621
23.53726 634
23.55737 677
23.57749 635
23.5976 609
23.61771 632
23.63783 611
23.65794 644
23.67805 672
23.69817 641
23.71828 680
23.73839 649
23.75851 722
23.77862 724
23.79874 721
23.81885 769
23.83896 704
23.85908 706
23.87919 692
23.8993 677
23.91942 724
23.93953 724
23.95965 705
23.97976 689
23.99987 699
24.01999 684
24.0401 662
24.06021 728
24.08033 654
24.10044 689
24.12056 686
24.14067 679
24.16078 683
24.1809 735
24.20101 714
24.22112 709
24.24124 667
24.26135 692
24.28146 660
24.30158 708
24.32169 736
24.34181 704
24.36192 757
24.38203 676
24.40215 719
24.42226 742
24.44237 761
24.46249 741
24.4826 776
24.50272 760
24.52283 787
24.54294 771
24.56306 796
24.58317 846
24.60328 899
24.6234 833
24.64351 920
24.66362 942
24.68374 1003
24.70385 1007
24.72397 1005
24.74408 1043
24.76419 1047
24.78431 1070
24.80442 1148
24.82453 1101
24.84465 1116
24.86476 1153
24.88488 1174
24.90499 1119
24.9251 1140
24.94522 1009
24.96533 1099
24.98544 1014
25.00556 990
25.02567 986
25.04579 979
25.0659 929
25.08601 919
25.10613 868
25.12624 885
25.14635 832
25.16647 860
25.18658 866
25.20669 865
25.22681 845
25.24692 824
25.26704 822
25.28715 821
25.30726 727
25.32738 755
25.34749 716
25.3676 736
25.38772 687
25.40783 731
25.42795 715
25.44806 711
25.46817 738
25.48829 707
25.5084 682
25.52851 684
25.54863 663
25.56874 671
25.58886 656
25.60897 619
25.62908 633
25.6492 662
25.66931 688
25.68942 650
25.70954 658
25.72965 637
25.74976 609
25.76988 661
25.78999 636
25.81011 596
25.83022 669
25.85033 625
25.87045 645
25.89056 664
25.91067 644
25.93079 651
25.9509 657
25.97102 665
25.99113 670
26.01124 617
26.03136 646
26.05147 683
26.07158 649
26.0917 614
26.11181 662
26.13193 658
26.15204 680
26.17215 733
26.19227 743
26.21238 759
26.23249 692
26.25261 751
26.27272 751
26.29283 754
26.31295 820
26.33306 842
26.35318 877
26.37329 907
26.3934 1004
26.41352 1056
26.43363 1220
26.45374 1386
26.47386 1778
26.49397 2064
26.51409 2725
26.5342 3200
26.55431 4074
26.57443 4708
26.59454 5212
26.61465 5221
26.63477 4890
26.65488 4411
26.67499 3833
26.69511 3007
26.71522 2284
26.73534 1719
26.75545 1334
26.77556 1018
26.79568 940
26.81579 834
26.8359 813
26.85602 792
26.87613 797
26.89625 803
26.91636 736
26.93647 708
26.95659 718
26.9767 654
26.99681 660
27.01693 649
27.03704 630
27.05716 643
27.07727 629
27.09738 642
27.1175 659
27.13761 597
27.15772 610
27.17784 620
27.19795 595
27.21806 610
27.23818 573
27.25829 556
27.27841 583
27.29852 557
27.31863 625
27.33875 620
27.35886 556
27.37897 575
27.39909 550
27.4192 581
27.43932 577
27.45943 564
27.47954 620
27.49966 598
27.51977 583
27.53988 541
27.56 576
27.58011 578
27.60023 560
27.62034 509
27.64045 519
27.66057 584
27.68068 541
27.70079 571
27.72091 530
27.74102 541
27.76113 563
27.78125 552
27.80136 577
27.82148 559
27.84159 574
27.8617 528
27.88182 584
27.90193 516
27.92204 573
27.94216 559
27.96227 525
27.98239 557
28.0025 557
28.02261 583
28.04273 556
28.06284 589
28.08295 539
28.10307 561
28.12318 528
28.1433 560
28.16341 527
28.18352 544
28.20364 516
28.22375 527
28.24386 507
28.26398 569
28.28409 530
28.3042 519
28.32432 551
28.34443 545
28.36455 552
28.38466 526
28.40477 542
28.42489 546
28.445 568
28.46511 539
28.48523 543
28.50534 565
28.52546 564
28.54557 508
28.56568 560
28.5858 518
28.60591 539
28.62602 528
28.64614 536
28.66625 539
28.68636 542
28.70648 532
28.72659 539
28.74671 531
28.76682 530
28.78693 488
28.80705 510
28.82716 521
28.84727 534
28.86739 528
28.8875 545
28.90762 522
28.92773 481
28.94784 536
28.96796 501
28.98807 518
29.00818 492
29.0283 482
29.04841 510
29.06853 505
29.08864 513
29.10875 496
29.12887 520
29.14898 543
29.16909 502
29.18921 503
29.20932 506
29.22943 511
29.24955 498
29.26966 497
29.28978 457
29.30989 486
29.33 523
29.35012 462
29.37023 485
29.39034 542
29.41046 542
29.43057 514
29.45069 558
29.4708 518
29.49091 542
29.51103 519
29.53114 519
29.55125 527
29.57137 526
29.59148 541
29.6116 523
29.63171 520
29.65182 497
29.67194 515
29.69205 515
29.71216 500
29.73228 517
29.75239 507
29.7725 543
29.79262 494
29.81273 536
29.83285 522
29.85296 524
29.87307 464
29.89319 546
29.9133 460
29.93341 502
29.95353 554
29.97364 486
29.99376 515
30.01387 547
30.03398 534
30.0541 534
30.07421 520
30.09432 524
30.11444 521
30.13455 518
30.15467 508
30.17478 506
30.19489 550
30.21501 518
30.23512 557
30.25523 515
30.27535 502
30.29546 492
30.31557 556
30.33569 530
30.3558 523
30.37592 517
30.39603 483
30.41614 529
30.43626 492
30.45637 535
30.47648 548
30.4966 574
30.51671 506
30.53683 499
30.55694 525
30.57705 542
30.59717 521
30.61728 496
30.63739 564
30.65751 516
30.67762 506
30.69773 490
30.71785 499
30.73796 551
30.75808 508
30.77819 528
30.7983 548
30.81842 535
30.83853 508
30.85864 518
30.87876 520
30.89887 519
30.91899 519
30.9391 517
30.95921 502
30.97933 476
30.99944 549
31.01955 566
31.03967 526
31.05978 500
31.0799 535
31.10001 462
31.12012 533
31.14024 544
31.16035 533
31.18046 482
31.20058 541
31.22069 509
31.2408 491
31.26092 511
31.28103 523
31.30115 558
31.32126 552
31.34137 526
31.36149 487
31.3816 529
31.40171 491
31.42183 542
31.44194 498
31.46206 536
31.48217 531
31.50228 519
31.5224 553
31.54251 514
31.56262 496
31.58274 537
31.60285 531
31.62297 493
31.64308 505
31.66319 526
31.68331 505
31.70342 534
31.72353 553
31.74365 519
31.76376 496
31.78387 523
31.80399 547
31.8241 531
31.84422 523
31.86433 491
31.88444 529
31.90456 472
31.92467 524
31.94478 510
31.9649 552
31.98501 524
32.00513 513
32.02524 541
32.04535 501
32.06547 550
32.08558 579
32.10569 582
32.12581 505
32.14592 550
32.16604 521
32.18615 552
32.20626 555
32.22638 516
32.24649 643
32.2666 594
32.28672 587
32.30683 571
32.32694 594
32.34706 631
32.36717 668
32.38729 637
32.4074 714
32.42751 685
32.44763 706
32.46774 684
32.48785 725
32.50797 747
32.52808 761
32.5482 760
32.56831 751
32.58842 754
32.60854 756
32.62865 740
32.64876 671
32.66888 702
32.68899 722
32.7091 632
32.72922 644
32.74933 626
32.76945 600
32.78956 626
32.80967 620
32.82979 644
32.8499 699
32.87001 618
32.89013 659
32.91024 622
32.93036 613
32.95047 670
32.97058 651
32.9907 668
33.01081 674
33.03092 654
33.05104 719
33.07115 709
33.09127 692
33.11138 647
33.13149 694
33.15161 687
33.17172 712
33.19183 716
33.21195 700
33.23206 677
33.25217 706
33.27229 685
33.2924 659
33.31252 615
33.33263 661
33.35274 672
33.37286 633
33.39297 657
33.41308 625
33.4332 637
33.45331 628
33.47343 670
33.49354 637
33.51365 660
33.53377 647
33.55388 620
33.57399 641
33.59411 570
33.61422 608
33.63434 575
33.65445 581
33.67456 546
33.69468 587
33.71479 584
33.7349 635
33.75502 533
33.77513 617
33.79524 581
33.81536 616
33.83547 593
33.85559 542
33.8757 547
33.89581 553
33.91593 548
33.93604 546
33.95615 538
33.97627 543
33.99638 607
34.0165 580
34.03661 579
34.05672 590
34.07684 523
34.09695 551
34.11706 592
34.13718 557
34.15729 574
34.17741 562
34.19752 525
34.21763 552
34.23775 525
34.25786 580
34.27797 577
34.29809 544
34.3182 588
34.33831 537
34.35843 528
34.37854 558
34.39866 548
34.41877 607
34.43888 580
34.459 556
34.47911 606
34.49922 572
34.51934 594
34.53945 540
34.55957 528
34.57968 580
34.59979 581
34.61991 596
34.64002 645
34.66013 612
34.68025 597
34.70036 711
34.72047 706
34.74059 751
34.7607 746
34.78082 776
34.80093 806
34.82104 764
34.84116 819
34.86127 808
34.88138 789
34.9015 802
34.92161 837
34.94173 840
34.96184 867
34.98195 815
35.00207 873
35.02218 840
35.04229 862
35.06241 819
35.08252 799
35.10264 816
35.12275 854
35.14286 865
35.16298 873
35.18309 870
35.2032 862
35.22332 843
35.24343 924
35.26354 882
35.28366 889
35.30377 847
35.32389 840
35.344 817
35.36411 819
35.38423 818
35.40434 863
35.42445 806
35.44457 822
35.46468 778
35.4848 839
35.50491 839
35.52502 862
35.54514 810
35.56525 859
35.58536 902
35.60548 893
35.62559 911
35.64571 876
35.66582 861
35.68593 912
35.70605 966
35.72616 911
35.74627 864
35.76639 892
35.7865 960
35.80661 905
35.82673 935
35.84684 900
35.86696 921
35.88707 881
35.90718 865
35.9273 886
35.94741 874
35.96752 864
35.98764 852
36.00775 765
36.02787 802
36.04798 754
36.06809 743
36.08821 725
36.10832 729
36.12843 709
36.14855 684
36.16866 722
36.18878 693
36.20889 669
36.229 685
36.24912 712
36.26923 624
36.28934 679
36.30946 725
36.32957 738
36.34968 762
36.3698 726
36.38991 778
36.41003 833
36.43014 819
36.45025 877
36.47037 880
36.49048 914
36.51059 899
36.53071 936
36.55082 886
36.57094 799
36.59105 836
36.61116 795
36.63128 776
36.65139 728
36.6715 680
36.69162 696
36.71173 623
36.73184 666
36.75196 647
36.77207 695
36.79219 702
36.8123 679
36.83241 661
36.85253 704
36.87264 693
36.89275 692
36.91287 706
36.93298 732
36.9531 705
36.97321 647
36.99332 678
37.01344 678
37.03355 683
37.05366 669
37.07378 689
37.09389 707
37.11401 686
37.13412 702
37.15423 698
37.17435 680
37.19446 684
37.21457 685
37.23469 674
37.2548 672
37.27491 688
37.29503 653
37.31514 630
37.33526 652
37.35537 653
37.37548 634
37.3956 612
37.41571 647
37.43582 671
37.45594 632
37.47605 644
37.49617 625
37.51628 631
37.53639 728
37.55651 709
37.57662 645
37.59673 658
37.61685 658
37.63696 658
37.65708 701
37.67719 658
37.6973 709
37.71742 625
37.73753 673
37.75764 693
37.77776 693
37.79787 672
37.81798 679
37.8381 731
37.85821 672
37.87833 683
37.89844 703
37.91855 691
37.93867 701
37.95878 668
37.97889 644
37.99901 693
38.01912 707
38.03924 720
38.05935 709
38.07946 760
38.09958 754
38.11969 777
38.1398 804
38.15992 765
38.18003 811
38.20015 799
38.22026 805
38.24037 847
38.26049 828
38.2806 855
38.30071 913
38.32083 928
38.34094 908
38.36105 930
38.38117 816
38.40128 863
38.4214 847
38.44151 810
38.46162 832
38.48174 800
38.50185 827
38.52196 790
38.54208 807
38.56219 798
38.58231 760
38.60242 725
38.62253 746
38.64265 742
38.66276 710
38.68287 746
38.70299 689
38.7231 669
38.74321 712
38.76333 725
38.78344 690
38.80356 705
38.82367 683
38.84378 726
38.8639 677
38.88401 699
38.90412 701
38.92424 702
38.94435 730
38.96447 702
38.98458 679
39.00469 718
39.02481 762
39.04492 729
39.06503 748
39.08515 768
39.10526 719
39.12538 703
39.14549 705
39.1656 748
39.18572 746
39.20583 704
39.22594 720
39.24606 811
39.26617 775
39.28628 769
39.3064 729
39.32651 787
39.34663 770
39.36674 844
39.38685 878
39.40697 910
39.42708 931
39.44719 864
39.46731 820
39.48742 798
39.50754 802
39.52765 758
39.54776 718
39.56788 666
39.58799 643
39.6081 611
39.62822 610
39.64833 583
39.66845 615
39.68856 612
39.70867 591
39.72879 541
39.7489 544
39.76901 557
39.78913 584
39.80924 564
39.82935 600
39.84947 566
39.86958 567
39.8897 596
39.90981 569
39.92992 598
39.95004 583
39.97015 617
39.99026 555
40.01038 586
40.03049 613
40.05061 581
40.07072 608
40.09083 587
40.11095 638
40.13106 676
40.15117 643
40.17129 696
40.1914 750
40.21152 763
40.23163 728
40.25174 808
40.27186 762
40.29197 700
40.31208 718
40.3322 664
40.35231 676
40.37242 641
40.39254 653
40.41265 650
40.43277 628
40.45288 636
40.47299 609
40.49311 604
40.51322 636
40.53333 596
40.55345 583
40.57356 572
40.59368 586
40.61379 597
40.6339 570
40.65402 598
40.67413 607
40.69424 594
40.71436 600
40.73447 592
40.75458 582
40.7747 643
40.79481 634
40.81493 626
40.83504 627
40.85515 639
40.87527 606
40.89538 636
40.91549 591
40.93561 581
40.95572 580
40.97584 594
40.99595 652
41.01606 611
41.03618 646
41.05629 597
41.0764 637
41.09652 608
41.11663 578
41.13675 603
41.15686 588
41.17697 608
41.19709 601
41.2172 608
41.23731 598
41.25743 586
41.27754 590
41.29765 621
41.31777 586
41.33788 559
41.358 586
41.37811 567
41.39822 557
41.41834 590
41.43845 569
41.45856 585
41.47868 597
41.49879 613
41.51891 554
41.53902 547
41.55913 568
41.57925 586
41.59936 539
41.61947 600
41.63959 558
41.6597 562
41.67982 556
41.69993 584
41.72004 561
41.74016 530
41.76027 566
41.78038 544
41.8005 514
41.82061 555
41.84072 538
41.86084 503
41.88095 580
41.90107 556
41.92118 543
41.94129 534
41.96141 549
41.98152 520
42.00163 498
42.02175 538
42.04186 520
42.06198 514
42.08209 553
42.1022 565
42.12232 500
42.14243 494
42.16254 484
42.18266 548
42.20277 551
42.22289 546
42.243 550
42.26311 588
42.28323 583
42.30334 629
42.32345 635
42.34357 693
42.36368 717
42.38379 704
42.40391 697
42.42402 699
42.44414 682
42.46425 657
42.48436 691
42.50448 639
42.52459 618
42.5447 591
42.56482 561
42.58493 550
42.60505 532
42.62516 529
42.64527 494
42.66539 497
42.6855 527
42.70561 508
42.72573 519
42.74584 474
42.76595 538
42.78607 523
42.80618 514
42.8263 503
42.84641 500
42.86652 480
42.88664 490
42.90675 486
42.92686 487
42.94698 482
42.96709 487
42.98721 514
43.00732 501
43.02743 514
43.04755 515
43.06766 527
43.08777 524
43.10789 504
43.128 553
43.14812 495
43.16823 487
43.18834 530
43.20846 462
43.22857 472
43.24868 450
43.2688 496
43.28891 514
43.30902 515
43.32914 502
43.34925 487
43.36937 467
43.38948 512
43.40959 548
43.42971 484
43.44982 475
43.46993 480
43.49005 533
43.51016 513
43.53028 489
43.55039 507
43.5705 468
43.59062 531
43.61073 507
43.63084 485
43.65096 491
43.67107 491
43.69119 521
43.7113 490
43.73141 452
43.75153 496
43.77164 501
43.79175 490
43.81187 515
43.83198 468
43.85209 478
43.87221 500
43.89232 522
43.91244 469
43.93255 467
43.95266 523
43.97278 485
43.99289 496
44.013 522
44.03312 517
44.05323 535
44.07335 508
44.09346 454
44.11357 488
44.13369 467
44.1538 503
44.17391 508
44.19403 492
44.21414 474
44.23426 511
44.25437 520
44.27448 479
44.2946 505
44.31471 517
44.33482 497
44.35494 524
44.37505 515
44.39516 501
44.41528 481
44.43539 516
44.45551 477
44.47562 508
44.49573 502
44.51585 519
44.53596 524
44.55607 468
44.57619 501
44.5963 504
44.61642 485
44.63653 511
44.65664 515
44.67676 494
44.69687 511
44.71698 488
44.7371 534
44.75721 482
44.77732 481
44.79744 528
44.81755 513
44.83767 467
44.85778 503
44.87789 495
44.89801 510
44.91812 486
44.93823 504
44.95835 534
44.97846 538
44.99858 525
45.01869 507
45.0388 516
45.05892 587
45.07903 518
45.09914 541
45.11926 540
45.13937 525
45.15949 606
45.1796 566
45.19971 571
45.21983 531
45.23994 550
45.26005 604
45.28017 600
45.30028 545
45.32039 590
45.34051 611
45.36062 586
45.38074 615
45.40085 622
45.42096 580
45.44108 589
45.46119 620
45.4813 571
45.50142 587
45.52153 579
45.54165 595
45.56176 607
45.58187 584
45.60199 603
45.6221 624
45.64221 620
45.66233 573
45.68244 642
45.70256 660
45.72267 676
45.74278 687
45.7629 652
45.78301 661
45.80312 597
45.82324 573
45.84335 615
45.86346 587
45.88358 570
45.90369 534
45.92381 568
45.94392 557
45.96403 559
45.98415 550
46.00426 577
46.02437 499
46.04449 526
46.0646 552
46.08472 547
46.10483 564
46.12494 509
46.14506 520
46.16517 537
46.18528 529
46.2054 557
46.22551 553
46.24563 541
46.26574 534
46.28585 548
46.30597 529
46.32608 506
46.34619 515
46.36631 489
46.38642 504
46.40653 531
46.42665 534
46.44676 523
46.46688 495
46.48699 491
46.5071 552
46.52722 502
46.54733 516
46.56744 565
46.58756 502
46.60767 479
46.62779 537
46.6479 530
46.66801 533
46.68813 524
46.70824 506
46.72835 535
46.74847 534
46.76858 500
46.78869 564
46.80881 512
46.82892 495
46.84904 506
46.86915 533
46.88926 562
46.90938 520
46.92949 508
46.9496 563
46.96972 530
46.98983 507
47.00995 522
47.03006 571
47.05017 534
47.07029 539
47.0904 555
47.11051 497
47.13063 523
47.15074 510
47.17086 543
47.19097 498
47.21108 539
47.2312 552
47.25131 530
47.27142 541
47.29154 546
47.31165 505
47.33176 578
47.35188 501
47.37199 546
47.39211 532
47.41222 531
47.43233 519
47.45245 486
47.47256 515
47.49267 534
47.51279 501
47.5329 555
47.55302 523
47.57313 490
47.59324 530
47.61336 540
47.63347 524
47.65358 596
47.6737 570
47.69381 527
47.71393 543
47.73404 563
47.75415 533
47.77427 500
47.79438 566
47.81449 542
47.83461 566
47.85472 615
47.87483 559
47.89495 528
47.91506 555
47.93518 602
47.95529 536
47.9754 526
47.99552 540
48.01563 538
48.03574 515
48.05586 582
48.07597 503
48.09609 527
48.1162 551
48.13631 541
48.15643 523
48.17654 532
48.19665 526
48.21677 520
48.23688 538
48.257 563
48.27711 521
48.29722 551
48.31734 515
48.33745 533
48.35756 547
48.37768 553
48.39779 544
48.4179 549
48.43802 526
48.45813 563
48.47825 493
48.49836 565
48.51847 543
48.53859 579
48.5587 540
48.57881 544
48.59893 568
48.61904 530
48.63916 553
48.65927 544
48.67938 547
48.6995 561
48.71961 517
48.73972 556
48.75984 608
48.77995 576
48.80006 555
48.82018 550
48.84029 571
48.86041 533
48.88052 554
48.90063 567
48.92075 525
48.94086 551
48.96097 598
48.98109 541
49.0012 502
49.02132 539
49.04143 528
49.06154 526
49.08166 546
49.10177 524
49.12188 550
49.142 540
49.16211 509
49.18223 532
49.20234 533
49.22245 551
49.24257 553
49.26268 525
49.28279 551
49.30291 537
49.32302 548
49.34313 586
49.36325 557
49.38336 568
49.40348 546
49.42359 593
49.4437 547
49.46382 529
49.48393 538
49.50404 573
49.52416 621
49.54427 567
49.56439 560
49.5845 536
49.60461 597
49.62473 548
49.64484 560
49.66495 573
49.68507 577
49.70518 519
49.7253 550
49.74541 551
49.76552 561
49.78564 515
49.80575 604
49.82586 561
49.84598 592
49.86609 585
49.8862 587
49.90632 625
49.92643 619
49.94655 684
49.96666 713
49.98677 731
50.00689 782
50.027 871
50.04711 939
50.06723 953
50.08734 976
50.10746 965
50.12757 878
50.14768 879
50.1678 812
50.18791 793
50.20802 741
50.22814 721
50.24825 691
50.26837 632
50.28848 630
50.30859 610
50.32871 604
50.34882 570
50.36893 560
50.38905 566
50.40916 528
50.42927 566
50.44939 514
50.4695 519
50.48962 578
50.50973 592
50.52984 520
50.54996 511
50.57007 553
50.59018 528
50.6103 503
50.63041 481
50.65053 529
50.67064 492
50.69075 549
50.71087 557
50.73098 495
50.75109 548
50.77121 509
50.79132 531
50.81143 518
50.83155 518
50.85166 532
50.87178 543
50.89189 520
50.912 519
50.93212 521
50.95223 518
50.97234 537
50.99246 542
51.01257 529
51.03269 526
51.0528 530
51.07291 512
51.09303 498
51.11314 533
51.13325 502
51.15337 556
51.17348 507
51.1936 486
51.21371 518
51.23382 507
51.25394 502
51.27405 514
51.29416 514
51.31428 534
51.33439 520
51.3545 523
51.37462 512
51.39473 525
51.41485 504
51.43496 469
51.45507 502
51.47519 517
51.4953 450
51.51541 466
51.53553 523
51.55564 504
51.57576 514
51.59587 519
51.61598 487
51.6361 477
51.65621 455
51.67632 478
51.69644 482
51.71655 464
51.73667 500
51.75678 536
51.77689 514
51.79701 484
51.81712 501
51.83723 508
51.85735 425
51.87746 529
51.89757 498
51.91769 517
51.9378 453
51.95792 480
51.97803 517
51.99814 519
52.01826 496
52.03837 520
52.05848 520
52.0786 496
52.09871 519
52.11883 510
52.13894 490
52.15905 473
52.17917 515
52.19928 520
52.21939 524
52.23951 546
52.25962 522
52.27974 511
52.29985 502
52.31996 555
52.34008 506
52.36019 481
52.3803 519
52.40042 483
52.42053 479
52.44064 503
52.46076 523
52.48087 511
52.50099 520
52.5211 468
52.54121 519
52.56133 520
52.58144 489
52.60155 491
52.62167 481
52.64178 544
52.6619 498
52.68201 507
52.70212 522
52.72224 527
52.74235 482
52.76246 552
52.78258 519
52.80269 498
52.8228 524
52.84292 571
52.86303 535
52.88315 587
52.90326 554
52.92337 554
52.94349 563
52.9636 614
52.98371 536
53.00383 553
53.02394 568
53.04406 532
53.06417 568
53.08428 586
53.1044 602
53.12451 631
53.14462 611
53.16474 553
53.18485 568
53.20497 588
53.22508 619
53.24519 560
53.26531 584
53.28542 564
53.30553 563
53.32565 588
53.34576 579
53.36587 592
53.38599 567
53.4061 578
53.42622 603
53.44633 573
53.46644 612
53.48656 561
53.50667 601
53.52678 615
53.5469 581
53.56701 640
53.58713 567
53.60724 593
53.62735 605
53.64747 604
53.66758 628
53.68769 654
53.70781 591
53.72792 619
53.74804 649
53.76815 600
53.78826 649
53.80838 658
53.82849 639
53.8486 610
53.86872 615
53.88883 695
53.90894 637
53.92906 658
53.94917 641
53.96929 631
53.9894 662
54.00951 658
54.02963 636
54.04974 696
54.06985 707
54.08997 676
54.11008 677
54.1302 685
54.15031 649
54.17042 718
54.19054 700
54.21065 667
54.23076 657
54.25088 665
54.27099 677
54.29111 695
54.31122 713
54.33133 688
54.35145 693
54.37156 636
54.39167 694
54.41179 701
54.4319 682
54.45201 670
54.47213 677
54.49224 662
54.51236 664
54.53247 674
54.55258 667
54.5727 681
54.59281 671
54.61292 638
54.63304 693
54.65315 733
54.67327 739
54.69338 692
54.71349 732
54.73361 708
54.75372 796
54.77383 741
54.79395 773
54.81406 816
54.83417 799
54.85429 758
54.8744 772
54.89452 723
54.91463 778
54.93474 697
54.95486 713
54.97497 704
54.99508 685
55.0152 734
55.03531 692
55.05543 674
55.07554 668
55.09565 686
55.11577 606
55.13588 646
55.15599 658
55.17611 682
55.19622 632
55.21634 612
55.23645 664
55.25656 741
55.27668 686
55.29679 677
55.3169 663
55.33702 654
55.35713 647
55.37724 652
55.39736 629
55.41747 628
55.43759 618
55.4577 639
55.47781 582
55.49793 652
55.51804 548
55.53815 598
55.55827 588
55.57838 586
55.5985 572
55.61861 562
55.63872 559
55.65884 572
55.67895 579
55.69906 591
55.71918 563
55.73929 610
55.75941 601
55.77952 574
55.79963 565
55.81975 562
55.83986 572
55.85997 546
55.88009 546
55.9002 554
55.92031 530
55.94043 568
55.96054 554
55.98066 573
56.00077 531
56.02088 583
56.041 535
56.06111 578
56.08122 529
56.10134 598
56.12145 584
56.14157 547
56.16168 570
56.18179 586
56.20191 577
56.22202 592
56.24213 576
56.26225 586
56.28236 603
56.30248 578
56.32259 555
56.3427 555
56.36282 551
56.38293 556
56.40304 534
56.42316 629
56.44327 584
56.46338 566
56.4835 569
56.50361 573
56.52373 559
56.54384 563
56.56395 552
56.58407 556
56.60418 578
56.62429 568
56.64441 593
56.66452 560
56.68464 568
56.70475 544
56.72486 579
56.74498 543
56.76509 530
56.7852 506
56.80532 553
56.82543 511
56.84554 560
56.86566 562
56.88577 547
56.90589 531
56.926 589
56.94611 509
56.96623 578
56.98634 538
57.00645 566
57.02657 479
57.04668 537
57.0668 545
57.08691 576
57.10702 506
57.12714 548
57.14725 584
57.16736 534
57.18748 511
57.20759 551
57.22771 558
57.24782 549
57.26793 546
57.28805 521
57.30816 518
57.32827 534
57.34839 571
57.3685 535
57.38861 504
57.40873 496
57.42884 495
57.44896 547
57.46907 509
57.48918 517
57.5093 535
57.52941 551
57.54952 523
57.56964 525
57.58975 530
57.60987 558
57.62998 520
57.65009 548
57.67021 492
57.69032 529
57.71043 531
57.73055 528
57.75066 513
57.77078 511
57.79089 540
57.811 562
57.83112 546
57.85123 542
57.87134 511
57.89146 538
57.91157 498
57.93168 517
57.9518 514
57.97191 531
57.99203 560
58.01214 497
58.03225 545
58.05237 545
58.07248 504
58.09259 560
58.11271 525
58.13282 508
58.15294 531
58.17305 526
58.19316 561
58.21328 512
58.23339 528
58.2535 510
58.27362 516
58.29373 516
58.31385 493
58.33396 528
58.35407 482
58.37419 550
58.3943 472
58.41441 503
58.43453 512
58.45464 571
58.47475 510
58.49487 531
58.51498 460
58.5351 506
58.55521 537
58.57532 503
58.59544 484
58.61555 500
58.63566 518
58.65578 461
58.67589 489
58.69601 517
58.71612 524
58.73623 467
58.75635 491
58.77646 517
58.79657 462
58.81669 481
58.8368 484
58.85691 479
58.87703 491
58.89714 512
58.91726 477
58.93737 508
58.95748 517
58.9776 519
58.99771 553
59.01782 520
59.03794 522
59.05805 500
59.07817 454
59.09828 481
59.11839 546
59.13851 519
59.15862 524
59.17873 525
59.19885 561
59.21896 533
59.23908 520
59.25919 541
59.2793 520
59.29942 512
59.31953 509
59.33964 524
59.35976 542
59.37987 561
59.39998 558
59.4201 586
59.44021 554
59.46033 559
59.48044 516
59.50055 551
59.52067 567
59.54078 575
59.56089 586
59.58101 576
59.60112 586
59.62124 558
59.64135 577
59.66146 602
59.68158 564
59.70169 596
59.7218 599
59.74192 626
59.76203 625
59.78215 679
59.80226 756
59.82237 767
59.84249 777
59.8626 772
59.88271 862
59.90283 881
59.92294 831
59.94305 798
59.96317 729
59.98328 693
60.0034 683
60.02351 719
60.04362 743
60.06374 676
60.08385 601
60.10396 665
60.12408 606
60.14419 595
60.16431 561
60.18442 584
60.20453 537
60.22465 597
60.24476 535
60.26487 534
60.28499 552
60.3051 544
60.32522 522
60.34533 487
60.36544 563
60.38556 516
60.40567 519
60.42578 492
60.4459 553
60.46601 521
60.48612 491
60.50624 481
60.52635 527
60.54647 529
60.56658 479
60.58669 519
60.60681 521
60.62692 507
60.64703 527
60.66715 485
60.68726 511
60.70738 504
60.72749 498
60.7476 516
60.76772 510
60.78783 511
60.80794 483
60.82806 531
60.84817 497
60.86828 523
60.8884 498
60.90851 548
60.92863 519
60.94874 536
60.96885 480
60.98897 498
61.00908 506
61.02919 539
61.04931 512
61.06942 497
61.08954 478
61.10965 497
61.12976 474
61.14988 512
61.16999 525
61.1901 507
61.21022 512
61.23033 543
61.25045 500
61.27056 508
61.29067 516
61.31079 538
61.3309 548
61.35101 509
61.37113 551
61.39124 557
61.41135 557
61.43147 504
61.45158 562
61.4717 545
61.49181 566
61.51192 586
61.53204 567
61.55215 565
61.57226 600
61.59238 612
61.61249 564
61.63261 575
61.65272 583
61.67283 587
61.69295 643
61.71306 616
61.73317 608
61.75329 567
61.7734 575
61.79352 570
61.81363 563
61.83374 574
61.85386 645
61.87397 613
61.89408 629
61.9142 630
61.93431 630
61.95442 690
61.97454 649
61.99465 613
62.01477 719
62.03488 731
62.05499 714
62.07511 783
62.09522 723
62.11533 708
62.13545 707
62.15556 795
62.17568 777
62.19579 747
62.2159 757
62.23602 766
62.25613 721
62.27624 758
62.29636 750
62.31647 752
62.33659 711
62.3567 707
62.37681 692
62.39693 675
62.41704 697
62.43715 677
62.45727 632
62.47738 670
62.49749 665
62.51761 629
62.53772 627
62.55784 665
62.57795 624
62.59806 619
62.61818 596
62.63829 594
62.6584 601
62.67852 574
62.69863 568
62.71875 571
62.73886 577
62.75897 567
62.77909 569
62.7992 601
62.81931 567
62.83943 587
62.85954 529
62.87965 500
62.89977 530
62.91988 567
62.94 613
62.96011 537
62.98022 530
63.00034 553
63.02045 533
63.04056 560
63.06068 567
63.08079 575
63.10091 592
63.12102 597
63.14113 588
63.16125 569
63.18136 524
63.20147 600
63.22159 561
63.2417 588
63.26182 579
63.28193 618
63.30204 584
63.32216 580
63.34227 558
63.36238 563
63.3825 529
63.40261 533
63.42272 574
63.44284 563
63.46295 552
63.48307 535
63.50318 557
63.52329 578
63.54341 582
63.56352 580
63.58363 545
63.60375 573
63.62386 603
63.64398 559
63.66409 591
63.6842 564
63.70432 607
63.72443 558
63.74454 590
63.76466 558
63.78477 595
63.80489 609
63.825 568
63.84511 639
63.86523 644
63.88534 590
63.90545 637
63.92557 653
63.94568 637
63.96579 596
63.98591 627
64.00602 640
64.02614 663
64.04625 615
64.06636 614
64.08648 623
64.10659 623
64.1267 605
64.14682 577
64.16693 623
64.18705 590
64.20716 592
64.22727 560
64.24739 571
64.2675 572
64.28761 540
64.30773 586
64.32784 573
64.34796 557
64.36807 553
64.38818 518
64.4083 553
64.42841 566
64.44852 556
64.46864 559
64.48875 544
64.50886 480
64.52898 554
64.54909 527
64.56921 519
64.58932 525
64.60943 560
64.62955 507
64.64966 501
64.66977 534
64.68989 509
64.71 492
64.73012 532
64.75023 548
64.77034 505
64.79046 533
64.81057 503
64.83068 567
64.8508 504
64.87091 485
64.89102 458
64.91114 482
64.93125 515
64.95137 493
64.97148 513
64.99159 528
65.01171 515
65.03182 490
65.05193 482
65.07205 504
65.09216 490
65.11228 557
65.13239 505
65.1525 556
65.17262 491
65.19273 479
65.21284 493
65.23296 466
65.25307 528
65.27319 503
65.2933 511
65.31341 510
65.33353 526
65.35364 492
65.37375 466
65.39387 527
65.41398 497
65.43409 523
65.45421 479
65.47432 515
65.49444 487
65.51455 496
65.53466 513
65.55478 513
65.57489 501
65.595 516
65.61512 508
65.63523 470
65.65535 545
65.67546 492
65.69557 491
65.71569 528
65.7358 559
65.75591 453
65.77603 478
65.79614 477
65.81626 506
65.83637 483
65.85648 472
65.8766 517
65.89671 472
65.91682 477
65.93694 466
65.95705 487
65.97716 479
65.99728 485
66.01739 501
66.03751 495
66.05762 487
66.07773 492
66.09785 533
66.11796 552
66.13807 543
66.15819 512
66.1783 507
66.19842 523
66.21853 520
66.23864 499
66.25876 478
66.27887 501
66.29898 434
66.3191 500
66.33921 489
66.35933 486
66.37944 481
66.39955 462
66.41967 496
66.43978 527
66.45989 517
66.48001 480
66.50012 496
66.52023 476
66.54035 481
66.56046 465
66.58058 550
66.60069 535
66.6208 465
66.64092 477
66.66103 469
66.68114 515
66.70126 498
66.72137 487
66.74149 491
66.7616 481
66.78171 501
66.80183 542
66.82194 501
66.84205 489
66.86217 491
66.88228 490
66.90239 508
66.92251 510
66.94262 493
66.96274 469
66.98285 473
67.00296 509
67.02308 508
67.04319 487
67.0633 489
67.08342 478
67.10353 521
67.12365 514
67.14376 519
67.16387 478
67.18399 502
67.2041 511
67.22421 501
67.24433 507
67.26444 489
67.28456 559
67.30467 502
67.32478 466
67.3449 525
67.36501 510
67.38512 533
67.40524 508
67.42535 501
67.44546 544
67.46558 501
67.48569 498
67.50581 494
67.52592 576
67.54603 574
67.56615 573
67.58626 623
67.60637 623
67.62649 643
67.6466 654
67.66672 639
67.68683 664
67.70694 642
67.72706 618
67.74717 653
67.76728 605
67.7874 617
67.80751 672
67.82763 599
67.84774 635
67.86785 671
67.88797 593
67.90808 644
67.92819 644
67.94831 634
67.96842 657
67.98853 633
68.00865 694
68.02876 743
68.04888 712
68.06899 736
68.0891 722
68.10922 757
68.12933 721
68.14944 710
68.16956 709
68.18967 672
68.20979 720
68.2299 708
68.25001 699
68.27013 715
68.29024 722
68.31035 641
68.33047 592
68.35058 615
68.3707 596
68.39081 601
68.41092 585
68.43104 524
68.45115 543
68.47126 561
68.49138 562
68.51149 508
68.5316 509
68.55172 500
68.57183 544
68.59195 506
68.61206 496
68.63217 551
68.65229 551
68.6724 502
68.69251 517
68.71263 505
68.73274 492
68.75286 481
68.77297 486
68.79308 460
68.8132 519
68.83331 500
68.85342 515
68.87354 556
68.89365 513
68.91376 500
68.93388 515
68.95399 511
68.97411 503
68.99422 503
69.01433 522
69.03445 452
69.05456 452
69.07467 520
69.09479 491
69.1149 490
69.13502 470
69.15513 516
69.17524 452
69.19536 475
69.21547 534
69.23558 523
69.2557 482
69.27581 491
69.29593 522
69.31604 497
69.33615 469
69.35627 512
69.37638 489
69.39649 500
69.41661 467
69.43672 514
69.45683 481
69.47695 500
69.49706 537
69.51718 478
69.53729 480
69.5574 529
69.57752 482
69.59763 483
69.61774 497
69.63786 493
69.65797 500
69.67809 485
69.6982 474
69.71831 468
69.73843 527
69.75854 475
69.77865 484
69.79877 534
69.81888 472
69.839 477
69.85911 506
69.87922 490
69.89934 491
69.91945 519
69.93956 522
69.95968 496
69.97979 499
69.9999 458
70.02002 506
70.04013 505
70.06025 504
70.08036 456
70.10047 522
70.12059 488
70.1407 531
70.16081 555
70.18093 538
70.20104 497
70.22116 512
70.24127 506
70.26138 484
70.2815 502
70.30161 544
70.32172 480
70.34184 493
70.36195 504
70.38207 504
70.40218 514
70.42229 508
70.44241 528
70.46252 478
70.48263 468
70.50275 477
70.52286 481
70.54297 503
70.56309 494
70.5832 469
70.60332 511
70.62343 476
70.64354 461
70.66366 467
70.68377 454
70.70388 471
70.724 474
70.74411 500
70.76423 491
70.78434 502
70.80445 493
70.82457 505
70.84468 478
70.86479 488
70.88491 448
70.90502 486
70.92513 477
70.94525 477
70.96536 487
70.98548 470
71.00559 444
71.0257 494
71.04582 498
71.06593 499
71.08604 441
71.10616 514
71.12627 476
71.14639 455
71.1665 454
71.18661 474
71.20673 464
71.22684 467
71.24695 482
71.26707 479
71.28718 487
71.3073 468
71.32741 460
71.34752 469
71.36764 473
71.38775 469
71.40786 473
71.42798 473
71.44809 489
71.4682 514
71.48832 456
71.50843 540
71.52855 506
71.54866 519
71.56877 475
71.58889 514
71.609 545
71.62911 467
71.64923 509
71.66934 503
71.68946 492
71.70957 490
71.72968 485
71.7498 531
71.76991 505
71.79002 499
71.81014 508
71.83025 500
71.85037 485
71.87048 547
71.89059 497
71.91071 511
71.93082 495
71.95093 503
71.97105 493
71.99116 496
72.01127 482
72.03139 455
72.0515 513
72.07162 539
72.09173 524
72.11184 452
72.13196 517
72.15207 507
72.17218 479
72.1923 519
72.21241 504
72.23253 491
72.25264 491
72.27275 525
72.29287 497
72.31298 506
72.33309 543
72.35321 509
72.37332 504
72.39344 511
72.41355 525
72.43366 494
72.45378 480
72.47389 483
72.494 512
72.51412 504
72.53423 496
72.55434 492
72.57446 485
72.59457 500
72.61469 458
72.6348 473
72.65491 473
72.67503 497
72.69514 491
72.71525 520
72.73537 491
72.75548 486
72.7756 508
72.79571 461
72.81582 481
72.83594 489
72.85605 494
72.87616 553
72.89628 443
72.91639 502
72.9365 490
72.95662 521
72.97673 504
72.99685 491
73.01696 545
73.03707 517
73.05719 506
73.0773 476
73.09741 513
73.11753 508
73.13764 506
73.15776 521
73.17787 513
73.19798 498
73.2181 525
73.23821 530
73.25832 522
73.27844 563
73.29855 546
73.31867 518
73.33878 560
73.35889 566
73.37901 586
73.39912 576
73.41923 540
73.43935 544
73.45946 549
73.47957 529
73.49969 535
73.5198 502
73.53992 520
73.56003 578
73.58014 509
73.60026 500
73.62037 560
73.64048 508
73.6606 539
73.68071 519
73.70083 533
73.72094 526
73.74105 461
73.76117 492
73.78128 495
73.80139 519
73.82151 524
73.84162 471
73.86174 463
73.88185 525
73.90196 555
73.92208 508
73.94219 512
73.9623 470
73.98242 488
74.00253 494
74.02264 494
74.04276 505
74.06287 499
74.08299 509
74.1031 513
74.12321 499
74.14333 489
74.16344 461
74.18355 472
74.20367 494
74.22378 481
74.2439 502
74.26401 451
74.28412 509
74.30424 524
74.32435 508
74.34446 454
74.36458 495
74.38469 496
74.40481 517
74.42492 490
74.44503 483
74.46515 481
74.48526 493
74.50537 469
74.52549 479
74.5456 447
74.56571 501
74.58583 516
74.60594 468
74.62606 483
74.64617 486
74.66628 489
74.6864 470
74.70651 470
74.72662 516
74.74674 503
74.76685 458
74.78697 464
74.80708 520
74.82719 496
74.84731 508
74.86742 515
74.88753 431
74.90765 480
74.92776 492
74.94787 503
74.96799 491
74.9881 523
75.00822 483
