3.00117 19438
3.02128 19197
3.0414 18531
3.06151 18314
3.08162 17834
3.10174 17140
3.12185 16807
3.14197 16225
3.16208 15663
3.18219 15489
3.20231 15049
3.22242 14525
3.24253 13987
3.26265 13502
3.28276 13364
3.30288 12851
3.32299 12317
3.3431 11902
3.36322 11758
3.38333 11082
3.40344 10848
3.42356 10566
3.44367 9953
3.46379 9851
3.4839 9694
3.50401 8936
3.52413 8880
3.54424 8333
3.56435 8504
3.58447 8173
3.60458 7715
3.62469 7394
3.64481 7059
3.66492 6763
3.68504 6606
3.70515 6098
3.72526 6324
3.74538 5927
3.76549 5518
3.7856 5440
3.80572 5084
3.82583 5103
3.84595 4639
3.86606 4593
3.88617 4455
3.90629 4030
3.9264 3989
3.94651 3796
3.96663 3673
3.98674 3547
4.00686 3174
4.02697 3203
4.04708 3009
4.0672 2843
4.08731 2919
4.10742 2623
4.12754 2571
4.14765 2352
4.16776 2348
4.18788 2274
4.20799 2133
4.22811 2015
4.24822 1957
4.26833 1930
4.28845 1840
4.30856 1704
4.32867 1675
4.34879 1628
4.3689 1617
4.38902 1589
4.40913 1390
4.42924 1517
4.44936 1403
4.46947 1375
4.48958 1464
4.5097 1291
4.52981 1285
4.54992 1301
4.57004 1312
4.59015 1246
4.61027 1095
4.63038 1173
4.65049 1120
4.67061 1081
4.69072 1122
4.71083 1016
4.73095 990
4.75106 963
4.77118 904
4.79129 977
4.8114 901
4.83152 900
4.85163 894
4.87174 856
4.89186 920
4.91197 779
4.93209 759
4.9522 817
4.97231 724
4.99243 744
5.01254 737
5.03265 714
5.05277 741
5.07288 673
5.09299 692
5.11311 667
5.13322 625
5.15334 686
5.17345 590
5.19356 587
5.21368 614
5.23379 615
5.2539 596
5.27402 556
5.29413 554
5.31425 500
5.33436 571
5.35447 519
5.37459 513
5.3947 467
5.41481 535
5.43493 487
5.45504 404
5.47516 470
5.49527 439
5.51538 439
5.5355 407
5.55561 438
5.57572 404
5.59584 397
5.61595 389
5.63606 395
5.65618 366
5.67629 432
5.69641 378
5.71652 373
5.73663 386
5.75675 361
5.77686 376
5.79697 345
5.81709 375
5.8372 383
5.85732 321
5.87743 344
5.89754 317
5.91766 310
5.93777 305
5.95788 307
5.978 310
5.99811 313
6.01823 311
6.03834 334
6.05845 310
6.07857 322
6.09868 286
6.11879 332
6.13891 327
6.15902 306
6.17913 320
6.19925 324
6.21936 373
6.23948 311
6.25959 327
6.2797 292
6.29982 314
6.31993 288
6.34004 310
6.36016 289
6.38027 283
6.40039 293
6.4205 300
6.44061 306
6.46073 278
6.48084 263
6.50095 307
6.52107 266
6.54118 278
6.56129 323
6.58141 304
6.60152 267
6.62164 275
6.64175 257
6.66186 264
6.68198 274
6.70209 301
6.7222 290
6.74232 269
6.76243 246
6.78255 260
6.80266 289
6.82277 257
6.84289 282
6.863 269
6.88311 304
6.90323 262
6.92334 274
6.94346 257
6.96357 260
6.98368 296
7.0038 273
7.02391 277
7.04402 248
7.06414 283
7.08425 265
7.10436 263
7.12448 246
7.14459 300
7.16471 248
7.18482 253
7.20493 281
7.22505 276
7.24516 309
7.26527 282
7.28539 272
7.3055 293
7.32562 286
7.34573 238
7.36584 246
7.38596 246
7.40607 245
7.42618 277
7.4463 263
7.46641 259
7.48653 267
7.50664 260
7.52675 284
7.54687 309
7.56698 239
7.58709 267
7.60721 293
7.62732 279
7.64743 257
7.66755 272
7.68766 236
7.70778 275
7.72789 260
7.748 266
7.76812 241
7.78823 277
7.80834 277
7.82846 288
7.84857 268
7.86869 260
7.8888 276
7.90891 276
7.92903 304
7.94914 242
7.96925 285
7.98937 260
8.00948 241
8.0296 264
8.04971 265
8.06982 254
8.08994 296
8.11005 275
8.13016 308
8.15028 272
8.17039 248
8.1905 277
8.21062 253
8.23073 244
8.25085 263
8.27096 297
8.29107 291
8.31119 229
8.3313 296
8.35141 283
8.37153 240
8.39164 258
8.41176 300
8.43187 280
8.45198 296
8.4721 292
8.49221 255
8.51232 257
8.53244 260
8.55255 296
8.57266 287
8.59278 247
8.61289 278
8.63301 285
8.65312 285
8.67323 294
8.69335 273
8.71346 309
8.73357 307
8.75369 270
8.7738 276
8.79392 266
8.81403 271
8.83414 282
8.85426 317
8.87437 260
8.89448 267
8.9146 312
8.93471 274
8.95483 297
8.97494 283
8.99505 271
9.01517 282
9.03528 253
9.05539 293
9.07551 282
9.09562 256
9.11573 286
9.13585 258
9.15596 274
9.17608 258
9.19619 291
9.2163 279
9.23642 296
9.25653 291
9.27664 245
9.29676 290
9.31687 255
9.33699 260
9.3571 265
9.37721 322
9.39733 277
9.41744 283
9.43755 267
9.45767 277
9.47778 270
9.4979 281
9.51801 279
9.53812 296
9.55824 251
9.57835 284
9.59846 260
9.61858 287
9.63869 252
9.6588 287
9.67892 296
9.69903 294
9.71915 293
9.73926 291
9.75937 254
9.77949 257
9.7996 270
9.81971 260
9.83983 290
9.85994 245
9.88006 272
9.90017 299
9.92028 265
9.9404 245
9.96051 270
9.98062 271
10.00074 308
10.02085 303
10.04097 285
10.06108 290
10.08119 279
10.10131 291
10.12142 282
10.14153 293
10.16165 291
10.18176 285
10.20187 247
10.22199 319
10.2421 281
10.26222 281
10.28233 268
10.30244 288
10.32256 256
10.34267 262
10.36278 269
10.3829 278
10.40301 246
10.42313 288
10.44324 246
10.46335 266
10.48347 238
10.50358 289
10.52369 254
10.54381 272
10.56392 277
10.58403 292
10.60415 294
10.62426 249
10.64438 263
10.66449 239
10.6846 269
10.70472 270
10.72483 274
10.74494 264
10.76506 270
10.78517 307
10.80529 274
10.8254 262
10.84551 262
10.86563 294
10.88574 313
10.90585 295
10.92597 279
10.94608 258
10.9662 287
10.98631 299
11.00642 257
11.02654 273
11.04665 271
11.06676 273
11.08688 276
11.10699 291
11.1271 281
11.14722 281
11.16733 290
11.18745 276
11.20756 275
11.22767 283
11.24779 306
11.2679 298
11.28801 250
11.30813 302
11.32824 262
11.34836 286
11.36847 287
11.38858 302
11.4087 301
11.42881 292
11.44892 295
11.46904 295
11.48915 277
11.50927 290
11.52938 283
11.54949 304
11.56961 280
11.58972 291
11.60983 310
11.62995 314
11.65006 307
11.67017 292
11.69029 301
11.7104 330
11.73052 325
11.75063 325
11.77074 307
11.79086 313
11.81097 300
11.83108 323
11.8512 312
11.87131 301
11.89143 332
11.91154 338
11.93165 360
11.95177 371
11.97188 375
11.99199 361
12.01211 378
12.03222 363
12.05234 356
12.07245 380
12.09256 384
12.11268 395
12.13279 393
12.1529 418
12.17302 444
12.19313 469
12.21324 442
12.23336 451
12.25347 481
12.27359 487
12.2937 435
12.31381 445
12.33393 456
12.35404 458
12.37415 480
12.39427 464
12.41438 470
12.4345 431
12.45461 464
12.47472 416
12.49484 432
12.51495 393
12.53506 357
12.55518 341
12.57529 349
12.5954 369
12.61552 349
12.63563 328
12.65575 300
12.67586 333
12.69597 300
12.71609 269
12.7362 287
12.75631 320
12.77643 312
12.79654 278
12.81666 316
12.83677 284
12.85688 284
12.877 275
12.89711 259
12.91722 297
12.93734 303
12.95745 288
12.97757 276
12.99768 263
13.01779 295
13.03791 273
13.05802 240
13.07813 260
13.09825 236
13.11836 269
13.13847 265
13.15859 252
13.1787 273
13.19882 270
13.21893 260
13.23904 250
13.25916 234
13.27927 247
13.29938 236
13.3195 283
13.33961 221
13.35973 263
13.37984 266
13.39995 250
13.42007 252
13.44018 273
13.46029 255
13.48041 260
13.50052 251
13.52064 243
13.54075 260
13.56086 258
13.58098 256
13.60109 226
13.6212 256
13.64132 261
13.66143 273
13.68154 289
13.70166 256
13.72177 287
13.74189 262
13.762 264
13.78211 242
13.80223 264
13.82234 261
13.84245 230
13.86257 225
13.88268 241
13.9028 209
13.92291 252
13.94302 236
13.96314 229
13.98325 242
14.00336 234
14.02348 254
14.04359 252
14.06371 255
14.08382 249
14.10393 269
14.12405 249
14.14416 251
14.16427 224
14.18439 258
14.2045 227
14.22461 199
14.24473 250
14.26484 222
14.28496 232
14.30507 245
14.32518 225
14.3453 220
14.36541 235
14.38552 240
14.40564 266
14.42575 241
14.44587 259
14.46598 234
14.48609 260
14.50621 225
14.52632 247
14.54643 241
14.56655 230
14.58666 271
14.60677 225
14.62689 226
14.647 251
14.66712 253
14.68723 245
14.70734 219
14.72746 244
14.74757 240
14.76768 232
14.7878 215
14.80791 214
14.82803 231
14.84814 248
14.86825 225
14.88837 239
14.90848 232
14.92859 223
14.94871 230
14.96882 237
14.98894 222
15.00905 253
15.02916 223
15.04928 222
15.06939 226
15.0895 231
15.10962 242
15.12973 210
15.14984 238
15.16996 233
15.19007 224
15.21019 242
15.2303 226
15.25041 255
15.27053 265
15.29064 236
15.31075 252
15.33087 218
15.35098 218
15.3711 222
15.39121 228
15.41132 245
15.43144 245
15.45155 216
15.47166 247
15.49178 229
15.51189 217
15.53201 226
15.55212 194
15.57223 231
15.59235 225
15.61246 247
15.63257 213
15.65269 280
15.6728 205
15.69291 214
15.71303 228
15.73314 225
15.75326 190
15.77337 222
15.79348 241
15.8136 217
15.83371 221
15.85382 258
15.87394 226
15.89405 253
15.91417 222
15.93428 223
15.95439 230
15.97451 226
15.99462 211
16.01473 233
16.03485 211
16.05496 222
16.07508 203
16.09519 241
16.1153 248
16.13542 195
16.15553 234
16.17564 244
16.19576 206
16.21587 229
16.23598 237
16.2561 227
16.27621 239
16.29633 246
16.31644 226
16.33655 208
16.35667 220
16.37678 218
16.39689 207
16.41701 238
16.43712 240
16.45724 239
16.47735 224
16.49746 191
16.51758 220
16.53769 204
16.5578 228
16.57792 220
16.59803 249
16.61814 213
16.63826 210
16.65837 237
16.67849 240
16.6986 181
16.71871 201
16.73883 228
16.75894 220
16.77905 197
16.79917 215
16.81928 193
16.8394 256
16.85951 237
16.87962 221
16.89974 188
16.91985 205
16.93996 228
16.96008 218
16.98019 223
17.00031 213
17.02042 241
17.04053 232
17.06065 213
17.08076 223
17.10087 211
17.12099 229
17.1411 239
17.16121 235
17.18133 203
17.20144 207
17.22156 209
17.24167 238
17.26178 238
17.2819 214
17.30201 238
17.32212 243
17.34224 217
17.36235 210
17.38247 242
17.40258 246
17.42269 215
17.44281 228
17.46292 247
17.48303 238
17.50315 264
17.52326 220
17.54338 220
17.56349 243
17.5836 222
17.60372 235
17.62383 226
17.64394 230
17.66406 212
17.68417 234
17.70428 202
17.7244 239
17.74451 199
17.76463 253
17.78474 240
17.80485 237
17.82497 250
17.84508 217
17.86519 235
17.88531 224
17.90542 237
17.92554 230
17.94565 225
17.96576 242
17.98588 236
18.00599 234
18.0261 221
18.04622 220
18.06633 286
18.08645 267
18.10656 239
18.12667 232
18.14679 205
18.1669 226
18.18701 251
18.20713 280
18.22724 230
18.24735 235
18.26747 242
18.28758 229
18.3077 242
18.32781 244
18.34792 221
18.36804 241
18.38815 265
18.40826 245
18.42838 242
18.44849 220
18.46861 232
18.48872 220
18.50883 289
18.52895 263
18.54906 248
18.56917 257
18.58929 242
18.6094 233
18.62951 223
18.64963 249
18.66974 221
18.68986 260
18.70997 225
18.73008 255
18.7502 287
18.77031 252
18.79042 263
18.81054 247
18.83065 250
18.85077 239
18.87088 244
18.89099 227
18.91111 232
18.93122 262
18.95133 219
18.97145 216
18.99156 212
19.01168 223
19.03179 229
19.0519 232
19.07202 213
19.09213 219
19.11224 224
19.13236 228
19.15247 222
19.17258 245
19.1927 258
19.21281 206
19.23293 266
19.25304 238
19.27315 215
19.29327 235
19.31338 256
19.33349 248
19.35361 241
19.37372 246
19.39384 223
19.41395 246
19.43406 263
19.45418 285
19.47429 277
19.4944 292
19.51452 266
19.53463 296
19.55475 279
19.57486 279
19.59497 276
19.61509 323
19.6352 309
19.65531 334
19.67543 352
19.69554 388
19.71565 405
19.73577 409
19.75588 446
19.776 439
19.79611 523
19.81622 481
19.83634 515
19.85645 502
19.87656 567
19.89668 517
19.91679 542
19.93691 531
19.95702 499
19.97713 507
19.99725 480
20.01736 507
20.03747 455
20.05759 523
20.0777 496
20.09782 474
20.11793 469
20.13804 519
20.15816 495
20.17827 491
20.19838 485
20.2185 506
20.23861 486
20.25872 520
20.27884 425
20.29895 508
20.31907 477
20.33918 500
20.35929 500
20.37941 481
20.39952 456
20.41963 509
20.43975 538
20.45986 522
20.47998 610
20.50009 582
20.5202 541
20.54032 571
20.56043 616
20.58054 641
20.60066 683
20.62077 625
20.64088 840
20.661 922
20.68111 1108
20.70123 1491
20.72134 1790
20.74145 2375
20.76157 3139
20.78168 3949
20.80179 4903
20.82191 5759
20.84202 6091
20.86214 5888
20.88225 5535
20.90236 4281
20.92248 3224
20.94259 2283
20.9627 1506
20.98282 1042
21.00293 796
21.02305 668
21.04316 669
21.06327 569
21.08339 541
21.1035 553
21.12361 542
21.14373 501
21.16384 528
21.18395 471
21.20407 464
21.22418 514
21.2443 468
21.26441 445
21.28452 453
21.30464 464
21.32475 464
21.34486 452
21.36498 452
21.38509 462
21.40521 449
21.42532 427
21.44543 423
21.46555 457
21.48566 402
21.50577 398
21.52589 449
21.546 422
21.56612 408
21.58623 412
21.60634 373
21.62646 412
21.64657 393
21.66668 396
21.6868 405
21.70691 407
21.72702 377
21.74714 376
21.76725 388
21.78737 371
21.80748 402
21.82759 379
21.84771 337
21.86782 352
21.88793 360
21.90805 360
21.92816 348
21.94828 337
21.96839 362
21.9885 373
22.00862 347
22.02873 361
22.04884 350
22.06896 366
22.08907 343
22.10919 342
22.1293 345
22.14941 325
22.16953 306
22.18964 365
22.20975 350
22.22987 333
22.24998 306
22.27009 308
22.29021 345
22.31032 330
22.33044 353
22.35055 336
22.37066 312
22.39078 341
22.41089 350
22.431 335
22.45112 350
22.47123 355
22.49135 312
22.51146 306
22.53157 337
22.55169 296
22.5718 289
22.59191 348
22.61203 324
22.63214 348
22.65225 314
22.67237 309
22.69248 267
22.7126 332
22.73271 305
22.75282 331
22.77294 297
22.79305 308
22.81316 297
22.83328 346
22.85339 309
22.87351 308
22.89362 303
22.91373 307
22.93385 277
22.95396 327
22.97407 315
22.99419 320
23.0143 321
23.03442 322
23.05453 290
23.07464 298
23.09476 287
23.11487 297
23.13498 274
23.1551 284
23.17521 322
23.19532 307
23.21544 292
23.23555 315
23.25567 273
23.27578 339
23.29589 295
23.31601 255
23.33612 308
23.35623 322
23.37635 281
23.39646 341
23.41658 313
23.43669 289
23.4568 292
23.47692 307
23.49703 323
23.51714 316
23.53726 324
23.55737 280
23.57749 291
23.5976 281
23.61771 313
23.63783 301
23.65794 306
23.67805 315
23.69817 311
23.71828 316
23.73839 359
23.75851 305
23.77862 330
23.79874 294
23.81885 324
23.83896 294
23.85908 334
23.87919 347
23.8993 323
23.91942 306
23.93953 344
23.95965 370
23.97976 354
23.99987 366
24.01999 364
24.0401 379
24.06021 334
24.08033 359
24.10044 344
24.12056 358
24.14067 328
24.16078 345
24.1809 317
24.20101 349
24.22112 308
24.24124 331
24.26135 359
24.28146 313
24.30158 357
24.32169 341
24.34181 312
24.36192 335
24.38203 317
24.40215 338
24.42226 339
24.44237 345
24.46249 323
24.4826 341
24.50272 361
24.52283 349
24.54294 380
24.56306 381
24.58317 362
24.60328 387
24.6234 362
24.64351 403
24.66362 378
24.68374 370
24.70385 373
24.72397 409
24.74408 477
24.76419 423
24.78431 426
24.80442 438
24.82453 444
24.84465 455
24.86476 469
24.88488 441
24.90499 450
24.9251 439
24.94522 425
24.96533 423
24.98544 469
25.00556 414
25.02567 409
25.04579 398
25.0659 404
25.08601 381
25.10613 407
25.12624 377
25.14635 407
25.16647 437
25.18658 449
25.20669 423
25.22681 402
25.24692 461
25.26704 463
25.28715 431
25.30726 434
25.32738 405
25.34749 434
25.3676 367
25.38772 422
25.40783 374
25.42795 398
25.44806 341
25.46817 330
25.48829 337
25.5084 364
25.52851 358
25.54863 368
25.56874 358
25.58886 340
25.60897 384
25.62908 402
25.6492 371
25.66931 397
25.68942 482
25.70954 419
25.72965 481
25.74976 464
25.76988 473
25.78999 461
25.81011 419
25.83022 517
25.85033 515
25.87045 452
25.89056 503
25.91067 479
25.93079 516
25.9509 536
25.97102 495
25.99113 571
26.01124 559
26.03136 584
26.05147 538
26.07158 566
26.0917 601
26.11181 623
26.13193 697
26.15204 714
26.17215 738
26.19227 813
26.21238 864
26.23249 889
26.25261 961
26.27272 1056
26.29283 1085
26.31295 1178
26.33306 1311
26.35318 1545
26.37329 1933
26.3934 2248
26.41352 2602
26.43363 3379
26.45374 4577
26.47386 5973
26.49397 8102
26.51409 10812
26.5342 13967
26.55431 17888
26.57443 21916
26.59454 25604
26.61465 27706
26.63477 27347
26.65488 24390
26.67499 19874
26.69511 15788
26.71522 11393
26.73534 7779
26.75545 4737
26.77556 3221
26.79568 2162
26.81579 1706
26.8359 1378
26.85602 1250
26.87613 1136
26.89625 1039
26.91636 954
26.93647 866
26.95659 798
26.9767 754
26.99681 714
27.01693 636
27.03704 608
27.05716 564
27.07727 575
27.09738 559
27.1175 523
27.13761 507
27.15772 464
27.17784 465
27.19795 422
27.21806 461
27.23818 464
27.25829 472
27.27841 414
27.29852 446
27.31863 438
27.33875 398
27.35886 452
27.37897 418
27.39909 430
27.4192 413
27.43932 425
27.45943 426
27.47954 395
27.49966 394
27.51977 392
27.53988 355
27.56 349
27.58011 382
27.60023 365
27.62034 380
27.64045 378
27.66057 329
27.68068 344
27.70079 368
27.72091 361
27.74102 328
27.76113 345
27.78125 346
27.80136 375
27.82148 323
27.84159 325
27.8617 377
27.88182 362
27.90193 331
27.92204 361
27.94216 367
27.96227 319
27.98239 309
28.0025 310
28.02261 343
28.04273 356
28.06284 349
28.08295 306
28.10307 313
28.12318 308
28.1433 317
28.16341 338
28.18352 313
28.20364 316
28.22375 330
28.24386 327
28.26398 311
28.28409 337
28.3042 296
28.32432 327
28.34443 336
28.36455 271
28.38466 328
28.40477 330
28.42489 310
28.445 308
28.46511 306
28.48523 302
28.50534 298
28.52546 305
28.54557 305
28.56568 302
28.5858 292
28.60591 301
28.62602 324
28.64614 292
28.66625 298
28.68636 289
28.70648 280
28.72659 310
28.74671 333
28.76682 303
28.78693 316
28.80705 296
28.82716 297
28.84727 298
28.86739 300
28.8875 294
28.90762 294
28.92773 298
28.94784 295
28.96796 257
28.98807 295
29.00818 254
29.0283 294
29.04841 279
29.06853 289
29.08864 283
29.10875 291
29.12887 273
29.14898 285
29.16909 269
29.18921 290
29.20932 289
29.22943 292
29.24955 278
29.26966 261
29.28978 283
29.30989 288
29.33 246
29.35012 290
29.37023 261
29.39034 263
29.41046 282
29.43057 272
29.45069 244
29.4708 279
29.49091 279
29.51103 295
29.53114 281
29.55125 251
29.57137 294
29.59148 254
29.6116 262
29.63171 274
29.65182 271
29.67194 262
29.69205 256
29.71216 288
29.73228 274
29.75239 281
29.7725 255
29.79262 277
29.81273 294
29.83285 287
29.85296 242
29.87307 279
29.89319 257
29.9133 287
29.93341 275
29.95353 264
29.97364 274
29.99376 268
30.01387 291
30.03398 273
30.0541 255
30.07421 289
30.09432 249
30.11444 259
30.13455 273
30.15467 271
30.17478 250
30.19489 273
30.21501 259
30.23512 270
30.25523 270
30.27535 270
30.29546 258
30.31557 282
30.33569 258
30.3558 267
30.37592 250
30.39603 294
30.41614 242
30.43626 271
30.45637 279
30.47648 233
30.4966 267
30.51671 275
30.53683 274
30.55694 257
30.57705 270
30.59717 258
30.61728 232
30.63739 246
30.65751 240
30.67762 288
30.69773 250
30.71785 275
30.73796 254
30.75808 276
30.77819 251
30.7983 244
30.81842 249
30.83853 221
30.85864 249
30.87876 242
30.89887 248
30.91899 270
30.9391 266
30.95921 251
30.97933 225
30.99944 250
31.01955 252
31.03967 255
31.05978 281
31.0799 270
31.10001 263
31.12012 252
31.14024 252
31.16035 229
31.18046 264
31.20058 244
31.22069 239
31.2408 244
31.26092 224
31.28103 256
31.30115 255
31.32126 258
31.34137 259
31.36149 252
31.3816 241
31.40171 235
31.42183 233
31.44194 251
31.46206 243
31.48217 239
31.50228 264
31.5224 268
31.54251 239
31.56262 254
31.58274 239
31.60285 232
31.62297 237
31.64308 279
31.66319 280
31.68331 261
31.70342 247
31.72353 256
31.74365 251
31.76376 240
31.78387 226
31.80399 268
31.8241 209
31.84422 246
31.86433 249
31.88444 243
31.90456 242
31.92467 252
31.94478 246
31.9649 256
31.98501 270
32.00513 220
32.02524 251
32.04535 233
32.06547 261
32.08558 254
32.10569 277
32.12581 228
32.14592 230
32.16604 242
32.18615 270
32.20626 247
32.22638 259
32.24649 257
32.2666 244
32.28672 236
32.30683 225
32.32694 257
32.34706 235
32.36717 221
32.38729 235
32.4074 228
32.42751 246
32.44763 277
32.46774 229
32.48785 200
32.50797 246
32.52808 233
32.5482 234
32.56831 241
32.58842 218
32.60854 264
32.62865 276
32.64876 265
32.66888 227
32.68899 246
32.7091 239
32.72922 248
32.74933 258
32.76945 247
32.78956 244
32.80967 284
32.82979 261
32.8499 263
32.87001 252
32.89013 273
32.91024 288
32.93036 279
32.95047 250
32.97058 272
32.9907 265
33.01081 250
33.03092 242
33.05104 288
33.07115 259
33.09127 286
33.11138 302
33.13149 268
33.15161 250
33.17172 263
33.19183 266
33.21195 254
33.23206 282
33.25217 285
33.27229 243
33.2924 263
33.31252 240
33.33263 275
33.35274 277
33.37286 252
33.39297 288
33.41308 261
33.4332 222
33.45331 220
33.47343 278
33.49354 270
33.51365 266
33.53377 239
33.55388 274
33.57399 236
33.59411 254
33.61422 270
33.63434 230
33.65445 233
33.67456 265
33.69468 259
33.71479 233
33.7349 255
33.75502 212
33.77513 203
33.79524 249
33.81536 239
33.83547 256
33.85559 220
33.8757 257
33.89581 198
33.91593 222
33.93604 228
33.95615 254
33.97627 245
33.99638 229
34.0165 260
34.03661 214
34.05672 267
34.07684 219
34.09695 225
34.11706 232
34.13718 256
34.15729 226
34.17741 249
34.19752 239
34.21763 237
34.23775 251
34.25786 232
34.27797 233
34.29809 250
34.3182 236
34.33831 225
34.35843 266
34.37854 252
34.39866 269
34.41877 259
34.43888 267
34.459 247
34.47911 270
34.49922 269
34.51934 277
34.53945 254
34.55957 296
34.57968 266
34.59979 299
34.61991 274
34.64002 301
34.66013 308
34.68025 305
34.70036 312
34.72047 305
34.74059 344
34.7607 334
34.78082 341
34.80093 367
34.82104 357
34.84116 390
34.86127 406
34.88138 402
34.9015 390
34.92161 349
34.94173 389
34.96184 369
34.98195 362
35.00207 364
35.02218 358
35.04229 362
35.06241 342
35.08252 357
35.10264 346
35.12275 322
35.14286 347
35.16298 290
35.18309 315
35.2032 319
35.22332 311
35.24343 327
35.26354 313
35.28366 313
35.30377 300
35.32389 349
35.344 327
35.36411 351
35.38423 294
35.40434 328
35.42445 335
35.44457 315
35.46468 322
35.4848 334
35.50491 323
35.52502 339
35.54514 341
35.56525 353
35.58536 366
35.60548 372
35.62559 347
35.64571 396
35.66582 347
35.68593 371
35.70605 384
35.72616 361
35.74627 344
35.76639 373
35.7865 323
35.80661 339
35.82673 348
35.84684 380
35.86696 386
35.88707 386
35.90718 381
35.9273 347
35.94741 328
35.96752 368
35.98764 352
36.00775 393
36.02787 356
36.04798 350
36.06809 379
36.08821 370
36.10832 358
36.12843 373
36.14855 357
36.16866 372
36.18878 374
36.20889 393
36.229 385
36.24912 415
36.26923 422
36.28934 443
36.30946 538
36.32957 657
36.34968 626
36.3698 751
36.38991 981
36.41003 1111
36.43014 1246
36.45025 1468
36.47037 1664
36.49048 1863
36.51059 1946
36.53071 1970
36.55082 1830
36.57094 1559
36.59105 1343
36.61116 1170
36.63128 1027
36.65139 817
36.6715 638
36.69162 539
36.71173 429
36.73184 410
36.75196 371
36.77207 369
36.79219 343
36.8123 349
36.83241 319
36.85253 374
36.87264 322
36.89275 358
36.91287 355
36.93298 311
36.9531 317
36.97321 321
36.99332 315
37.01344 311
37.03355 295
37.05366 318
37.07378 315
37.09389 317
37.11401 320
37.13412 292
37.15423 315
37.17435 289
37.19446 312
37.21457 290
37.23469 300
37.2548 278
37.27491 283
37.29503 284
37.31514 314
37.33526 303
37.35537 300
37.37548 296
37.3956 345
37.41571 306
37.43582 319
37.45594 264
37.47605 292
37.49617 293
37.51628 290
37.53639 277
37.55651 318
37.57662 273
37.59673 303
37.61685 316
37.63696 298
37.65708 324
37.67719 329
37.6973 302
37.71742 289
37.73753 342
37.75764 324
37.77776 323
37.79787 291
37.81798 322
37.8381 310
37.85821 332
37.87833 294
37.89844 299
37.91855 284
37.93867 306
37.95878 308
37.97889 295
37.99901 309
38.01912 304
38.03924 313
38.05935 305
38.07946 325
38.09958 350
38.11969 308
38.1398 321
38.15992 314
38.18003 329
38.20015 322
38.22026 324
38.24037 332
38.26049 333
38.2806 314
38.30071 346
38.32083 356
38.34094 327
38.36105 333
38.38117 330
38.40128 336
38.4214 330
38.44151 345
38.46162 360
38.48174 337
38.50185 338
38.52196 346
38.54208 305
38.56219 331
38.58231 334
38.60242 330
38.62253 321
38.64265 293
38.66276 323
38.68287 288
38.70299 305
38.7231 254
38.74321 297
38.76333 286
38.78344 319
38.80356 293
38.82367 330
38.84378 296
38.8639 301
38.88401 310
38.90412 269
38.92424 312
38.94435 310
38.96447 351
38.98458 321
39.00469 297
39.02481 333
39.04492 328
39.06503 328
39.08515 342
39.10526 372
39.12538 389
39.14549 370
39.1656 397
39.18572 417
39.20583 439
39.22594 493
39.24606 575
39.26617 635
39.28628 670
39.3064 851
39.32651 929
39.34663 1245
39.36674 1307
39.38685 1629
39.40697 1772
39.42708 1860
39.44719 1891
39.46731 1782
39.48742 1595
39.50754 1237
39.52765 1076
39.54776 988
39.56788 906
39.58799 646
39.6081 577
39.62822 402
39.64833 374
39.66845 343
39.68856 317
39.70867 279
39.72879 326
39.7489 327
39.76901 279
39.78913 267
39.80924 270
39.82935 261
39.84947 287
39.86958 293
39.8897 295
39.90981 304
39.92992 288
39.95004 293
39.97015 333
39.99026 326
40.01038 310
40.03049 356
40.05061 356
40.07072 398
40.09083 418
40.11095 479
40.13106 531
40.15117 589
40.17129 746
40.1914 765
40.21152 856
40.23163 983
40.25174 946
40.27186 931
40.29197 897
40.31208 790
40.3322 681
40.35231 626
40.37242 580
40.39254 585
40.41265 462
40.43277 407
40.45288 365
40.47299 326
40.49311 311
40.51322 281
40.53333 297
40.55345 267
40.57356 277
40.59368 291
40.61379 276
40.6339 253
40.65402 275
40.67413 271
40.69424 230
40.71436 262
40.73447 234
40.75458 254
40.7747 272
40.79481 247
40.81493 243
40.83504 279
40.85515 245
40.87527 255
40.89538 249
40.91549 283
40.93561 253
40.95572 227
40.97584 281
40.99595 288
41.01606 256
41.03618 241
41.05629 287
41.0764 273
41.09652 305
41.11663 268
41.13675 265
41.15686 271
41.17697 253
41.19709 255
41.2172 244
41.23731 234
41.25743 250
41.27754 272
41.29765 270
41.31777 280
41.33788 257
41.358 237
41.37811 268
41.39822 267
41.41834 261
41.43845 282
41.45856 260
41.47868 261
41.49879 277
41.51891 237
41.53902 264
41.55913 231
41.57925 257
41.59936 232
41.61947 272
41.63959 220
41.6597 264
41.67982 271
41.69993 234
41.72004 277
41.74016 262
41.76027 256
41.78038 259
41.8005 260
41.82061 256
41.84072 265
41.86084 253
41.88095 255
41.90107 268
41.92118 256
41.94129 257
41.96141 263
41.98152 244
42.00163 254
42.02175 264
42.04186 282
42.06198 292
42.08209 275
42.1022 297
42.12232 309
42.14243 341
42.16254 275
42.18266 359
42.20277 396
42.22289 419
42.243 513
42.26311 530
42.28323 644
42.30334 786
42.32345 881
42.34357 1000
42.36368 1126
42.38379 1257
42.40391 1342
42.42402 1353
42.44414 1240
42.46425 1179
42.48436 953
42.50448 907
42.52459 814
42.5447 684
42.56482 608
42.58493 516
42.60505 394
42.62516 326
42.64527 322
42.66539 281
42.6855 255
42.70561 254
42.72573 276
42.74584 274
42.76595 247
42.78607 208
42.80618 237
42.8263 229
42.84641 232
42.86652 233
42.88664 253
42.90675 228
42.92686 229
42.94698 202
42.96709 236
42.98721 219
43.00732 231
43.02743 215
43.04755 238
43.06766 216
43.08777 243
43.10789 211
43.128 229
43.14812 245
43.16823 226
43.18834 248
43.20846 223
43.22857 219
43.24868 230
43.2688 223
43.28891 223
43.30902 188
43.32914 215
43.34925 244
43.36937 221
43.38948 211
43.40959 216
43.42971 231
43.44982 218
43.46993 224
43.49005 240
43.51016 237
43.53028 216
43.55039 206
43.5705 200
43.59062 195
43.61073 243
43.63084 214
43.65096 215
43.67107 209
43.69119 221
43.7113 215
43.73141 210
43.75153 249
43.77164 208
43.79175 235
43.81187 232
43.83198 212
43.85209 213
43.87221 222
43.89232 197
43.91244 202
43.93255 222
43.95266 198
43.97278 236
43.99289 200
44.013 210
44.03312 199
44.05323 207
44.07335 200
44.09346 227
44.11357 215
44.13369 242
44.1538 222
44.17391 231
44.19403 232
44.21414 221
44.23426 240
44.25437 215
44.27448 222
44.2946 234
44.31471 218
44.33482 217
44.35494 212
44.37505 214
44.39516 219
44.41528 210
44.43539 225
44.45551 219
44.47562 218
44.49573 208
44.51585 211
44.53596 235
44.55607 197
44.57619 204
44.5963 229
44.61642 224
44.63653 217
44.65664 199
44.67676 249
44.69687 213
44.71698 232
44.7371 253
44.75721 197
44.77732 236
44.79744 220
44.81755 232
44.83767 220
44.85778 229
44.87789 237
44.89801 239
44.91812 232
44.93823 255
44.95835 204
44.97846 227
44.99858 215
45.01869 223
45.0388 227
45.05892 226
45.07903 237
45.09914 204
45.11926 232
45.13937 248
45.15949 218
45.1796 230
45.19971 272
45.21983 245
45.23994 198
45.26005 267
45.28017 263
45.30028 261
45.32039 224
45.34051 266
45.36062 245
45.38074 255
45.40085 245
45.42096 266
45.44108 287
45.46119 287
45.4813 328
45.50142 318
45.52153 340
45.54165 336
45.56176 368
45.58187 435
45.60199 454
45.6221 521
45.64221 561
45.66233 624
45.68244 719
45.70256 806
45.72267 894
45.74278 948
45.7629 896
45.78301 934
45.80312 874
45.82324 739
45.84335 680
45.86346 591
45.88358 546
45.90369 485
45.92381 453
45.94392 386
45.96403 283
45.98415 299
46.00426 277
46.02437 273
46.04449 266
46.0646 240
46.08472 227
46.10483 232
46.12494 236
46.14506 248
46.16517 200
46.18528 229
46.2054 221
46.22551 207
46.24563 190
46.26574 218
46.28585 192
46.30597 230
46.32608 237
46.34619 204
46.36631 220
46.38642 247
46.40653 210
46.42665 206
46.44676 205
46.46688 199
46.48699 209
46.5071 221
46.52722 222
46.54733 212
46.56744 272
46.58756 192
46.60767 212
46.62779 236
46.6479 205
46.66801 225
46.68813 244
46.70824 230
46.72835 216
46.74847 224
46.76858 218
46.78869 208
46.80881 211
46.82892 212
46.84904 229
46.86915 217
46.88926 209
46.90938 221
46.92949 230
46.9496 176
46.96972 212
46.98983 218
47.00995 198
47.03006 209
47.05017 207
47.07029 218
47.0904 195
47.11051 238
47.13063 185
47.15074 223
47.17086 223
47.19097 225
47.21108 193
47.2312 209
47.25131 224
47.27142 208
47.29154 202
47.31165 223
47.33176 221
47.35188 216
47.37199 208
47.39211 197
47.41222 227
47.43233 202
47.45245 205
47.47256 243
47.49267 201
47.51279 192
47.5329 216
47.55302 226
47.57313 192
47.59324 203
47.61336 199
47.63347 182
47.65358 215
47.6737 217
47.69381 235
47.71393 206
47.73404 225
47.75415 222
47.77427 229
47.79438 235
47.81449 226
47.83461 215
47.85472 235
47.87483 213
47.89495 207
47.91506 229
47.93518 210
47.95529 218
47.9754 249
47.99552 252
48.01563 232
48.03574 192
48.05586 230
48.07597 230
48.09609 200
48.1162 212
48.13631 225
48.15643 228
48.17654 204
48.19665 217
48.21677 216
48.23688 227
48.257 219
48.27711 214
48.29722 208
48.31734 198
48.33745 232
48.35756 216
48.37768 210
48.39779 224
48.4179 231
48.43802 238
48.45813 226
48.47825 257
48.49836 228
48.51847 211
48.53859 211
48.5587 227
48.57881 187
48.59893 184
48.61904 216
48.63916 210
48.65927 218
48.67938 200
48.6995 230
48.71961 200
48.73972 224
48.75984 229
48.77995 217
48.80006 200
48.82018 213
48.84029 223
48.86041 227
48.88052 194
48.90063 201
48.92075 226
48.94086 209
48.96097 239
48.98109 206
49.0012 225
49.02132 232
49.04143 235
49.06154 219
49.08166 234
49.10177 224
49.12188 230
49.142 215
49.16211 241
49.18223 219
49.20234 243
49.22245 222
49.24257 238
49.26268 277
49.28279 200
49.30291 238
49.32302 222
49.34313 234
49.36325 235
49.38336 246
49.40348 250
49.42359 244
49.4437 216
49.46382 250
49.48393 244
49.50404 254
49.52416 250
49.54427 260
49.56439 286
49.5845 280
49.60461 281
49.62473 307
49.64484 310
49.66495 303
49.68507 280
49.70518 363
49.7253 320
49.74541 351
49.76552 385
49.78564 438
49.80575 431
49.82586 493
49.84598 557
49.86609 610
49.8862 655
49.90632 805
49.92643 879
49.94655 1042
49.96666 1221
49.98677 1470
50.00689 1738
50.027 2133
50.04711 2398
50.06723 2615
50.08734 2733
50.10746 2711
50.12757 2608
50.14768 2224
50.1678 1944
50.18791 1763
50.20802 1611
50.22814 1492
50.24825 1350
50.26837 1098
50.28848 914
50.30859 665
50.32871 514
50.34882 419
50.36893 379
50.38905 345
50.40916 344
50.42927 304
50.44939 323
50.4695 306
50.48962 272
50.50973 302
50.52984 288
50.54996 297
50.57007 293
50.59018 306
50.6103 292
50.63041 268
50.65053 284
50.67064 294
50.69075 267
50.71087 258
50.73098 240
50.75109 261
50.77121 263
50.79132 263
50.81143 252
50.83155 233
50.85166 212
50.87178 200
50.89189 212
50.912 220
50.93212 215
50.95223 184
50.97234 242
50.99246 239
51.01257 253
51.03269 192
51.0528 201
51.07291 243
51.09303 209
51.11314 213
51.13325 222
51.15337 209
51.17348 224
51.1936 221
51.21371 198
51.23382 209
51.25394 202
51.27405 175
51.29416 210
51.31428 198
51.33439 199
51.3545 159
51.37462 197
51.39473 170
51.41485 212
51.43496 211
51.45507 214
51.47519 208
51.4953 205
51.51541 202
51.53553 210
51.55564 190
51.57576 207
51.59587 212
51.61598 210
51.6361 209
51.65621 196
51.67632 190
51.69644 196
51.71655 201
51.73667 202
51.75678 201
51.77689 193
51.79701 182
51.81712 210
51.83723 197
51.85735 200
51.87746 182
51.89757 221
51.91769 202
51.9378 215
51.95792 193
51.97803 209
51.99814 177
52.01826 212
52.03837 210
52.05848 199
52.0786 192
52.09871 200
52.11883 190
52.13894 232
52.15905 177
52.17917 207
52.19928 199
52.21939 208
52.23951 225
52.25962 200
52.27974 177
52.29985 197
52.31996 197
52.34008 211
52.36019 196
52.3803 208
52.40042 189
52.42053 194
52.44064 196
52.46076 215
52.48087 199
52.50099 200
52.5211 209
52.54121 177
52.56133 206
52.58144 203
52.60155 204
52.62167 181
52.64178 209
52.6619 156
52.68201 215
52.70212 191
52.72224 189
52.74235 205
52.76246 206
52.78258 204
52.80269 193
52.8228 184
52.84292 211
52.86303 186
52.88315 196
52.90326 198
52.92337 189
52.94349 201
52.9636 220
52.98371 217
53.00383 204
53.02394 199
53.04406 217
53.06417 224
53.08428 193
53.1044 194
53.12451 214
53.14462 219
53.16474 210
53.18485 195
53.20497 212
53.22508 190
53.24519 208
53.26531 219
53.28542 206
53.30553 202
53.32565 250
53.34576 215
53.36587 216
53.38599 233
53.4061 232
53.42622 212
53.44633 204
53.46644 246
53.48656 242
53.50667 221
53.52678 216
53.5469 226
53.56701 234
53.58713 248
53.60724 256
53.62735 233
53.64747 248
53.66758 234
53.68769 246
53.70781 239
53.72792 255
53.74804 254
53.76815 246
53.78826 241
53.80838 267
53.82849 249
53.8486 245
53.86872 248
53.88883 254
53.90894 267
53.92906 255
53.94917 266
53.96929 252
53.9894 259
54.00951 248
54.02963 264
54.04974 268
54.06985 265
54.08997 278
54.11008 279
54.1302 306
54.15031 269
54.17042 269
54.19054 272
54.21065 290
54.23076 272
54.25088 281
54.27099 286
54.29111 268
54.31122 291
54.33133 253
54.35145 291
54.37156 282
54.39167 293
54.41179 312
54.4319 289
54.45201 282
54.47213 295
54.49224 274
54.51236 330
54.53247 293
54.55258 334
54.5727 328
54.59281 360
54.61292 373
54.63304 444
54.65315 462
54.67327 536
54.69338 541
54.71349 649
54.73361 741
54.75372 758
54.77383 818
54.79395 965
54.81406 927
54.83417 986
54.85429 902
54.8744 811
54.89452 762
54.91463 738
54.93474 686
54.95486 630
54.97497 634
54.99508 615
55.0152 565
55.03531 476
55.05543 439
55.07554 396
55.09565 416
55.11577 405
55.13588 411
55.15599 453
55.17611 416
55.19622 496
55.21634 510
55.23645 546
55.25656 525
55.27668 562
55.29679 537
55.3169 555
55.33702 535
55.35713 456
55.37724 413
55.39736 405
55.41747 430
55.43759 422
55.4577 394
55.47781 341
55.49793 313
55.51804 288
55.53815 272
55.55827 267
55.57838 266
55.5985 235
55.61861 227
55.63872 251
55.65884 251
55.67895 258
55.69906 254
55.71918 224
55.73929 229
55.75941 242
55.77952 245
55.79963 212
55.81975 244
55.83986 246
55.85997 228
55.88009 194
55.9002 203
55.92031 231
55.94043 234
55.96054 218
55.98066 233
56.00077 255
56.02088 208
56.041 201
56.06111 225
56.08122 226
56.10134 240
56.12145 228
56.14157 227
56.16168 229
56.18179 236
56.20191 253
56.22202 243
56.24213 208
56.26225 215
56.28236 209
56.30248 216
56.32259 224
56.3427 238
56.36282 201
56.38293 206
56.40304 230
56.42316 228
56.44327 237
56.46338 231
56.4835 223
56.50361 188
56.52373 220
56.54384 242
56.56395 221
56.58407 217
56.60418 218
56.62429 218
56.64441 247
56.66452 242
56.68464 231
56.70475 195
56.72486 212
56.74498 219
56.76509 232
56.7852 225
56.80532 217
56.82543 228
56.84554 196
56.86566 204
56.88577 172
56.90589 189
56.926 225
56.94611 232
56.96623 233
56.98634 220
57.00645 226
57.02657 231
57.04668 219
57.0668 211
57.08691 232
57.10702 242
57.12714 214
57.14725 250
57.16736 235
57.18748 230
57.20759 224
57.22771 231
57.24782 212
57.26793 217
57.28805 226
57.30816 241
57.32827 238
57.34839 229
57.3685 221
57.38861 244
57.40873 223
57.42884 219
57.44896 211
57.46907 196
57.48918 225
57.5093 207
57.52941 204
57.54952 217
57.56964 187
57.58975 214
57.60987 196
57.62998 184
57.65009 207
57.67021 194
57.69032 227
57.71043 193
57.73055 198
57.75066 201
57.77078 195
57.79089 206
57.811 223
57.83112 206
57.85123 208
57.87134 211
57.89146 218
57.91157 205
57.93168 214
57.9518 206
57.97191 187
57.99203 196
58.01214 210
58.03225 201
58.05237 191
58.07248 195
58.09259 199
58.11271 168
58.13282 181
58.15294 207
58.17305 193
58.19316 210
58.21328 178
58.23339 233
58.2535 194
58.27362 195
58.29373 218
58.31385 197
58.33396 182
58.35407 225
58.37419 218
58.3943 197
58.41441 216
58.43453 211
58.45464 224
58.47475 195
58.49487 222
58.51498 221
58.5351 198
58.55521 209
58.57532 216
58.59544 206
58.61555 220
58.63566 193
58.65578 210
58.67589 197
58.69601 227
58.71612 210
58.73623 202
58.75635 185
58.77646 223
58.79657 222
58.81669 235
58.8368 242
58.85691 199
58.87703 178
58.89714 214
58.91726 229
58.93737 210
58.95748 185
58.9776 227
58.99771 199
59.01782 204
59.03794 221
59.05805 221
59.07817 202
59.09828 205
59.11839 203
59.13851 243
59.15862 210
59.17873 196
59.19885 218
59.21896 211
59.23908 219
59.25919 218
59.2793 227
59.29942 198
59.31953 204
59.33964 230
59.35976 246
59.37987 243
59.39998 258
59.4201 257
59.44021 267
59.46033 289
59.48044 252
59.50055 260
59.52067 256
59.54078 323
59.56089 324
59.58101 330
59.60112 384
59.62124 426
59.64135 418
59.66146 501
59.68158 509
59.70169 586
59.7218 687
59.74192 713
59.76203 838
59.78215 1027
59.80226 1084
59.82237 1240
59.84249 1472
59.8626 1617
59.88271 1593
59.90283 1812
59.92294 1746
59.94305 1561
59.96317 1412
59.98328 1232
60.0034 1101
60.02351 1036
60.04362 1088
60.06374 1024
60.08385 966
60.10396 834
60.12408 732
60.14419 580
60.16431 481
60.18442 361
60.20453 374
60.22465 309
60.24476 291
60.26487 280
60.28499 287
60.3051 266
60.32522 258
60.34533 252
60.36544 262
60.38556 221
60.40567 224
60.42578 238
60.4459 212
60.46601 214
60.48612 215
60.50624 231
60.52635 221
60.54647 227
60.56658 219
60.58669 217
60.60681 205
60.62692 225
60.64703 223
60.66715 208
60.68726 218
60.70738 240
60.72749 206
60.7476 207
60.76772 216
60.78783 212
60.80794 214
60.82806 197
60.84817 221
60.86828 216
60.8884 187
60.90851 226
60.92863 208
60.94874 185
60.96885 187
60.98897 189
61.00908 206
61.02919 187
61.04931 208
61.06942 201
61.08954 203
61.10965 222
61.12976 203
61.14988 207
61.16999 211
61.1901 167
61.21022 206
61.23033 213
61.25045 205
61.27056 183
61.29067 216
61.31079 230
61.3309 208
61.35101 225
61.37113 209
61.39124 232
61.41135 232
61.43147 207
61.45158 215
61.4717 212
61.49181 223
61.51192 242
61.53204 210
61.55215 195
61.57226 247
61.59238 247
61.61249 212
61.63261 238
61.65272 258
61.67283 247
61.69295 256
61.71306 229
61.73317 253
61.75329 238
61.7734 228
61.79352 223
61.81363 235
61.83374 238
61.85386 223
61.87397 250
61.89408 252
61.9142 257
61.93431 288
61.95442 247
61.97454 258
61.99465 281
62.01477 238
62.03488 249
62.05499 241
62.07511 267
62.09522 298
62.11533 281
62.13545 275
62.15556 282
62.17568 284
62.19579 290
62.2159 278
62.23602 300
62.25613 281
62.27624 305
62.29636 290
62.31647 278
62.33659 256
62.3567 251
62.37681 263
62.39693 254
62.41704 285
62.43715 270
62.45727 250
62.47738 255
62.49749 267
62.51761 231
62.53772 227
62.55784 236
62.57795 227
62.59806 251
62.61818 249
62.63829 228
62.6584 207
62.67852 192
62.69863 200
62.71875 237
62.73886 223
62.75897 225
62.77909 228
62.7992 204
62.81931 230
62.83943 205
62.85954 209
62.87965 215
62.89977 191
62.91988 201
62.94 194
62.96011 194
62.98022 209
63.00034 240
63.02045 211
63.04056 211
63.06068 214
63.08079 176
63.10091 189
63.12102 195
63.14113 197
63.16125 208
63.18136 225
63.20147 209
63.22159 169
63.2417 207
63.26182 228
63.28193 205
63.30204 209
63.32216 196
63.34227 224
63.36238 210
63.3825 179
63.40261 234
63.42272 219
63.44284 225
63.46295 202
63.48307 218
63.50318 207
63.52329 222
63.54341 231
63.56352 187
63.58363 224
63.60375 221
63.62386 228
63.64398 228
63.66409 242
63.6842 240
63.70432 266
63.72443 239
63.74454 237
63.76466 260
63.78477 288
63.80489 278
63.825 304
63.84511 347
63.86523 336
63.88534 394
63.90545 403
63.92557 442
63.94568 447
63.96579 497
63.98591 490
64.00602 464
64.02614 446
64.04625 399
64.06636 415
64.08648 342
64.10659 317
64.1267 352
64.14682 366
64.16693 351
64.18705 319
64.20716 295
64.22727 268
64.24739 255
64.2675 235
64.28761 205
64.30773 236
64.32784 205
64.34796 220
64.36807 225
64.38818 179
64.4083 202
64.42841 171
64.44852 185
64.46864 193
64.48875 194
64.50886 213
64.52898 206
64.54909 196
64.56921 176
64.58932 212
64.60943 205
64.62955 182
64.64966 200
64.66977 173
64.68989 180
64.71 184
64.73012 208
64.75023 222
64.77034 162
64.79046 188
64.81057 180
64.83068 174
64.8508 186
64.87091 178
64.89102 181
64.91114 202
64.93125 187
64.95137 187
64.97148 191
64.99159 173
65.01171 185
65.03182 197
65.05193 190
65.07205 186
65.09216 214
65.11228 194
65.13239 177
65.1525 194
65.17262 176
65.19273 210
65.21284 189
65.23296 169
65.25307 201
65.27319 172
65.2933 208
65.31341 189
65.33353 205
65.35364 214
65.37375 189
65.39387 191
65.41398 199
65.43409 211
65.45421 194
65.47432 217
65.49444 198
65.51455 188
65.53466 183
65.55478 207
65.57489 201
65.595 229
65.61512 247
65.63523 255
65.65535 247
65.67546 256
65.69557 278
65.71569 263
65.7358 286
65.75591 261
65.77603 268
65.79614 239
65.81626 239
65.83637 262
65.85648 215
65.8766 247
65.89671 217
65.91682 219
65.93694 221
65.95705 222
65.97716 216
65.99728 199
66.01739 198
66.03751 201
66.05762 178
66.07773 190
66.09785 194
66.11796 181
66.13807 177
66.15819 173
66.1783 220
66.19842 176
66.21853 207
66.23864 221
66.25876 211
66.27887 208
66.29898 206
66.3191 203
66.33921 196
66.35933 216
66.37944 202
66.39955 211
66.41967 225
66.43978 178
66.45989 208
66.48001 202
66.50012 201
66.52023 213
66.54035 201
66.56046 176
66.58058 195
66.60069 198
66.6208 174
66.64092 177
66.66103 181
66.68114 185
66.70126 177
66.72137 199
66.74149 208
66.7616 188
66.78171 226
66.80183 201
66.82194 204
66.84205 168
66.86217 222
66.88228 195
66.90239 217
66.92251 190
66.94262 197
66.96274 212
66.98285 233
67.00296 226
67.02308 198
67.04319 188
67.0633 230
67.08342 229
67.10353 229
67.12365 232
67.14376 210
67.16387 244
67.18399 233
67.2041 247
67.22421 237
67.24433 253
67.26444 241
67.28456 276
67.30467 271
67.32478 291
67.3449 272
67.36501 259
67.38512 320
67.40524 343
67.42535 396
67.44546 369
67.46558 424
67.48569 441
67.50581 473
67.52592 543
67.54603 618
67.56615 739
67.58626 764
67.60637 882
67.62649 1024
67.6466 974
67.66672 1121
67.68683 1084
67.70694 1103
67.72706 1129
67.74717 968
67.76728 900
67.7874 824
67.80751 842
67.82763 841
67.84774 917
67.86785 913
67.88797 948
67.90808 971
67.92819 967
67.94831 993
67.96842 1029
67.98853 1067
68.00865 1181
68.02876 1290
68.04888 1350
68.06899 1448
68.0891 1468
68.10922 1515
68.12933 1524
68.14944 1421
68.16956 1385
68.18967 1313
68.20979 1323
68.2299 1314
68.25001 1382
68.27013 1289
68.29024 1265
68.31035 1123
68.33047 1022
68.35058 865
68.3707 726
68.39081 651
68.41092 593
68.43104 565
68.45115 592
68.47126 543
68.49138 462
68.51149 412
68.5316 359
68.55172 323
68.57183 308
68.59195 253
68.61206 282
68.63217 241
68.65229 235
68.6724 228
68.69251 224
68.71263 247
68.73274 211
68.75286 212
68.77297 232
68.79308 224
68.8132 195
68.83331 224
68.85342 196
68.87354 211
68.89365 219
68.91376 210
68.93388 220
68.95399 220
68.97411 196
68.99422 208
69.01433 209
69.03445 199
69.05456 165
69.07467 187
69.09479 210
69.1149 207
69.13502 188
69.15513 178
69.17524 179
69.19536 221
69.21547 198
69.23558 188
69.2557 214
69.27581 197
69.29593 178
69.31604 201
69.33615 172
69.35627 181
69.37638 187
69.39649 180
69.41661 205
69.43672 191
69.45683 199
69.47695 191
69.49706 203
69.51718 185
69.53729 176
69.5574 205
69.57752 214
69.59763 168
69.61774 190
69.63786 180
69.65797 180
69.67809 193
69.6982 223
69.71831 189
69.73843 190
69.75854 178
69.77865 181
69.79877 182
69.81888 220
69.839 196
69.85911 168
69.87922 194
69.89934 199
69.91945 198
69.93956 186
69.95968 175
69.97979 181
69.9999 174
70.02002 196
70.04013 200
70.06025 194
70.08036 202
70.10047 210
70.12059 198
70.1407 175
70.16081 174
70.18093 187
70.20104 186
70.22116 179
70.24127 179
70.26138 180
70.2815 182
70.30161 194
70.32172 178
70.34184 208
70.36195 218
70.38207 198
70.40218 190
70.42229 154
70.44241 218
70.46252 179
70.48263 176
70.50275 177
70.52286 196
70.54297 165
70.56309 189
70.5832 181
70.60332 180
70.62343 215
70.64354 186
70.66366 181
70.68377 184
70.70388 168
70.724 167
70.74411 168
70.76423 171
70.78434 181
70.80445 193
70.82457 190
70.84468 185
70.86479 159
70.88491 189
70.90502 192
70.92513 205
70.94525 196
70.96536 174
70.98548 203
71.00559 178
71.0257 184
71.04582 166
71.06593 156
71.08604 211
71.10616 182
71.12627 172
71.14639 172
71.1665 176
71.18661 194
71.20673 181
71.22684 170
71.24695 189
71.26707 181
71.28718 214
71.3073 189
71.32741 149
71.34752 177
71.36764 177
71.38775 191
71.40786 164
71.42798 175
71.44809 206
71.4682 184
71.48832 172
71.50843 171
71.52855 207
71.54866 188
71.56877 187
71.58889 171
71.609 182
71.62911 177
71.64923 181
71.66934 174
71.68946 145
71.70957 170
71.72968 170
71.7498 170
71.76991 175
71.79002 205
71.81014 181
71.83025 157
71.85037 181
71.87048 201
71.89059 188
71.91071 178
71.93082 229
71.95093 173
71.97105 165
71.99116 197
72.01127 156
72.03139 157
72.0515 158
72.07162 183
72.09173 186
72.11184 197
72.13196 187
72.15207 156
72.17218 181
72.1923 196
72.21241 189
72.23253 198
72.25264 192
72.27275 191
72.29287 173
72.31298 187
72.33309 169
72.35321 167
72.37332 191
72.39344 195
72.41355 173
72.43366 187
72.45378 176
72.47389 195
72.494 175
72.51412 172
72.53423 199
72.55434 183
72.57446 183
72.59457 180
72.61469 195
72.6348 166
72.65491 187
72.67503 191
72.69514 194
72.71525 198
72.73537 181
72.75548 191
72.7756 187
72.79571 211
72.81582 219
72.83594 195
72.85605 211
72.87616 218
72.89628 191
72.91639 217
72.9365 200
72.95662 194
72.97673 215
72.99685 212
73.01696 201
73.03707 210
73.05719 227
73.0773 228
73.09741 231
73.11753 217
73.13764 215
73.15776 240
73.17787 265
73.19798 276
73.2181 290
73.23821 269
73.25832 315
73.27844 324
73.29855 401
73.31867 394
73.33878 435
73.35889 459
73.37901 471
73.39912 485
73.41923 489
73.43935 501
73.45946 410
73.47957 450
73.49969 373
73.5198 346
73.53992 340
73.56003 322
73.58014 327
73.60026 313
73.62037 329
73.64048 345
73.6606 351
73.68071 304
73.70083 271
73.72094 257
73.74105 258
73.76117 205
73.78128 223
73.80139 213
73.82151 216
73.84162 199
73.86174 211
73.88185 208
73.90196 181
73.92208 198
73.94219 188
73.9623 177
73.98242 165
74.00253 195
74.02264 176
74.04276 188
74.06287 184
74.08299 149
74.1031 184
74.12321 175
74.14333 208
74.16344 182
74.18355 173
74.20367 191
74.22378 184
74.2439 185
74.26401 161
74.28412 170
74.30424 172
74.32435 176
74.34446 179
74.36458 174
74.38469 180
74.40481 186
74.42492 196
74.44503 172
74.46515 159
74.48526 189
74.50537 198
74.52549 169
74.5456 172
74.56571 166
74.58583 172
74.60594 179
74.62606 187
74.64617 208
74.66628 172
74.6864 183
74.70651 169
74.72662 191
74.74674 173
74.76685 180
74.78697 188
74.80708 184
74.82719 156
74.84731 193
74.86742 195
74.88753 195
74.90765 175
74.92776 177
74.94787 178
74.96799 192
74.9881 198
75.00822 187
