3.00117 21390.4239557674
3.02128 21063.4107175187
3.0414 20558
3.06151 20021.7668478974
3.08162 19444.1000721357
3.10174 18571.4757888948
3.12185 18656.0121061274
3.14197 17635.368120112
3.16208 17274.0708442341
3.18219 16931.4519665526
3.20231 15907.8056633332
3.22242 16044.81584481
3.24253 15220.6113161538
3.26265 14680.5445630701
3.28276 14504.9654356866
3.30288 13839.3958256256
3.32299 13776.0542469293
3.3431 13325
3.36322 12725.7925997446
3.38333 12659.3253257929
3.40344 11844.7527356482
3.42356 11588.5006790025
3.44367 11103.8799338681
3.46379 10615.1536006793
3.4839 10463
3.50401 10209.7400928538
3.52413 9530.08861624264
3.54424 9145.55156903856
3.56435 8993.24657429804
3.58447 8780.7063747122
3.60458 8224.31145053396
3.62469 8181.03641274594
3.64481 7852.74766436844
3.66492 7422.82921636459
3.68504 7399.67280249585
3.70515 7081.51320002811
3.72526 6951.78719587081
3.74538 6342.43571095451
3.76549 6163.10832513227
3.7856 5819
3.80572 5728.95628269796
3.82583 5552.45841030318
3.84595 5134.28523767271
3.86606 4978.41550262591
3.88617 4668.4103612173
3.90629 4563.96720272513
3.9264 4540
3.94651 3975.83267477482
3.96663 4025.26077545166
3.98674 4011.49130103132
4.00686 3695.27746426998
4.02697 3667.32544520221
4.04708 3259.29321262726
4.0672 3239
4.08731 3243.90137149922
4.10742 2951.82074942403
4.12754 2918.88967499065
4.14765 2737.5986798036
4.16776 2575.02395441695
4.18788 2619.06635859983
4.20799 2440.0625115004
4.22811 2417.98311440276
4.24822 2291.81793485841
4.26833 2154.96561588396
4.28845 2172.79749213699
4.30856 2015.14008793751
4.32867 2041.04729714368
4.34879 1922.04037968627
4.3689 1921
4.38902 1882.97891988312
4.40913 1866.89029730839
4.42924 1739.77253238779
4.44936 1664.15327821917
4.46947 1629.86047233464
4.48958 1769.97991273942
4.5097 1634
4.52981 1549.98296337635
4.54992 1497.8908792351
4.57004 1404.06967727861
4.59015 1520.9052453007
4.61027 1410.25298530985
4.63038 1295.03759782338
4.65049 1318.976514707
4.67061 1358.01885460919
4.69072 1367.9483859216
4.71083 1272.87209733147
4.73095 1213.83287911846
4.75106 1153.00994620144
4.77118 1200.9515297115
4.79129 1217.99744303703
4.8114 1188
4.83152 1057.94823282026
4.85163 1088.02519947958
4.87174 1067.02234006091
4.89186 1115.95659792893
4.91197 1071.12939027469
4.93209 997.015819319992
4.9522 989
4.97231 936.990427268543
4.99243 969.073654198941
5.01254 958.776125523542
5.03265 833.01633835697
5.05277 922.953094933092
5.07288 852.061299889623
5.09299 864.979678868756
5.11311 866.971692654633
5.13322 790.964873446133
5.15334 817.096385185321
5.17345 810.754259530708
5.19356 710.942266838118
5.21368 819.989638293019
5.23379 714.030436513531
5.2539 758
5.27402 748.973581217659
5.29413 736.992729426623
5.31425 738.032590144004
5.33436 732.12372078134
5.35447 630.13150919883
5.37459 614.96848014945
5.3947 694
5.41481 657.9800668118
5.43493 643.975972712427
5.45504 631.046654692764
5.47516 658.070968369336
5.49527 576.068440151982
5.51538 580.015207484559
5.5355 543
5.55561 588.003313710643
5.57572 549.98613002925
5.59584 575.020444274661
5.61595 546.096720447917
5.63606 522.026982464254
5.65618 519.985076648665
5.67629 527.015671864899
5.69641 473.986644521331
5.71652 478.995032845568
5.73663 464.02500393303
5.75675 503.02529758355
5.77686 478.03075202973
5.79697 488.985525188454
5.81709 473.019037043474
5.8372 427
5.85732 402.998545135834
5.87743 429.081428811071
5.89754 473.992559502999
5.91766 446.971397973604
5.93777 497.97266648019
5.95788 476.997327065395
5.978 498
5.99811 422.976259927305
6.01823 437.055669045349
6.03834 449.959003212372
6.05845 422.992060595859
6.07857 452.974776568316
6.09868 438.025522333465
6.11879 423.002123464613
6.13891 428.006315230123
6.15902 440.00446394009
6.17913 434.985533768971
6.19925 421.950856981885
6.21936 407.984482565721
6.23948 431.981429982273
6.25959 421.021591776525
6.2797 378
6.29982 407.029109204004
6.31993 416.005706283657
6.34004 416.970985317365
6.36016 393.028404442982
6.38027 397.977780067079
6.40039 407.001655224188
6.4205 405
6.44061 429.997251038726
6.46073 389.936651005455
6.48084 365.967038322802
6.50095 366.901573453828
6.52107 414.992363970418
6.54118 375.035493373011
6.56129 363.009197800989
6.58141 349.015763062582
6.60152 406.020742743999
6.62164 375.931680669701
6.64175 363.976794103455
6.66186 353.988596861628
6.68198 388.938909394974
6.70209 433.007175363325
6.7222 382
6.74232 390.986587699952
6.76243 349.973503988767
6.78255 365.016739655662
6.80266 352.006335617881
6.82277 368.973154313208
6.84289 376.996883389239
6.863 389
6.88311 404.003405551356
6.90323 391.947133217479
6.92334 363.023509153604
6.94346 399.976223086145
6.96357 382.00428768966
6.98368 388.036391844058
7.0038 337
7.02391 413.026768417583
7.04402 392.93841687296
7.06414 353.027537368819
7.08425 391.991432514697
7.10436 358.025287911938
7.12448 379.989012779724
7.14459 365.00518066881
7.16471 367.997304300728
7.18482 368.040880749274
7.20493 408.946475901656
7.22505 326.947605662032
7.24516 384.904382932847
7.26527 384.000531066533
7.28539 398.003830787325
7.3055 371
7.32562 378.981970183304
7.34573 343.998718266554
7.36584 379.043524614828
7.38596 369.023068515847
7.40607 376.972485312384
7.42618 388.005161705805
7.4463 362
7.46641 331.002284334258
7.48653 371.076598077247
7.50664 392.952148725605
7.52675 352.029654306721
7.54687 376.964325164293
7.56698 382.990710969473
7.58709 397.000629859628
7.60721 373.984466088839
7.62732 346.976307266079
7.64743 340.036638761352
7.66755 375.024243333959
7.68766 362.989447219588
7.70778 384.004011394375
7.72789 353.009478821143
7.748 367
7.76812 378.98025800335
7.78823 343.971706309948
7.80834 348.005677269797
7.82846 341.0027801018
7.84857 353.969067228697
7.86869 368.998776865816
7.8888 362
7.90891 358.996832972895
7.92903 360.038847823383
7.94914 392.002724448347
7.96925 364.048108434135
7.98937 364.011799459331
8.00948 349.991040179763
8.0296 369
8.04971 330.993558394502
8.06982 353.017077460267
8.08994 354.026341631152
8.11005 381.035000107643
8.13016 363.084242779546
8.15028 336.97672138919
8.17039 381.997260300692
8.1905 344
8.21062 356.013659057655
8.23073 370.070691338316
8.25085 415.942397347113
8.27096 344.064674035913
8.29107 370.972212468428
8.31119 353.00735873854
8.3313 363
8.35141 366.995255396748
8.37153 352.987412266599
8.39164 356.020624609403
8.41176 362.012017869743
8.43187 354.984009781807
8.45198 379.983048011314
8.4721 368
8.49221 326.991640028598
8.51232 349.049875296502
8.53244 397.05237182175
8.55255 382.139731953586
8.57266 329.010876178405
8.59278 370.955776043675
8.61289 395.985742622746
8.63301 421.996957235607
8.65312 388.974838676565
8.67323 385.999068446499
8.69335 377.986948021907
8.71346 380.986852075731
8.73357 387.986858064938
8.75369 384.016329414041
8.7738 354
8.79392 409.025353392396
8.81403 389.977939113116
8.83414 396.995593532984
8.85426 379.018311170733
8.87437 381.013197397465
8.89448 365.994374554458
8.9146 394
8.93471 390.984543788475
8.95483 359.995832761239
8.97494 379.012862662925
8.99505 366.012467501378
9.01517 366.037921490184
9.03528 340.968383463062
9.05539 405.991042331078
9.07551 366.98725759529
9.09562 368.973721261602
9.11573 336.056986073072
9.13585 421.074880805997
9.15596 366.136198814289
9.17608 356.948404798147
9.19619 415.994668948911
9.2163 368
9.23642 328.974749490464
9.25653 330.073433440098
9.27664 407.12514419782
9.29676 416.085250067038
9.31687 370.004124466029
9.33699 387.01665942859
9.3571 330
9.37721 415.024990703414
9.39733 381.907503420662
9.41744 348.999630916953
9.43755 364.970934252251
9.45767 365.993464514269
9.47778 370.014135726241
9.4979 347
9.51801 366.009937344312
9.53812 370.996512077892
9.55824 362.970168932438
9.57835 347.986158093576
9.59846 364.914405267639
9.61858 402.004674609274
9.63869 371.002989098288
9.6588 397
9.67892 390.008356882551
9.69903 400.947481524088
9.71915 334.918101947217
9.73926 364.88301961609
9.75937 399.015377011261
9.77949 355.023479419496
9.7996 347
9.81971 403.009284941829
9.83983 376.958384255978
9.85994 365.964191590211
9.88006 353.938612769933
9.90017 401.996049567579
9.92028 356.034843914971
9.9404 366
9.96051 379.994879075816
9.98062 364.005819909814
10.00074 374.944102605055
10.02085 315.099450439375
10.04097 326.933793581616
10.06108 365.984742967387
10.08119 372.983867236873
10.10131 411.996434906601
10.12142 354.942346448643
10.14153 331.998639177971
10.16165 331.981722868463
10.18176 336.910389256311
10.20187 390.993913725863
10.22199 354.004911675647
10.2421 387
10.26222 371.970441325907
10.28233 352.990295015874
10.30244 366.075362302433
10.32256 403.984696447931
10.34267 380.040288552079
10.36278 369.004722958562
10.3829 357
10.40301 344.010925046182
10.42313 380.006285175351
10.44324 351.969909228451
10.46335 371.920253663773
10.48347 393.980936701899
10.50358 396.011000133194
10.52369 366.026102042355
10.54381 324.002499587668
10.56392 364.026354107906
10.58403 357.986368025353
10.60415 362.010225210095
10.62426 360.996695425623
10.64438 365.998796084906
10.66449 372.985321946744
10.6846 408
10.70472 381.970804224676
10.72483 366.981710234396
10.74494 346.946906173805
10.76506 343.900845554441
10.78517 403.006906380928
10.80529 348.009315704633
10.8254 391
10.84551 396.995884546962
10.86563 390.984484437665
10.88574 381.003658816874
10.90585 390.992537166327
10.92597 378.034069027887
10.94608 358.010580972763
10.9662 359
10.98631 371.008161603544
11.00642 387.010025435303
11.02654 383.964611736458
11.04665 366.997115706279
11.06676 379.997493406009
11.08688 372.988109648286
11.10699 404.987142329852
11.1271 398
11.14722 360.000472077845
11.16733 395.04423610742
11.18745 383.882334533167
11.20756 353.927243875586
11.22767 410.030831135751
11.24779 323.022986635796
11.2679 354
11.28801 359.002194813258
11.30813 366.975978259611
11.32824 337.993636123118
11.34836 363.960802454951
11.36847 364.992186015942
11.38858 377.001675421446
11.4087 367
11.42881 385.999159558475
11.44892 366.999114620073
11.46904 387.016611578302
11.48915 382.961803112429
11.50927 419.956706546852
11.52938 416.032100165266
11.54949 387.997932208194
11.56961 412.001745952672
11.58972 382.966845063317
11.60983 376.032664092308
11.62995 415.104387324301
11.65006 430.055433966968
11.67017 397.972797310204
11.69029 445.000246273263
11.7104 393
11.73052 414.031990529675
11.75063 417.96626599621
11.77074 403.050194102169
11.79086 433.066259001144
11.81097 368.991354956357
11.83108 444.954726412759
11.8512 427
11.87131 457.022249428829
11.89143 484.008318930503
11.91154 471.955864657738
11.93165 447.068481132591
11.95177 427.999061937315
11.97188 450.96335055681
11.99199 477.999008235755
12.01211 468.003129525664
12.03222 497.029784094126
12.05234 515.029708236381
12.07245 532.03822261968
12.09256 543.979272218443
12.11268 558.976352061753
12.13279 582.994288673181
12.1529 589
12.17302 625.03293820315
12.19313 643.013652674522
12.21324 656.046377141676
12.23336 682.965523389495
12.25347 693.968570708012
12.27359 740.964019994735
12.2937 802
12.31381 794.016129970801
12.33393 859.041470134928
12.35404 827.916270185946
12.37415 818.948926421956
12.39427 823.081824895992
12.41438 714.115164858148
12.4345 641
12.45461 623.97938812554
12.47472 578.00490609946
12.49484 604.9299699868
12.51495 516.123145228194
12.53506 522.030287151442
12.55518 470.027116906113
12.57529 477.005415048186
12.5954 442
12.61552 454.997502878208
12.63563 412.904420495698
12.65575 374.039273870972
12.67586 410.015968459274
12.69597 368.002786480985
12.71609 419.977583208667
12.7362 426
12.75631 420.987839300803
12.77643 388.986830084347
12.79654 406.029812554172
12.81666 403.018059821615
12.83677 393.026404404403
12.85688 372.013040079495
12.877 363
12.89711 344.00441936722
12.91722 367.999458551314
12.93734 337.950536891271
12.95745 340.952824004139
12.97757 357.98652087341
12.99768 359.998032152122
13.01779 353.015884713534
13.03791 328.014856187706
13.05802 391.026471574527
13.07813 362.952872199352
13.09825 373.114306105041
13.11836 409.028585655249
13.13847 358.05043458398
13.15859 362.994379379833
13.1787 360
13.19882 356.992552064903
13.21893 357.03942603967
13.23904 382.959999629264
13.25916 332.041080147235
13.27927 360.944736902941
13.29938 373.004413444235
13.3195 363
13.33961 345.98818394533
13.35973 325.995866094716
13.37984 347.075676281614
13.39995 382.947093111057
13.42007 380.036499065683
13.44018 348.028146295463
13.46029 337.994249467955
13.48041 352.998491916346
13.50052 339.003503728303
13.52064 357.002016572734
13.54075 334.95063389774
13.56086 335.969400160482
13.58098 350.99364604428
13.60109 345.006898594393
13.6212 339
13.64132 355.994437139199
13.66143 337.00470342516
13.68154 355.986360908637
13.70166 331.981414441775
13.72177 368.987168978144
13.74189 339.011151639515
13.762 352
13.78211 361.985588409733
13.80223 327.016145968997
13.82234 371.025989632202
13.84245 337.081619367037
13.86257 331.002560523601
13.88268 327.987435622781
13.9028 347
13.92291 322.988027295334
13.94302 319.013150477483
13.96314 343.062240865645
13.98325 365.001327700852
14.00336 340.076178858629
14.02348 316.9903392583
14.04359 342.995883598552
14.06371 328.996649918916
14.08382 340.009690935021
14.10393 326.942794651957
14.12405 300.058724807964
14.14416 358.921252957669
14.16427 355.025894410806
14.18439 346.004538748464
14.2045 331
14.22461 322.004880470953
14.24473 340.008860634081
14.26484 342.05247764119
14.28496 373.025049757351
14.30507 328.027212514531
14.32518 346.992790049271
14.3453 329
14.36541 334.99370271499
14.38552 299.971345043516
14.40564 296.021837582577
14.42575 316.911457158235
14.44587 343.018876872704
14.46598 304.023586445658
14.48609 314.988385743197
14.50621 328.001136032658
14.52632 327.003499284911
14.54643 339.024916678886
14.56655 345.9667843828
14.58666 320.039994074748
14.60677 314.003003558635
14.62689 321.983027911462
14.647 360
14.66712 321.952198148556
14.68723 305.035584999088
14.70734 350.073475276014
14.72746 363.989615942558
14.74757 361.037370476621
14.76768 331.003899109599
14.7878 344
14.80791 300.977970875111
14.82803 291.042834387539
14.84814 325.003213386611
14.86825 312.92380306062
14.88837 368.988668580422
14.90848 327.01851860903
14.92859 348.996673013887
14.94871 328.99897469335
14.96882 344.989697157825
14.98894 307.960895353606
15.00905 319.028100102531
15.02916 308.050519454598
15.04928 298.969856423191
15.06939 340.998498199865
15.0895 317
15.10962 365.021838300773
15.12973 341.962944873147
15.14984 338.99897547381
15.16996 326.0415969323
15.19007 316.972789567736
15.21019 339.006583236862
15.2303 302
15.25041 329.011999384512
15.27053 321.96066567379
15.29064 300.994612552282
15.31075 313.967389995671
15.33087 325.962426698585
15.35098 351.999879863469
15.3711 326
15.39121 322.005916061043
15.41132 329.989962100122
15.43144 306.966943232575
15.45155 312.936699385744
15.47166 339.972616722219
15.49178 334.017215398594
15.51189 316.008203274921
15.53201 313.010083443287
15.55212 350.037279414687
15.57223 355.938401234625
15.59235 298.936374916054
15.61246 315.952874647437
15.63257 324.986772692798
15.65269 332.005542538176
15.6728 318
15.69291 354.009025988959
15.71303 331.93218073461
15.73314 295.979359510326
15.75326 312.940714088319
15.77337 339.965597322642
15.79348 352.004909282039
15.8136 335
15.83371 312.980499838332
15.85382 291.042834192227
15.87394 353.980311419136
15.89405 280.089801649277
15.91417 326.890417649758
15.93428 359.020580599366
15.95439 319.007174829579
15.97451 338.007598215569
15.99462 335.001235907724
16.01473 331.942905442903
16.03485 276.944295087234
16.05496 299.936623450607
16.07508 312.000046040009
16.09519 317.988857273673
16.1153 341
16.13542 318.991040535104
16.15553 334.026507392035
16.17564 333.965903770026
16.19576 320.976516811733
16.21587 347.982051889192
16.23598 325.047469911352
16.2561 294
16.27621 335.004956874979
16.29633 302.955396121882
16.31644 310.069342194912
16.33655 339.996729204904
16.35667 312.051161978473
16.37678 301.978318234332
16.39689 331.996535728165
16.41701 324.00818787321
16.43712 347.975379054375
16.45724 295.996789970202
16.47735 346.064326125986
16.49746 322.047377683013
16.51758 322.002627816824
16.53769 315.991859097176
16.5578 353
16.57792 348.962282941695
16.59803 307.979781956786
16.61814 328.058452229868
16.63826 329.081206433139
16.65837 286.983861144213
16.67849 333.993991051469
16.6986 302
16.71871 316.996633706573
16.73883 291.012126264549
16.75894 332.039009232338
16.77905 311.065645641534
16.79917 304.992584074931
16.81928 319.966761376329
16.8394 340
16.85951 284.998218304527
16.87962 341.050945252026
16.89974 340.933407035325
16.91985 309.03253032507
16.93996 318.960112679491
16.96008 333.99219243471
16.98019 334.003176433946
17.00031 327.999858943992
17.02042 323.977622010109
17.04053 302.018235221892
17.06065 350.129157600568
17.08076 363.073658052823
17.10087 311.031439880983
17.12099 326.993554575668
17.1411 327
17.16121 351.996603431614
17.18133 325.006081261177
17.20144 361.035518918661
17.22156 345.03060598812
17.24167 349.984057279859
17.26178 348.018251745662
17.2819 321
17.30201 303.991654383101
17.32212 300.028212228061
17.34224 339.016760257714
17.36235 313.057007253405
17.38247 319.960781203767
17.40258 337.010245615451
17.42269 310.00743383963
17.44281 329.022904915493
17.46292 362.989781397704
17.48303 321.960949414027
17.50315 326.010285937536
17.52326 318.004699576842
17.54338 330.979813699166
17.56349 336.012342677522
17.5836 312
17.60372 364.020488641953
17.62383 337.960145846798
17.64394 339.022649642582
17.66406 347.977957906362
17.68417 354.016135453149
17.70428 336.003692788732
17.7244 349
17.74451 349.000227406329
17.76463 350.990464372959
17.78474 335.972171678569
17.80485 338.934799574411
17.82497 372.970111945306
17.84508 361.039946444762
17.86519 326.000160147056
17.88531 358.016076838507
17.90542 363.985028426545
17.92554 337.935900725004
17.94565 313.984893929337
17.96576 326.953358533799
17.98588 344.994813142307
18.00599 341.001103709409
18.0261 348
18.04622 358.002564397462
18.06633 360.019433801105
18.08645 359.878740618845
18.10656 294.031186230945
18.12667 341.913553855733
18.14679 362.005952046951
18.1669 339
18.18701 328.994408148271
18.20713 316.996886246163
18.22724 333.063139752706
18.24735 358.004998346599
18.26747 340.004285424331
18.28758 352.004594196949
18.3077 322
18.32781 309.002897798457
18.34792 314.988298406222
18.36804 296.00434113628
18.38815 325.911093704849
18.40826 342.014640811731
18.42838 331.988162233215
18.44849 352.005138072941
18.46861 313.987826343831
18.48872 324.024219779232
18.50883 334.985174926535
18.52895 317.993291619444
18.54906 327.006384760693
18.56917 311.008147215189
18.58929 324.990588531707
18.6094 327
18.62951 312.015469739472
18.64963 368.031181585278
18.66974 336.920163677833
18.68986 318.020243135787
18.70997 313.981898908233
18.73008 339.972613466474
18.7502 353
18.77031 330.983261001739
18.79042 307.001818866934
18.81054 325.016770311354
18.83065 317.013764953556
18.85077 323.984092668017
18.87088 335.980233351818
18.89099 356.99560039298
18.91111 349.993432687252
18.93122 333.97508687363
18.95133 313.003515887022
18.97145 339.076664170366
18.99156 344.064904237556
19.01168 304.005373152011
19.03179 330.992519626089
19.0519 322
19.07202 332.993803183533
19.09213 299.939480248656
19.11224 279.01296522458
19.13236 314.882502809388
19.15247 364.977773543181
19.17258 347.022190459868
19.1927 345
19.21281 355.9960318831
19.23293 336.990417358705
19.25304 346.007570641106
19.27315 334.043910795514
19.29327 320.016557405286
19.31338 313.998018604885
19.33349 321.995480856069
19.35361 336.013772486204
19.37372 347.958349150851
19.39384 292.015283429733
19.41395 370.194017082177
19.43406 385.081303628285
19.45418 340.004887368663
19.47429 377.980456364974
19.4944 378
19.51452 341.002692625397
19.53463 383.063660007698
19.55475 382.881608239792
19.57486 338.968496229968
19.59497 396.96028694335
19.61509 380.997963099036
19.6352 410
19.65531 372.993967830164
19.67543 409.074066269433
19.69554 440.028886278299
19.71565 447.977363651164
19.73577 471.933053446335
19.75588 519.972790965659
19.776 552
19.79611 652.012441865242
19.81622 607.981949082712
19.83634 654.107180994631
19.85645 663.080490143132
19.87656 632.97539724728
19.89668 675.978690958323
19.91679 651.021840908157
19.93691 616.988680577283
19.95702 614.023843873993
19.97713 640.998438147709
19.99725 612.942776753043
20.01736 609.999546135241
20.03747 601.020494717171
20.05759 588.005609369273
20.0777 578
20.09782 569.9979901407
20.11793 582.045263214188
20.13804 608.995521065174
20.15816 582.042039067306
20.17827 581.991123811471
20.19838 587.984775305227
20.2185 602
20.23861 588.006743064954
20.25872 620.007016351661
20.27884 597.976313688448
20.29895 600.047893455769
20.31907 578.952086871721
20.33918 642.980635269629
20.35929 614.002326397245
20.37941 639.995084103429
20.39952 584.957230634526
20.41963 594.065768046672
20.43975 630.004357137238
20.45986 619.946989997671
20.47998 671.982548791523
20.50009 639.019703315193
20.5202 638
20.54032 694.048727220083
20.56043 707.962736063511
20.58054 687.05931109542
20.60066 749.937846419665
20.62077 736.012349216719
20.64088 781.902818433466
20.661 880
20.68111 908.041320584036
20.70123 1085.34887938651
20.72134 1357.65528664944
20.74145 1759.82781760689
20.76157 2314.02462701643
20.78168 3050.21999030735
20.80179 3866.56885642518
20.82191 4656.2807761495
20.84202 4920.03386036031
20.86214 4780.34985556207
20.88225 4210.88357681079
20.90236 3219.88411262455
20.92248 2381.84050126801
20.94259 1569.30922618217
20.9627 1177
20.98282 925.820126532899
21.00293 811.865949906672
21.02305 735.925921794057
21.04316 737.031035707197
21.06327 705.996405186695
21.08339 734.001670921902
21.1035 699
21.12361 717.99753742987
21.14373 684.981598659492
21.16384 701.007033708519
21.18395 679.048785567452
21.20407 688.941877062813
21.22418 718.019219655476
21.2443 677
21.26441 711.995446626801
21.28452 685.057643800625
21.30464 789.017194731129
21.32475 693.169105392271
21.34486 709.947111033975
21.36498 698.023101661828
21.38509 683.007282398065
21.40521 678.010840011505
21.42532 691.954691024711
21.44543 601.898605342297
21.46555 602.118801710785
21.48566 640.018365960188
21.50577 601.021204858575
21.52589 613.007566393448
21.546 576
21.56612 591.952013397172
21.58623 503.96492730086
21.60634 552.045454688513
21.62646 509.104338099032
21.64657 510.904428250438
21.66668 575.006042520028
21.6868 523
21.70691 564.994672183806
21.72702 495.965124253704
21.74714 525.062124398179
21.76725 519.05174533589
21.78737 495.056776874663
21.80748 457.012891814553
21.82759 480.976269537977
21.84771 515.999533937124
21.86782 488.980065487638
21.88793 490.00474352392
21.90805 477.935898795027
21.92816 452.027564045462
21.94828 454.987607865792
21.96839 459.007466251389
21.9885 446
22.00862 496.043238204827
22.02873 495.93330486519
22.04884 452.006287042084
22.06896 487.984279211258
22.08907 454.043165992014
22.10919 452.998676012064
22.1293 459
22.14941 488.986236181901
22.16953 423.958754341519
22.18964 454.067094741055
22.20975 461.983544215506
22.22987 464.045401795468
22.24998 423.001716005322
22.27009 461.984536935383
22.29021 451.982298633259
22.31032 429.012242651245
22.33044 463.038784279012
22.35055 456.983720654448
22.37066 460.998640427057
22.39078 450.017050400217
22.41089 443.991602593796
22.431 463
22.45112 424.972080956608
22.47123 426.019192178887
22.49135 442.068874748094
22.51146 464.019363797417
22.53157 426.055100710444
22.55169 411.999338687318
22.5718 431
22.59191 470.994756810509
22.61203 412.912681883699
22.63214 401.069402055589
22.65225 440.99299504264
22.67237 405.051209012423
22.69248 401.982726556284
22.7126 421
22.73271 432.0107270331
22.75282 439.958153284642
22.77294 385.01113631639
22.79305 440.944172756286
22.81316 399.106337610449
22.83328 397.93812579093
22.85339 465.997319338027
22.87351 421.994282460306
22.89362 445.980847972899
22.91373 385.970501816268
22.93385 440.201127969491
22.95396 477.061568424922
22.97407 422.017304403011
22.99419 451.000555481244
23.0143 408
23.03442 420.0116904031
23.05453 413.995211812615
23.07464 411.954426128817
23.09476 388.96041688576
23.11487 429.008199269923
23.13498 390.991589727984
23.1551 448
23.17521 424.990073429645
23.19532 437.018461790366
23.21544 428.915633957099
23.23555 390.967163785917
23.25567 438.970557675672
23.27578 408.040630562021
23.29589 390.00168239764
23.31601 385.994183704343
23.33612 376.008105918608
23.35623 395.00922494105
23.37635 389.015019004566
23.39646 416.92956904015
23.41658 430.024732886119
23.43669 389.009834973835
23.4568 401
23.47692 415.03015837009
23.49703 443.986457497676
23.51714 395.897788416725
23.53726 385.919335489734
23.55737 431.00833013147
23.57749 379.019269820541
23.5976 401
23.61771 458.998282379053
23.63783 404.933088648266
23.65794 400.012129387199
23.67805 409.912348330577
23.69817 443.027320277141
23.71828 392.015558988278
23.73839 426.983772319294
23.75851 428.998100922819
23.77862 421.967829873321
23.79874 392.044107554687
23.81885 451.077628714834
23.83896 435.036008241752
23.85908 443.980044008221
23.87919 457.996612267848
23.8993 465
23.91942 482.002239788622
23.93953 478.021207556684
23.95965 498.980039067043
23.97976 472.000222067324
23.99987 491.022944864815
24.01999 432.02887462984
24.0401 429
24.06021 489.992874365862
24.08033 419.953169782642
24.10044 455.070475189773
24.12056 447.058028948178
24.14067 441.93715639465
24.16078 495.992615050516
24.1809 463
24.20101 479.989327744183
24.22112 425.983270509192
24.24124 449.997805335641
24.26135 416.021495831867
24.28146 448.934997634591
24.30158 464.975043798598
24.32169 497.99304439822
24.34181 478.980621577185
24.36192 436.959040324803
24.38203 413.008487526888
24.40215 439.061234777746
24.42226 447.004606927853
24.44237 440.018673838019
24.46249 429.000797059402
24.4826 439
24.50272 461.033862303182
24.52283 495.023875129677
24.54294 482.935845028568
24.56306 458.98980547266
24.58317 484.973155249214
24.60328 490.981077656462
24.6234 525
24.64351 529.997286313519
24.66362 532.01690582739
24.68374 554.01895149175
24.70385 557.943570952153
24.72397 611.890454540494
24.74408 669.980455280111
24.76419 659.005347101483
24.78431 666.00564326718
24.80442 678.022251042234
24.82453 728.127383602657
24.84465 793.960617656752
24.86476 711.144496116417
24.88488 706.954373119547
24.90499 733.022411697153
24.9251 647
24.94522 654.992871958253
24.96533 620.993886345569
24.98544 638.951780255466
25.00556 572.090236268377
25.02567 580.952018630638
25.04579 581.02802421535
25.0659 503
25.08601 511.004471872736
25.10613 513.051823561089
25.12624 562.010607931852
25.14635 505.197594356864
25.16647 457.0031742276
25.18658 496.936784122953
25.20669 547.98959592834
25.22681 549.004441250695
25.24692 562.988476702443
25.26704 534.990678846355
25.28715 547.964131069756
25.30726 503.066289358546
25.32738 501.990048727033
25.34749 507.995902221048
25.3676 508
25.38772 467.971753971872
25.40783 459.991988549431
25.42795 452.004629492891
25.44806 454.039663906331
25.46817 430.977758150941
25.48829 469.996028946047
25.5084 447
25.52851 476.002550726488
25.54863 443.953995095544
25.56874 445.0505418183
25.58886 467.99784456242
25.60897 448.031259781264
25.62908 449.971512165036
25.6492 475
25.66931 448.008107485234
25.68942 504.034488637408
25.70954 496.983802218199
25.72965 506.982975997534
25.74976 521.889215470878
25.76988 577.019796463866
25.78999 513.999862673023
25.81011 573.003244252827
25.83022 519.99142078729
25.85033 574.046737880167
25.87045 556.985181794066
25.89056 581.967314114599
25.91067 572.022121285432
25.93079 567.99957398503
25.9509 572
25.97102 584.001621650296
25.99113 579.004562191708
26.01124 589.002406134267
26.03136 575.039266079032
26.05147 570.964470474752
26.07158 610.967863007309
26.0917 627
26.11181 634.989764581718
26.13193 610.024256753321
26.15204 662.073485933778
26.17215 682.864536645359
26.19227 754.964830741573
26.21238 740.974477320076
26.23249 806.98527489845
26.25261 783.992588504737
26.27272 850.158496258033
26.29283 1012.09237863035
26.31295 982.978507493519
26.33306 1050.82273993466
26.35318 1127.91369935964
26.37329 1221.96171124756
26.3934 1335
26.41352 1670.35929892592
26.43363 2000.48350150115
26.45374 2444.31903290504
26.47386 3371.74397452272
26.49397 4708.62317427876
26.51409 6640.85665935482
26.5342 9242
26.55431 12467.9636452562
26.57443 16639.3454388287
26.59454 19313.4748645478
26.61465 21198.2685206998
26.63477 21038.2086598382
26.65488 18444.4299162849
26.67499 14636.9555128255
26.69511 10927.3253669281
26.71522 7875.13882324134
26.73534 5157.16044234895
26.75545 3149.10051323266
26.77556 2002.51492089996
26.79568 1525.25310032684
26.81579 1341.10077613557
26.8359 1138
26.85602 1122.9341150216
26.87613 984.853271311207
26.89625 960.935250910362
26.91636 900.103355662436
26.93647 868.06657089316
26.95659 792.046510721988
26.9767 728
26.99681 742.976081722807
27.01693 638.890403818884
27.03704 634.030575557926
27.05716 615.118528651016
27.07727 543.074387272465
27.09738 540.963538853405
27.1175 572
27.13761 522.97467274708
27.15772 511.030531516719
27.17784 548.006421069927
27.19795 519.048406746137
27.21806 522.006542034466
27.23818 508.000275711768
27.25829 520.00082922223
27.27841 511.007966855866
27.29852 546.015611611623
27.31863 533.985186587926
27.33875 528.932890053855
27.35886 489.033589723512
27.37897 517.907817401281
27.39909 558.01161864876
27.4192 492
27.43932 486.995065891169
27.45943 477.031254718248
27.47954 516.016709182735
27.49966 484.066191451351
27.51977 474.997225640849
27.53988 470.016137703456
27.56 450
27.58011 447.998958585098
27.60023 442.998939471796
27.62034 450.021889152501
27.64045 451.047781574824
27.66057 431.982271392047
27.68068 461.995550149311
27.70079 430.017710307416
27.72091 424.0119126942
27.74102 461.032680700565
27.76113 457.920167699466
27.78125 390.927659905406
27.80136 412.930589326188
27.82148 431.987530916085
27.84159 437.006443764656
27.8617 419
27.88182 431.996617595479
27.90193 396.921015663127
27.92204 381.123869165285
27.94216 468.961581489725
27.96227 413.065972057428
27.98239 414.003849126238
28.0025 390
28.02261 427.011062863679
28.04273 412.960935652973
28.06284 402.015005752584
28.08295 415.987694475326
28.10307 408.014009493849
28.12318 405.99741596981
28.1433 404
28.16341 394.006725590449
28.18352 426.02488088428
28.20364 410.87511146996
28.22375 368.129279759305
28.24386 462.978880364829
28.26398 388.034775207571
28.28409 431.982094122823
28.3042 413
28.32432 403.012973753201
28.34443 421.008775815022
28.36455 407.946004958196
28.38466 388.035421839262
28.40477 380.981856171954
28.42489 400.9960097684
28.445 392
28.46511 394.007893365652
28.48523 405.984658874279
28.50534 390.026150456213
28.52546 417.018674969502
28.54557 381.999649017465
28.56568 410.012785921954
28.5858 358
28.60591 382.005521299143
28.62602 368.006046999299
28.64614 400.037240554709
28.66625 388.051929342521
28.68636 375.020290572471
28.70648 367.001358728801
28.72659 379.984772120911
28.74671 398.987483922772
28.76682 354.994979575374
28.78693 387.014274060181
28.80705 367.006428972038
28.82716 407.914814657094
28.84727 414.049353607571
28.86739 371.010571378555
28.8875 381
28.90762 387.996165554108
28.92773 378.985619849095
28.94784 369.976904196999
28.96796 364.972024624598
28.98807 389.977030929209
29.00818 392.99156254479
29.0283 400
29.04841 373.004457441132
29.06853 410.020245581151
29.08864 383.939177303555
29.10875 371.020195825613
29.12887 364.990599964349
29.14898 390.957414617642
29.16909 411.019667905035
29.18921 339.981372349742
29.20932 355.021396405056
29.22943 359.012476575558
29.24955 387.102469875635
29.26966 407.058116373174
29.28978 360.005503302804
29.30989 395.990986500642
29.33 378
29.35012 382.994447175493
29.37023 350.931417059337
29.39034 326.03674896408
29.41046 370.9368862585
29.43057 368.029415320744
29.45069 355.000394552517
29.4708 371
29.49091 394.99670840654
29.51103 359.94260726618
29.53114 354.074902765939
29.55125 403.951416011803
29.57137 389.016564733782
29.59148 394.005146872509
29.6116 373
29.63171 368.997372386037
29.65182 347.962396360477
29.67194 326.054795882681
29.69205 384.089825465185
29.71216 377.038031072413
29.73228 362.025649706183
29.75239 339.994400113113
29.7725 377
29.79262 375.994137006508
29.81273 376.996957301437
29.83285 372.005045716944
29.85296 379.994222892799
29.87307 373.01592989861
29.89319 368.996617623472
29.9133 375
29.93341 354.996731904305
29.95353 369.028188552531
29.97364 373.975994343157
29.99376 354.030740869719
30.01387 348.005870136656
30.03398 355.9630534173
30.0541 389
30.07421 329.9860437637
30.09432 354.028987747913
30.11444 361.008832303682
30.13455 380.915930575479
30.15467 407.998326992344
30.17478 383.031893702379
30.19489 366.997960503468
30.21501 387.013728983658
30.23512 399.984541290183
30.25523 367.966316978132
30.27535 360.972427711599
30.29546 344.00988565917
30.31557 361.949185630188
30.33569 386.002639298751
30.3558 356
30.37592 342.999310372331
30.39603 355.045639835656
30.41614 384.0028345465
30.43626 364.018282050807
30.45637 371.0053107378
30.47648 353.009427135441
30.4966 356
30.51671 344.999957641934
30.53683 355.001449401179
30.55694 340.968298280761
30.57705 337.970785536066
30.59717 353.988107090277
30.61728 352.0015400081
30.63739 360.990445374858
30.65751 368.987896269043
30.67762 330.988122784916
30.69773 350.022764833918
30.71785 346.99705848248
30.73796 364.931871301431
30.75808 391.003938351079
30.77819 369.00310849536
30.7983 391
30.81842 394.968721163017
30.83853 351.969761318508
30.85864 352.973472279179
30.87876 327.002426749308
30.89887 353.96810474784
30.91899 353.003061413915
30.9391 363
30.95921 396.006970975772
30.97933 376.93368220702
30.99944 342.003424216605
31.01955 370.951747416585
31.03967 358.04683455781
31.05978 334.004746586635
31.0799 348
31.10001 371.017102577663
31.12012 398.995157204759
31.14024 367.952130419339
31.16035 367.979691074631
31.18046 369.010891275806
31.20058 355.025067868372
31.22069 338.991897994501
31.2408 370
31.26092 338.964066038374
31.28103 336.056226491398
31.30115 380.021262863576
31.32126 355.029666524954
31.34137 364.990818177503
31.36149 355.004786171334
31.3816 348
31.40171 324.99714183761
31.42183 346.053308652383
31.44194 372.00765029183
31.46206 353.059526373569
31.48217 330.014945313114
31.50228 329.002128348579
31.5224 331
31.54251 354.99690362264
31.56262 330.000251805842
31.58274 362.052477826895
31.60285 366.987364460291
31.62297 369.038621294891
31.64308 330.012317831237
31.66319 350.989440383486
31.68331 352.998250522454
31.70342 352.998873471342
31.72353 352.00752833495
31.74365 361.012417978369
31.76376 368.94873034407
31.78387 383.062894534901
31.80399 317.006335458216
31.8241 365
31.84422 363.997848226115
31.86433 372.990701896875
31.88444 344.940111376083
31.90456 329.010309507783
31.92467 337.955186180467
31.94478 367.001037888053
31.9649 343
31.98501 350.997869702912
32.00513 336.010122162845
32.02524 365.038554645707
32.04535 366.97866884852
32.06547 371.05347134183
32.08558 324.991063481462
32.10569 378.9882649644
32.12581 348.984470367395
32.14592 347.005383812077
32.16604 350.025039892422
32.18615 370.033244897465
32.20626 367.029930801175
32.22638 349.016113181445
32.24649 341.997613305511
32.2666 358
32.28672 381.016224142078
32.30683 386.996643145942
32.32694 367.907595065049
32.34706 324.995367884859
32.36717 368.939550890717
32.38729 385.99066009472
32.4074 400
32.42751 359.996793613781
32.44763 384.000607195094
32.46774 352.967199077135
32.48785 365.971456214208
32.50797 366.98116220241
32.52808 390.987111705171
32.5482 382
32.56831 377.011193157043
32.58842 406.00136901274
32.60854 379.961899985929
32.62865 375.043686705499
32.64876 352.982858091356
32.66888 393.960481639357
32.68899 406.004210518386
32.7091 394
32.72922 397.004650297014
32.74933 393.980698983873
32.76945 375.960193659372
32.78956 381.918838439815
32.80967 432.964543788845
32.82979 411.024134701283
32.8499 380
32.87001 423.019353233658
32.89013 433.992411805998
32.91024 427.992841097724
32.93036 424.020759407749
32.95047 426.93681462372
32.97058 477.997180144444
32.9907 440
33.01081 462.003301047539
33.03092 435.975832397702
33.05104 448.096919494607
33.07115 497.9625413243
33.09127 472.055645147448
33.11138 456.98894876009
33.13149 472.003615152158
33.15161 447.995546817661
33.17172 466.025049393929
33.19183 482.015256608798
33.21195 487.999729525773
33.23206 488.977876189012
33.25217 502.003586364079
33.27229 486.005154635598
33.2924 491
33.31252 493.990995186932
33.33263 461.907813338606
33.35274 421.073920797801
33.37286 504.917325704065
33.39297 484.022420935741
33.41308 496.008529548487
33.4332 464
33.45331 482.004344493912
33.47343 466.976924825596
33.49354 461.986454819197
33.51365 452.998113505132
33.53377 460.003271232669
33.55388 444.018812004835
33.57399 429.00755067081
33.59411 418.000808192751
33.61422 424.996713604209
33.63434 410.981160792464
33.65445 406.968267682702
33.67456 382.052198502131
33.69468 374.978185892959
33.71479 398.006765585413
33.7349 369
33.75502 406.982264585693
33.77513 353.012564734861
33.79524 427.089012225383
33.81536 403.074009089173
33.83547 387.023811803622
33.85559 364.007941995866
33.8757 362
33.89581 363.998388663177
33.91593 371.052554558377
33.93604 405.977073364872
33.95615 360.054370134503
33.97627 378.972981087852
33.99638 375.005495806703
34.0165 365
34.03661 335.018733615423
34.05672 398.989534636722
34.07684 320.924528593147
34.09695 348.969391268883
34.11706 328.974390563984
34.13718 372.99225473392
34.15729 332.017322525784
34.17741 345.023622424527
34.19752 373.970953735759
34.21763 331.040501544517
34.23775 411.079848064355
34.25786 366.100497675471
34.27797 355.992504604697
34.29809 358.995355130248
34.3182 366
34.33831 343.997612126567
34.35843 363.033793891085
34.37854 378.032189673695
34.39866 390.012839211933
34.41877 366.039475847787
34.43888 360.974927760759
34.459 394
34.47911 367.979018969773
34.49922 348.021163588259
34.51934 393.064154806423
34.53945 398.993642999058
34.55957 403.018942120613
34.57968 385.990734004178
34.59979 407.006315145582
34.61991 370.998311487646
34.64002 413.044222912462
34.66013 428.999244790097
34.68025 425.991334699485
34.70036 424.995130742225
34.72047 440.942307037027
34.74059 476.00210227613
34.7607 446
34.78082 464.997808823799
34.80093 462.094608545635
34.82104 541.960097017933
34.84116 445.066843412117
34.86127 515.885144528144
34.88138 539.989155420614
34.9015 567
34.92161 591.006036232848
34.94173 575.919222190509
34.96184 529.036387906939
34.98195 574.062149399448
35.00207 488.061451432453
35.02218 524.957954984818
35.04229 530.999411823107
35.06241 537.996026039864
35.08252 513.979808293412
35.10264 494.920693475947
35.12275 452.991487127478
35.14286 482.965140557527
35.16298 475.000757902222
35.18309 491.993781244755
35.2032 488
35.22332 480.99543249318
35.24343 477.997901077435
35.26354 485.044319173218
35.28366 507.995751741841
35.30377 479.073087254136
35.32389 463.969245492678
35.344 545
35.36411 481.997165612923
35.38423 539.00808424568
35.40434 480.961016126683
35.42445 530.879235907069
35.44457 527.054757495559
35.46468 501.98865786802
35.4848 544
35.50491 556.993062345152
35.52502 548.025796332039
35.54514 587.000615820304
35.56525 550.052210729906
35.58536 560.988540741047
35.60548 550.001903338449
35.62559 575.97670061089
35.64571 601.985312816476
35.66582 537.957356515827
35.68593 554.085437682353
35.70605 606.044637866968
35.72616 595.012357411866
35.74627 598.025579971948
35.76639 554.023893648906
35.7865 551
35.80661 631.002893970377
35.82673 578.988585301054
35.84684 628.03248714095
35.86696 583.09004437978
35.88707 590.919621232288
35.90718 637.008376268819
35.9273 587
35.94741 595.004899162286
35.96752 572.95059928638
35.98764 525.963664186491
36.00775 534.978215784081
36.02787 522.042751783354
36.04798 496.011028101072
36.06809 511.978671926284
36.08821 555.008208406604
36.10832 536.966187713127
36.12843 504.954345578553
36.14855 480.971113883304
36.16866 483.972001965226
36.18878 497.993702174631
36.20889 478.02851560609
36.229 438
36.24912 534.052748369375
36.26923 509.940926513232
36.28934 507.048710098635
36.30946 531.985088295672
36.32957 546.902714228481
36.34968 639.944877411616
36.3698 658
36.38991 763.06353728994
36.41003 898.24284902971
36.43014 1103.48118670626
36.45025 1326.6163253696
36.47037 1459.68758453682
36.49048 1690.90047007287
36.51059 1675.98043285744
36.53071 1753.96583342143
36.55082 1511.74402024627
36.57094 1348.7673868977
36.59105 1231.7137974646
36.61116 1116.23908859508
36.63128 982.151836396838
36.65139 823.073820048594
36.6715 695
36.69162 584.894586675637
36.71173 507.966891518091
36.73184 527.041951636422
36.75196 521.045825563537
36.77207 516.938866910759
36.79219 552.023950154354
36.8123 462
36.83241 532.020346723038
36.85253 494.922971266908
36.87264 491.085275698052
36.89275 535.000048553322
36.91287 495.046241764002
36.93298 478.046869831158
36.9531 427
36.97321 503.029702104614
36.99332 507.988481625505
37.01344 504.985289031051
37.03355 489.038980015685
37.05366 475.039290221376
37.07378 455.007263556261
37.09389 457.002547966227
37.11401 441.994435576585
37.13412 449.025796382613
37.15423 465.969360225151
37.17435 419.922767647319
37.19446 436.885421247137
37.21457 482.019872695314
37.23469 434.006374640274
37.2548 456
37.27491 399.982462006592
37.29503 419.06515151556
37.31514 440.967259336712
37.33526 400.06861438141
37.35537 390.992905492949
37.37548 394.999616326408
37.3956 399
37.41571 420.001837945772
37.43582 408.997464737811
37.45594 421.019036154614
37.47605 420.006825363663
37.49617 415.024802836891
37.51628 404.975859140917
37.53639 449.987867075249
37.55651 424.969273298074
37.57662 373.994744680272
37.59673 410.056925752811
37.61685 422.998945205493
37.63696 422.995057634994
37.65708 429.98858920087
37.67719 443.992726866278
37.6973 441
37.71742 407.022162379457
37.73753 463.02106433481
37.75764 418.914034363264
37.77776 416.958801419323
37.79787 434.987240655007
37.81798 429.018704016158
37.8381 420
37.85821 455.004944280457
37.87833 423.925996818098
37.89844 394.010912475784
37.91855 418.968795079112
37.93867 408.020505269593
37.95878 404.99958616007
37.97889 409.991018513456
37.99901 420.98771242992
38.01912 388.014630516605
38.03924 435.016009554278
38.05935 402.994010909989
38.07946 443.943512775366
38.09958 432.024186703996
38.11969 422.997058826115
38.1398 427
38.15992 408.006638975214
38.18003 435.01767465302
38.20015 437.08181844771
38.22026 486.975498254094
38.24037 459.024665696101
38.26049 492.964385624721
38.2806 545
38.30071 495.99267856517
38.32083 525.016287381579
38.34094 504.995571761733
38.36105 538.901435537703
38.38117 560.982854760146
38.40128 564.010419831454
38.4214 546
38.44151 536.993814579133
38.46162 521.992282472365
38.48174 523.002991729829
38.50185 516.040136712207
38.52196 497.02954860238
38.54208 486.014453686435
38.56219 470.003997787609
38.58231 463.990363223308
38.60242 446.013443396506
38.62253 479.015614664596
38.64265 441.831553917869
38.66276 403.929218156071
38.68287 472.971901571518
38.70299 435.008633672692
38.7231 452
38.74321 403.987049909074
38.76333 434.093577763473
38.78344 475.982439356364
38.80356 443.000623458085
38.82367 473.993629019871
38.84378 432.049217025896
38.8639 410
38.88401 429.016962240325
38.90412 453.994040200095
38.92424 424.955687502889
38.94435 415.053853630811
38.96447 390.989305491546
38.98458 434.947552736943
39.00469 462.00248951447
39.02481 439.991251033002
39.04492 432.988454079799
39.06503 431.05527774066
39.08515 482.026399224811
39.10526 461.973627569059
39.12538 512.970911484212
39.14549 499.00948953361
39.1656 488
39.18572 464.025716127862
39.20583 529.071365516346
39.22594 535.997215191363
39.24606 555.923549144188
39.26617 619.851687326279
39.28628 715.956314225553
39.3064 706
39.32651 773.096462668329
39.34663 1023.28682844802
39.36674 1140.27403711831
39.38685 1335.51905074556
39.40697 1505.72466546179
39.42708 1675.91169291627
39.44719 1638.07110217071
39.46731 1469.93297094132
39.48742 1343.80089219991
39.50754 1090.59775276054
39.52765 996.922221728976
39.54776 965.099237782809
39.56788 871.145852084383
39.58799 697.083340065823
39.6081 571
39.62822 511.946283495628
39.64833 460.95421392563
39.66845 441.917419105641
39.68856 408.984766428645
39.70867 442.991265183426
39.72879 398.031710290834
39.7489 369
39.76901 416.004428765491
39.78913 377.946391912192
39.80924 390.113647429523
39.82935 428.105786366546
39.84947 350.010517535608
39.86958 412.974974654924
39.8897 372
39.90981 397.017880602246
39.92992 403.979496229718
39.95004 384.014872655966
39.97015 415.934180080417
39.99026 420.010968348409
40.01038 428.965561101833
40.03049 461.004997637617
40.05061 428.001364387649
40.07072 469.023114880158
40.09083 463.013698882305
40.11095 509.150043958353
40.13106 557.932523313178
40.15117 589.930874142764
40.17129 667.944939101615
40.1914 777
40.21152 836.105356682815
40.23163 959.075769745035
40.25174 945.034728343543
40.27186 991.049308634931
40.29197 885.146880369597
40.31208 832.058471608169
40.3322 747
40.35231 699.992359097033
40.37242 688.968057224874
40.39254 626.849958803449
40.41265 557.152584518571
40.43277 499.09289397882
40.45288 453.998742981042
40.47299 468.01793062222
40.49311 397.987616957156
40.51322 435.036657946353
40.53333 430.964689186115
40.55345 411.972055402067
40.57356 405.018366839893
40.59368 396.99672948956
40.61379 410.993025029665
40.6339 403
40.65402 362.004515732675
40.67413 403.035023957437
40.69424 399.024638825459
40.71436 427.002362954952
40.73447 396.025068156284
40.75458 407.988856505396
40.7747 398
40.79481 380.997865765719
40.81493 382.991245393431
40.83504 375.019314953404
40.85515 401.940849946226
40.87527 412.98663069283
40.89538 417.014497021472
40.91549 396.000789349634
40.93561 417.010371397218
40.95572 430.020054305926
40.97584 447.983106676984
40.99595 417.944056830843
41.01606 408.042300320438
41.03618 380.006162738664
41.05629 405.980148353645
41.0764 430
41.09652 406.977055027923
41.11663 406.035540387101
41.13675 432.007150872129
41.15686 413.028435207407
41.17697 421.963673349371
41.19709 437.005548171517
41.2172 413
41.23731 423.99939353955
41.25743 397.949946170142
41.27754 375.982946508665
41.29765 384.928643073571
41.31777 412.993009162748
41.33788 402.993282333383
41.358 414
41.37811 363.995771431385
41.39822 409.047730841087
41.41834 407.897275109604
41.43845 348.059703862827
41.45856 373.908387555331
41.47868 394.022091810055
41.49879 368.986083666333
41.51891 424.000044142787
41.53902 360.947692198536
41.55913 356.009578156146
41.57925 356.029628158971
41.59936 375.988402241832
41.61947 360.034846479899
41.63959 357.983300674137
41.6597 403
41.67982 384.975654785896
41.69993 378.007453811765
41.72004 373.943229644895
41.74016 350.943969261356
41.76027 408.968603805635
41.78038 376.036731509737
41.8005 366
41.82061 353.990288495837
41.84072 337.996511761258
41.86084 355.072960399449
41.88095 388.976266250176
41.90107 372.035948180258
41.92118 355.015080531492
41.94129 347.993687252414
41.96141 365.9986663933
41.98152 351.006946458441
42.00163 383.038657751639
42.02175 381.955805825436
42.04186 369.987674515804
42.06198 371.03966227212
42.08209 325.989341084322
42.1022 405
42.12232 395.964837131637
42.14243 372.984265361167
42.16254 378.047039851714
42.18266 410.941062275397
42.20277 428.984325033173
42.22289 441.989343615656
42.243 486
42.26311 554.007630128301
42.28323 554.101321964248
42.30334 691.248328310598
42.32345 771.787106289151
42.34357 874.875658350797
42.36368 952.876330589925
42.38379 1099.95308521327
42.40391 1147.04016508479
42.42402 1226.96401565603
42.44414 1091.79779277821
42.46425 1044.74445991734
42.48436 886.206846245645
42.50448 866.016888690939
42.52459 799.044371885134
42.5447 714
42.56482 624.896522032758
42.58493 507.821061044457
42.60505 424.959729426315
42.62516 451.966453285977
42.64527 428.063015576088
42.66539 395.00939541354
42.6855 388
42.70561 374.984079856528
42.72573 341.988515203706
42.74584 358.023899186377
42.76595 351.033014781293
42.78607 340.019258335945
42.80618 327.007071829613
42.8263 326
42.84641 326.00344655631
42.86652 338.008966431252
42.88664 336.980047965817
42.90675 327.00456235752
42.92686 332.989189372126
42.94698 335.992910322397
42.96709 333.016881486106
42.98721 307.020775021298
43.00732 376.999015782511
43.02743 300.916054749168
43.04755 313.085615263487
43.06766 325.018925137174
43.08777 311.999401322333
43.10789 323.997622953803
43.128 320
43.14812 335.010188436493
43.16823 332.990259374951
43.18834 330.001737397697
43.20846 330.011794821586
43.22857 313.041951809558
43.24868 294.986672696229
43.2688 328
43.28891 322.996621388049
43.30902 327.004833383527
43.32914 324.986726680068
43.34925 320.99046573359
43.36937 327.999472268046
43.38948 318.014112363287
43.40959 311.995828540092
43.42971 334.014229466154
43.44982 350.994194607521
43.46993 327.965112647501
43.49005 322.030957068833
43.51016 331.034467962538
43.53028 306.988240346689
43.55039 341.998569350829
43.5705 306
43.59062 314.017963496168
43.61073 328.029819973262
43.63084 350.020018033737
43.65096 343.030181301045
43.67107 319.063137855625
43.69119 276.008202127948
43.7113 304
43.73141 347.989888917186
43.75153 291.973223540048
43.77164 332.088752653976
43.79175 341.033686701145
43.81187 326.012888608519
43.83198 332.976115872935
43.85209 345.015142826831
43.87221 305.006930279928
43.89232 364.031729935284
43.91244 336.908899751797
43.93255 314.003378703533
43.95266 324.991249746384
43.97278 328.974151427318
43.99289 361.000201229453
44.013 328
44.03312 326.004457663484
44.05323 327.009426065856
44.07335 338.01565931176
44.09346 333.026783932853
44.11357 328.969346759755
44.13369 350.00889482412
44.1538 320
44.17391 371.993804534031
44.19403 301.95766603415
44.21414 343.078655496222
44.23426 337.049087894949
44.25437 330.965664659903
44.27448 349.031353520999
44.2946 295
44.31471 333.00106401493
44.33482 298.004957400541
44.35494 348.046059999771
44.37505 329.011525085764
44.39516 349.997507562896
44.41528 315.041846768736
44.43539 300.990052937606
44.45551 343.02287220941
44.47562 359.973141756366
44.49573 316.975909820312
44.51585 337.056803761703
44.53596 335.042170959754
44.55607 312.019566161924
44.57619 313.994763641179
44.5963 322
44.61642 317.997602764808
44.63653 317.995049210185
44.65664 304.953452099041
44.67676 296.932704996957
44.69687 339.014643953712
44.71698 296.994193421809
44.7371 353
44.75721 322.979874219683
44.77732 305.992790273324
44.79744 314.084667259129
44.81755 361.988223493173
44.83767 329.024984363104
44.85778 348.977052250074
44.87789 350.006214495134
44.89801 327.982056247122
44.91812 306.024679924106
44.93823 362.058303424899
44.95835 358.944386660561
44.97846 347.983298453451
44.99858 365.990146370701
45.01869 364.998490096356
45.0388 373
45.05892 366.004181274212
45.07903 371.97206297069
45.09914 343.003052324065
45.11926 364.022739884739
45.13937 325.014738964735
45.15949 348.997205468877
45.1796 335
45.19971 372.998352870326
45.21983 340.01610874812
45.23994 393.0409420564
45.26005 363.059550739563
45.28017 367.004223850393
45.30028 350.003670083043
45.32039 371.983837972528
45.34051 389.996864426535
45.36062 370.989740016514
45.38074 379.029134585567
45.40085 386.999293530098
45.42096 386.979311032222
45.44108 407.978484679943
45.46119 408.016849994552
45.4813 372
45.50142 418.039831861344
45.52153 419.966718881755
45.54165 399.987854284185
45.56176 412.958681581893
45.58187 433.96461585132
45.60199 458.988863349204
45.6221 479
45.64221 522.039605802978
45.66233 637.199876128354
45.68244 746.112649107795
45.70256 779.865193856352
45.72267 876.903520936057
45.74278 903.954227143842
45.7629 953
45.78301 878.98120364858
45.80312 867.917424135128
45.82324 709.726068622713
45.84335 658.981468117627
45.86346 648.153395371383
45.88358 564.980597605992
45.90369 643.008162377286
45.92381 504.933568680627
45.94392 452.980975846386
45.96403 426.964212343484
45.98415 403.920479603945
46.00426 375.007746804472
46.02437 388.995756968478
46.04449 366.017081214022
46.0646 356
46.08472 403.003042198599
46.10483 364.9685725943
46.12494 373.988852159503
46.14506 350.002726912258
46.16517 364.027978994551
46.18528 316.025236869183
46.2054 319
46.22551 298.0155494471
46.24563 371.068712565817
46.26574 371.006339304712
46.28585 386.03436994036
46.30597 351.011651116815
46.32608 374.988240092635
46.34619 351.019582323425
46.36631 320.99187957295
46.38642 329.038526164716
46.40653 365.994753873516
46.42665 331.960374858087
46.44676 338.032860765427
46.46688 308.986907327996
46.48699 352.995682465194
46.5071 322
46.52722 357.038206633682
46.54733 355.935763709757
46.56744 318.033154492902
46.58756 364.993679933585
46.60767 337.954808712722
46.62779 406.000911173945
46.6479 334
46.66801 363.006036664885
46.68813 336.992845947927
46.70824 361.002632670704
46.72835 327.075123210991
46.74847 321.996064254602
46.76858 334.956662512058
46.78869 383.995521746157
46.80881 348.981382887928
46.82892 341.011751910868
46.84904 357.028302805017
46.86915 352.918287886713
46.88926 322.969684754436
46.90938 372.968086211618
46.92949 361.014638801689
46.9496 347
46.96972 348.962834488598
46.98983 306.027809990934
47.00995 358.982919763053
47.03006 297.036018399368
47.05017 342.952957674597
47.07029 336.993899906719
47.0904 362
47.11051 304.993058515117
47.13063 339.015637764923
47.15074 306.955542020909
47.17086 316.974467759202
47.19097 325.958192580571
47.21108 363.984096798116
47.2312 339
47.25131 313.021036200784
47.27142 384.018650862746
47.29154 342.945150118977
47.31165 353.003407291731
47.33176 324.047189546973
47.35188 327.979044387046
47.37199 338.009257533497
47.39211 306.995265229538
47.41222 327.023668009455
47.43233 337.006440832261
47.45245 336.972390002237
47.47256 338.9088170681
47.49267 394.001928905352
47.51279 332.030398772777
47.5329 319
47.55302 348.025901606001
47.57313 353.970172261955
47.59324 328.993631271682
47.61336 350.953036702714
47.63347 356.01543818733
47.65358 345.997148392147
47.6737 358
47.69381 355.002453708524
47.71393 358.967831982482
47.73404 319.952410251447
47.75415 332.902875947204
47.77427 374.951349184002
47.79438 382.02219222716
47.81449 345.016532382737
47.83461 333.004090461395
47.85472 356.033209800536
47.87483 379.998878028538
47.89495 358.946382453698
47.91506 355.970121223916
47.93518 366.017325622831
47.95529 337.999619457459
47.9754 363
47.99552 334.969315086386
48.01563 331.033185445458
48.03574 353.997978573448
48.05586 333.023961817718
48.07597 345.962264399764
48.09609 354.013003846885
48.1162 321
48.13631 355.005793701872
48.15643 330.968600810616
48.17654 331.001345151691
48.19665 324.999059604675
48.21677 331.003285545433
48.23688 330.973671590668
48.257 377
48.27711 369.976966721605
48.29722 324.995024301839
48.31734 345.988928026022
48.33745 320.02971325142
48.35756 365.964974274748
48.37768 333.043335049492
48.39779 318.992211754902
48.4179 344
48.43802 337.986021581034
48.45813 336.027470420842
48.47825 349.941361451254
48.49836 306.027714278406
48.51847 339.926054032298
48.53859 363.006609594048
48.5587 325
48.57881 308.006701780675
48.59893 333.017043292608
48.61904 323.977458154935
48.63916 329.950745708609
48.65927 363.951899742608
48.67938 375.018492603055
48.6995 338
48.71961 334.019161843448
48.73972 387.02855576923
48.75984 365.88541317189
48.77995 324.960551497958
48.80006 363.028889120838
48.82018 304.020039179329
48.84029 338.988616396924
48.86041 318.986898763288
48.88052 326.043374993285
48.90063 372.016464847898
48.92075 340.892875245103
48.94086 316.012853765504
48.96097 326.959346146935
48.98109 350.998806248212
49.0012 335
49.02132 339.012673118861
49.04143 341.974313477817
49.06154 327.039912893589
49.08166 369.958934270936
49.10177 357.019332946654
49.12188 359.998876794286
49.142 353
49.16211 356.000508538307
49.18223 367.061941040179
49.20234 408.984229048886
49.22245 357.098062028005
49.24257 353.998679932493
49.26268 348.988215345896
49.28279 376.98973054397
49.30291 381.000804924583
49.32302 378.978996409158
49.34313 363.043001172414
49.36325 405.967715689314
49.38336 346.055172909315
49.40348 371.977924377299
49.42359 368.996029770723
49.4437 398
49.46382 398.986615378258
49.48393 389.004410649564
49.50404 405.039298622041
49.52416 413.0198995716
49.54427 394.019163133121
49.56439 392.000854473994
49.5845 385
49.60461 382.000464160861
49.62473 385.005337352289
49.64484 392.029419544909
49.66495 409.969913696157
49.68507 420.964733463618
49.70518 445.001669886452
49.7253 420
49.74541 419.001353230582
49.76552 423.017783875023
49.78564 452.049452228155
49.80575 458.976525605025
49.82586 451.974497534773
49.84598 479.978943318542
49.86609 499.976840236076
49.8862 565
49.90632 599.059970815028
49.92643 691.133688191991
49.94655 789.376956987887
49.96666 973.699178236594
49.98677 1106.70837683621
50.00689 1382.8539048576
50.027 1642
50.04711 1881.12977894224
50.06723 2153.38015533257
50.08734 2348.24059693517
50.10746 2384.09156943391
50.12757 2256.31819234089
50.14768 1977.31992581521
50.1678 1662
50.18791 1458.94905626106
50.20802 1413.9485160449
50.22814 1347.95290991548
50.24825 1338.20111840775
50.26837 1154.34899460156
50.28848 924.224359618699
50.30859 710.097654334255
50.32871 555.953536608738
50.34882 505.958177698427
50.36893 464.982885850207
50.38905 473.980300627106
50.40916 435.092519642817
50.42927 410.992196771494
50.44939 423.005294604983
50.4695 387
50.48962 378.014057647116
50.50973 402.034571451793
50.52984 418.026219349022
50.54996 416.067165968257
50.57007 378.992723878218
50.59018 424.959325338644
50.6103 418
50.63041 362.989283574798
50.65053 374.008281696165
50.67064 367.02232575398
50.69075 385.043328081926
50.71087 349.98878554909
50.73098 390.994977444023
50.75109 362.994275553106
50.77121 411.004354515681
50.79132 361.950502780177
50.81143 353.024489065325
50.83155 370.020359187184
50.85166 373.972789357178
50.87178 389.005979470455
50.89189 371.997779624409
50.912 385
50.93212 333.977332840235
50.95223 361.064678547817
50.97234 371.926960492936
50.99246 320.038059521099
51.01257 340.969147458058
51.03269 337.006209189804
51.0528 341
51.07291 364.98967666462
51.09303 315.96814989158
51.11314 341.068675255517
51.13325 346.066282437745
51.15337 314.013380954605
51.17348 341.949974753801
51.1936 371
51.21371 314.976974398653
51.23382 310.023375889381
51.25394 327.98269588739
51.27405 309.971986416708
51.29416 347.953041160172
51.31428 341.012332817502
51.33439 335.006456091937
51.3545 314
51.37462 317.025595148876
51.39473 353.046054944792
51.41485 354.912038057993
51.43496 303.077576097687
51.45507 291.995786309522
51.47519 297.993730211767
51.4953 311
51.51541 309.002691808007
51.53553 322.011378110404
51.55564 313.958162330953
51.57576 295.008674792193
51.59587 312.946833296098
51.61598 350.970388107282
51.6361 358
51.65621 327.989898896535
51.67632 319.986920830441
51.69644 304.001749484338
51.71655 325.931809686957
51.73667 340.99956455427
51.75678 329.019353271587
51.77689 313.003215604272
51.79701 312.998641342047
51.81712 316.026264937201
51.83723 340.971902432485
51.85735 303.024170193076
51.87746 349.986205314267
51.89757 307.038263817142
51.91769 324.989869715265
51.9378 327
51.95792 338.002061576593
51.97803 334.012716970542
51.99814 342.957983915474
52.01826 302.039235587806
52.03837 306.015880324031
52.05848 288.97673468607
52.0786 335
52.09871 296.992633824851
52.11883 328.051486951075
52.13894 336.993304037077
52.15905 333.014986803322
52.17917 327.003684664306
52.19928 327.002116558071
52.21939 317.009453446327
52.23951 303.003073279584
52.25962 323.012277223636
52.27974 315.9669060484
52.29985 311.045369165554
52.31996 335.992885888488
52.34008 315.020598300146
52.36019 318.985961915487
52.3803 342
52.40042 308.98684708425
52.42053 329.037793644405
52.44064 336.991729569278
52.46076 327.029048888705
52.48087 315.004974238159
52.50099 329.981674538533
52.5211 362
52.54121 335.996761207721
52.56133 356.016677164368
52.58144 332.905580188014
52.60155 302.950885537206
52.62167 343.997566454382
52.64178 313.993011834128
52.6619 357
52.68201 317.984517575084
52.70212 312.983632825877
52.72224 292.037651524943
52.74235 338.954022406972
52.76246 319.024022434748
52.78258 338.970554226344
52.80269 346.012605411527
52.8228 303
52.84292 303.040795091082
52.86303 347.006286246002
52.88315 319.982297753803
52.90326 345.957850847704
52.92337 336.044291349223
52.94349 307.009629068642
52.9636 311
52.98371 345.002508673256
53.00383 324.984640658335
53.02394 342.054412459634
53.04406 349.053813940703
53.06417 306.040630734381
53.08428 323.939599301709
53.1044 374
53.12451 320.988849111579
53.14462 350.029479019184
53.16474 354.005582563262
53.18485 365.982485762889
53.20497 354.046235482727
53.22508 327.99703654063
53.24519 359.981646005519
53.26531 383.007183792435
53.28542 386.986397185632
53.30553 365.983857705148
53.32565 369.007557983619
53.34576 366.996735211202
53.36587 385.938331878993
53.38599 427.992075987638
53.4061 416
53.42622 400.96308949573
53.44633 368.028831342538
53.46644 423.052132065397
53.48656 402.043796060233
53.50667 402.997225932641
53.52678 396.003388628144
53.5469 392
53.56701 371.006715253549
53.58713 415.054248127034
53.60724 420.981848944022
53.62735 409.044105352364
53.64747 395.992213474327
53.66758 410.997284777345
53.68769 396.007985428763
53.70781 393.003721936255
53.72792 406.016054783943
53.74804 413.981958353895
53.76815 393.960125380917
53.78826 406.896644060188
53.80838 459.99394375456
53.82849 428.006487444479
53.8486 440
53.86872 396.976124581929
53.88883 413.043595808208
53.90894 430.012188058542
53.92906 428.017344271211
53.94917 420.997402044931
53.96929 427.99916558191
53.9894 417
54.00951 414.018969207672
54.02963 458.990888740063
54.04974 416.989832641179
54.06985 457.942047753826
54.08997 438.037487508118
54.11008 429.009758904669
54.1302 422
54.15031 448.00065717472
54.17042 427.996302314605
54.19054 454.063068819459
54.21065 463.045047406723
54.23076 438.014635046482
54.25088 453.97981889961
54.27099 457.008352367195
54.29111 434.994997294167
54.31122 435.99408374899
54.33133 424.001195899167
54.35145 440.036967920983
54.37156 436.048125688239
54.39167 427.931619461724
54.41179 482.01069736696
54.4319 404
54.45201 447.021421079585
54.47213 453.009418778038
54.49224 459.941778001907
54.51236 412.023705119739
54.53247 448.933948836378
54.55258 465.006034090332
54.5727 448
54.59281 446.020220092548
54.61292 509.043164014523
54.63304 515.991348774055
54.65315 511.049414550555
54.67327 510.897200239627
54.69338 606.968275249437
54.71349 582.990068957667
54.73361 676.047316143519
54.75372 740.070101843765
54.77383 828.118169308626
54.79395 899.223385964094
54.81406 978.972441555289
54.83417 941.029907911971
54.85429 958.996988295445
54.8744 906
54.89452 777.88832012448
54.91463 723.01409426097
54.93474 759.03545589053
54.95486 736.082499035437
54.97497 701.0385153837
54.99508 684.01134739218
55.0152 666
55.03531 612.96657704514
55.05543 539.887028482432
55.07554 483.966284224954
55.09565 490.015764507532
55.11577 472.98588163773
55.13588 506.980803588556
55.15599 503.996780922458
55.17611 533.01631366539
55.19622 560.030179069645
55.21634 580.97975477568
55.23645 577.152396291961
55.25656 676.895706356273
55.27668 651.049459917245
55.29679 628.998730412147
55.3169 633
55.33702 585.927076238316
55.35713 506.895047019498
55.37724 486.109219402665
55.39736 560.975525504065
55.41747 503.080112415286
55.43759 503.984469294182
55.4577 520
55.47781 479.989100299627
55.49793 478.97760099596
55.51804 424.834100231271
55.53815 359.02714660242
55.55827 395.939459373723
55.57838 400.028152990475
55.5985 373
55.61861 399.005051338382
55.63872 386.997547847791
55.65884 396.987566846485
55.67895 376.013529426946
55.69906 389.985939069732
55.71918 375.025545061045
55.73929 362.992701775255
55.75941 394.011890671666
55.77952 386.961808523908
55.79963 352.005369725439
55.81975 375.978075300062
55.83986 351.937415706383
55.85997 414.999964632744
55.88009 350.0183646329
55.9002 370
55.92031 353.999200046171
55.94043 385.058057233847
55.96054 386.890127910787
55.98066 320.024980862159
56.00077 360.95816997799
56.02088 341.036149956458
56.041 322
56.06111 338.012885289074
56.08122 350.983093795294
56.10134 334.059831108274
56.12145 384.011098266696
56.14157 336.009444894355
56.16168 374.997558992739
56.18179 328.013555762471
56.20191 357.026105175002
56.22202 378.970374439615
56.24213 333.996235466604
56.26225 367.010337256436
56.28236 336.016142490446
56.30248 358.995672896411
56.32259 339.000101177021
56.3427 361
56.36282 341.99960957665
56.38293 360.998968981251
56.40304 344.0179089309
56.42316 371.010802087503
56.44327 333.030460042594
56.46338 344.991184966811
56.4835 344
56.50361 370.998530947931
56.52373 349.013089059456
56.54384 387.03218861166
56.56395 369.033346668688
56.58407 364.047093861594
56.60418 317.016119125293
56.62429 348.974556324114
56.64441 375.994303105085
56.66452 341.973730123091
56.68464 347.060133357548
56.70475 369.974063173954
56.72486 337.036576394443
56.74498 345.987904732632
56.76509 341.009083248813
56.7852 340
56.80532 401.026391061021
56.82543 369.9114187173
56.84554 321.947976285044
56.86566 328.918722312701
56.88577 359.039130259204
56.90589 307.000744884681
56.926 360
56.94611 343.986081747984
56.96623 341.029674280936
56.98634 365.022941318722
57.00645 363.000156117417
57.02657 367.007995840185
57.04668 353.008393339524
57.0668 355
57.08691 352.998110072129
57.10702 358.021062175767
57.12714 374.970357904004
57.14725 342.023411273329
57.16736 366.942996321754
57.18748 378.994145889208
57.20759 378.009515841131
57.22771 351.994874200315
57.24782 364.018327869221
57.26793 372.999391372527
57.28805 374.032843893935
57.30816 388.01478067951
57.32827 361.033668980497
57.34839 348.011148759315
57.3685 322
57.38861 347.019198414941
57.40873 365.973658876427
57.42884 333.985694684219
57.44896 353.979487854461
57.46907 339.02850571137
57.48918 338.979049370845
57.5093 356
57.52941 324.996972500029
57.54952 349.017583069405
57.56964 342.978692353241
57.58975 341.989625071596
57.60987 347.986480724341
57.62998 355.998425685416
57.65009 348.00763363383
57.67021 344.011858795145
57.69032 379.012969972347
57.71043 361.966950974353
57.73055 341.911735705483
57.75066 305.013204371802
57.77078 334.958884796602
57.79089 362.992392720744
57.811 369
57.83112 357.971614509126
57.85123 325.978380758331
57.87134 335.035143323265
57.89146 342.016277626216
57.91157 332.9866482585
57.93168 356.982841066842
57.9518 345
57.97191 302.99416772365
57.99203 325.043056883349
58.01214 336.996457844802
58.03225 328.031481921526
58.05237 327.962001168804
58.07248 364.978475164813
58.09259 352.019835076916
58.11271 315.995495833271
58.13282 330.010109865876
58.15294 318.954845997707
58.17305 299.976591253462
58.19316 305.957643403329
58.21328 328.988853100313
58.23339 326.002999124117
58.2535 328
58.27362 333.990367731016
58.29373 314.984676601509
58.31385 323.044485048615
58.33396 333.014555367799
58.35407 310.04134594619
58.37419 297.993472812293
58.3943 325
58.41441 331.002631409668
58.43453 340.005525962831
58.45464 341.019627805745
58.47475 351.025281908361
58.49487 320.047977641281
58.51498 306.993320260494
58.5351 332
58.55521 358.992286467096
58.57532 318.981850428611
58.59544 332.015158542622
58.61555 325.978366052668
58.63566 352.959302603501
58.65578 344.036149749141
58.67589 311.999003439743
58.69601 338.005069138231
58.71612 321.987195142787
58.73623 338.06182165101
58.75635 365.948111997703
58.77646 322.011762925472
58.79657 355.977954388177
58.81669 325.021845766364
58.8368 308
58.85691 334.001535113466
58.87703 323.023436067467
58.89714 358.012593071318
58.91726 333.021667315632
58.93737 346.993533789512
58.95748 340.982440752808
58.9776 377
58.99771 352.979419751906
59.01782 325.997604058535
59.03794 337.006129946133
59.05805 327.017076671293
59.07817 331.986001989354
59.09828 341.985758581481
59.11839 355.997337333853
59.13851 346.989701929864
59.15862 338.023371013406
59.17873 376.020688360097
59.19885 360.974731327044
59.21896 375.946967253624
59.23908 388.015442598217
59.25919 361.004690780056
59.2793 369
59.29942 351.997734205045
59.31953 370.023971007328
59.33964 376.01983861599
59.35976 388.004054752727
59.37987 378.989448770937
59.39998 396.002353653447
59.4201 383
59.44021 409.993162403102
59.46033 365.984185445795
59.48044 397.034868457473
59.50055 377.065456537633
59.52067 382.931789785164
59.54078 434.982843750387
59.56089 407.021117274735
59.58101 386.002785934148
59.60112 408.022972850867
59.62124 430.067778230045
59.64135 462.006775483941
59.66146 451.958570423932
59.68158 514.92754935267
59.70169 562.989608812166
59.7218 580
59.74192 635.039991297616
59.76203 669.100654763721
59.78215 786.35684414892
59.80226 917.793025861753
59.82237 1020.78569833187
59.84249 1223.88096821116
59.8626 1425
59.88271 1502.07453542856
59.90283 1695.14850297076
59.92294 1651.8029375807
59.94305 1542.39997536794
59.96317 1346.25937579213
59.98328 1200.1694055564
60.0034 1027
60.02351 1006.99970116623
60.04362 988.990421608293
60.06374 996.012305904094
60.08385 986.059579770479
60.10396 937.17334535263
60.12408 830.094755801499
60.14419 728.079100862766
60.16431 539.931061842518
60.18442 478.966707035282
60.20453 433.93192957466
60.22465 400.955149856723
60.24476 394.998183075744
60.26487 389.032029028686
60.28499 363.005448811947
60.3051 364
60.32522 345.999042052175
60.34533 366.029480634683
60.36544 362.945906524377
60.38556 334.013516799269
60.40567 360.927492137473
60.42578 388.02546605572
60.4459 329
60.46601 326.003591141058
60.48612 327.006961493256
60.50624 338.001614860306
60.52635 333.973437234401
60.54647 354.988995011902
60.56658 344.010002289454
60.58669 339.007550230535
60.60681 332.017325404475
60.62692 386.016865367815
60.64703 357.962866319246
60.66715 357.996798195129
60.68726 336.07102738664
60.70738 312.990766276719
60.72749 334.003774602709
60.7476 314
60.76772 369.015820572714
60.78783 335.967045356696
60.80794 345.001267698565
60.82806 318.06792073225
60.84817 304.975976721851
60.86828 331.988515933561
60.8884 328
60.90851 354.013479620699
60.92863 358.966705047949
60.94874 329.980146039071
60.96885 340.97959962037
60.98897 337.998208706349
61.00908 340.015936332045
61.02919 312.007481333999
61.04931 321.009515084395
61.06942 326.983560376493
61.08954 303.991883112408
61.10965 328.089917577653
61.12976 352.987581839817
61.14988 346.007386253522
61.16999 346.997286149783
61.1901 342
61.21022 325.034104651568
61.23033 376.991762545091
61.25045 314.893878886363
61.27056 332.912070663808
61.29067 352.034323386929
61.31079 321.992476520845
61.3309 371
61.35101 342.98519479215
61.37113 336.996558654422
61.39124 326.981939459163
61.41135 333.926776616319
61.43147 360.014618554703
61.45158 332.993042068182
61.4717 377
61.49181 374.994321044535
61.51192 366.983166936568
61.53204 350.008140864154
61.55215 365.013523047358
61.57226 344.994722104873
61.59238 380.957712178044
61.61249 391.017243543649
61.63261 346.997171586519
61.65272 372.000517406444
61.67283 346.000671205244
61.69295 378.039594508622
61.71306 350.103265455641
61.73317 324.951067959331
61.75329 385.985931750999
61.7734 367
61.79352 379.02998227613
61.81363 393.9705186698
61.83374 351.935604380342
61.85386 350.959754508883
61.87397 381.938038303878
61.89408 418.982418013958
61.9142 414
61.93431 410.009788372147
61.95442 436.003376775463
61.97454 407.921553598404
61.99465 395.914738514213
62.01477 450.953293638487
62.03488 448.003220412075
62.05499 459.995705948659
62.07511 447.984434591499
62.09522 423.005516900875
62.11533 441.986887320606
62.13545 424.080880405995
62.15556 496.913862120832
62.17568 471.064834662305
62.19579 437.979837046163
62.2159 507
62.23602 456.973338587762
62.25613 469.978559411227
62.27624 423.970119086643
62.29636 457.924102680834
62.31647 477.963847097636
62.33659 500.004515763311
62.3567 470
62.37681 468.981796009976
62.39693 411.976397055978
62.41704 442.038374541736
62.43715 421.084797368359
62.45727 402.999775492537
62.47738 419.969829486096
62.49749 434.014164785237
62.51761 397.00733631845
62.53772 449.014559926636
62.55784 399.871439582208
62.57795 374.047382338088
62.59806 411.951729128077
62.61818 410.00834434412
62.63829 401.011770929117
62.6584 371
62.67852 376.004359458439
62.69863 368.985575824767
62.71875 372.055611999233
62.73886 395.997781865001
62.75897 368.058174635295
62.77909 353.985664360989
62.7992 398
62.81931 368.981004368702
62.83943 353.00628813731
62.85954 371.054645959707
62.87965 387.03018957201
62.89977 352.053659830127
62.91988 348.95833426327
62.94 388
62.96011 312.972797315649
62.98022 319.035515154855
63.00034 351.051602068828
63.02045 365.996572568218
63.04056 358.021112768751
63.06068 349.00988115232
63.08079 344.994365828201
63.10091 365.006255898384
63.12102 358.980408090473
63.14113 352.040629047853
63.16125 386.987336308942
63.18136 347.043297222881
63.20147 351.023312371749
63.22159 315.005747992879
63.2417 341
63.26182 354.001338329478
63.28193 351.993743378049
63.30204 350.006824433609
63.32216 357.983308424279
63.34227 359.014997042946
63.36238 350.989189615467
63.3825 369
63.40261 339.985189708111
63.42272 335.020575658834
63.44284 351.966258061509
63.46295 313.046261252239
63.48307 331.952978244548
63.50318 356.975629317615
63.52329 371.006197432202
63.54341 352.005197187518
63.56352 373.979828033042
63.58363 329.002195470102
63.60375 373.029176139145
63.62386 340.030663867021
63.64398 368.962268432813
63.66409 378.011098759456
63.6842 346
63.70432 364.050473459356
63.72443 406.996544168102
63.74454 380.012443850759
63.76466 416.985910158028
63.78477 379.05633158456
63.80489 380.982197920929
63.825 424
63.84511 446.020530754591
63.86523 487.996120089154
63.88534 453.985647500736
63.90545 503.803926128481
63.92557 558.990365230938
63.94568 531.023135058866
63.96579 548.971908071441
63.98591 613.021518624662
64.00602 624.998422214071
64.02614 607.89646561826
64.04625 537.87163412376
64.06636 525.974605870814
64.08648 525.037904311448
64.10659 471.012537373126
64.1267 487
64.14682 492.991961457014
64.16693 490.02465684048
64.18705 505.952784122965
64.20716 449.125558373215
64.22727 420.974818749563
64.24739 442.012796754876
64.2675 377
64.28761 382.014558111567
64.30773 393.969777789502
64.32784 358.965274749532
64.34796 373.940484125748
64.36807 393.995906432347
64.38818 379.02559354605
64.4083 354
64.42841 349.00744140268
64.44852 368.001978209132
64.46864 350.966147914002
64.48875 348.977399812063
64.50886 357.002514773364
64.52898 350.000922294138
64.54909 348.010967977771
64.56921 326.008561325711
64.58932 369.016227945573
64.60943 342.952725371889
64.62955 337.036146612542
64.64966 359.951559217211
64.66977 369.024077686621
64.68989 347.997821390705
64.71 360
64.73012 320.02537739325
64.75023 386.007087441341
64.77034 320.916222660238
64.79046 332.990641129425
64.81057 306.032121930028
64.83068 315.969893505282
64.8508 335
64.87091 307.998103845456
64.89102 336.030792293364
64.91114 342.969976985094
64.93125 331.956846982843
64.95137 356.022855558239
64.97148 314.009757395927
64.99159 348.98341951344
65.01171 345.986317333137
65.03182 317.98378535544
65.05193 312.990676325848
65.07205 309.03559651861
65.09216 332.98233012178
65.11228 322.010944825237
65.13239 322.997452336114
65.1525 324
65.17262 321.002861730616
65.19273 334.032907951094
65.21284 354.015811769217
65.23296 349.017551913426
65.25307 343.008429803205
65.27319 333.00824963608
65.2933 309
65.31341 297.014246074392
65.33353 344.030575121148
65.35364 325.952405243187
65.37375 318.999344391016
65.39387 324.970151879912
65.41398 343.008291508662
65.43409 313.011202014002
65.45421 322.017604644825
65.47432 355.006914819774
65.49444 326.90371911094
65.51455 295.016495003358
65.53466 327.950764577977
65.55478 327.009766588156
65.57489 322.001704366563
65.595 328
65.61512 358.005292315201
65.63523 347.013560197443
65.65535 379.053519829004
65.67546 372.040156658522
65.69557 361.987836067777
65.71569 390.977903588044
65.7358 424
65.75591 390.977632813229
65.77603 365.004137189014
65.79614 382.014003287713
65.81626 372.019598702096
65.83637 367.018781800814
65.85648 342.029586102304
65.8766 327
65.89671 344.996293417807
65.91682 318.994236075393
65.93694 341.037331178519
65.95705 340.015657287588
65.97716 338.99935413434
65.99728 342.986091682361
66.01739 356.00262583853
66.03751 342.002094977043
66.05762 349.970610367369
66.07773 298.977288311533
66.09785 330.076526402603
66.11796 330.029716536577
66.13807 322.98833497573
66.15819 333.003703034901
66.1783 308
66.19842 313.039313166173
66.21853 355.008977532057
66.23864 325.95047550862
66.25876 329.963208774903
66.27887 338.019389737247
66.29898 319.996400802378
66.3191 337
66.33921 307.989475228694
66.35933 322.066208039924
66.37944 361.005484369063
66.39955 322.136786517715
66.41967 292.979837574144
66.43978 333.963569753545
66.45989 346.000448763007
66.48001 341.995537688329
66.50012 331.994802513685
66.52023 330.995356997548
66.54035 318.94677244341
66.56046 306.966720970839
66.58058 334.997433078927
66.60069 310.008910661486
66.6208 320
66.64092 341.014644044694
66.66103 339.965687116509
66.68114 318.016281613146
66.70126 347.972023687869
66.72137 334.024801783191
66.74149 330.999311823559
66.7616 335
66.78171 343.990723704208
66.80183 317.00975205704
66.82194 353.039424594655
66.84205 335.078625616381
66.86217 320.984082340016
66.88228 346.975373140664
66.90239 350.011257086932
66.92251 312.982010687471
66.94262 302.023234446499
66.96274 336.023538004657
66.98285 323.987660053337
67.00296 345.9248607987
67.02308 368.014188781299
67.04319 329.015682384239
67.0633 333
67.08342 368.007116418532
67.10353 342.949058479966
67.12365 329.031045827214
67.14376 348.001590690807
67.16387 328.018506044158
67.18399 343.980958499325
67.2041 368
67.22421 321.989486838344
67.24433 345.054369022442
67.26444 365.00861134131
67.28456 366.975881635206
67.30467 386.980446577131
67.32478 380.025294969306
67.3449 356
67.36501 374.012286952404
67.38512 386.998501236291
67.40524 379.998588999414
67.42535 398.900396580987
67.44546 436.977531595708
67.46558 425.006847604334
67.48569 444.980000245895
67.50581 475.999500646573
67.52592 474.050552716713
67.54603 567.106044340281
67.56615 601.113778050469
67.58626 672.874263788009
67.60637 731.860253811778
67.62649 885.900036107673
67.6466 1043
67.66672 1006.01721472378
67.68683 1111.14908365416
67.70694 1106.77217773928
67.72706 969.132800273487
67.74717 960.086609657195
67.76728 837.096186195943
67.7874 791
67.80751 717.994911084667
67.82763 776.087498350748
67.84774 807.084581901544
67.86785 870.861791449797
67.88797 888.033351667611
67.90808 856.01084075449
67.92819 851.022476564236
67.94831 781.984963652374
67.96842 834.114784649437
67.98853 947.095332560907
68.00865 961.024194568455
68.02876 1009.82987283434
68.04888 1124.86112335122
68.06899 1262.94273525265
68.0891 1350
68.10922 1398.99251581453
68.12933 1345.91448857511
68.14944 1288.81429102678
68.16956 1174.16726067851
68.18967 1144.00621544955
68.20979 1159.9708837114
68.2299 1249
68.25001 1288.99434903429
68.27013 1254.96783019793
68.29024 1251.97363188566
68.31035 1177.39332357411
68.33047 990.207330932041
68.35058 914.075283074108
68.3707 788
68.39081 658.984258500961
68.41092 698.021057213574
68.43104 661.911896183859
68.45115 647.007861865029
68.47126 649.014427910477
68.49138 627.033942137801
68.51149 574.040403751898
68.5316 489
68.55172 457.953239413715
68.57183 392.932535739572
68.59195 379.985176918536
68.61206 373.97601979204
68.63217 391.013759415259
68.65229 364.00245490744
68.6724 394
68.69251 400.982189511078
68.71263 354.982516315387
68.73274 365.956060923441
68.75286 321.997380835647
68.77297 367.965531307329
68.79308 344.027278395087
68.8132 342
68.83331 345.999607624448
68.85342 342.997619733988
68.87354 330.930940500143
68.89365 298.976674934358
68.91376 345.915824430565
68.93388 356.007354515326
68.95399 346.006282595458
68.97411 337.000457350055
68.99422 348.014907802053
69.01433 349.967312218741
69.03445 320.9789328183
69.05456 337.960696350009
69.07467 341.015806163115
69.09479 325.008104427228
69.1149 321
69.13502 341.001216657425
69.15513 321.973464262428
69.17524 325.043822393315
69.19536 342.020643867224
69.21547 317.006985392067
69.23558 336.986169794432
69.2557 330
69.27581 326.000273768521
69.29593 327.000974291066
69.31604 331.023595882479
69.33615 341.015221339105
69.35627 325.008061577461
69.37638 326.017257107789
69.39649 291.013490845854
69.41661 298.020797936363
69.43672 341.009838996813
69.45683 311.940925004692
69.47695 297.041211516491
69.49706 323.981654925137
69.51718 308.020523803377
69.53729 307.987413008558
69.5574 337
69.57752 317.979404115254
69.59763 319.033676109132
69.61774 339.993038702227
69.63786 321.999033078633
69.65797 339.997536731806
69.67809 319.007913352713
69.6982 315
69.71831 305.012931900516
69.73843 346.00305031029
69.75854 308.955121035549
69.77865 324.937712383375
69.79877 333.008348827123
69.81888 329.98764309423
69.839 341
69.85911 305.998161612812
69.87922 334.013983720055
69.89934 314.948898494199
69.91945 309.034345781442
69.93956 328.975456655836
69.95968 328.006294898405
69.97979 330.990550777062
69.9999 341
70.02002 290.983935030901
70.04013 323.062054538948
70.06025 337.976860981852
70.08036 322.014587985537
70.10047 328.982472683162
70.12059 331.006294392877
70.1407 314
70.16081 324.007970378864
70.18093 329.9850262494
70.20104 316.000078907954
70.22116 330.974623514638
70.24127 333.995764767482
70.26138 339.997124982757
70.2815 333
70.30161 312.99284293455
70.32172 311.008907113903
70.34184 313.96328477642
70.36195 295.950678981925
70.38207 335.992391863382
70.40218 294.045676644987
70.42229 286.984337307957
70.44241 329.012358123066
70.46252 329.99807808558
70.48263 324.956519728962
70.50275 291.003469762231
70.52286 314.018531158804
70.54297 277.009222681678
70.56309 317.977271147425
70.5832 331
70.60332 306.979927465348
70.62343 294.981140709738
70.64354 284.003430187739
70.66366 298.964993837816
70.68377 313.9735078622
70.70388 322.019479488711
70.724 284
70.74411 289.018771569882
70.76423 328.015409942025
70.78434 303.931670555268
70.80445 290.960016441691
70.82457 312.008704525985
70.84468 291.98961284786
70.86479 335.982144692486
70.88491 333.986080360937
70.90502 298.965202497199
70.92513 280.008859758074
70.94525 314.140491537536
70.96536 359.984610024572
70.98548 330.039677841478
71.00559 309.999095284997
71.0257 311
71.04582 276.997106586892
71.06593 306.031803958691
71.08604 308.020964962378
71.10616 319.048622319574
71.12627 280.990799419792
71.14639 318.001809158051
71.1665 272
71.18661 309.025308631042
71.20673 322.952133163663
71.22684 293.058311163193
71.24695 353.981181137236
71.26707 297.071159942017
71.28718 298.98208174324
71.3073 299
71.32741 285.006800081817
71.34752 326.044594310069
71.36764 336.926141593671
71.38775 289.017617346865
71.40786 320.964757473457
71.42798 303.021367750946
71.44809 298.998899513738
71.4682 300
71.48832 314.0282348973
71.50843 338.999836900789
71.52855 320.982335456783
71.54866 332.979092601146
71.56877 327.025267547809
71.58889 309.007321741886
71.609 307
71.62911 319.992303563836
71.64923 292.001623785504
71.66934 321.028653804345
71.68946 308.021128719521
71.70957 313.989438404521
71.72968 317.987746350783
71.7498 336
71.76991 326.988174890035
71.79002 300.980557302983
71.81014 298.029893513212
71.83025 323.929959365218
71.85037 335.02523177253
71.87048 306.014257999107
71.89059 315.991482389862
71.91071 329.007378276025
71.93082 338.992585932429
71.95093 319.981934951048
71.97105 323.019835141514
71.99116 330.973966933572
72.01127 343.996166137497
72.03139 336.004108222913
72.0515 328
72.07162 310.000397447581
72.09173 330.03291735338
72.11184 345.03252928212
72.13196 346.078244892737
72.15207 297.004517631447
72.17218 339.967150905754
72.1923 330
72.21241 310.999865360237
72.23253 330.046355806953
72.25264 343.950165220218
72.27275 302.036361301625
72.29287 319.982495643273
72.31298 314.993275952174
72.33309 331.002898076076
72.35321 302.9903620262
72.37332 319.047210314019
72.39344 360.001130673571
72.41355 329.957358576535
72.43366 331.037352817301
72.45378 286.039322921357
72.47389 286.977715664219
72.494 329
72.51412 283.989449145823
72.53423 318.030588140621
72.55434 310.012769743127
72.57446 330.020394186889
72.59457 295.01566902062
72.61469 316.993545984118
72.6348 302
72.65491 302.011777441217
72.67503 321.978608933165
72.69514 300.054713745141
72.71525 356.977511493977
72.73537 312.041497358563
72.75548 326.988055812997
72.7756 316
72.79571 323.004298388167
72.81582 318.982640296052
72.83594 300.990322377967
72.85605 317.916212682278
72.87616 339.03184530385
72.89628 298.029115707935
72.91639 299.992050394401
72.9365 308
72.95662 303.011778714747
72.97673 318.985667629155
72.99685 291.98363582338
73.01696 312.964424253329
73.03707 321.962772440464
73.05719 340.018294669908
73.0773 276
73.09741 320.019716015733
73.11753 328.019581249298
73.13764 353.013956885821
73.15776 341.004280530705
73.17787 360.961827669505
73.19798 372.007105119603
73.2181 361
73.23821 381.010843524018
73.25832 394.008658454931
73.27844 403.018691900455
73.29855 409.99590648877
73.31867 409.992618638867
73.33878 436.940814838938
73.35889 510.970167684393
73.37901 544.010801597042
73.39912 563.009159509871
73.41923 568.020050855509
73.43935 586.015165994545
73.45946 563.104534505609
73.47957 506.053270597619
73.49969 479.028305188837
73.5198 405
73.53992 413.017488125738
73.56003 426.048235686338
73.58014 466.024390712618
73.60026 443.060031881342
73.62037 441.945531118104
73.64048 479.007996023529
73.6606 440
73.68071 449.980746192285
73.70083 377.968396861839
73.72094 403.971917251713
73.74105 333.141076704176
73.76117 329.971106923557
73.78128 332.023725580511
73.80139 304.999433378305
73.82151 334.012530789375
73.84162 332.9820952872
73.86174 313.973664511536
73.88185 314.034967738036
73.90196 330.984293146838
73.92208 333.985879061054
73.94219 347.008306897584
73.9623 308
73.98242 315.021875575455
74.00253 325.987050784024
74.02264 303.959364534497
74.04276 303.951633186174
74.06287 324.024993561559
74.08299 292.995030712002
74.1031 329
74.12321 278.990645385379
74.14333 313.053193549689
74.16344 315.974133819234
74.18355 297.078086572049
74.20367 272.98529990086
74.22378 307.975396268376
74.2439 303
74.26401 292.000987901612
74.28412 307.02264737345
74.30424 326.017827896701
74.32435 320.048560710022
74.34446 303.993681925488
74.36458 315.008337535197
74.38469 291.004261261064
74.40481 304.004765930466
74.42492 304.009149542265
74.44503 317.993544195457
74.46515 297.975063577755
74.48526 304.989107368133
74.50537 301.999773119455
74.52549 311.992601931133
74.5456 323
74.56571 316.993405360916
74.58583 304.993561161336
74.60594 303.983197288966
74.62606 292.995699909137
74.64617 304.9956956828
74.66628 299.99265509384
74.6864 322
74.70651 315.983365511207
74.72662 282.998249764865
74.74674 311.051013217629
74.76685 316.004751182853
74.78697 318.991302012447
74.80708 321.006377601299
74.82719 310.003554811226
74.84731 299.986050821542
74.86742 277.020204403199
74.88753 328.046296019115
74.90765 315.931120696975
74.92776 308.954786140068
74.94787 337.000120185056
74.96799 312.006533149643
74.9881 323
75.00822 316.985770084667
