3.00117 21265
3.02128 20459
3.0414 19876
3.06151 19435
3.08162 18705
3.10174 18480
3.12185 17723
3.14197 17223
3.16208 17023
3.18219 16443
3.20231 16216
3.22242 15313
3.24253 15166
3.26265 14758
3.28276 13845
3.30288 13776
3.32299 12989
3.3431 12763
3.36322 12521
3.38333 11907
3.40344 11868
3.42356 11131
3.44367 10891
3.46379 10604
3.4839 10093
3.50401 10174
3.52413 9357
3.54424 8958
3.56435 8842
3.58447 8304
3.60458 8251
3.62469 7705
3.64481 7358
3.66492 7297
3.68504 6891
3.70515 6909
3.72526 6358
3.74538 6185
3.76549 5951
3.7856 5651
3.80572 5390
3.82583 5255
3.84595 5084
3.86606 4887
3.88617 4514
3.90629 4489
3.9264 4172
3.94651 4019
3.96663 3956
3.98674 3658
4.00686 3489
4.02697 3359
4.04708 3150
4.0672 3260
4.08731 2980
4.10742 2962
4.12754 2642
4.14765 2465
4.16776 2586
4.18788 2427
4.20799 2275
4.22811 2100
4.24822 2147
4.26833 2087
4.28845 2016
4.30856 1995
4.32867 1805
4.34879 1790
4.3689 1767
4.38902 1761
4.40913 1608
4.42924 1511
4.44936 1529
4.46947 1446
4.48958 1471
4.5097 1390
4.52981 1362
4.54992 1286
4.57004 1356
4.59015 1366
4.61027 1251
4.63038 1208
4.65049 1133
4.67061 1140
4.69072 1173
4.71083 1146
4.73095 1109
4.75106 1008
4.77118 1027
4.79129 1037
4.8114 994
4.83152 866
4.85163 841
4.87174 970
4.89186 931
4.91197 872
4.93209 825
4.9522 789
4.97231 830
4.99243 801
5.01254 792
5.03265 736
5.05277 708
5.07288 692
5.09299 743
5.11311 719
5.13322 654
5.15334 679
5.17345 634
5.19356 669
5.21368 579
5.23379 623
5.2539 531
5.27402 586
5.29413 601
5.31425 574
5.33436 561
5.35447 511
5.37459 500
5.3947 508
5.41481 472
5.43493 462
5.45504 457
5.47516 400
5.49527 460
5.51538 400
5.5355 454
5.55561 434
5.57572 409
5.59584 392
5.61595 372
5.63606 413
5.65618 375
5.67629 370
5.69641 375
5.71652 387
5.73663 312
5.75675 401
5.77686 324
5.79697 318
5.81709 382
5.8372 289
5.85732 345
5.87743 322
5.89754 311
5.91766 317
5.93777 291
5.95788 312
5.978 293
5.99811 319
6.01823 286
6.03834 293
6.05845 284
6.07857 285
6.09868 322
6.11879 246
6.13891 293
6.15902 291
6.17913 288
6.19925 243
6.21936 251
6.23948 225
6.25959 247
6.2797 270
6.29982 224
6.31993 265
6.34004 271
6.36016 261
6.38027 249
6.40039 274
6.4205 273
6.44061 231
6.46073 272
6.48084 258
6.50095 243
6.52107 250
6.54118 226
6.56129 265
6.58141 227
6.60152 235
6.62164 272
6.64175 220
6.66186 228
6.68198 248
6.70209 248
6.7222 231
6.74232 237
6.76243 231
6.78255 242
6.80266 242
6.82277 238
6.84289 203
6.863 242
6.88311 217
6.90323 258
6.92334 236
6.94346 225
6.96357 248
6.98368 255
7.0038 268
7.02391 269
7.04402 210
7.06414 249
7.08425 248
7.10436 233
7.12448 242
7.14459 206
7.16471 243
7.18482 245
7.20493 260
7.22505 194
7.24516 232
7.26527 245
7.28539 210
7.3055 253
7.32562 239
7.34573 208
7.36584 203
7.38596 255
7.40607 249
7.42618 194
7.4463 205
7.46641 223
7.48653 243
7.50664 238
7.52675 216
7.54687 218
7.56698 208
7.58709 222
7.60721 238
7.62732 244
7.64743 209
7.66755 238
7.68766 211
7.70778 211
7.72789 222
7.748 237
7.76812 230
7.78823 214
7.80834 265
7.82846 230
7.84857 248
7.86869 243
7.8888 214
7.90891 236
7.92903 271
7.94914 236
7.96925 207
7.98937 257
8.00948 256
8.0296 220
8.04971 276
8.06982 229
8.08994 245
8.11005 229
8.13016 264
8.15028 240
8.17039 229
8.1905 253
8.21062 235
8.23073 250
8.25085 222
8.27096 251
8.29107 262
8.31119 231
8.3313 240
8.35141 215
8.37153 274
8.39164 247
8.41176 268
8.43187 240
8.45198 266
8.4721 253
8.49221 229
8.51232 244
8.53244 251
8.55255 257
8.57266 257
8.59278 227
8.61289 236
8.63301 230
8.65312 254
8.67323 264
8.69335 250
8.71346 221
8.73357 259
8.75369 253
8.7738 249
8.79392 270
8.81403 218
8.83414 257
8.85426 267
8.87437 242
8.89448 254
8.9146 249
8.93471 247
8.95483 239
8.97494 219
8.99505 267
9.01517 237
9.03528 240
9.05539 225
9.07551 235
9.09562 236
9.11573 237
9.13585 234
9.15596 266
9.17608 244
9.19619 248
9.2163 245
9.23642 264
9.25653 246
9.27664 268
9.29676 271
9.31687 288
9.33699 215
9.3571 240
9.37721 228
9.39733 221
9.41744 234
9.43755 222
9.45767 215
9.47778 222
9.4979 229
9.51801 268
9.53812 256
9.55824 230
9.57835 251
9.59846 237
9.61858 248
9.63869 232
9.6588 283
9.67892 236
9.69903 220
9.71915 262
9.73926 238
9.75937 225
9.77949 247
9.7996 237
9.81971 266
9.83983 231
9.85994 255
9.88006 242
9.90017 247
9.92028 217
9.9404 247
9.96051 238
9.98062 252
10.00074 252
10.02085 253
10.04097 241
10.06108 232
10.08119 242
10.10131 242
10.12142 228
10.14153 256
10.16165 245
10.18176 237
10.20187 249
10.22199 241
10.2421 251
10.26222 226
10.28233 273
10.30244 219
10.32256 271
10.34267 247
10.36278 240
10.3829 254
10.40301 246
10.42313 231
10.44324 253
10.46335 226
10.48347 244
10.50358 249
10.52369 250
10.54381 247
10.56392 254
10.58403 268
10.60415 238
10.62426 244
10.64438 250
10.66449 239
10.6846 234
10.70472 235
10.72483 250
10.74494 258
10.76506 258
10.78517 237
10.80529 233
10.8254 258
10.84551 247
10.86563 247
10.88574 262
10.90585 238
10.92597 268
10.94608 217
10.9662 248
10.98631 222
11.00642 238
11.02654 229
11.04665 242
11.06676 249
11.08688 224
11.10699 247
11.1271 239
11.14722 235
11.16733 252
11.18745 227
11.20756 257
11.22767 297
11.24779 256
11.2679 255
11.28801 266
11.30813 240
11.32824 240
11.34836 238
11.36847 264
11.38858 272
11.4087 261
11.42881 242
11.44892 289
11.46904 275
11.48915 290
11.50927 288
11.52938 247
11.54949 273
11.56961 263
11.58972 281
11.60983 271
11.62995 261
11.65006 283
11.67017 282
11.69029 280
11.7104 286
11.73052 260
11.75063 306
11.77074 282
11.79086 318
11.81097 259
11.83108 285
11.8512 286
11.87131 294
11.89143 286
11.91154 305
11.93165 349
11.95177 315
11.97188 327
11.99199 341
12.01211 365
12.03222 346
12.05234 352
12.07245 367
12.09256 390
12.11268 414
12.13279 447
12.1529 443
12.17302 427
12.19313 456
12.21324 392
12.23336 466
12.25347 418
12.27359 464
12.2937 450
12.31381 429
12.33393 432
12.35404 408
12.37415 383
12.39427 405
12.41438 422
12.4345 353
12.45461 341
12.47472 340
12.49484 387
12.51495 314
12.53506 298
12.55518 342
12.57529 300
12.5954 293
12.61552 300
12.63563 317
12.65575 267
12.67586 295
12.69597 312
12.71609 249
12.7362 286
12.75631 294
12.77643 266
12.79654 260
12.81666 252
12.83677 263
12.85688 252
12.877 233
12.89711 209
12.91722 276
12.93734 221
12.95745 227
12.97757 234
12.99768 267
13.01779 235
13.03791 267
13.05802 254
13.07813 259
13.09825 269
13.11836 267
13.13847 274
13.15859 250
13.1787 290
13.19882 265
13.21893 277
13.23904 251
13.25916 227
13.27927 227
13.29938 242
13.3195 212
13.33961 233
13.35973 230
13.37984 214
13.39995 222
13.42007 195
13.44018 228
13.46029 275
13.48041 251
13.50052 294
13.52064 289
13.54075 331
13.56086 330
13.58098 331
13.60109 360
13.6212 339
13.64132 319
13.66143 300
13.68154 291
13.70166 256
13.72177 238
13.74189 201
13.762 248
13.78211 213
13.80223 226
13.82234 207
13.84245 243
13.86257 219
13.88268 202
13.9028 205
13.92291 198
13.94302 218
13.96314 194
13.98325 205
14.00336 228
14.02348 215
14.04359 223
14.06371 224
14.08382 204
14.10393 205
14.12405 231
14.14416 212
14.16427 206
14.18439 221
14.2045 211
14.22461 220
14.24473 230
14.26484 228
14.28496 196
14.30507 193
14.32518 207
14.3453 199
14.36541 199
14.38552 192
14.40564 225
14.42575 198
14.44587 201
14.46598 182
14.48609 208
14.50621 212
14.52632 202
14.54643 190
14.56655 196
14.58666 222
14.60677 189
14.62689 214
14.647 192
14.66712 204
14.68723 208
14.70734 222
14.72746 225
14.74757 212
14.76768 237
14.7878 220
14.80791 231
14.82803 235
14.84814 216
14.86825 205
14.88837 225
14.90848 253
14.92859 270
14.94871 289
14.96882 238
14.98894 282
15.00905 227
15.02916 254
15.04928 234
15.06939 273
15.0895 228
15.10962 236
15.12973 230
15.14984 222
15.16996 216
15.19007 228
15.21019 242
15.2303 213
15.25041 202
15.27053 239
15.29064 202
15.31075 194
15.33087 219
15.35098 218
15.3711 209
15.39121 204
15.41132 227
15.43144 191
15.45155 192
15.47166 185
15.49178 231
15.51189 187
15.53201 192
15.55212 199
15.57223 223
15.59235 187
15.61246 208
15.63257 203
15.65269 194
15.6728 208
15.69291 194
15.71303 210
15.73314 193
15.75326 179
15.77337 182
15.79348 210
15.8136 178
15.83371 212
15.85382 175
15.87394 192
15.89405 207
15.91417 190
15.93428 194
15.95439 173
15.97451 203
15.99462 184
16.01473 205
16.03485 180
16.05496 192
16.07508 178
16.09519 203
16.1153 169
16.13542 191
16.15553 153
16.17564 179
16.19576 175
16.21587 184
16.23598 191
16.2561 182
16.27621 192
16.29633 215
16.31644 188
16.33655 201
16.35667 179
16.37678 194
16.39689 171
16.41701 205
16.43712 203
16.45724 187
16.47735 194
16.49746 202
16.51758 187
16.53769 204
16.5578 170
16.57792 186
16.59803 179
16.61814 181
16.63826 172
16.65837 203
16.67849 190
16.6986 193
16.71871 174
16.73883 177
16.75894 199
16.77905 189
16.79917 182
16.81928 182
16.8394 196
16.85951 193
16.87962 182
16.89974 172
16.91985 159
16.93996 206
16.96008 183
16.98019 198
17.00031 199
17.02042 179
17.04053 188
17.06065 196
17.08076 178
17.10087 208
17.12099 186
17.1411 177
17.16121 181
17.18133 184
17.20144 200
17.22156 198
17.24167 186
17.26178 213
17.2819 154
17.30201 185
17.32212 188
17.34224 183
17.36235 182
17.38247 166
17.40258 203
17.42269 194
17.44281 199
17.46292 182
17.48303 202
17.50315 184
17.52326 192
17.54338 172
17.56349 210
17.5836 210
17.60372 170
17.62383 192
17.64394 186
17.66406 212
17.68417 210
17.70428 201
17.7244 209
17.74451 199
17.76463 202
17.78474 197
17.80485 188
17.82497 177
17.84508 212
17.86519 209
17.88531 195
17.90542 178
17.92554 177
17.94565 187
17.96576 192
17.98588 194
18.00599 178
18.0261 178
18.04622 201
18.06633 193
18.08645 177
18.10656 170
18.12667 191
18.14679 191
18.1669 170
18.18701 197
18.20713 203
18.22724 203
18.24735 176
18.26747 217
18.28758 195
18.3077 195
18.32781 154
18.34792 198
18.36804 169
18.38815 171
18.40826 202
18.42838 189
18.44849 216
18.46861 186
18.48872 177
18.50883 199
18.52895 188
18.54906 189
18.56917 165
18.58929 177
18.6094 179
18.62951 176
18.64963 201
18.66974 180
18.68986 215
18.70997 211
18.73008 202
18.7502 224
18.77031 193
18.79042 178
18.81054 191
18.83065 172
18.85077 200
18.87088 188
18.89099 198
18.91111 210
18.93122 223
18.95133 177
18.97145 211
18.99156 213
19.01168 188
19.03179 184
19.0519 205
19.07202 193
19.09213 194
19.11224 201
19.13236 228
19.15247 229
19.17258 222
19.1927 230
19.21281 232
19.23293 224
19.25304 266
19.27315 240
19.29327 201
19.31338 216
19.33349 221
19.35361 230
19.37372 211
19.39384 223
19.41395 217
19.43406 201
19.45418 183
19.47429 217
19.4944 205
19.51452 228
19.53463 238
19.55475 221
19.57486 227
19.59497 218
19.61509 249
19.6352 273
19.65531 295
19.67543 251
19.69554 330
19.71565 307
19.73577 332
19.75588 384
19.776 380
19.79611 414
19.81622 423
19.83634 433
19.85645 428
19.87656 458
19.89668 444
19.91679 457
19.93691 454
19.95702 446
19.97713 421
19.99725 450
20.01736 444
20.03747 422
20.05759 408
20.0777 443
20.09782 421
20.11793 384
20.13804 402
20.15816 424
20.17827 377
20.19838 435
20.2185 424
20.23861 393
20.25872 399
20.27884 439
20.29895 413
20.31907 379
20.33918 439
20.35929 456
20.37941 444
20.39952 435
20.41963 415
20.43975 416
20.45986 475
20.47998 489
20.50009 510
20.5202 493
20.54032 482
20.56043 509
20.58054 525
20.60066 606
20.62077 616
20.64088 802
20.661 942
20.68111 1225
20.70123 1566
20.72134 2064
20.74145 2726
20.76157 3445
20.78168 4135
20.80179 4475
20.82191 4575
20.84202 4132
20.86214 3667
20.88225 2845
20.90236 2158
20.92248 1830
20.94259 1586
20.9627 1353
20.98282 1275
21.00293 1253
21.02305 1039
21.04316 930
21.06327 793
21.08339 678
21.1035 572
21.12361 521
21.14373 503
21.16384 472
21.18395 460
21.20407 414
21.22418 421
21.2443 444
21.26441 399
21.28452 418
21.30464 403
21.32475 376
21.34486 415
21.36498 430
21.38509 386
21.40521 366
21.42532 368
21.44543 370
21.46555 355
21.48566 343
21.50577 314
21.52589 324
21.546 360
21.56612 349
21.58623 323
21.60634 282
21.62646 320
21.64657 322
21.66668 319
21.6868 307
21.70691 296
21.72702 334
21.74714 314
21.76725 323
21.78737 311
21.80748 298
21.82759 281
21.84771 324
21.86782 316
21.88793 306
21.90805 313
21.92816 289
21.94828 328
21.96839 347
21.9885 306
22.00862 336
22.02873 338
22.04884 303
22.06896 317
22.08907 296
22.10919 328
22.1293 319
22.14941 346
22.16953 331
22.18964 362
22.20975 373
22.22987 377
22.24998 427
22.27009 490
22.29021 405
22.31032 411
22.33044 452
22.35055 382
22.37066 334
22.39078 383
22.41089 385
22.431 361
22.45112 351
22.47123 390
22.49135 335
22.51146 336
22.53157 339
22.55169 360
22.5718 340
22.59191 305
22.61203 308
22.63214 273
22.65225 278
22.67237 315
22.69248 279
22.7126 297
22.73271 264
22.75282 287
22.77294 279
22.79305 286
22.81316 292
22.83328 321
22.85339 298
22.87351 304
22.89362 289
22.91373 332
22.93385 342
22.95396 357
22.97407 358
22.99419 402
23.0143 371
23.03442 400
23.05453 392
23.07464 452
23.09476 440
23.11487 453
23.13498 470
23.1551 503
23.17521 517
23.19532 515
23.21544 501
23.23555 436
23.25567 436
23.27578 459
23.29589 420
23.31601 404
23.33612 395
23.35623 396
23.37635 411
23.39646 388
23.41658 386
23.43669 427
23.4568 380
23.47692 412
23.49703 405
23.51714 397
23.53726 390
23.55737 377
23.57749 368
23.5976 403
23.61771 442
23.63783 404
23.65794 402
23.67805 411
23.69817 405
23.71828 362
23.73839 428
23.75851 419
23.77862 438
23.79874 448
23.81885 437
23.83896 461
23.85908 519
23.87919 507
23.8993 524
23.91942 539
23.93953 497
23.95965 512
23.97976 471
23.99987 430
24.01999 444
24.0401 384
24.06021 382
24.08033 337
24.10044 326
24.12056 351
24.14067 324
24.16078 345
24.1809 364
24.20101 325
24.22112 350
24.24124 360
24.26135 390
24.28146 393
24.30158 412
24.32169 381
24.34181 414
24.36192 417
24.38203 397
24.40215 376
24.42226 410
24.44237 359
24.46249 380
24.4826 378
24.50272 397
24.52283 419
24.54294 408
24.56306 454
24.58317 443
24.60328 478
24.6234 449
24.64351 473
24.66362 511
24.68374 465
24.70385 513
24.72397 497
24.74408 505
24.76419 482
24.78431 458
24.80442 459
24.82453 493
24.84465 487
24.86476 486
24.88488 427
24.90499 481
24.9251 430
24.94522 483
24.96533 443
24.98544 438
25.00556 385
25.02567 404
25.04579 419
25.0659 440
25.08601 400
25.10613 442
25.12624 437
25.14635 428
25.16647 394
25.18658 446
25.20669 445
25.22681 461
25.24692 400
25.26704 426
25.28715 461
25.30726 461
25.32738 467
25.34749 455
25.3676 484
25.38772 479
25.40783 566
25.42795 611
25.44806 691
25.46817 744
25.48829 849
25.5084 850
25.52851 843
25.54863 887
25.56874 866
25.58886 837
25.60897 776
25.62908 707
25.6492 655
25.66931 633
25.68942 597
25.70954 520
25.72965 504
25.74976 463
25.76988 450
25.78999 436
25.81011 446
25.83022 440
25.85033 463
25.87045 458
25.89056 452
25.91067 449
25.93079 478
25.9509 504
25.97102 496
25.99113 480
26.01124 478
26.03136 514
26.05147 572
26.07158 571
26.0917 593
26.11181 573
26.13193 679
26.15204 748
26.17215 694
26.19227 775
26.21238 845
26.23249 876
26.25261 929
26.27272 1072
26.29283 1148
26.31295 1349
26.33306 1521
26.35318 1794
26.37329 2085
26.3934 2428
26.41352 3016
26.43363 3854
26.45374 5088
26.47386 6840
26.49397 9239
26.51409 12013
26.5342 15354
26.55431 18116
26.57443 19676
26.59454 19614
26.61465 17709
26.63477 15185
26.65488 12004
26.67499 8803
26.69511 6157
26.71522 4078
26.73534 2766
26.75545 1960
26.77556 1555
26.79568 1358
26.81579 1263
26.8359 1176
26.85602 1166
26.87613 1142
26.89625 1130
26.91636 1099
26.93647 1279
26.95659 1336
26.9767 1389
26.99681 1322
27.01693 1422
27.03704 1350
27.05716 1199
27.07727 1135
27.09738 1027
27.1175 890
27.13761 806
27.15772 765
27.17784 768
27.19795 822
27.21806 811
27.23818 831
27.25829 886
27.27841 995
27.29852 1108
27.31863 1239
27.33875 1379
27.35886 1546
27.37897 1705
27.39909 1829
27.4192 1831
27.43932 1791
27.45943 1695
27.47954 1532
27.49966 1198
27.51977 1017
27.53988 854
27.56 702
27.58011 518
27.60023 503
27.62034 470
27.64045 407
27.66057 405
27.68068 409
27.70079 411
27.72091 400
27.74102 403
27.76113 379
27.78125 330
27.80136 379
27.82148 349
27.84159 384
27.8617 337
27.88182 353
27.90193 368
27.92204 329
27.94216 331
27.96227 304
27.98239 305
28.0025 278
28.02261 296
28.04273 301
28.06284 301
28.08295 345
28.10307 282
28.12318 299
28.1433 287
28.16341 271
28.18352 297
28.20364 302
28.22375 306
28.24386 252
28.26398 278
28.28409 288
28.3042 255
28.32432 253
28.34443 276
28.36455 269
28.38466 280
28.40477 289
28.42489 244
28.445 273
28.46511 283
28.48523 275
28.50534 293
28.52546 246
28.54557 273
28.56568 254
28.5858 277
28.60591 240
28.62602 262
28.64614 275
28.66625 268
28.68636 263
28.70648 254
28.72659 243
28.74671 247
28.76682 266
28.78693 266
28.80705 243
28.82716 290
28.84727 226
28.86739 247
28.8875 260
28.90762 277
28.92773 255
28.94784 244
28.96796 264
28.98807 267
29.00818 270
29.0283 277
29.04841 246
29.06853 267
29.08864 264
29.10875 259
29.12887 284
29.14898 253
29.16909 289
29.18921 287
29.20932 299
29.22943 287
29.24955 307
29.26966 292
29.28978 304
29.30989 346
29.33 397
29.35012 360
29.37023 375
29.39034 360
29.41046 372
29.43057 399
29.45069 414
29.4708 399
29.49091 389
29.51103 374
29.53114 359
29.55125 335
29.57137 339
29.59148 314
29.6116 323
29.63171 336
29.65182 346
29.67194 361
29.69205 317
29.71216 339
29.73228 343
29.75239 386
29.7725 362
29.79262 331
29.81273 332
29.83285 361
29.85296 366
29.87307 359
29.89319 334
29.9133 343
29.93341 389
29.95353 359
29.97364 386
29.99376 407
30.01387 383
30.03398 430
30.0541 466
30.07421 471
30.09432 471
30.11444 473
30.13455 476
30.15467 464
30.17478 491
30.19489 403
30.21501 394
30.23512 380
30.25523 364
30.27535 333
30.29546 341
30.31557 312
30.33569 317
30.3558 309
30.37592 295
30.39603 322
30.41614 309
30.43626 317
30.45637 279
30.47648 291
30.4966 288
30.51671 296
30.53683 272
30.55694 314
30.57705 333
30.59717 353
30.61728 394
30.63739 437
30.65751 496
30.67762 484
30.69773 541
30.71785 583
30.73796 543
30.75808 536
30.77819 528
30.7983 489
30.81842 458
30.83853 435
30.85864 418
30.87876 361
30.89887 376
30.91899 340
30.9391 282
30.95921 276
30.97933 243
30.99944 251
31.01955 223
31.03967 236
31.05978 257
31.0799 232
31.10001 186
31.12012 228
31.14024 205
31.16035 235
31.18046 202
31.20058 213
31.22069 223
31.2408 228
31.26092 217
31.28103 214
31.30115 209
31.32126 192
31.34137 247
31.36149 209
31.3816 237
31.40171 207
31.42183 222
31.44194 205
31.46206 221
31.48217 214
31.50228 220
31.5224 210
31.54251 214
31.56262 207
31.58274 215
31.60285 233
31.62297 180
31.64308 228
31.66319 207
31.68331 214
31.70342 211
31.72353 199
31.74365 223
31.76376 175
31.78387 243
31.80399 217
31.8241 186
31.84422 209
31.86433 219
31.88444 187
31.90456 252
31.92467 239
31.94478 247
31.9649 199
31.98501 261
32.00513 244
32.02524 252
32.04535 287
32.06547 263
32.08558 272
32.10569 262
32.12581 276
32.14592 283
32.16604 303
32.18615 315
32.20626 304
32.22638 301
32.24649 330
32.2666 308
32.28672 310
32.30683 297
32.32694 317
32.34706 309
32.36717 328
32.38729 296
32.4074 263
32.42751 320
32.44763 290
32.46774 281
32.48785 265
32.50797 264
32.52808 220
32.5482 219
32.56831 255
32.58842 245
32.60854 235
32.62865 226
32.64876 190
32.66888 218
32.68899 221
32.7091 199
32.72922 226
32.74933 196
32.76945 207
32.78956 190
32.80967 192
32.82979 216
32.8499 229
32.87001 213
32.89013 185
32.91024 217
32.93036 219
32.95047 206
32.97058 208
32.9907 196
33.01081 191
33.03092 199
33.05104 215
33.07115 219
33.09127 190
33.11138 213
33.13149 213
33.15161 201
33.17172 202
33.19183 258
33.21195 246
33.23206 211
33.25217 212
33.27229 212
33.2924 210
33.31252 215
33.33263 220
33.35274 169
33.37286 205
33.39297 181
33.41308 181
33.4332 230
33.45331 217
33.47343 223
33.49354 196
33.51365 211
33.53377 210
33.55388 198
33.57399 218
33.59411 220
33.61422 185
33.63434 221
33.65445 194
33.67456 211
33.69468 249
33.71479 218
33.7349 215
33.75502 206
33.77513 210
33.79524 226
33.81536 228
33.83547 207
33.85559 203
33.8757 240
33.89581 232
33.91593 213
33.93604 221
33.95615 231
33.97627 233
33.99638 225
34.0165 272
34.03661 269
34.05672 316
34.07684 321
34.09695 299
34.11706 349
34.13718 335
34.15729 337
34.17741 325
34.19752 334
34.21763 341
34.23775 334
34.25786 330
34.27797 306
34.29809 313
34.3182 329
34.33831 317
34.35843 295
34.37854 276
34.39866 336
34.41877 296
34.43888 331
34.459 316
34.47911 317
34.49922 349
34.51934 326
34.53945 320
34.55957 374
34.57968 331
34.59979 337
34.61991 342
34.64002 323
34.66013 348
34.68025 329
34.70036 344
34.72047 342
34.74059 345
34.7607 358
34.78082 369
34.80093 392
34.82104 363
34.84116 377
34.86127 419
34.88138 392
34.9015 383
34.92161 364
34.94173 405
34.96184 389
34.98195 427
35.00207 363
35.02218 365
35.04229 381
35.06241 378
35.08252 366
35.10264 389
35.12275 322
35.14286 369
35.16298 359
35.18309 348
35.2032 380
35.22332 358
35.24343 354
35.26354 369
35.28366 343
35.30377 361
35.32389 387
35.344 419
35.36411 382
35.38423 390
35.40434 425
35.42445 421
35.44457 430
35.46468 437
35.4848 411
35.50491 412
35.52502 401
35.54514 395
35.56525 336
35.58536 385
35.60548 374
35.62559 364
35.64571 352
35.66582 330
35.68593 363
35.70605 326
35.72616 357
35.74627 362
35.76639 327
35.7865 332
35.80661 320
35.82673 344
35.84684 320
35.86696 304
35.88707 339
35.90718 324
35.9273 307
35.94741 317
35.96752 301
35.98764 307
36.00775 286
36.02787 295
36.04798 278
36.06809 306
36.08821 310
36.10832 316
36.12843 305
36.14855 301
36.16866 293
36.18878 335
36.20889 297
36.229 362
36.24912 320
36.26923 377
36.28934 395
36.30946 460
36.32957 516
36.34968 611
36.3698 744
36.38991 928
36.41003 1093
36.43014 1247
36.45025 1482
36.47037 1553
36.49048 1532
36.51059 1412
36.53071 1216
36.55082 1136
36.57094 995
36.59105 818
36.61116 693
36.63128 537
36.65139 486
36.6715 378
36.69162 329
36.71173 347
36.73184 337
36.75196 309
36.77207 295
36.79219 331
36.8123 313
36.83241 293
36.85253 345
36.87264 361
36.89275 319
36.91287 340
36.93298 358
36.9531 322
36.97321 356
36.99332 359
37.01344 331
37.03355 304
37.05366 317
37.07378 311
37.09389 297
37.11401 303
37.13412 325
37.15423 308
37.17435 297
37.19446 276
37.21457 259
37.23469 264
37.2548 284
37.27491 301
37.29503 262
37.31514 256
37.33526 251
37.35537 271
37.37548 264
37.3956 288
37.41571 275
37.43582 290
37.45594 270
37.47605 273
37.49617 294
37.51628 287
37.53639 260
37.55651 265
37.57662 285
37.59673 286
37.61685 299
37.63696 282
37.65708 298
37.67719 271
37.6973 280
37.71742 288
37.73753 267
37.75764 240
37.77776 261
37.79787 273
37.81798 265
37.8381 256
37.85821 279
37.87833 266
37.89844 280
37.91855 271
37.93867 248
37.95878 268
37.97889 265
37.99901 279
38.01912 252
38.03924 282
38.05935 241
38.07946 264
38.09958 259
38.11969 263
38.1398 253
38.15992 261
38.18003 264
38.20015 279
38.22026 266
38.24037 283
38.26049 279
38.2806 297
38.30071 313
38.32083 280
38.34094 295
38.36105 319
38.38117 344
38.40128 312
38.4214 350
38.44151 361
38.46162 356
38.48174 371
38.50185 359
38.52196 345
38.54208 329
38.56219 362
38.58231 311
38.60242 332
38.62253 299
38.64265 311
38.66276 268
38.68287 254
38.70299 271
38.7231 245
38.74321 244
38.76333 243
38.78344 266
38.80356 261
38.82367 272
38.84378 235
38.8639 266
38.88401 287
38.90412 243
38.92424 250
38.94435 243
38.96447 253
38.98458 266
39.00469 288
39.02481 319
39.04492 283
39.06503 250
39.08515 297
39.10526 298
39.12538 309
39.14549 315
39.1656 317
39.18572 397
39.20583 413
39.22594 445
39.24606 523
39.26617 541
39.28628 632
39.3064 764
39.32651 967
39.34663 1217
39.36674 1396
39.38685 1401
39.40697 1407
39.42708 1307
39.44719 1166
39.46731 1068
39.48742 876
39.50754 791
39.52765 669
39.54776 585
39.56788 461
39.58799 366
39.6081 306
39.62822 282
39.64833 283
39.66845 288
39.68856 269
39.70867 244
39.72879 237
39.7489 225
39.76901 235
39.78913 248
39.80924 203
39.82935 229
39.84947 238
39.86958 239
39.8897 251
39.90981 250
39.92992 263
39.95004 236
39.97015 266
39.99026 256
40.01038 269
40.03049 303
40.05061 299
40.07072 372
40.09083 418
40.11095 424
40.13106 538
40.15117 600
40.17129 713
40.1914 716
40.21152 758
40.23163 765
40.25174 710
40.27186 684
40.29197 612
40.31208 530
40.3322 496
40.35231 417
40.37242 419
40.39254 291
40.41265 343
40.43277 245
40.45288 257
40.47299 253
40.49311 241
40.51322 253
40.53333 228
40.55345 221
40.57356 228
40.59368 245
40.61379 229
40.6339 242
40.65402 232
40.67413 236
40.69424 209
40.71436 231
40.73447 241
40.75458 242
40.7747 200
40.79481 231
40.81493 225
40.83504 245
40.85515 217
40.87527 233
40.89538 227
40.91549 228
40.93561 223
40.95572 216
40.97584 215
40.99595 207
41.01606 221
41.03618 201
41.05629 233
41.0764 219
41.09652 232
41.11663 195
41.13675 225
41.15686 214
41.17697 227
41.19709 242
41.2172 202
41.23731 241
41.25743 204
41.27754 219
41.29765 239
41.31777 226
41.33788 233
41.358 232
41.37811 244
41.39822 237
41.41834 213
41.43845 237
41.45856 255
41.47868 241
41.49879 279
41.51891 294
41.53902 288
41.55913 300
41.57925 311
41.59936 313
41.61947 382
41.63959 385
41.6597 429
41.67982 431
41.69993 455
41.72004 482
41.74016 491
41.76027 489
41.78038 431
41.8005 385
41.82061 407
41.84072 372
41.86084 301
41.88095 333
41.90107 310
41.92118 266
41.94129 260
41.96141 264
41.98152 261
42.00163 270
42.02175 275
42.04186 256
42.06198 263
42.08209 292
42.1022 252
42.12232 283
42.14243 296
42.16254 307
42.18266 313
42.20277 343
42.22289 409
42.243 415
42.26311 470
42.28323 570
42.30334 719
42.32345 860
42.34357 977
42.36368 975
42.38379 1010
42.40391 942
42.42402 886
42.44414 783
42.46425 740
42.48436 657
42.50448 564
42.52459 525
42.5447 438
42.56482 370
42.58493 331
42.60505 268
42.62516 276
42.64527 276
42.66539 263
42.6855 266
42.70561 251
42.72573 267
42.74584 259
42.76595 256
42.78607 259
42.80618 236
42.8263 216
42.84641 228
42.86652 204
42.88664 240
42.90675 224
42.92686 234
42.94698 192
42.96709 208
42.98721 247
43.00732 191
43.02743 214
43.04755 214
43.06766 219
43.08777 226
43.10789 214
43.128 197
43.14812 227
43.16823 177
43.18834 210
43.20846 226
43.22857 211
43.24868 199
43.2688 203
43.28891 191
43.30902 192
43.32914 180
43.34925 213
43.36937 210
43.38948 209
43.40959 209
43.42971 215
43.44982 218
43.46993 231
43.49005 226
43.51016 218
43.53028 242
43.55039 239
43.5705 214
43.59062 231
43.61073 210
43.63084 192
43.65096 207
43.67107 194
43.69119 220
43.7113 196
43.73141 210
43.75153 212
43.77164 210
43.79175 201
43.81187 204
43.83198 187
43.85209 206
43.87221 184
43.89232 189
43.91244 228
43.93255 210
43.95266 211
43.97278 187
43.99289 202
44.013 225
44.03312 220
44.05323 216
44.07335 222
44.09346 241
44.11357 211
44.13369 224
44.1538 213
44.17391 222
44.19403 218
44.21414 210
44.23426 199
44.25437 207
44.27448 194
44.2946 186
44.31471 198
44.33482 202
44.35494 197
44.37505 187
44.39516 188
44.41528 204
44.43539 204
44.45551 196
44.47562 185
44.49573 204
44.51585 195
44.53596 205
44.55607 198
44.57619 222
44.5963 230
44.61642 214
44.63653 186
44.65664 206
44.67676 212
44.69687 204
44.71698 186
44.7371 198
44.75721 200
44.77732 213
44.79744 199
44.81755 197
44.83767 188
44.85778 199
44.87789 208
44.89801 216
44.91812 214
44.93823 216
44.95835 193
44.97846 204
44.99858 199
45.01869 199
45.0388 206
45.05892 204
45.07903 197
45.09914 211
45.11926 212
45.13937 222
45.15949 215
45.1796 225
45.19971 210
45.21983 216
45.23994 236
45.26005 244
45.28017 217
45.30028 237
45.32039 272
45.34051 251
45.36062 267
45.38074 264
45.40085 280
45.42096 301
45.44108 316
45.46119 314
45.4813 322
45.50142 343
45.52153 349
45.54165 385
45.56176 403
45.58187 398
45.60199 455
45.6221 545
45.64221 597
45.66233 657
45.68244 705
45.70256 703
45.72267 811
45.74278 786
45.7629 683
45.78301 654
45.80312 589
45.82324 527
45.84335 505
45.86346 473
45.88358 381
45.90369 353
45.92381 323
45.94392 281
45.96403 275
45.98415 264
46.00426 251
46.02437 249
46.04449 239
46.0646 227
46.08472 244
46.10483 218
46.12494 254
46.14506 243
46.16517 251
46.18528 234
46.2054 264
46.22551 202
46.24563 208
46.26574 231
46.28585 235
46.30597 229
46.32608 201
46.34619 227
46.36631 215
46.38642 196
46.40653 231
46.42665 211
46.44676 194
46.46688 186
46.48699 181
46.5071 208
46.52722 218
46.54733 163
46.56744 200
46.58756 176
46.60767 221
46.62779 174
46.6479 181
46.66801 186
46.68813 202
46.70824 189
46.72835 192
46.74847 194
46.76858 201
46.78869 196
46.80881 210
46.82892 190
46.84904 214
46.86915 215
46.88926 196
46.90938 233
46.92949 239
46.9496 266
46.96972 261
46.98983 263
47.00995 289
47.03006 236
47.05017 281
47.07029 302
47.0904 274
47.11051 259
47.13063 270
47.15074 261
47.17086 274
47.19097 246
47.21108 236
47.2312 262
47.25131 241
47.27142 250
47.29154 286
47.31165 256
47.33176 260
47.35188 231
47.37199 232
47.39211 246
47.41222 259
47.43233 234
47.45245 241
47.47256 256
47.49267 238
47.51279 224
47.5329 241
47.55302 249
47.57313 216
47.59324 201
47.61336 195
47.63347 190
47.65358 191
47.6737 184
47.69381 189
47.71393 176
47.73404 202
47.75415 205
47.77427 198
47.79438 212
47.81449 231
47.83461 202
47.85472 223
47.87483 203
47.89495 221
47.91506 217
47.93518 192
47.95529 196
47.9754 215
47.99552 203
48.01563 196
48.03574 180
48.05586 213
48.07597 203
48.09609 211
48.1162 219
48.13631 202
48.15643 185
48.17654 196
48.19665 186
48.21677 224
48.23688 188
48.257 189
48.27711 197
48.29722 186
48.31734 181
48.33745 191
48.35756 219
48.37768 164
48.39779 187
48.4179 204
48.43802 206
48.45813 185
48.47825 215
48.49836 190
48.51847 184
48.53859 184
48.5587 198
48.57881 204
48.59893 203
48.61904 221
48.63916 221
48.65927 237
48.67938 217
48.6995 227
48.71961 237
48.73972 270
48.75984 238
48.77995 241
48.80006 257
48.82018 260
48.84029 278
48.86041 250
48.88052 271
48.90063 266
48.92075 267
48.94086 246
48.96097 250
48.98109 238
49.0012 222
49.02132 248
49.04143 231
49.06154 234
49.08166 225
49.10177 222
49.12188 228
49.142 216
49.16211 228
49.18223 213
49.20234 205
49.22245 224
49.24257 218
49.26268 204
49.28279 239
49.30291 198
49.32302 213
49.34313 220
49.36325 202
49.38336 190
49.40348 196
49.42359 221
49.4437 222
49.46382 200
49.48393 233
49.50404 227
49.52416 186
49.54427 204
49.56439 230
49.5845 216
49.60461 259
49.62473 242
49.64484 249
49.66495 285
49.68507 315
49.70518 295
49.7253 274
49.74541 345
49.76552 376
49.78564 391
49.80575 387
49.82586 405
49.84598 462
49.86609 518
49.8862 636
49.90632 667
49.92643 728
49.94655 988
49.96666 1172
49.98677 1434
50.00689 1604
50.027 1970
50.04711 2079
50.06723 2133
50.08734 1883
50.10746 1784
50.12757 1490
50.14768 1338
50.1678 1230
50.18791 1216
50.20802 1096
50.22814 936
50.24825 809
50.26837 644
50.28848 494
50.30859 463
50.32871 380
50.34882 421
50.36893 446
50.38905 437
50.40916 463
50.42927 488
50.44939 538
50.4695 546
50.48962 533
50.50973 505
50.52984 495
50.54996 480
50.57007 432
50.59018 394
50.6103 446
50.63041 435
50.65053 386
50.67064 388
50.69075 361
50.71087 332
50.73098 349
50.75109 309
50.77121 330
50.79132 297
50.81143 326
50.83155 292
50.85166 274
50.87178 252
50.89189 255
50.912 250
50.93212 249
50.95223 237
50.97234 257
50.99246 213
51.01257 253
51.03269 219
51.0528 221
51.07291 232
51.09303 217
51.11314 201
51.13325 222
51.15337 188
51.17348 205
51.1936 211
51.21371 204
51.23382 194
51.25394 178
51.27405 208
51.29416 169
51.31428 182
51.33439 188
51.3545 183
51.37462 217
51.39473 179
51.41485 158
51.43496 174
51.45507 195
51.47519 185
51.4953 202
51.51541 178
51.53553 180
51.55564 184
51.57576 170
51.59587 176
51.61598 176
51.6361 176
51.65621 148
51.67632 169
51.69644 172
51.71655 175
51.73667 173
51.75678 197
51.77689 173
51.79701 215
51.81712 177
51.83723 168
51.85735 180
51.87746 181
51.89757 155
51.91769 155
51.9378 179
51.95792 165
51.97803 165
51.99814 176
52.01826 180
52.03837 150
52.05848 191
52.0786 193
52.09871 164
52.11883 163
52.13894 185
52.15905 170
52.17917 192
52.19928 166
52.21939 174
52.23951 169
52.25962 191
52.27974 177
52.29985 179
52.31996 180
52.34008 194
52.36019 192
52.3803 176
52.40042 179
52.42053 201
52.44064 189
52.46076 180
52.48087 163
52.50099 167
52.5211 165
52.54121 176
52.56133 203
52.58144 189
52.60155 190
52.62167 197
52.64178 194
52.6619 178
52.68201 169
52.70212 171
52.72224 204
52.74235 181
52.76246 203
52.78258 195
52.80269 175
52.8228 207
52.84292 199
52.86303 176
52.88315 178
52.90326 188
52.92337 201
52.94349 203
52.9636 188
52.98371 194
53.00383 202
53.02394 180
53.04406 211
53.06417 199
53.08428 184
53.1044 186
53.12451 217
53.14462 215
53.16474 197
53.18485 190
53.20497 193
53.22508 205
53.24519 196
53.26531 169
53.28542 186
53.30553 195
53.32565 197
53.34576 218
53.36587 200
53.38599 217
53.4061 189
53.42622 221
53.44633 204
53.46644 202
53.48656 193
53.50667 179
53.52678 218
53.5469 244
53.56701 196
53.58713 208
53.60724 200
53.62735 221
53.64747 207
53.66758 202
53.68769 208
53.70781 203
53.72792 200
53.74804 200
53.76815 186
53.78826 185
53.80838 207
53.82849 227
53.8486 213
53.86872 228
53.88883 217
53.90894 212
53.92906 231
53.94917 215
53.96929 235
53.9894 229
54.00951 205
54.02963 221
54.04974 232
54.06985 217
54.08997 236
54.11008 211
54.1302 234
54.15031 238
54.17042 224
54.19054 233
54.21065 255
54.23076 239
54.25088 239
54.27099 226
54.29111 242
54.31122 239
54.33133 242
54.35145 226
54.37156 246
54.39167 256
54.41179 248
54.4319 252
54.45201 228
54.47213 255
54.49224 263
54.51236 270
54.53247 267
54.55258 258
54.5727 296
54.59281 308
54.61292 343
54.63304 317
54.65315 429
54.67327 428
54.69338 461
54.71349 565
54.73361 597
54.75372 645
54.77383 736
54.79395 706
54.81406 738
54.83417 640
54.85429 613
54.8744 551
54.89452 537
54.91463 515
54.93474 486
54.95486 491
54.97497 437
54.99508 413
55.0152 330
55.03531 343
55.05543 312
55.07554 314
55.09565 295
55.11577 336
55.13588 336
55.15599 363
55.17611 372
55.19622 463
55.21634 441
55.23645 472
55.25656 502
55.27668 415
55.29679 437
55.3169 370
55.33702 362
55.35713 379
55.37724 404
55.39736 344
55.41747 317
55.43759 303
55.4577 274
55.47781 283
55.49793 275
55.51804 251
55.53815 274
55.55827 255
55.57838 241
55.5985 243
55.61861 235
55.63872 217
55.65884 204
55.67895 240
55.69906 193
55.71918 217
55.73929 220
55.75941 228
55.77952 201
55.79963 213
55.81975 204
55.83986 221
55.85997 226
55.88009 208
55.9002 216
55.92031 200
55.94043 191
55.96054 204
55.98066 204
56.00077 194
56.02088 209
56.041 210
56.06111 174
56.08122 158
56.10134 223
56.12145 197
56.14157 175
56.16168 179
56.18179 178
56.20191 199
56.22202 184
56.24213 194
56.26225 216
56.28236 195
56.30248 218
56.32259 204
56.3427 189
56.36282 166
56.38293 172
56.40304 158
56.42316 189
56.44327 192
56.46338 188
56.4835 186
56.50361 195
56.52373 188
56.54384 226
56.56395 192
56.58407 214
56.60418 186
56.62429 203
56.64441 221
56.66452 237
56.68464 215
56.70475 219
56.72486 196
56.74498 232
56.76509 203
56.7852 195
56.80532 218
56.82543 156
56.84554 186
56.86566 181
56.88577 220
56.90589 171
56.926 203
56.94611 204
56.96623 196
56.98634 207
57.00645 201
57.02657 204
57.04668 193
57.0668 192
57.08691 211
57.10702 220
57.12714 208
57.14725 239
57.16736 203
57.18748 232
57.20759 224
57.22771 214
57.24782 218
57.26793 196
57.28805 217
57.30816 210
57.32827 195
57.34839 197
57.3685 196
57.38861 203
57.40873 190
57.42884 186
57.44896 168
57.46907 168
57.48918 185
57.5093 178
57.52941 187
57.54952 196
57.56964 187
57.58975 174
57.60987 169
57.62998 197
57.65009 176
57.67021 175
57.69032 182
57.71043 173
57.73055 173
57.75066 176
57.77078 178
57.79089 177
57.811 202
57.83112 161
57.85123 185
57.87134 172
57.89146 177
57.91157 193
57.93168 184
57.9518 191
57.97191 194
57.99203 176
58.01214 202
58.03225 195
58.05237 152
58.07248 174
58.09259 177
58.11271 154
58.13282 188
58.15294 203
58.17305 184
58.19316 194
58.21328 203
58.23339 186
58.2535 192
58.27362 169
58.29373 201
58.31385 187
58.33396 202
58.35407 187
58.37419 213
58.3943 183
58.41441 213
58.43453 206
58.45464 202
58.47475 198
58.49487 190
58.51498 195
58.5351 204
58.55521 212
58.57532 216
58.59544 210
58.61555 223
58.63566 209
58.65578 209
58.67589 208
58.69601 222
58.71612 171
58.73623 200
58.75635 177
58.77646 210
58.79657 180
58.81669 166
58.8368 188
58.85691 170
58.87703 186
58.89714 173
58.91726 200
58.93737 207
58.95748 160
58.9776 165
58.99771 176
59.01782 199
59.03794 183
59.05805 194
59.07817 178
59.09828 170
59.11839 194
59.13851 183
59.15862 155
59.17873 206
59.19885 193
59.21896 214
59.23908 193
59.25919 211
59.2793 193
59.29942 179
59.31953 183
59.33964 196
59.35976 242
59.37987 206
59.39998 219
59.4201 224
59.44021 249
59.46033 265
59.48044 241
59.50055 210
59.52067 258
59.54078 274
59.56089 268
59.58101 302
59.60112 349
59.62124 332
59.64135 353
59.66146 396
59.68158 411
59.70169 472
59.7218 547
59.74192 629
59.76203 737
59.78215 886
59.80226 1055
59.82237 1122
59.84249 1366
59.8626 1403
59.88271 1390
59.90283 1225
59.92294 1083
59.94305 1021
59.96317 891
59.98328 767
60.0034 825
60.02351 823
60.04362 812
60.06374 717
60.08385 584
60.10396 510
60.12408 381
60.14419 330
60.16431 307
60.18442 295
60.20453 270
60.22465 255
60.24476 223
60.26487 215
60.28499 231
60.3051 187
60.32522 231
60.34533 192
60.36544 211
60.38556 212
60.40567 185
60.42578 205
60.4459 202
60.46601 215
60.48612 212
60.50624 199
60.52635 207
60.54647 205
60.56658 201
60.58669 200
60.60681 197
60.62692 192
60.64703 212
60.66715 200
60.68726 208
60.70738 175
60.72749 190
60.7476 204
60.76772 205
60.78783 187
60.80794 200
60.82806 211
60.84817 215
60.86828 204
60.8884 203
60.90851 215
60.92863 198
60.94874 206
60.96885 217
60.98897 196
61.00908 199
61.02919 199
61.04931 206
61.06942 198
61.08954 205
61.10965 235
61.12976 216
61.14988 216
61.16999 217
61.1901 205
61.21022 237
61.23033 207
61.25045 210
61.27056 204
61.29067 207
61.31079 189
61.3309 194
61.35101 194
61.37113 201
61.39124 222
61.41135 189
61.43147 201
61.45158 201
61.4717 193
61.49181 195
61.51192 182
61.53204 194
61.55215 172
61.57226 189
61.59238 162
61.61249 207
61.63261 225
61.65272 177
61.67283 204
61.69295 202
61.71306 197
61.73317 191
61.75329 211
61.7734 185
61.79352 201
61.81363 198
61.83374 199
61.85386 233
61.87397 193
61.89408 202
61.9142 214
61.93431 224
61.95442 230
61.97454 227
61.99465 239
62.01477 242
62.03488 238
62.05499 243
62.07511 256
62.09522 253
62.11533 244
62.13545 237
62.15556 277
62.17568 274
62.19579 263
62.2159 279
62.23602 275
62.25613 245
62.27624 253
62.29636 260
62.31647 230
62.33659 284
62.3567 229
62.37681 262
62.39693 229
62.41704 225
62.43715 217
62.45727 259
62.47738 221
62.49749 230
62.51761 223
62.53772 226
62.55784 201
62.57795 253
62.59806 231
62.61818 204
62.63829 222
62.6584 221
62.67852 212
62.69863 235
62.71875 235
62.73886 190
62.75897 225
62.77909 218
62.7992 246
62.81931 205
62.83943 213
62.85954 218
62.87965 218
62.89977 203
62.91988 211
62.94 217
62.96011 227
62.98022 206
63.00034 236
63.02045 222
63.04056 229
63.06068 211
63.08079 197
63.10091 201
63.12102 226
63.14113 197
63.16125 214
63.18136 207
63.20147 216
63.22159 200
63.2417 199
63.26182 227
63.28193 205
63.30204 197
63.32216 173
63.34227 176
63.36238 215
63.3825 239
63.40261 215
63.42272 214
63.44284 221
63.46295 201
63.48307 186
63.50318 210
63.52329 233
63.54341 199
63.56352 189
63.58363 211
63.60375 219
63.62386 235
63.64398 227
63.66409 233
63.6842 240
63.70432 254
63.72443 267
63.74454 304
63.76466 295
63.78477 338
63.80489 299
63.825 315
63.84511 312
63.86523 338
63.88534 400
63.90545 408
63.92557 418
63.94568 439
63.96579 449
63.98591 432
64.00602 396
64.02614 379
64.04625 342
64.06636 327
64.08648 317
64.10659 313
64.1267 286
64.14682 303
64.16693 289
64.18705 287
64.20716 229
64.22727 223
64.24739 204
64.2675 190
64.28761 184
64.30773 174
64.32784 176
64.34796 184
64.36807 187
64.38818 180
64.4083 166
64.42841 175
64.44852 194
64.46864 168
64.48875 176
64.50886 178
64.52898 168
64.54909 201
64.56921 173
64.58932 180
64.60943 179
64.62955 166
64.64966 185
64.66977 174
64.68989 183
64.71 161
64.73012 190
64.75023 191
64.77034 156
64.79046 176
64.81057 187
64.83068 157
64.8508 202
64.87091 200
64.89102 199
64.91114 165
64.93125 208
64.95137 189
64.97148 164
64.99159 195
65.01171 192
65.03182 192
65.05193 200
65.07205 231
65.09216 204
65.11228 225
65.13239 187
65.1525 197
65.17262 194
65.19273 203
65.21284 189
65.23296 205
65.25307 185
65.27319 237
65.2933 221
65.31341 192
65.33353 192
65.35364 199
65.37375 183
65.39387 191
65.41398 191
65.43409 217
65.45421 180
65.47432 185
65.49444 205
65.51455 183
65.53466 208
65.55478 195
65.57489 225
65.595 200
65.61512 236
65.63523 200
65.65535 192
65.67546 240
65.69557 200
65.71569 217
65.7358 209
65.75591 198
65.77603 208
65.79614 206
65.81626 191
65.83637 176
65.85648 196
65.8766 196
65.89671 188
65.91682 185
65.93694 160
65.95705 165
65.97716 201
65.99728 189
66.01739 191
66.03751 189
66.05762 164
66.07773 184
66.09785 186
66.11796 194
66.13807 179
66.15819 208
66.1783 205
66.19842 200
66.21853 192
66.23864 219
66.25876 227
66.27887 209
66.29898 212
66.3191 206
66.33921 199
66.35933 202
66.37944 206
66.39955 190
66.41967 193
66.43978 196
66.45989 214
66.48001 163
66.50012 201
66.52023 167
66.54035 181
66.56046 227
66.58058 172
66.60069 170
66.6208 187
66.64092 170
66.66103 179
66.68114 184
66.70126 177
66.72137 169
66.74149 163
66.7616 162
66.78171 171
66.80183 169
66.82194 193
66.84205 177
66.86217 178
66.88228 198
66.90239 205
66.92251 178
66.94262 201
66.96274 167
66.98285 204
67.00296 190
67.02308 204
67.04319 192
67.0633 180
67.08342 193
67.10353 197
67.12365 218
67.14376 206
67.16387 197
67.18399 204
67.2041 204
67.22421 195
67.24433 221
67.26444 204
67.28456 239
67.30467 229
67.32478 270
67.3449 227
67.36501 266
67.38512 254
67.40524 277
67.42535 290
67.44546 311
67.46558 334
67.48569 378
67.50581 406
67.52592 464
67.54603 543
67.56615 621
67.58626 660
67.60637 767
67.62649 825
67.6466 875
67.66672 866
67.68683 790
67.70694 739
67.72706 659
67.74717 584
67.76728 572
67.7874 629
67.80751 610
67.82763 698
67.84774 662
67.86785 680
67.88797 674
67.90808 639
67.92819 649
67.94831 713
67.96842 777
67.98853 848
68.00865 937
68.02876 1018
68.04888 1095
68.06899 1139
68.0891 1099
68.10922 1010
68.12933 914
68.14944 961
68.16956 952
68.18967 956
68.20979 1070
68.2299 1071
68.25001 1069
68.27013 969
68.29024 830
68.31035 689
68.33047 571
68.35058 529
68.3707 513
68.39081 471
68.41092 527
68.43104 510
68.45115 440
68.47126 360
68.49138 329
68.51149 305
68.5316 281
68.55172 230
68.57183 244
68.59195 227
68.61206 225
68.63217 214
68.65229 215
68.6724 192
68.69251 226
68.71263 217
68.73274 191
68.75286 197
68.77297 199
68.79308 168
68.8132 208
68.83331 169
68.85342 199
68.87354 191
68.89365 159
68.91376 195
68.93388 180
68.95399 188
68.97411 173
68.99422 190
69.01433 168
69.03445 169
69.05456 180
69.07467 172
69.09479 158
69.1149 159
69.13502 161
69.15513 164
69.17524 168
69.19536 164
69.21547 171
69.23558 160
69.2557 147
69.27581 170
69.29593 170
69.31604 145
69.33615 154
69.35627 161
69.37638 192
69.39649 151
69.41661 173
69.43672 162
69.45683 151
69.47695 150
69.49706 151
69.51718 160
69.53729 145
69.5574 170
69.57752 162
69.59763 172
69.61774 150
69.63786 163
69.65797 164
69.67809 177
69.6982 172
69.71831 157
69.73843 175
69.75854 152
69.77865 158
69.79877 171
69.81888 172
69.839 172
69.85911 166
69.87922 143
69.89934 156
69.91945 176
69.93956 180
69.95968 159
69.97979 164
69.9999 181
70.02002 187
70.04013 163
70.06025 175
70.08036 154
70.10047 189
70.12059 136
70.1407 186
70.16081 184
70.18093 150
70.20104 166
70.22116 164
70.24127 166
70.26138 194
70.2815 161
70.30161 176
70.32172 159
70.34184 171
70.36195 163
70.38207 158
70.40218 179
70.42229 206
70.44241 157
70.46252 173
70.48263 179
70.50275 144
70.52286 170
70.54297 178
70.56309 150
70.5832 170
70.60332 163
70.62343 170
70.64354 180
70.66366 182
70.68377 167
70.70388 156
70.724 167
70.74411 157
70.76423 169
70.78434 182
70.80445 183
70.82457 154
70.84468 152
70.86479 171
70.88491 163
70.90502 163
70.92513 156
70.94525 160
70.96536 151
70.98548 130
71.00559 172
71.0257 157
71.04582 151
71.06593 178
71.08604 143
71.10616 147
71.12627 139
71.14639 152
71.1665 175
71.18661 164
71.20673 162
71.22684 147
71.24695 146
71.26707 162
71.28718 161
71.3073 178
71.32741 189
71.34752 158
71.36764 160
71.38775 174
71.40786 183
71.42798 161
71.44809 161
71.4682 175
71.48832 188
71.50843 184
71.52855 183
71.54866 190
71.56877 202
71.58889 181
71.609 174
71.62911 179
71.64923 161
71.66934 194
71.68946 187
71.70957 164
71.72968 171
71.7498 152
71.76991 173
71.79002 171
71.81014 136
71.83025 178
71.85037 159
71.87048 152
71.89059 167
71.91071 177
71.93082 162
71.95093 157
71.97105 176
71.99116 173
72.01127 185
72.03139 177
72.0515 206
72.07162 162
72.09173 188
72.11184 181
72.13196 209
72.15207 194
72.17218 174
72.1923 200
72.21241 190
72.23253 173
72.25264 184
72.27275 171
72.29287 161
72.31298 182
72.33309 179
72.35321 185
72.37332 186
72.39344 173
72.41355 165
72.43366 177
72.45378 176
72.47389 166
72.494 177
72.51412 183
72.53423 164
72.55434 146
72.57446 163
72.59457 172
72.61469 148
72.6348 159
72.65491 172
72.67503 163
72.69514 176
72.71525 153
72.73537 188
72.75548 177
72.7756 189
72.79571 185
72.81582 182
72.83594 197
72.85605 178
72.87616 159
72.89628 184
72.91639 187
72.9365 196
72.95662 201
72.97673 192
72.99685 216
73.01696 184
73.03707 203
73.05719 226
73.0773 225
73.09741 219
73.11753 241
73.13764 229
73.15776 214
73.17787 200
73.19798 226
73.2181 256
73.23821 252
73.25832 275
73.27844 322
73.29855 344
73.31867 355
73.33878 384
73.35889 397
73.37901 418
73.39912 398
73.41923 397
73.43935 350
73.45946 321
73.47957 275
73.49969 284
73.5198 290
73.53992 276
73.56003 288
73.58014 285
73.60026 279
73.62037 286
73.64048 259
73.6606 244
73.68071 225
73.70083 209
73.72094 193
73.74105 176
73.76117 182
73.78128 197
73.80139 184
73.82151 190
73.84162 177
73.86174 156
73.88185 184
73.90196 174
73.92208 164
73.94219 190
73.9623 167
73.98242 178
74.00253 171
74.02264 153
74.04276 170
74.06287 165
74.08299 181
74.1031 170
74.12321 199
74.14333 171
74.16344 177
74.18355 157
74.20367 166
74.22378 154
74.2439 154
74.26401 169
74.28412 167
74.30424 180
74.32435 167
74.34446 142
74.36458 176
74.38469 195
74.40481 170
74.42492 167
74.44503 183
74.46515 189
74.48526 150
74.50537 171
74.52549 157
74.5456 165
74.56571 170
74.58583 165
74.60594 147
74.62606 187
74.64617 196
74.66628 162
74.6864 175
74.70651 190
74.72662 170
74.74674 173
74.76685 199
74.78697 189
74.80708 178
74.82719 215
74.84731 182
74.86742 194
74.88753 183
74.90765 175
74.92776 198
74.94787 202
74.96799 171
74.9881 161
75.00822 195
