3.00117 21039
3.02128 20621
3.0414 20308
3.06151 19202
3.08162 18950
3.10174 18648
3.12185 17854
3.14197 17546
3.16208 16896
3.18219 16454
3.20231 16408
3.22242 15257
3.24253 15319
3.26265 14835
3.28276 14346
3.30288 14065
3.32299 13562
3.3431 13127
3.36322 12798
3.38333 12149
3.40344 11642
3.42356 11320
3.44367 11002
3.46379 10625
3.4839 10290
3.50401 10170
3.52413 9713
3.54424 9366
3.56435 8976
3.58447 8625
3.60458 8569
3.62469 8041
3.64481 7840
3.66492 7679
3.68504 7236
3.70515 7073
3.72526 6643
3.74538 6624
3.76549 6442
3.7856 6075
3.80572 5944
3.82583 5410
3.84595 5420
3.86606 5140
3.88617 4833
3.90629 4895
3.9264 4528
3.94651 4582
3.96663 4255
3.98674 4060
4.00686 4021
4.02697 3610
4.04708 3686
4.0672 3547
4.08731 3398
4.10742 3258
4.12754 3020
4.14765 2987
4.16776 3028
4.18788 2764
4.20799 2755
4.22811 2566
4.24822 2456
4.26833 2451
4.28845 2309
4.30856 2185
4.32867 2246
4.34879 2192
4.3689 2206
4.38902 2012
4.40913 1885
4.42924 1932
4.44936 1939
4.46947 1978
4.48958 1856
4.5097 1851
4.52981 1765
4.54992 1808
4.57004 1757
4.59015 1707
4.61027 1672
4.63038 1599
4.65049 1637
4.67061 1551
4.69072 1470
4.71083 1489
4.73095 1552
4.75106 1444
4.77118 1527
4.79129 1408
4.8114 1412
4.83152 1358
4.85163 1354
4.87174 1474
4.89186 1338
4.91197 1253
4.93209 1297
4.9522 1267
4.97231 1306
4.99243 1153
5.01254 1208
5.03265 1202
5.05277 1182
5.07288 1155
5.09299 1157
5.11311 1125
5.13322 1133
5.15334 1100
5.17345 1080
5.19356 1074
5.21368 1057
5.23379 1040
5.2539 1037
5.27402 1021
5.29413 1024
5.31425 950
5.33436 1020
5.35447 1011
5.37459 1003
5.3947 913
5.41481 861
5.43493 978
5.45504 921
5.47516 875
5.49527 812
5.51538 837
5.5355 818
5.55561 899
5.57572 846
5.59584 778
5.61595 789
5.63606 816
5.65618 886
5.67629 827
5.69641 789
5.71652 776
5.73663 758
5.75675 796
5.77686 742
5.79697 734
5.81709 722
5.8372 724
5.85732 776
5.87743 724
5.89754 722
5.91766 700
5.93777 703
5.95788 723
5.978 647
5.99811 672
6.01823 620
6.03834 682
6.05845 698
6.07857 655
6.09868 677
6.11879 646
6.13891 633
6.15902 636
6.17913 602
6.19925 667
6.21936 632
6.23948 646
6.25959 644
6.2797 667
6.29982 646
6.31993 627
6.34004 598
6.36016 646
6.38027 607
6.40039 638
6.4205 608
6.44061 595
6.46073 588
6.48084 601
6.50095 578
6.52107 539
6.54118 561
6.56129 536
6.58141 551
6.60152 565
6.62164 536
6.64175 511
6.66186 549
6.68198 552
6.70209 470
6.7222 532
6.74232 536
6.76243 495
6.78255 482
6.80266 511
6.82277 498
6.84289 520
6.863 467
6.88311 547
6.90323 482
6.92334 497
6.94346 518
6.96357 486
6.98368 493
7.0038 471
7.02391 494
7.04402 462
7.06414 484
7.08425 470
7.10436 473
7.12448 462
7.14459 464
7.16471 457
7.18482 448
7.20493 446
7.22505 480
7.24516 457
7.26527 482
7.28539 428
7.3055 494
7.32562 421
7.34573 427
7.36584 406
7.38596 400
7.40607 446
7.42618 419
7.4463 458
7.46641 435
7.48653 404
7.50664 424
7.52675 407
7.54687 451
7.56698 425
7.58709 411
7.60721 400
7.62732 428
7.64743 448
7.66755 409
7.68766 438
7.70778 396
7.72789 430
7.748 382
7.76812 392
7.78823 383
7.80834 405
7.82846 380
7.84857 423
7.86869 425
7.8888 373
7.90891 409
7.92903 414
7.94914 394
7.96925 433
7.98937 437
8.00948 426
8.0296 379
8.04971 428
8.06982 372
8.08994 352
8.11005 424
8.13016 360
8.15028 309
8.17039 360
8.1905 406
8.21062 369
8.23073 362
8.25085 366
8.27096 384
8.29107 404
8.31119 336
8.3313 370
8.35141 393
8.37153 378
8.39164 349
8.41176 363
8.43187 390
8.45198 338
8.4721 374
8.49221 378
8.51232 376
8.53244 354
8.55255 344
8.57266 394
8.59278 337
8.61289 350
8.63301 322
8.65312 311
8.67323 393
8.69335 365
8.71346 351
8.73357 330
8.75369 350
8.7738 389
8.79392 364
8.81403 363
8.83414 353
8.85426 322
8.87437 354
8.89448 342
8.9146 356
8.93471 331
8.95483 331
8.97494 361
8.99505 342
9.01517 342
9.03528 341
9.05539 349
9.07551 325
9.09562 349
9.11573 325
9.13585 306
9.15596 332
9.17608 326
9.19619 308
9.2163 317
9.23642 297
9.25653 317
9.27664 305
9.29676 330
9.31687 288
9.33699 330
9.3571 338
9.37721 282
9.39733 342
9.41744 327
9.43755 299
9.45767 302
9.47778 274
9.4979 282
9.51801 322
9.53812 324
9.55824 294
9.57835 317
9.59846 313
9.61858 309
9.63869 306
9.6588 291
9.67892 286
9.69903 286
9.71915 316
9.73926 284
9.75937 263
9.77949 320
9.7996 323
9.81971 273
9.83983 280
9.85994 301
9.88006 293
9.90017 269
9.92028 276
9.9404 272
9.96051 288
9.98062 286
10.00074 278
10.02085 247
10.04097 293
10.06108 274
10.08119 255
10.10131 280
10.12142 273
10.14153 260
10.16165 248
10.18176 273
10.20187 292
10.22199 270
10.2421 273
10.26222 270
10.28233 266
10.30244 275
10.32256 277
10.34267 260
10.36278 267
10.3829 281
10.40301 240
10.42313 254
10.44324 256
10.46335 292
10.48347 279
10.50358 300
10.52369 269
10.54381 243
10.56392 287
10.58403 282
10.60415 281
10.62426 263
10.64438 229
10.66449 271
10.6846 262
10.70472 271
10.72483 229
10.74494 257
10.76506 258
10.78517 284
10.80529 279
10.8254 264
10.84551 261
10.86563 270
10.88574 265
10.90585 289
10.92597 276
10.94608 264
10.9662 254
10.98631 251
11.00642 266
11.02654 246
11.04665 274
11.06676 246
11.08688 220
11.10699 251
11.1271 259
11.14722 240
11.16733 276
11.18745 268
11.20756 286
11.22767 246
11.24779 238
11.2679 291
11.28801 272
11.30813 226
11.32824 260
11.34836 238
11.36847 261
11.38858 266
11.4087 247
11.42881 241
11.44892 252
11.46904 274
11.48915 247
11.50927 251
11.52938 215
11.54949 218
11.56961 245
11.58972 275
11.60983 255
11.62995 251
11.65006 232
11.67017 231
11.69029 246
11.7104 230
11.73052 234
11.75063 228
11.77074 280
11.79086 281
11.81097 250
11.83108 253
11.8512 246
11.87131 225
11.89143 250
11.91154 293
11.93165 234
11.95177 257
11.97188 230
11.99199 280
12.01211 250
12.03222 256
12.05234 230
12.07245 271
12.09256 236
12.11268 252
12.13279 259
12.1529 290
12.17302 252
12.19313 235
12.21324 261
12.23336 244
12.25347 264
12.27359 256
12.2937 267
12.31381 241
12.33393 259
12.35404 228
12.37415 246
12.39427 261
12.41438 251
12.4345 231
12.45461 233
12.47472 245
12.49484 226
12.51495 262
12.53506 233
12.55518 253
12.57529 267
12.5954 234
12.61552 271
12.63563 220
12.65575 215
12.67586 256
12.69597 259
12.71609 235
12.7362 221
12.75631 224
12.77643 241
12.79654 257
12.81666 241
12.83677 227
12.85688 238
12.877 220
12.89711 223
12.91722 244
12.93734 228
12.95745 215
12.97757 235
12.99768 244
13.01779 225
13.03791 282
13.05802 231
13.07813 208
13.09825 246
13.11836 234
13.13847 258
13.15859 274
13.1787 205
13.19882 267
13.21893 220
13.23904 252
13.25916 236
13.27927 229
13.29938 240
13.3195 204
13.33961 256
13.35973 280
13.37984 255
13.39995 251
13.42007 231
13.44018 216
13.46029 230
13.48041 267
13.50052 246
13.52064 255
13.54075 253
13.56086 250
13.58098 227
13.60109 244
13.6212 255
13.64132 282
13.66143 242
13.68154 265
13.70166 258
13.72177 272
13.74189 241
13.762 285
13.78211 243
13.80223 258
13.82234 261
13.84245 245
13.86257 291
13.88268 255
13.9028 254
13.92291 236
13.94302 251
13.96314 260
13.98325 264
14.00336 254
14.02348 253
14.04359 298
14.06371 215
14.08382 224
14.10393 281
14.12405 228
14.14416 234
14.16427 236
14.18439 210
14.2045 259
14.22461 208
14.24473 286
14.26484 247
14.28496 238
14.30507 260
14.32518 221
14.3453 270
14.36541 227
14.38552 242
14.40564 238
14.42575 201
14.44587 238
14.46598 212
14.48609 214
14.50621 247
14.52632 224
14.54643 236
14.56655 239
14.58666 231
14.60677 220
14.62689 225
14.647 237
14.66712 245
14.68723 238
14.70734 247
14.72746 225
14.74757 232
14.76768 244
14.7878 237
14.80791 252
14.82803 218
14.84814 233
14.86825 221
14.88837 255
14.90848 243
14.92859 284
14.94871 228
14.96882 250
14.98894 240
15.00905 253
15.02916 255
15.04928 225
15.06939 230
15.0895 236
15.10962 251
15.12973 226
15.14984 234
15.16996 225
15.19007 236
15.21019 224
15.2303 251
15.25041 224
15.27053 232
15.29064 223
15.31075 205
15.33087 240
15.35098 233
15.3711 225
15.39121 241
15.41132 190
15.43144 269
15.45155 218
15.47166 210
15.49178 242
15.51189 221
15.53201 238
15.55212 238
15.57223 223
15.59235 250
15.61246 234
15.63257 245
15.65269 258
15.6728 232
15.69291 228
15.71303 241
15.73314 201
15.75326 224
15.77337 225
15.79348 221
15.8136 236
15.83371 248
15.85382 218
15.87394 222
15.89405 215
15.91417 221
15.93428 261
15.95439 252
15.97451 247
15.99462 232
16.01473 205
16.03485 244
16.05496 240
16.07508 208
16.09519 264
16.1153 222
16.13542 221
16.15553 232
16.17564 216
16.19576 207
16.21587 236
16.23598 234
16.2561 216
16.27621 231
16.29633 248
16.31644 242
16.33655 229
16.35667 239
16.37678 237
16.39689 226
16.41701 237
16.43712 226
16.45724 231
16.47735 217
16.49746 223
16.51758 265
16.53769 237
16.5578 240
16.57792 257
16.59803 218
16.61814 251
16.63826 226
16.65837 217
16.67849 227
16.6986 250
16.71871 264
16.73883 220
16.75894 245
16.77905 227
16.79917 242
16.81928 262
16.8394 282
16.85951 235
16.87962 235
16.89974 250
16.91985 241
16.93996 251
16.96008 269
16.98019 267
17.00031 237
17.02042 236
17.04053 265
17.06065 249
17.08076 260
17.10087 274
17.12099 285
17.1411 218
17.16121 239
17.18133 227
17.20144 255
17.22156 269
17.24167 238
17.26178 260
17.2819 224
17.30201 225
17.32212 229
17.34224 224
17.36235 283
17.38247 219
17.40258 236
17.42269 230
17.44281 262
17.46292 246
17.48303 236
17.50315 258
17.52326 241
17.54338 211
17.56349 238
17.5836 258
17.60372 296
17.62383 236
17.64394 275
17.66406 225
17.68417 260
17.70428 246
17.7244 239
17.74451 263
17.76463 233
17.78474 218
17.80485 241
17.82497 248
17.84508 255
17.86519 262
17.88531 253
17.90542 258
17.92554 244
17.94565 247
17.96576 271
17.98588 242
18.00599 256
18.0261 219
18.04622 250
18.06633 240
18.08645 235
18.10656 275
18.12667 235
18.14679 229
18.1669 232
18.18701 203
18.20713 238
18.22724 238
18.24735 239
18.26747 225
18.28758 267
18.3077 248
18.32781 238
18.34792 229
18.36804 212
18.38815 260
18.40826 231
18.42838 240
18.44849 216
18.46861 242
18.48872 250
18.50883 212
18.52895 260
18.54906 229
18.56917 273
18.58929 241
18.6094 277
18.62951 245
18.64963 274
18.66974 241
18.68986 235
18.70997 275
18.73008 242
18.7502 209
18.77031 210
18.79042 245
18.81054 268
18.83065 257
18.85077 242
18.87088 250
18.89099 278
18.91111 258
18.93122 265
18.95133 229
18.97145 261
18.99156 243
19.01168 250
19.03179 234
19.0519 250
19.07202 281
19.09213 261
19.11224 248
19.13236 254
19.15247 252
19.17258 239
19.1927 285
19.21281 273
19.23293 250
19.25304 285
19.27315 285
19.29327 290
19.31338 279
19.33349 303
19.35361 286
19.37372 319
19.39384 336
19.41395 326
19.43406 352
19.45418 335
19.47429 377
19.4944 394
19.51452 407
19.53463 405
19.55475 477
19.57486 508
19.59497 476
19.61509 517
19.6352 491
19.65531 540
19.67543 580
19.69554 597
19.71565 661
19.73577 592
19.75588 587
19.776 658
19.79611 666
19.81622 599
19.83634 610
19.85645 629
19.87656 607
19.89668 619
19.91679 583
19.93691 576
19.95702 586
19.97713 560
19.99725 569
20.01736 533
20.03747 555
20.05759 491
20.0777 553
20.09782 518
20.11793 490
20.13804 532
20.15816 486
20.17827 458
20.19838 480
20.2185 498
20.23861 472
20.25872 419
20.27884 468
20.29895 461
20.31907 466
20.33918 485
20.35929 520
20.37941 426
20.39952 474
20.41963 461
20.43975 482
20.45986 473
20.47998 509
20.50009 517
20.5202 530
20.54032 526
20.56043 540
20.58054 591
20.60066 587
20.62077 654
20.64088 755
20.661 874
20.68111 1136
20.70123 1381
20.72134 1835
20.74145 2366
20.76157 3292
20.78168 4034
20.80179 4919
20.82191 5692
20.84202 5721
20.86214 5394
20.88225 4473
20.90236 3270
20.92248 2300
20.94259 1472
20.9627 968
20.98282 767
21.00293 649
21.02305 550
21.04316 596
21.06327 506
21.08339 507
21.1035 465
21.12361 413
21.14373 387
21.16384 407
21.18395 392
21.20407 410
21.22418 403
21.2443 370
21.26441 390
21.28452 390
21.30464 337
21.32475 348
21.34486 350
21.36498 348
21.38509 316
21.40521 363
21.42532 384
21.44543 333
21.46555 347
21.48566 364
21.50577 329
21.52589 322
21.546 339
21.56612 347
21.58623 366
21.60634 352
21.62646 350
21.64657 330
21.66668 374
21.6868 371
21.70691 308
21.72702 319
21.74714 298
21.76725 331
21.78737 317
21.80748 351
21.82759 364
21.84771 341
21.86782 352
21.88793 377
21.90805 394
21.92816 463
21.94828 413
21.96839 445
21.9885 366
22.00862 379
22.02873 419
22.04884 358
22.06896 349
22.08907 334
22.10919 342
22.1293 314
22.14941 332
22.16953 319
22.18964 316
22.20975 337
22.22987 342
22.24998 343
22.27009 309
22.29021 330
22.31032 358
22.33044 304
22.35055 329
22.37066 294
22.39078 310
22.41089 288
22.431 327
22.45112 324
22.47123 331
22.49135 337
22.51146 308
22.53157 337
22.55169 316
22.5718 338
22.59191 330
22.61203 325
22.63214 307
22.65225 314
22.67237 335
22.69248 314
22.7126 302
22.73271 325
22.75282 304
22.77294 307
22.79305 336
22.81316 328
22.83328 303
22.85339 296
22.87351 325
22.89362 294
22.91373 364
22.93385 325
22.95396 345
22.97407 315
22.99419 351
23.0143 311
23.03442 307
23.05453 340
23.07464 336
23.09476 331
23.11487 316
23.13498 338
23.1551 320
23.17521 306
23.19532 314
23.21544 314
23.23555 326
23.25567 295
23.27578 324
23.29589 284
23.31601 332
23.33612 326
23.35623 313
23.37635 326
23.39646 319
23.41658 369
23.43669 353
23.4568 333
23.47692 340
23.49703 365
23.51714 355
23.53726 381
23.55737 396
23.57749 357
23.5976 394
23.61771 412
23.63783 383
23.65794 363
23.67805 336
23.69817 358
23.71828 286
23.73839 349
23.75851 307
23.77862 353
23.79874 364
23.81885 372
23.83896 398
23.85908 347
23.87919 436
23.8993 358
23.91942 384
23.93953 358
23.95965 423
23.97976 340
23.99987 371
24.01999 340
24.0401 352
24.06021 358
24.08033 360
24.10044 348
24.12056 334
24.14067 324
24.16078 326
24.1809 274
24.20101 337
24.22112 350
24.24124 389
24.26135 355
24.28146 328
24.30158 350
24.32169 340
24.34181 327
24.36192 345
24.38203 303
24.40215 338
24.42226 350
24.44237 331
24.46249 328
24.4826 338
24.50272 308
24.52283 333
24.54294 288
24.56306 301
24.58317 313
24.60328 342
24.6234 315
24.64351 326
24.66362 302
24.68374 311
24.70385 300
24.72397 350
24.74408 301
24.76419 258
24.78431 288
24.80442 293
24.82453 313
24.84465 314
24.86476 284
24.88488 292
24.90499 318
24.9251 294
24.94522 293
24.96533 292
24.98544 299
25.00556 289
25.02567 339
25.04579 336
25.0659 319
25.08601 312
25.10613 328
25.12624 317
25.14635 332
25.16647 376
25.18658 338
25.20669 346
25.22681 358
25.24692 322
25.26704 321
25.28715 356
25.30726 360
25.32738 296
25.34749 332
25.3676 350
25.38772 327
25.40783 332
25.42795 347
25.44806 340
25.46817 360
25.48829 336
25.5084 372
25.52851 391
25.54863 384
25.56874 411
25.58886 396
25.60897 460
25.62908 411
25.6492 453
25.66931 431
25.68942 416
25.70954 484
25.72965 464
25.74976 416
25.76988 488
25.78999 472
25.81011 518
25.83022 492
25.85033 465
25.87045 502
25.89056 501
25.91067 515
25.93079 513
25.9509 481
25.97102 535
25.99113 567
26.01124 504
26.03136 508
26.05147 552
26.07158 557
26.0917 603
26.11181 626
26.13193 686
26.15204 659
26.17215 744
26.19227 786
26.21238 822
26.23249 815
26.25261 992
26.27272 1012
26.29283 1102
26.31295 1160
26.33306 1359
26.35318 1549
26.37329 1786
26.3934 2165
26.41352 2563
26.43363 3358
26.45374 4444
26.47386 5976
26.49397 8138
26.51409 10711
26.5342 14310
26.55431 18405
26.57443 22060
26.59454 24922
26.61465 25599
26.63477 24260
26.65488 20778
26.67499 15644
26.69511 11734
26.71522 8388
26.73534 5286
26.75545 3149
26.77556 2079
26.79568 1635
26.81579 1386
26.8359 1220
26.85602 1093
26.87613 1142
26.89625 988
26.91636 945
26.93647 869
26.95659 816
26.9767 768
26.99681 717
27.01693 692
27.03704 667
27.05716 611
27.07727 604
27.09738 632
27.1175 548
27.13761 581
27.15772 525
27.17784 482
27.19795 479
27.21806 474
27.23818 509
27.25829 482
27.27841 539
27.29852 487
27.31863 523
27.33875 471
27.35886 495
27.37897 490
27.39909 493
27.4192 477
27.43932 513
27.45943 507
27.47954 575
27.49966 530
27.51977 509
27.53988 505
27.56 492
27.58011 468
27.60023 488
27.62034 499
27.64045 507
27.66057 484
27.68068 527
27.70079 590
27.72091 611
27.74102 653
27.76113 557
27.78125 594
27.80136 583
27.82148 593
27.84159 576
27.8617 554
27.88182 532
27.90193 545
27.92204 542
27.94216 548
27.96227 571
27.98239 526
28.0025 490
28.02261 466
28.04273 494
28.06284 427
28.08295 408
28.10307 407
28.12318 405
28.1433 377
28.16341 391
28.18352 391
28.20364 387
28.22375 400
28.24386 384
28.26398 404
28.28409 430
28.3042 377
28.32432 406
28.34443 393
28.36455 399
28.38466 368
28.40477 411
28.42489 357
28.445 345
28.46511 397
28.48523 387
28.50534 381
28.52546 356
28.54557 370
28.56568 343
28.5858 359
28.60591 385
28.62602 367
28.64614 331
28.66625 320
28.68636 321
28.70648 367
28.72659 371
28.74671 339
28.76682 355
28.78693 314
28.80705 363
28.82716 340
28.84727 366
28.86739 350
28.8875 361
28.90762 356
28.92773 341
28.94784 342
28.96796 326
28.98807 339
29.00818 332
29.0283 347
29.04841 313
29.06853 344
29.08864 322
29.10875 324
29.12887 324
29.14898 330
29.16909 340
29.18921 326
29.20932 345
29.22943 321
29.24955 323
29.26966 350
29.28978 322
29.30989 350
29.33 328
29.35012 331
29.37023 341
29.39034 362
29.41046 345
29.43057 365
29.45069 389
29.4708 404
29.49091 381
29.51103 360
29.53114 343
29.55125 357
29.57137 331
29.59148 358
29.6116 349
29.63171 316
29.65182 306
29.67194 322
29.69205 338
29.71216 357
29.73228 350
29.75239 342
29.7725 356
29.79262 377
29.81273 332
29.83285 346
29.85296 349
29.87307 342
29.89319 354
29.9133 329
29.93341 348
29.95353 352
29.97364 327
29.99376 347
30.01387 266
30.03398 306
30.0541 326
30.07421 338
30.09432 342
30.11444 317
30.13455 324
30.15467 339
30.17478 293
30.19489 304
30.21501 286
30.23512 344
30.25523 347
30.27535 342
30.29546 325
30.31557 350
30.33569 374
30.3558 358
30.37592 372
30.39603 326
30.41614 326
30.43626 346
30.45637 325
30.47648 305
30.4966 330
30.51671 318
30.53683 317
30.55694 318
30.57705 333
30.59717 284
30.61728 329
30.63739 302
30.65751 306
30.67762 311
30.69773 360
30.71785 318
30.73796 341
30.75808 336
30.77819 327
30.7983 341
30.81842 299
30.83853 322
30.85864 342
30.87876 308
30.89887 272
30.91899 275
30.9391 306
30.95921 300
30.97933 289
30.99944 300
31.01955 294
31.03967 293
31.05978 279
31.0799 266
31.10001 288
31.12012 293
31.14024 287
31.16035 324
31.18046 290
31.20058 267
31.22069 304
31.2408 266
31.26092 287
31.28103 272
31.30115 280
31.32126 275
31.34137 273
31.36149 304
31.3816 249
31.40171 297
31.42183 298
31.44194 312
31.46206 256
31.48217 285
31.50228 264
31.5224 278
31.54251 257
31.56262 258
31.58274 268
31.60285 283
31.62297 265
31.64308 237
31.66319 274
31.68331 295
31.70342 297
31.72353 261
31.74365 267
31.76376 263
31.78387 254
31.80399 276
31.8241 266
31.84422 279
31.86433 267
31.88444 269
31.90456 256
31.92467 270
31.94478 268
31.9649 265
31.98501 262
32.00513 287
32.02524 284
32.04535 250
32.06547 260
32.08558 260
32.10569 250
32.12581 248
32.14592 267
32.16604 243
32.18615 281
32.20626 276
32.22638 237
32.24649 246
32.2666 252
32.28672 262
32.30683 276
32.32694 252
32.34706 268
32.36717 257
32.38729 279
32.4074 309
32.42751 252
32.44763 283
32.46774 283
32.48785 261
32.50797 249
32.52808 257
32.5482 273
32.56831 234
32.58842 251
32.60854 261
32.62865 251
32.64876 245
32.66888 268
32.68899 245
32.7091 256
32.72922 280
32.74933 260
32.76945 251
32.78956 219
32.80967 249
32.82979 250
32.8499 276
32.87001 245
32.89013 239
32.91024 263
32.93036 240
32.95047 238
32.97058 238
32.9907 225
33.01081 256
33.03092 262
33.05104 285
33.07115 249
33.09127 257
33.11138 248
33.13149 246
33.15161 231
33.17172 249
33.19183 252
33.21195 235
33.23206 206
33.25217 240
33.27229 215
33.2924 240
33.31252 253
33.33263 215
33.35274 266
33.37286 249
33.39297 242
33.41308 250
33.4332 243
33.45331 263
33.47343 251
33.49354 235
33.51365 272
33.53377 242
33.55388 261
33.57399 273
33.59411 236
33.61422 232
33.63434 254
33.65445 218
33.67456 264
33.69468 268
33.71479 251
33.7349 230
33.75502 273
33.77513 267
33.79524 248
33.81536 243
33.83547 267
33.85559 262
33.8757 276
33.89581 241
33.91593 242
33.93604 260
33.95615 227
33.97627 256
33.99638 235
34.0165 256
34.03661 284
34.05672 266
34.07684 287
34.09695 264
34.11706 282
34.13718 270
34.15729 277
34.17741 266
34.19752 279
34.21763 244
34.23775 270
34.25786 313
34.27797 313
34.29809 331
34.3182 304
34.33831 344
34.35843 350
34.37854 375
34.39866 374
34.41877 383
34.43888 364
34.459 402
34.47911 387
34.49922 408
34.51934 428
34.53945 387
34.55957 454
34.57968 442
34.59979 432
34.61991 446
34.64002 465
34.66013 444
34.68025 463
34.70036 447
34.72047 426
34.74059 495
34.7607 444
34.78082 427
34.80093 485
34.82104 438
34.84116 457
34.86127 441
34.88138 451
34.9015 462
34.92161 429
34.94173 379
34.96184 403
34.98195 401
35.00207 385
35.02218 397
35.04229 411
35.06241 382
35.08252 388
35.10264 387
35.12275 381
35.14286 382
35.16298 386
35.18309 368
35.2032 381
35.22332 422
35.24343 344
35.26354 402
35.28366 367
35.30377 402
35.32389 418
35.344 361
35.36411 383
35.38423 377
35.40434 421
35.42445 381
35.44457 337
35.46468 342
35.4848 386
35.50491 363
35.52502 363
35.54514 362
35.56525 331
35.58536 321
35.60548 370
35.62559 358
35.64571 342
35.66582 318
35.68593 329
35.70605 309
35.72616 280
35.74627 288
35.76639 311
35.7865 317
35.80661 313
35.82673 279
35.84684 297
35.86696 281
35.88707 294
35.90718 302
35.9273 312
35.94741 291
35.96752 353
35.98764 351
36.00775 317
36.02787 335
36.04798 376
36.06809 342
36.08821 343
36.10832 363
36.12843 344
36.14855 366
36.16866 369
36.18878 366
36.20889 401
36.229 388
36.24912 427
36.26923 426
36.28934 527
36.30946 527
36.32957 595
36.34968 658
36.3698 815
36.38991 899
36.41003 1116
36.43014 1355
36.45025 1582
36.47037 1740
36.49048 1807
36.51059 1995
36.53071 1793
36.55082 1561
36.57094 1292
36.59105 1167
36.61116 1022
36.63128 913
36.65139 733
36.6715 548
36.69162 484
36.71173 414
36.73184 386
36.75196 363
36.77207 356
36.79219 338
36.8123 355
36.83241 326
36.85253 380
36.87264 338
36.89275 330
36.91287 334
36.93298 312
36.9531 321
36.97321 308
36.99332 315
37.01344 327
37.03355 346
37.05366 324
37.07378 312
37.09389 303
37.11401 268
37.13412 346
37.15423 283
37.17435 312
37.19446 277
37.21457 305
37.23469 302
37.2548 255
37.27491 293
37.29503 314
37.31514 313
37.33526 277
37.35537 296
37.37548 282
37.3956 307
37.41571 318
37.43582 301
37.45594 322
37.47605 287
37.49617 331
37.51628 307
37.53639 306
37.55651 298
37.57662 312
37.59673 296
37.61685 318
37.63696 289
37.65708 294
37.67719 284
37.6973 273
37.71742 290
37.73753 302
37.75764 307
37.77776 299
37.79787 293
37.81798 287
37.8381 296
37.85821 304
37.87833 314
37.89844 280
37.91855 274
37.93867 320
37.95878 281
37.97889 298
37.99901 281
38.01912 284
38.03924 306
38.05935 274
38.07946 266
38.09958 299
38.11969 269
38.1398 259
38.15992 261
38.18003 305
38.20015 248
38.22026 293
38.24037 280
38.26049 272
38.2806 270
38.30071 266
38.32083 286
38.34094 280
38.36105 254
38.38117 259
38.40128 237
38.4214 253
38.44151 271
38.46162 258
38.48174 253
38.50185 278
38.52196 282
38.54208 285
38.56219 273
38.58231 260
38.60242 262
38.62253 229
38.64265 267
38.66276 261
38.68287 261
38.70299 307
38.7231 226
38.74321 294
38.76333 268
38.78344 252
38.80356 285
38.82367 268
38.84378 234
38.8639 226
38.88401 263
38.90412 258
38.92424 274
38.94435 256
38.96447 290
38.98458 284
39.00469 289
39.02481 313
39.04492 286
39.06503 303
39.08515 287
39.10526 326
39.12538 310
39.14549 330
39.1656 346
39.18572 372
39.20583 403
39.22594 454
39.24606 497
39.26617 583
39.28628 664
39.3064 794
39.32651 981
39.34663 1030
39.36674 1254
39.38685 1516
39.40697 1707
39.42708 1848
39.44719 1668
39.46731 1440
39.48742 1370
39.50754 1107
39.52765 1005
39.54776 891
39.56788 715
39.58799 609
39.6081 485
39.62822 384
39.64833 371
39.66845 328
39.68856 315
39.70867 333
39.72879 345
39.7489 323
39.76901 325
39.78913 317
39.80924 308
39.82935 304
39.84947 301
39.86958 312
39.8897 295
39.90981 316
39.92992 338
39.95004 315
39.97015 325
39.99026 307
40.01038 343
40.03049 343
40.05061 359
40.07072 410
40.09083 426
40.11095 459
40.13106 539
40.15117 628
40.17129 696
40.1914 769
40.21152 827
40.23163 950
40.25174 960
40.27186 926
40.29197 868
40.31208 718
40.3322 692
40.35231 618
40.37242 537
40.39254 492
40.41265 408
40.43277 324
40.45288 322
40.47299 294
40.49311 270
40.51322 287
40.53333 248
40.55345 301
40.57356 266
40.59368 264
40.61379 257
40.6339 248
40.65402 266
40.67413 269
40.69424 260
40.71436 246
40.73447 258
40.75458 285
40.7747 247
40.79481 264
40.81493 280
40.83504 276
40.85515 266
40.87527 228
40.89538 261
40.91549 307
40.93561 233
40.95572 293
40.97584 294
40.99595 258
41.01606 282
41.03618 244
41.05629 292
41.0764 251
41.09652 230
41.11663 261
41.13675 242
41.15686 257
41.17697 263
41.19709 280
41.2172 229
41.23731 244
41.25743 287
41.27754 271
41.29765 282
41.31777 244
41.33788 260
41.358 268
41.37811 266
41.39822 239
41.41834 273
41.43845 247
41.45856 253
41.47868 237
41.49879 260
41.51891 239
41.53902 272
41.55913 246
41.57925 255
41.59936 255
41.61947 271
41.63959 249
41.6597 288
41.67982 280
41.69993 267
41.72004 289
41.74016 288
41.76027 274
41.78038 275
41.8005 270
41.82061 270
41.84072 293
41.86084 280
41.88095 295
41.90107 259
41.92118 281
41.94129 259
41.96141 273
41.98152 292
42.00163 267
42.02175 264
42.04186 281
42.06198 305
42.08209 282
42.1022 283
42.12232 315
42.14243 312
42.16254 302
42.18266 345
42.20277 374
42.22289 467
42.243 483
42.26311 527
42.28323 587
42.30334 705
42.32345 903
42.34357 1022
42.36368 1075
42.38379 1311
42.40391 1248
42.42402 1196
42.44414 1169
42.46425 1037
42.48436 830
42.50448 775
42.52459 771
42.5447 626
42.56482 545
42.58493 465
42.60505 375
42.62516 339
42.64527 304
42.66539 291
42.6855 272
42.70561 300
42.72573 312
42.74584 268
42.76595 312
42.78607 279
42.80618 269
42.8263 261
42.84641 276
42.86652 254
42.88664 270
42.90675 287
42.92686 265
42.94698 291
42.96709 271
42.98721 227
43.00732 273
43.02743 251
43.04755 252
43.06766 253
43.08777 249
43.10789 235
43.128 239
43.14812 280
43.16823 229
43.18834 248
43.20846 227
43.22857 245
43.24868 236
43.2688 260
43.28891 234
43.30902 236
43.32914 215
43.34925 209
43.36937 237
43.38948 215
43.40959 239
43.42971 266
43.44982 202
43.46993 220
43.49005 249
43.51016 227
43.53028 239
43.55039 205
43.5705 254
43.59062 247
43.61073 235
43.63084 224
43.65096 233
43.67107 226
43.69119 219
43.7113 221
43.73141 211
43.75153 234
43.77164 217
43.79175 229
43.81187 211
43.83198 239
43.85209 217
43.87221 209
43.89232 230
43.91244 230
43.93255 229
43.95266 213
43.97278 230
43.99289 223
44.013 236
44.03312 247
44.05323 220
44.07335 206
44.09346 214
44.11357 230
44.13369 234
44.1538 226
44.17391 202
44.19403 229
44.21414 238
44.23426 253
44.25437 216
44.27448 218
44.2946 239
44.31471 234
44.33482 214
44.35494 231
44.37505 213
44.39516 205
44.41528 246
44.43539 210
44.45551 214
44.47562 202
44.49573 245
44.51585 195
44.53596 237
44.55607 212
44.57619 224
44.5963 225
44.61642 213
44.63653 218
44.65664 213
44.67676 209
44.69687 229
44.71698 237
44.7371 230
44.75721 220
44.77732 213
44.79744 238
44.81755 225
44.83767 244
44.85778 260
44.87789 220
44.89801 246
44.91812 232
44.93823 244
44.95835 231
44.97846 211
44.99858 253
45.01869 241
45.0388 242
45.05892 234
45.07903 233
45.09914 237
45.11926 250
45.13937 219
45.15949 219
45.1796 263
45.19971 241
45.21983 245
45.23994 200
45.26005 239
45.28017 229
45.30028 260
45.32039 247
45.34051 259
45.36062 230
45.38074 241
45.40085 240
45.42096 264
45.44108 260
45.46119 269
45.4813 270
45.50142 272
45.52153 285
45.54165 333
45.56176 323
45.58187 321
45.60199 437
45.6221 475
45.64221 572
45.66233 610
45.68244 679
45.70256 826
45.72267 799
45.74278 834
45.7629 893
45.78301 764
45.80312 760
45.82324 682
45.84335 551
45.86346 530
45.88358 472
45.90369 449
45.92381 387
45.94392 323
45.96403 292
45.98415 237
46.00426 261
46.02437 226
46.04449 232
46.0646 257
46.08472 251
46.10483 222
46.12494 219
46.14506 214
46.16517 218
46.18528 231
46.2054 232
46.22551 193
46.24563 203
46.26574 194
46.28585 223
46.30597 214
46.32608 209
46.34619 208
46.36631 201
46.38642 215
46.40653 208
46.42665 192
46.44676 228
46.46688 224
46.48699 196
46.5071 188
46.52722 201
46.54733 193
46.56744 217
46.58756 193
46.60767 203
46.62779 185
46.6479 186
46.66801 186
46.68813 213
46.70824 218
46.72835 210
46.74847 220
46.76858 202
46.78869 208
46.80881 192
46.82892 224
46.84904 194
46.86915 223
46.88926 200
46.90938 218
46.92949 222
46.9496 228
46.96972 189
46.98983 204
47.00995 207
47.03006 192
47.05017 216
47.07029 207
47.0904 208
47.11051 192
47.13063 197
47.15074 218
47.17086 205
47.19097 203
47.21108 227
47.2312 212
47.25131 220
47.27142 194
47.29154 199
47.31165 200
47.33176 190
47.35188 221
47.37199 189
47.39211 241
47.41222 177
47.43233 186
47.45245 218
47.47256 200
47.49267 226
47.51279 224
47.5329 196
47.55302 219
47.57313 221
47.59324 207
47.61336 227
47.63347 226
47.65358 198
47.6737 177
47.69381 184
47.71393 194
47.73404 215
47.75415 208
47.77427 185
47.79438 218
47.81449 199
47.83461 211
47.85472 184
47.87483 187
47.89495 202
47.91506 179
47.93518 187
47.95529 201
47.9754 209
47.99552 202
48.01563 194
48.03574 215
48.05586 196
48.07597 184
48.09609 191
48.1162 211
48.13631 205
48.15643 227
48.17654 205
48.19665 204
48.21677 182
48.23688 211
48.257 240
48.27711 224
48.29722 221
48.31734 217
48.33745 201
48.35756 234
48.37768 198
48.39779 204
48.4179 230
48.43802 211
48.45813 212
48.47825 199
48.49836 212
48.51847 210
48.53859 226
48.5587 221
48.57881 229
48.59893 222
48.61904 211
48.63916 198
48.65927 207
48.67938 236
48.6995 222
48.71961 218
48.73972 221
48.75984 233
48.77995 203
48.80006 214
48.82018 216
48.84029 204
48.86041 217
48.88052 227
48.90063 204
48.92075 191
48.94086 238
48.96097 212
48.98109 208
49.0012 228
49.02132 216
49.04143 243
49.06154 215
49.08166 217
49.10177 221
49.12188 216
49.142 215
49.16211 202
49.18223 207
49.20234 204
49.22245 199
49.24257 214
49.26268 218
49.28279 216
49.30291 196
49.32302 215
49.34313 227
49.36325 197
49.38336 266
49.40348 229
49.42359 232
49.4437 215
49.46382 235
49.48393 257
49.50404 249
49.52416 234
49.54427 235
49.56439 235
49.5845 258
49.60461 255
49.62473 269
49.64484 257
49.66495 284
49.68507 297
49.70518 314
49.7253 331
49.74541 312
49.76552 356
49.78564 361
49.80575 391
49.82586 424
49.84598 548
49.86609 559
49.8862 607
49.90632 747
49.92643 831
49.94655 982
49.96666 1208
49.98677 1390
50.00689 1687
50.027 2008
50.04711 2254
50.06723 2452
50.08734 2526
50.10746 2484
50.12757 2313
50.14768 1895
50.1678 1589
50.18791 1497
50.20802 1351
50.22814 1397
50.24825 1179
50.26837 998
50.28848 720
50.30859 542
50.32871 441
50.34882 335
50.36893 324
50.38905 270
50.40916 302
50.42927 295
50.44939 294
50.4695 295
50.48962 312
50.50973 282
50.52984 290
50.54996 290
50.57007 315
50.59018 282
50.6103 282
50.63041 262
50.65053 247
50.67064 251
50.69075 283
50.71087 240
50.73098 255
50.75109 232
50.77121 262
50.79132 226
50.81143 216
50.83155 220
50.85166 210
50.87178 212
50.89189 205
50.912 203
50.93212 226
50.95223 192
50.97234 211
50.99246 215
51.01257 203
51.03269 181
51.0528 187
51.07291 214
51.09303 197
51.11314 222
51.13325 211
51.15337 215
51.17348 189
51.1936 187
51.21371 192
51.23382 184
51.25394 213
51.27405 211
51.29416 227
51.31428 189
51.33439 198
51.3545 212
51.37462 180
51.39473 208
51.41485 211
51.43496 225
51.45507 227
51.47519 196
51.4953 197
51.51541 175
51.53553 164
51.55564 190
51.57576 185
51.59587 170
51.61598 170
51.6361 184
51.65621 202
51.67632 167
51.69644 188
51.71655 193
51.73667 197
51.75678 170
51.77689 206
51.79701 200
51.81712 175
51.83723 205
51.85735 204
51.87746 202
51.89757 198
51.91769 201
51.9378 198
51.95792 208
51.97803 159
51.99814 179
52.01826 185
52.03837 208
52.05848 179
52.0786 191
52.09871 177
52.11883 180
52.13894 181
52.15905 174
52.17917 194
52.19928 212
52.21939 176
52.23951 226
52.25962 195
52.27974 216
52.29985 208
52.31996 191
52.34008 195
52.36019 196
52.3803 204
52.40042 190
52.42053 215
52.44064 175
52.46076 195
52.48087 194
52.50099 219
52.5211 195
52.54121 190
52.56133 190
52.58144 196
52.60155 217
52.62167 214
52.64178 224
52.6619 209
52.68201 216
52.70212 210
52.72224 207
52.74235 204
52.76246 204
52.78258 174
52.80269 192
52.8228 209
52.84292 210
52.86303 194
52.88315 183
52.90326 218
52.92337 195
52.94349 225
52.9636 228
52.98371 216
53.00383 237
53.02394 196
53.04406 208
53.06417 195
53.08428 231
53.1044 207
53.12451 196
53.14462 207
53.16474 201
53.18485 193
53.20497 225
53.22508 195
53.24519 216
53.26531 219
53.28542 236
53.30553 182
53.32565 225
53.34576 252
53.36587 224
53.38599 237
53.4061 240
53.42622 250
53.44633 223
53.46644 221
53.48656 215
53.50667 259
53.52678 248
53.5469 232
53.56701 236
53.58713 220
53.60724 216
53.62735 238
53.64747 220
53.66758 217
53.68769 252
53.70781 248
53.72792 208
53.74804 241
53.76815 241
53.78826 256
53.80838 248
53.82849 240
53.8486 249
53.86872 229
53.88883 237
53.90894 223
53.92906 254
53.94917 235
53.96929 246
53.9894 248
54.00951 245
54.02963 237
54.04974 238
54.06985 231
54.08997 244
54.11008 219
54.1302 225
54.15031 230
54.17042 214
54.19054 268
54.21065 243
54.23076 223
54.25088 216
54.27099 234
54.29111 250
54.31122 257
54.33133 240
54.35145 222
54.37156 236
54.39167 232
54.41179 254
54.4319 247
54.45201 266
54.47213 289
54.49224 243
54.51236 279
54.53247 306
54.55258 265
54.5727 302
54.59281 318
54.61292 372
54.63304 385
54.65315 393
54.67327 433
54.69338 520
54.71349 568
54.73361 640
54.75372 698
54.77383 806
54.79395 867
54.81406 907
54.83417 828
54.85429 840
54.8744 812
54.89452 735
54.91463 580
54.93474 628
54.95486 582
54.97497 567
54.99508 577
55.0152 468
55.03531 402
55.05543 374
55.07554 363
55.09565 323
55.11577 362
55.13588 344
55.15599 399
55.17611 397
55.19622 432
55.21634 504
55.23645 495
55.25656 500
55.27668 501
55.29679 501
55.3169 468
55.33702 414
55.35713 381
55.37724 353
55.39736 365
55.41747 352
55.43759 367
55.4577 324
55.47781 288
55.49793 273
55.51804 270
55.53815 226
55.55827 224
55.57838 240
55.5985 224
55.61861 212
55.63872 211
55.65884 259
55.67895 199
55.69906 231
55.71918 218
55.73929 212
55.75941 236
55.77952 237
55.79963 228
55.81975 215
55.83986 214
55.85997 233
55.88009 215
55.9002 209
55.92031 211
55.94043 216
55.96054 210
55.98066 211
56.00077 218
56.02088 225
56.041 217
56.06111 210
56.08122 182
56.10134 212
56.12145 194
56.14157 217
56.16168 218
56.18179 230
56.20191 203
56.22202 210
56.24213 213
56.26225 218
56.28236 204
56.30248 222
56.32259 211
56.3427 209
56.36282 225
56.38293 199
56.40304 216
56.42316 221
56.44327 189
56.46338 207
56.4835 210
56.50361 217
56.52373 228
56.54384 247
56.56395 177
56.58407 243
56.60418 196
56.62429 179
56.64441 200
56.66452 201
56.68464 211
56.70475 195
56.72486 209
56.74498 248
56.76509 183
56.7852 228
56.80532 204
56.82543 221
56.84554 194
56.86566 199
56.88577 195
56.90589 212
56.926 213
56.94611 229
56.96623 214
56.98634 218
57.00645 196
57.02657 228
57.04668 233
57.0668 243
57.08691 250
57.10702 268
57.12714 208
57.14725 245
57.16736 261
57.18748 253
57.20759 238
57.22771 238
57.24782 243
57.26793 246
57.28805 213
57.30816 208
57.32827 245
57.34839 209
57.3685 207
57.38861 218
57.40873 203
57.42884 205
57.44896 226
57.46907 188
57.48918 205
57.5093 202
57.52941 220
57.54952 204
57.56964 176
57.58975 187
57.60987 167
57.62998 218
57.65009 200
57.67021 206
57.69032 216
57.71043 202
57.73055 201
57.75066 214
57.77078 205
57.79089 247
57.811 209
57.83112 198
57.85123 178
57.87134 173
57.89146 198
57.91157 189
57.93168 203
57.9518 206
57.97191 203
57.99203 206
58.01214 212
58.03225 205
58.05237 198
58.07248 181
58.09259 212
58.11271 195
58.13282 208
58.15294 195
58.17305 206
58.19316 219
58.21328 214
58.23339 199
58.2535 182
58.27362 187
58.29373 210
58.31385 195
58.33396 188
58.35407 194
58.37419 209
58.3943 216
58.41441 200
58.43453 198
58.45464 177
58.47475 220
58.49487 205
58.51498 193
58.5351 194
58.55521 213
58.57532 193
58.59544 198
58.61555 217
58.63566 207
58.65578 185
58.67589 218
58.69601 191
58.71612 189
58.73623 198
58.75635 189
58.77646 176
58.79657 203
58.81669 184
58.8368 200
58.85691 198
58.87703 207
58.89714 203
58.91726 200
58.93737 203
58.95748 188
58.9776 180
58.99771 220
59.01782 208
59.03794 196
59.05805 213
59.07817 202
59.09828 193
59.11839 191
59.13851 187
59.15862 200
59.17873 218
59.19885 202
59.21896 198
59.23908 209
59.25919 198
59.2793 233
59.29942 242
59.31953 233
59.33964 222
59.35976 237
59.37987 219
59.39998 232
59.4201 234
59.44021 238
59.46033 253
59.48044 272
59.50055 285
59.52067 288
59.54078 311
59.56089 299
59.58101 312
59.60112 345
59.62124 363
59.64135 404
59.66146 451
59.68158 492
59.70169 523
59.7218 577
59.74192 653
59.76203 740
59.78215 889
59.80226 1053
59.82237 1232
59.84249 1321
59.8626 1508
59.88271 1547
59.90283 1619
59.92294 1611
59.94305 1413
59.96317 1245
59.98328 1086
60.0034 921
60.02351 951
60.04362 902
60.06374 873
60.08385 825
60.10396 724
60.12408 560
60.14419 481
60.16431 383
60.18442 317
60.20453 289
60.22465 279
60.24476 249
60.26487 205
60.28499 249
60.3051 231
60.32522 216
60.34533 217
60.36544 245
60.38556 208
60.40567 229
60.42578 208
60.4459 228
60.46601 210
60.48612 220
60.50624 207
60.52635 193
60.54647 216
60.56658 201
60.58669 221
60.60681 216
60.62692 209
60.64703 219
60.66715 217
60.68726 224
60.70738 189
60.72749 212
60.7476 206
60.76772 217
60.78783 218
60.80794 198
60.82806 232
60.84817 210
60.86828 196
60.8884 211
60.90851 182
60.92863 217
60.94874 209
60.96885 225
60.98897 191
61.00908 217
61.02919 200
61.04931 218
61.06942 221
61.08954 211
61.10965 201
61.12976 216
61.14988 206
61.16999 248
61.1901 223
61.21022 248
61.23033 232
61.25045 249
61.27056 251
61.29067 236
61.31079 226
61.3309 236
61.35101 255
61.37113 248
61.39124 275
61.41135 259
61.43147 253
61.45158 273
61.4717 278
61.49181 271
61.51192 288
61.53204 273
61.55215 274
61.57226 287
61.59238 284
61.61249 286
61.63261 288
61.65272 290
61.67283 242
61.69295 265
61.71306 295
61.73317 269
61.75329 278
61.7734 272
61.79352 251
61.81363 285
61.83374 267
61.85386 260
61.87397 270
61.89408 275
61.9142 280
61.93431 253
61.95442 231
61.97454 264
61.99465 245
62.01477 274
62.03488 233
62.05499 265
62.07511 265
62.09522 226
62.11533 249
62.13545 221
62.15556 257
62.17568 223
62.19579 213
62.2159 235
62.23602 224
62.25613 223
62.27624 217
62.29636 227
62.31647 229
62.33659 226
62.3567 222
62.37681 217
62.39693 210
62.41704 225
62.43715 203
62.45727 206
62.47738 229
62.49749 186
62.51761 198
62.53772 199
62.55784 186
62.57795 213
62.59806 189
62.61818 195
62.63829 208
62.6584 211
62.67852 193
62.69863 190
62.71875 210
62.73886 206
62.75897 193
62.77909 181
62.7992 209
62.81931 175
62.83943 197
62.85954 181
62.87965 187
62.89977 195
62.91988 177
62.94 180
62.96011 228
62.98022 180
63.00034 226
63.02045 177
63.04056 176
63.06068 188
63.08079 184
63.10091 173
63.12102 171
63.14113 195
63.16125 183
63.18136 192
63.20147 181
63.22159 199
63.2417 169
63.26182 160
63.28193 196
63.30204 196
63.32216 211
63.34227 204
63.36238 194
63.3825 195
63.40261 185
63.42272 178
63.44284 189
63.46295 183
63.48307 207
63.50318 175
63.52329 185
63.54341 190
63.56352 209
63.58363 217
63.60375 195
63.62386 195
63.64398 205
63.66409 195
63.6842 228
63.70432 229
63.72443 232
63.74454 230
63.76466 243
63.78477 238
63.80489 235
63.825 264
63.84511 295
63.86523 345
63.88534 342
63.90545 331
63.92557 386
63.94568 459
63.96579 439
63.98591 375
64.00602 384
64.02614 431
64.04625 347
64.06636 296
64.08648 284
64.10659 288
64.1267 315
64.14682 330
64.16693 334
64.18705 278
64.20716 246
64.22727 232
64.24739 231
64.2675 199
64.28761 192
64.30773 202
64.32784 181
64.34796 200
64.36807 193
64.38818 195
64.4083 190
64.42841 167
64.44852 182
64.46864 170
64.48875 183
64.50886 169
64.52898 179
64.54909 158
64.56921 173
64.58932 161
64.60943 193
64.62955 192
64.64966 158
64.66977 191
64.68989 192
64.71 167
64.73012 185
64.75023 183
64.77034 180
64.79046 167
64.81057 184
64.83068 178
64.8508 160
64.87091 186
64.89102 173
64.91114 196
64.93125 173
64.95137 177
64.97148 187
64.99159 169
65.01171 177
65.03182 181
65.05193 161
65.07205 181
65.09216 170
65.11228 188
65.13239 179
65.1525 200
65.17262 180
65.19273 176
65.21284 170
65.23296 163
65.25307 169
65.27319 188
65.2933 177
65.31341 159
65.33353 201
65.35364 193
65.37375 193
65.39387 189
65.41398 179
65.43409 174
65.45421 183
65.47432 171
65.49444 198
65.51455 205
65.53466 219
65.55478 205
65.57489 214
65.595 196
65.61512 240
65.63523 226
65.65535 236
65.67546 237
65.69557 224
65.71569 228
65.7358 235
65.75591 252
65.77603 222
65.79614 224
65.81626 221
65.83637 206
65.85648 209
65.8766 219
65.89671 236
65.91682 240
65.93694 222
65.95705 204
65.97716 178
65.99728 201
66.01739 182
66.03751 171
66.05762 170
66.07773 175
66.09785 161
66.11796 176
66.13807 179
66.15819 191
66.1783 166
66.19842 184
66.21853 184
66.23864 163
66.25876 187
66.27887 161
66.29898 176
66.3191 167
66.33921 184
66.35933 180
66.37944 168
66.39955 178
66.41967 188
66.43978 173
66.45989 175
66.48001 192
66.50012 200
66.52023 184
66.54035 184
66.56046 193
66.58058 204
66.60069 192
66.6208 193
66.64092 193
66.66103 215
66.68114 192
66.70126 157
66.72137 198
66.74149 171
66.7616 213
66.78171 210
66.80183 205
66.82194 179
66.84205 190
66.86217 180
66.88228 171
66.90239 181
66.92251 172
66.94262 188
66.96274 188
66.98285 167
67.00296 187
67.02308 193
67.04319 203
67.0633 195
67.08342 208
67.10353 191
67.12365 190
67.14376 180
67.16387 190
67.18399 235
67.2041 224
67.22421 215
67.24433 209
67.26444 241
67.28456 217
67.30467 243
67.32478 237
67.3449 268
67.36501 270
67.38512 279
67.40524 327
67.42535 336
67.44546 340
67.46558 348
67.48569 411
67.50581 458
67.52592 467
67.54603 566
67.56615 590
67.58626 701
67.60637 818
67.62649 929
67.6466 940
67.66672 971
67.68683 1034
67.70694 1028
67.72706 934
67.74717 821
67.76728 724
67.7874 718
67.80751 711
67.82763 718
67.84774 766
67.86785 855
67.88797 776
67.90808 850
67.92819 842
67.94831 862
67.96842 906
67.98853 944
68.00865 1062
68.02876 1146
68.04888 1219
68.06899 1357
68.0891 1376
68.10922 1329
68.12933 1259
68.14944 1215
68.16956 1198
68.18967 1135
68.20979 1178
68.2299 1218
68.25001 1197
68.27013 1148
68.29024 1129
68.31035 1026
68.33047 866
68.35058 721
68.3707 642
68.39081 596
68.41092 562
68.43104 515
68.45115 518
68.47126 481
68.49138 394
68.51149 351
68.5316 295
68.55172 275
68.57183 255
68.59195 224
68.61206 219
68.63217 218
68.65229 219
68.6724 211
68.69251 218
68.71263 219
68.73274 199
68.75286 207
68.77297 164
68.79308 192
68.8132 202
68.83331 216
68.85342 194
68.87354 200
68.89365 170
68.91376 208
68.93388 184
68.95399 200
68.97411 178
68.99422 203
69.01433 194
69.03445 180
69.05456 180
69.07467 195
69.09479 179
69.1149 198
69.13502 215
69.15513 217
69.17524 207
69.19536 176
69.21547 191
69.23558 199
69.2557 183
69.27581 201
69.29593 194
69.31604 175
69.33615 171
69.35627 177
69.37638 201
69.39649 166
69.41661 194
69.43672 166
69.45683 160
69.47695 166
69.49706 174
69.51718 200
69.53729 176
69.5574 154
69.57752 172
69.59763 195
69.61774 192
69.63786 181
69.65797 188
69.67809 181
69.6982 168
69.71831 176
69.73843 174
69.75854 180
69.77865 192
69.79877 181
69.81888 185
69.839 202
69.85911 189
69.87922 176
69.89934 158
69.91945 159
69.93956 174
69.95968 180
69.97979 189
69.9999 173
70.02002 171
70.04013 181
70.06025 169
70.08036 166
70.10047 188
70.12059 184
70.1407 170
70.16081 142
70.18093 175
70.20104 170
70.22116 171
70.24127 157
70.26138 154
70.2815 191
70.30161 177
70.32172 186
70.34184 157
70.36195 175
70.38207 168
70.40218 174
70.42229 148
70.44241 163
70.46252 170
70.48263 165
70.50275 152
70.52286 152
70.54297 157
70.56309 180
70.5832 159
70.60332 180
70.62343 151
70.64354 150
70.66366 172
70.68377 156
70.70388 187
70.724 181
70.74411 155
70.76423 166
70.78434 161
70.80445 132
70.82457 179
70.84468 161
70.86479 168
70.88491 176
70.90502 171
70.92513 189
70.94525 168
70.96536 175
70.98548 175
71.00559 169
71.0257 154
71.04582 193
71.06593 166
71.08604 183
71.10616 178
71.12627 159
71.14639 143
71.1665 176
71.18661 175
71.20673 184
71.22684 178
71.24695 165
71.26707 161
71.28718 153
71.3073 163
71.32741 159
71.34752 151
71.36764 167
71.38775 148
71.40786 165
71.42798 177
71.44809 166
71.4682 180
71.48832 178
71.50843 197
71.52855 169
71.54866 169
71.56877 188
71.58889 168
71.609 191
71.62911 156
71.64923 171
71.66934 178
71.68946 174
71.70957 179
71.72968 172
71.7498 173
71.76991 161
71.79002 164
71.81014 169
71.83025 165
71.85037 173
71.87048 170
71.89059 170
71.91071 163
71.93082 177
71.95093 174
71.97105 175
71.99116 170
72.01127 155
72.03139 156
72.0515 180
72.07162 171
72.09173 176
72.11184 191
72.13196 161
72.15207 178
72.17218 185
72.1923 159
72.21241 157
72.23253 192
72.25264 175
72.27275 167
72.29287 186
72.31298 187
72.33309 180
72.35321 201
72.37332 187
72.39344 161
72.41355 207
72.43366 173
72.45378 190
72.47389 209
72.494 172
72.51412 195
72.53423 212
72.55434 189
72.57446 186
72.59457 210
72.61469 174
72.6348 188
72.65491 195
72.67503 208
72.69514 202
72.71525 170
72.73537 189
72.75548 199
72.7756 195
72.79571 180
72.81582 222
72.83594 217
72.85605 201
72.87616 202
72.89628 206
72.91639 200
72.9365 217
72.95662 193
72.97673 198
72.99685 205
73.01696 184
73.03707 205
73.05719 215
73.0773 205
73.09741 242
73.11753 245
73.13764 255
73.15776 235
73.17787 228
73.19798 250
73.2181 260
73.23821 292
73.25832 321
73.27844 312
73.29855 345
73.31867 407
73.33878 396
73.35889 387
73.37901 421
73.39912 443
73.41923 447
73.43935 437
73.45946 404
73.47957 363
73.49969 313
73.5198 326
73.53992 307
73.56003 318
73.58014 325
73.60026 325
73.62037 348
73.64048 342
73.6606 306
73.68071 284
73.70083 233
73.72094 184
73.74105 205
73.76117 177
73.78128 203
73.80139 203
73.82151 192
73.84162 181
73.86174 187
73.88185 201
73.90196 173
73.92208 183
73.94219 172
73.9623 168
73.98242 200
74.00253 165
74.02264 154
74.04276 160
74.06287 186
74.08299 172
74.1031 196
74.12321 194
74.14333 164
74.16344 178
74.18355 157
74.20367 169
74.22378 164
74.2439 172
74.26401 178
74.28412 164
74.30424 190
74.32435 160
74.34446 188
74.36458 167
74.38469 179
74.40481 177
74.42492 169
74.44503 161
74.46515 162
74.48526 174
74.50537 146
74.52549 159
74.5456 159
74.56571 193
74.58583 174
74.60594 201
74.62606 170
74.64617 179
74.66628 158
74.6864 184
74.70651 160
74.72662 163
74.74674 164
74.76685 184
74.78697 157
74.80708 168
74.82719 200
74.84731 170
74.86742 182
74.88753 186
74.90765 173
74.92776 174
74.94787 153
74.96799 182
74.9881 191
75.00822 190
