3.00117 20167
3.02128 19335
3.0414 18972
3.06151 18689
3.08162 18116
3.10174 17307
3.12185 16841
3.14197 16346
3.16208 15513
3.18219 15675
3.20231 14810
3.22242 14547
3.24253 14157
3.26265 13517
3.28276 13446
3.30288 12739
3.32299 12479
3.3431 11912
3.36322 11742
3.38333 11374
3.40344 10784
3.42356 10583
3.44367 10186
3.46379 9797
3.4839 9650
3.50401 8998
3.52413 8791
3.54424 8313
3.56435 8193
3.58447 7967
3.60458 7525
3.62469 7472
3.64481 7042
3.66492 6757
3.68504 6638
3.70515 6127
3.72526 5946
3.74538 5632
3.76549 5457
3.7856 5306
3.80572 5051
3.82583 4992
3.84595 4652
3.86606 4470
3.88617 4251
3.90629 3931
3.9264 3959
3.94651 3518
3.96663 3572
3.98674 3485
4.00686 3301
4.02697 3106
4.04708 2932
4.0672 2791
4.08731 2756
4.10742 2565
4.12754 2462
4.14765 2345
4.16776 2139
4.18788 2161
4.20799 2162
4.22811 1992
4.24822 1915
4.26833 1835
4.28845 1835
4.30856 1819
4.32867 1523
4.34879 1550
4.3689 1602
4.38902 1586
4.40913 1596
4.42924 1397
4.44936 1462
4.46947 1355
4.48958 1347
4.5097 1389
4.52981 1184
4.54992 1219
4.57004 1197
4.59015 1206
4.61027 1105
4.63038 1096
4.65049 1054
4.67061 1013
4.69072 1077
4.71083 1005
4.73095 943
4.75106 952
4.77118 911
4.79129 936
4.8114 967
4.83152 873
4.85163 819
4.87174 772
4.89186 772
4.91197 851
4.93209 734
4.9522 743
4.97231 764
4.99243 712
5.01254 684
5.03265 618
5.05277 674
5.07288 661
5.09299 586
5.11311 587
5.13322 559
5.15334 604
5.17345 544
5.19356 577
5.21368 570
5.23379 484
5.2539 498
5.27402 491
5.29413 462
5.31425 510
5.33436 428
5.35447 430
5.37459 419
5.3947 409
5.41481 423
5.43493 375
5.45504 386
5.47516 381
5.49527 363
5.51538 418
5.5355 337
5.55561 369
5.57572 357
5.59584 330
5.61595 325
5.63606 333
5.65618 267
5.67629 311
5.69641 271
5.71652 330
5.73663 326
5.75675 271
5.77686 294
5.79697 269
5.81709 278
5.8372 287
5.85732 245
5.87743 264
5.89754 261
5.91766 235
5.93777 243
5.95788 256
5.978 260
5.99811 262
6.01823 248
6.03834 228
6.05845 210
6.07857 200
6.09868 210
6.11879 241
6.13891 204
6.15902 230
6.17913 231
6.19925 223
6.21936 238
6.23948 250
6.25959 180
6.2797 206
6.29982 170
6.31993 221
6.34004 241
6.36016 228
6.38027 185
6.40039 199
6.4205 195
6.44061 192
6.46073 163
6.48084 190
6.50095 171
6.52107 184
6.54118 194
6.56129 170
6.58141 226
6.60152 211
6.62164 197
6.64175 211
6.66186 178
6.68198 193
6.70209 183
6.7222 197
6.74232 178
6.76243 187
6.78255 207
6.80266 204
6.82277 180
6.84289 170
6.863 191
6.88311 180
6.90323 184
6.92334 183
6.94346 189
6.96357 206
6.98368 170
7.0038 170
7.02391 183
7.04402 174
7.06414 187
7.08425 189
7.10436 190
7.12448 193
7.14459 184
7.16471 197
7.18482 196
7.20493 187
7.22505 180
7.24516 213
7.26527 193
7.28539 206
7.3055 182
7.32562 188
7.34573 206
7.36584 168
7.38596 214
7.40607 195
7.42618 194
7.4463 166
7.46641 201
7.48653 183
7.50664 193
7.52675 192
7.54687 177
7.56698 200
7.58709 203
7.60721 193
7.62732 188
7.64743 174
7.66755 183
7.68766 205
7.70778 179
7.72789 184
7.748 226
7.76812 213
7.78823 219
7.80834 204
7.82846 217
7.84857 206
7.86869 197
7.8888 191
7.90891 210
7.92903 222
7.94914 212
7.96925 183
7.98937 191
8.00948 220
8.0296 201
8.04971 195
8.06982 208
8.08994 183
8.11005 182
8.13016 195
8.15028 216
8.17039 212
8.1905 222
8.21062 220
8.23073 230
8.25085 216
8.27096 212
8.29107 227
8.31119 223
8.3313 191
8.35141 182
8.37153 235
8.39164 196
8.41176 196
8.43187 223
8.45198 211
8.4721 201
8.49221 204
8.51232 189
8.53244 206
8.55255 197
8.57266 203
8.59278 215
8.61289 232
8.63301 225
8.65312 229
8.67323 230
8.69335 222
8.71346 228
8.73357 223
8.75369 204
8.7738 229
8.79392 230
8.81403 226
8.83414 217
8.85426 234
8.87437 226
8.89448 231
8.9146 203
8.93471 232
8.95483 218
8.97494 211
8.99505 208
9.01517 217
9.03528 214
9.05539 222
9.07551 215
9.09562 226
9.11573 227
9.13585 209
9.15596 222
9.17608 250
9.19619 209
9.2163 243
9.23642 226
9.25653 221
9.27664 200
9.29676 251
9.31687 222
9.33699 204
9.3571 213
9.37721 225
9.39733 209
9.41744 238
9.43755 226
9.45767 217
9.47778 228
9.4979 226
9.51801 244
9.53812 245
9.55824 216
9.57835 203
9.59846 261
9.61858 201
9.63869 206
9.6588 246
9.67892 206
9.69903 212
9.71915 225
9.73926 221
9.75937 225
9.77949 203
9.7996 237
9.81971 216
9.83983 232
9.85994 252
9.88006 261
9.90017 202
9.92028 228
9.9404 217
9.96051 195
9.98062 218
10.00074 220
10.02085 202
10.04097 222
10.06108 221
10.08119 239
10.10131 220
10.12142 217
10.14153 228
10.16165 226
10.18176 196
10.20187 231
10.22199 256
10.2421 242
10.26222 229
10.28233 230
10.30244 230
10.32256 260
10.34267 215
10.36278 226
10.3829 224
10.40301 206
10.42313 230
10.44324 254
10.46335 234
10.48347 235
10.50358 223
10.52369 207
10.54381 217
10.56392 202
10.58403 229
10.60415 218
10.62426 235
10.64438 229
10.66449 230
10.6846 238
10.70472 206
10.72483 212
10.74494 221
10.76506 223
10.78517 224
10.80529 200
10.8254 252
10.84551 243
10.86563 240
10.88574 226
10.90585 245
10.92597 227
10.94608 209
10.9662 268
10.98631 191
11.00642 211
11.02654 249
11.04665 188
11.06676 221
11.08688 210
11.10699 231
11.1271 212
11.14722 242
11.16733 201
11.18745 198
11.20756 221
11.22767 243
11.24779 230
11.2679 220
11.28801 215
11.30813 246
11.32824 214
11.34836 218
11.36847 232
11.38858 258
11.4087 210
11.42881 202
11.44892 201
11.46904 229
11.48915 213
11.50927 222
11.52938 218
11.54949 195
11.56961 233
11.58972 245
11.60983 216
11.62995 233
11.65006 237
11.67017 205
11.69029 209
11.7104 217
11.73052 258
11.75063 233
11.77074 213
11.79086 238
11.81097 258
11.83108 234
11.8512 230
11.87131 222
11.89143 267
11.91154 239
11.93165 236
11.95177 234
11.97188 245
11.99199 246
12.01211 228
12.03222 219
12.05234 242
12.07245 244
12.09256 267
12.11268 271
12.13279 289
12.1529 283
12.17302 233
12.19313 275
12.21324 268
12.23336 286
12.25347 291
12.27359 282
12.2937 274
12.31381 261
12.33393 236
12.35404 268
12.37415 300
12.39427 268
12.41438 283
12.4345 269
12.45461 235
12.47472 238
12.49484 237
12.51495 216
12.53506 242
12.55518 235
12.57529 235
12.5954 231
12.61552 233
12.63563 246
12.65575 229
12.67586 246
12.69597 186
12.71609 252
12.7362 202
12.75631 238
12.77643 189
12.79654 237
12.81666 192
12.83677 211
12.85688 207
12.877 216
12.89711 201
12.91722 199
12.93734 234
12.95745 203
12.97757 208
12.99768 221
13.01779 216
13.03791 216
13.05802 214
13.07813 210
13.09825 211
13.11836 212
13.13847 218
13.15859 207
13.1787 201
13.19882 198
13.21893 171
13.23904 218
13.25916 203
13.27927 212
13.29938 180
13.3195 204
13.33961 189
13.35973 191
13.37984 202
13.39995 221
13.42007 210
13.44018 187
13.46029 235
13.48041 179
13.50052 203
13.52064 227
13.54075 203
13.56086 199
13.58098 213
13.60109 189
13.6212 206
13.64132 210
13.66143 223
13.68154 192
13.70166 196
13.72177 183
13.74189 206
13.762 201
13.78211 182
13.80223 204
13.82234 213
13.84245 230
13.86257 205
13.88268 200
13.9028 193
13.92291 197
13.94302 198
13.96314 183
13.98325 208
14.00336 204
14.02348 192
14.04359 206
14.06371 237
14.08382 212
14.10393 186
14.12405 206
14.14416 195
14.16427 199
14.18439 197
14.2045 187
14.22461 185
14.24473 191
14.26484 181
14.28496 185
14.30507 181
14.32518 198
14.3453 199
14.36541 192
14.38552 188
14.40564 233
14.42575 210
14.44587 179
14.46598 176
14.48609 189
14.50621 208
14.52632 186
14.54643 189
14.56655 198
14.58666 200
14.60677 194
14.62689 181
14.647 182
14.66712 201
14.68723 175
14.70734 197
14.72746 196
14.74757 170
14.76768 201
14.7878 195
14.80791 196
14.82803 220
14.84814 200
14.86825 174
14.88837 201
14.90848 205
14.92859 186
14.94871 201
14.96882 185
14.98894 206
15.00905 186
15.02916 189
15.04928 172
15.06939 172
15.0895 185
15.10962 171
15.12973 172
15.14984 204
15.16996 176
15.19007 152
15.21019 177
15.2303 157
15.25041 174
15.27053 168
15.29064 198
15.31075 157
15.33087 199
15.35098 187
15.3711 184
15.39121 175
15.41132 184
15.43144 153
15.45155 202
15.47166 173
15.49178 182
15.51189 198
15.53201 162
15.55212 186
15.57223 174
15.59235 173
15.61246 167
15.63257 191
15.65269 189
15.6728 177
15.69291 180
15.71303 197
15.73314 188
15.75326 192
15.77337 169
15.79348 188
15.8136 160
15.83371 205
15.85382 188
15.87394 184
15.89405 172
15.91417 193
15.93428 205
15.95439 173
15.97451 185
15.99462 167
16.01473 184
16.03485 211
16.05496 161
16.07508 173
16.09519 169
16.1153 193
16.13542 178
16.15553 192
16.17564 185
16.19576 187
16.21587 166
16.23598 179
16.2561 179
16.27621 192
16.29633 182
16.31644 186
16.33655 167
16.35667 178
16.37678 185
16.39689 166
16.41701 169
16.43712 191
16.45724 164
16.47735 157
16.49746 186
16.51758 182
16.53769 158
16.5578 168
16.57792 185
16.59803 193
16.61814 166
16.63826 168
16.65837 150
16.67849 173
16.6986 186
16.71871 166
16.73883 191
16.75894 157
16.77905 172
16.79917 174
16.81928 177
16.8394 160
16.85951 207
16.87962 170
16.89974 180
16.91985 195
16.93996 171
16.96008 172
16.98019 177
17.00031 176
17.02042 160
17.04053 172
17.06065 163
17.08076 196
17.10087 180
17.12099 155
17.1411 162
17.16121 173
17.18133 155
17.20144 181
17.22156 190
17.24167 174
17.26178 173
17.2819 145
17.30201 176
17.32212 180
17.34224 152
17.36235 165
17.38247 176
17.40258 175
17.42269 156
17.44281 149
17.46292 171
17.48303 180
17.50315 176
17.52326 191
17.54338 173
17.56349 174
17.5836 155
17.60372 178
17.62383 167
17.64394 201
17.66406 183
17.68417 172
17.70428 175
17.7244 165
17.74451 186
17.76463 186
17.78474 153
17.80485 166
17.82497 171
17.84508 178
17.86519 172
17.88531 156
17.90542 197
17.92554 170
17.94565 165
17.96576 179
17.98588 172
18.00599 184
18.0261 182
18.04622 176
18.06633 163
18.08645 155
18.10656 171
18.12667 178
18.14679 178
18.1669 178
18.18701 170
18.20713 179
18.22724 164
18.24735 184
18.26747 165
18.28758 150
18.3077 178
18.32781 167
18.34792 178
18.36804 165
18.38815 160
18.40826 167
18.42838 150
18.44849 154
18.46861 148
18.48872 193
18.50883 173
18.52895 180
18.54906 171
18.56917 157
18.58929 169
18.6094 166
18.62951 190
18.64963 174
18.66974 169
18.68986 197
18.70997 189
18.73008 173
18.7502 171
18.77031 178
18.79042 181
18.81054 194
18.83065 183
18.85077 217
18.87088 168
18.89099 172
18.91111 172
18.93122 183
18.95133 181
18.97145 171
18.99156 178
19.01168 173
19.03179 193
19.0519 162
19.07202 190
19.09213 169
19.11224 152
19.13236 162
19.15247 178
19.17258 134
19.1927 187
19.21281 187
19.23293 170
19.25304 161
19.27315 167
19.29327 199
19.31338 209
19.33349 172
19.35361 185
19.37372 196
19.39384 176
19.41395 167
19.43406 191
19.45418 221
19.47429 192
19.4944 204
19.51452 196
19.53463 168
19.55475 212
19.57486 201
19.59497 210
19.61509 213
19.6352 192
19.65531 210
19.67543 217
19.69554 231
19.71565 228
19.73577 233
19.75588 209
19.776 238
19.79611 269
19.81622 273
19.83634 259
19.85645 274
19.87656 264
19.89668 254
19.91679 282
19.93691 241
19.95702 271
19.97713 270
19.99725 283
20.01736 239
20.03747 278
20.05759 290
20.0777 270
20.09782 282
20.11793 300
20.13804 268
20.15816 303
20.17827 282
20.19838 270
20.2185 287
20.23861 328
20.25872 300
20.27884 330
20.29895 345
20.31907 319
20.33918 350
20.35929 360
20.37941 425
20.39952 359
20.41963 389
20.43975 432
20.45986 419
20.47998 473
20.50009 432
20.5202 507
20.54032 513
20.56043 555
20.58054 594
20.60066 722
20.62077 866
20.64088 1064
20.661 1413
20.68111 1805
20.70123 2510
20.72134 3396
20.74145 4478
20.76157 5500
20.78168 6594
20.80179 7209
20.82191 7030
20.84202 6664
20.86214 5608
20.88225 4210
20.90236 2900
20.92248 2022
20.94259 1372
20.9627 964
20.98282 750
21.00293 667
21.02305 571
21.04316 563
21.06327 491
21.08339 461
21.1035 439
21.12361 444
21.14373 375
21.16384 327
21.18395 323
21.20407 311
21.22418 331
21.2443 311
21.26441 335
21.28452 309
21.30464 298
21.32475 304
21.34486 269
21.36498 296
21.38509 302
21.40521 276
21.42532 282
21.44543 264
21.46555 266
21.48566 272
21.50577 233
21.52589 247
21.546 232
21.56612 269
21.58623 231
21.60634 212
21.62646 231
21.64657 258
21.66668 215
21.6868 234
21.70691 219
21.72702 253
21.74714 219
21.76725 232
21.78737 249
21.80748 242
21.82759 244
21.84771 233
21.86782 217
21.88793 245
21.90805 250
21.92816 222
21.94828 229
21.96839 246
21.9885 248
22.00862 243
22.02873 264
22.04884 237
22.06896 227
22.08907 261
22.10919 200
22.1293 247
22.14941 253
22.16953 243
22.18964 239
22.20975 236
22.22987 238
22.24998 215
22.27009 213
22.29021 254
22.31032 208
22.33044 226
22.35055 214
22.37066 216
22.39078 227
22.41089 244
22.431 237
22.45112 221
22.47123 198
22.49135 225
22.51146 207
22.53157 233
22.55169 236
22.5718 231
22.59191 219
22.61203 220
22.63214 207
22.65225 226
22.67237 231
22.69248 231
22.7126 220
22.73271 180
22.75282 175
22.77294 218
22.79305 227
22.81316 187
22.83328 202
22.85339 223
22.87351 212
22.89362 223
22.91373 219
22.93385 204
22.95396 224
22.97407 215
22.99419 228
23.0143 268
23.03442 203
23.05453 238
23.07464 262
23.09476 256
23.11487 207
23.13498 254
23.1551 256
23.17521 268
23.19532 232
23.21544 251
23.23555 224
23.25567 253
23.27578 232
23.29589 205
23.31601 235
23.33612 221
23.35623 207
23.37635 197
23.39646 207
23.41658 226
23.43669 228
23.4568 233
23.47692 222
23.49703 211
23.51714 213
23.53726 243
23.55737 204
23.57749 236
23.5976 207
23.61771 211
23.63783 235
23.65794 211
23.67805 212
23.69817 212
23.71828 203
23.73839 250
23.75851 202
23.77862 236
23.79874 244
23.81885 261
23.83896 245
23.85908 266
23.87919 307
23.8993 304
23.91942 298
23.93953 345
23.95965 314
23.97976 339
23.99987 291
24.01999 268
24.0401 271
24.06021 262
24.08033 211
24.10044 229
24.12056 215
24.14067 227
24.16078 217
24.1809 214
24.20101 213
24.22112 225
24.24124 244
24.26135 227
24.28146 253
24.30158 230
24.32169 240
24.34181 232
24.36192 263
24.38203 215
24.40215 231
24.42226 261
24.44237 217
24.46249 245
24.4826 222
24.50272 228
24.52283 233
24.54294 233
24.56306 247
24.58317 249
24.60328 236
24.6234 249
24.64351 232
24.66362 272
24.68374 277
24.70385 225
24.72397 258
24.74408 252
24.76419 275
24.78431 273
24.80442 252
24.82453 252
24.84465 302
24.86476 267
24.88488 298
24.90499 261
24.9251 241
24.94522 281
24.96533 232
24.98544 239
25.00556 233
25.02567 231
25.04579 243
25.0659 255
25.08601 236
25.10613 214
25.12624 253
25.14635 262
25.16647 228
25.18658 224
25.20669 198
25.22681 258
25.24692 235
25.26704 257
25.28715 223
25.30726 271
25.32738 238
25.34749 277
25.3676 272
25.38772 255
25.40783 271
25.42795 303
25.44806 313
25.46817 308
25.48829 336
25.5084 325
25.52851 349
25.54863 336
25.56874 353
25.58886 354
25.60897 375
25.62908 391
25.6492 422
25.66931 417
25.68942 430
25.70954 485
25.72965 485
25.74976 487
25.76988 476
25.78999 481
25.81011 503
25.83022 478
25.85033 517
25.87045 510
25.89056 516
25.91067 528
25.93079 539
25.9509 530
25.97102 595
25.99113 613
26.01124 607
26.03136 656
26.05147 721
26.07158 684
26.0917 781
26.11181 805
26.13193 855
26.15204 926
26.17215 988
26.19227 1096
26.21238 1151
26.23249 1283
26.25261 1342
26.27272 1516
26.29283 1728
26.31295 2020
26.33306 2208
26.35318 2772
26.37329 3252
26.3934 4224
26.41352 5377
26.43363 6881
26.45374 9212
26.47386 12105
26.49397 16139
26.51409 20693
26.5342 26011
26.55431 30293
26.57443 32743
26.59454 33552
26.61465 31119
26.63477 27202
26.65488 21582
26.67499 15953
26.69511 11154
26.71522 7542
26.73534 4787
26.75545 3124
26.77556 2389
26.79568 1902
26.81579 1675
26.8359 1502
26.85602 1426
26.87613 1229
26.89625 1111
26.91636 1090
26.93647 1004
26.95659 860
26.9767 822
26.99681 806
27.01693 766
27.03704 693
27.05716 656
27.07727 635
27.09738 603
27.1175 624
27.13761 554
27.15772 536
27.17784 475
27.19795 481
27.21806 490
27.23818 491
27.25829 496
27.27841 487
27.29852 460
27.31863 535
27.33875 572
27.35886 582
27.37897 564
27.39909 568
27.4192 562
27.43932 535
27.45943 566
27.47954 512
27.49966 455
27.51977 417
27.53988 421
27.56 380
27.58011 354
27.60023 345
27.62034 329
27.64045 341
27.66057 359
27.68068 348
27.70079 327
27.72091 349
27.74102 328
27.76113 347
27.78125 330
27.80136 285
27.82148 314
27.84159 274
27.8617 306
27.88182 300
27.90193 311
27.92204 317
27.94216 259
27.96227 299
27.98239 294
28.0025 308
28.02261 318
28.04273 264
28.06284 277
28.08295 305
28.10307 285
28.12318 223
28.1433 274
28.16341 281
28.18352 245
28.20364 262
28.22375 258
28.24386 246
28.26398 267
28.28409 255
28.3042 247
28.32432 251
28.34443 233
28.36455 290
28.38466 253
28.40477 238
28.42489 246
28.445 259
28.46511 248
28.48523 252
28.50534 250
28.52546 234
28.54557 244
28.56568 230
28.5858 291
28.60591 235
28.62602 252
28.64614 253
28.66625 204
28.68636 239
28.70648 231
28.72659 242
28.74671 225
28.76682 254
28.78693 236
28.80705 236
28.82716 228
28.84727 217
28.86739 225
28.8875 261
28.90762 199
28.92773 241
28.94784 185
28.96796 233
28.98807 230
29.00818 247
29.0283 231
29.04841 226
29.06853 205
29.08864 227
29.10875 248
29.12887 261
29.14898 243
29.16909 250
29.18921 231
29.20932 219
29.22943 218
29.24955 236
29.26966 233
29.28978 248
29.30989 248
29.33 246
29.35012 250
29.37023 239
29.39034 250
29.41046 255
29.43057 231
29.45069 255
29.4708 222
29.49091 224
29.51103 241
29.53114 221
29.55125 253
29.57137 233
29.59148 232
29.6116 202
29.63171 251
29.65182 221
29.67194 239
29.69205 215
29.71216 219
29.73228 231
29.75239 227
29.7725 236
29.79262 224
29.81273 206
29.83285 203
29.85296 230
29.87307 230
29.89319 204
29.9133 228
29.93341 227
29.95353 214
29.97364 219
29.99376 205
30.01387 233
30.03398 213
30.0541 261
30.07421 239
30.09432 268
30.11444 221
30.13455 256
30.15467 224
30.17478 215
30.19489 212
30.21501 267
30.23512 240
30.25523 227
30.27535 221
30.29546 212
30.31557 199
30.33569 218
30.3558 190
30.37592 234
30.39603 223
30.41614 194
30.43626 211
30.45637 207
30.47648 199
30.4966 208
30.51671 198
30.53683 182
30.55694 192
30.57705 208
30.59717 211
30.61728 188
30.63739 235
30.65751 203
30.67762 239
30.69773 244
30.71785 219
30.73796 219
30.75808 254
30.77819 223
30.7983 209
30.81842 231
30.83853 257
30.85864 193
30.87876 185
30.89887 198
30.91899 200
30.9391 186
30.95921 195
30.97933 198
30.99944 163
31.01955 198
31.03967 188
31.05978 174
31.0799 189
31.10001 163
31.12012 183
31.14024 197
31.16035 180
31.18046 190
31.20058 161
31.22069 189
31.2408 158
31.26092 194
31.28103 180
31.30115 158
31.32126 175
31.34137 179
31.36149 171
31.3816 170
31.40171 168
31.42183 168
31.44194 199
31.46206 170
31.48217 181
31.50228 159
31.5224 150
31.54251 187
31.56262 183
31.58274 162
31.60285 173
31.62297 173
31.64308 165
31.66319 156
31.68331 177
31.70342 176
31.72353 171
31.74365 167
31.76376 167
31.78387 161
31.80399 171
31.8241 145
31.84422 160
31.86433 154
31.88444 152
31.90456 174
31.92467 174
31.94478 150
31.9649 189
31.98501 186
32.00513 180
32.02524 184
32.04535 176
32.06547 167
32.08558 174
32.10569 163
32.12581 184
32.14592 169
32.16604 203
32.18615 179
32.20626 187
32.22638 172
32.24649 151
32.2666 204
32.28672 190
32.30683 172
32.32694 186
32.34706 171
32.36717 180
32.38729 207
32.4074 190
32.42751 172
32.44763 188
32.46774 177
32.48785 174
32.50797 191
32.52808 182
32.5482 186
32.56831 168
32.58842 162
32.60854 165
32.62865 159
32.64876 161
32.66888 162
32.68899 167
32.7091 162
32.72922 149
32.74933 173
32.76945 160
32.78956 174
32.80967 178
32.82979 178
32.8499 144
32.87001 169
32.89013 182
32.91024 167
32.93036 173
32.95047 166
32.97058 159
32.9907 177
33.01081 141
33.03092 141
33.05104 161
33.07115 165
33.09127 146
33.11138 130
33.13149 165
33.15161 167
33.17172 150
33.19183 173
33.21195 190
33.23206 178
33.25217 164
33.27229 154
33.2924 164
33.31252 151
33.33263 147
33.35274 171
33.37286 167
33.39297 183
33.41308 151
33.4332 158
33.45331 160
33.47343 161
33.49354 144
33.51365 174
33.53377 150
33.55388 150
33.57399 147
33.59411 161
33.61422 152
33.63434 150
33.65445 159
33.67456 149
33.69468 151
33.71479 149
33.7349 167
33.75502 138
33.77513 152
33.79524 142
33.81536 145
33.83547 147
33.85559 154
33.8757 158
33.89581 152
33.91593 163
33.93604 160
33.95615 140
33.97627 147
33.99638 143
34.0165 155
34.03661 158
34.05672 152
34.07684 172
34.09695 152
34.11706 162
34.13718 161
34.15729 175
34.17741 193
34.19752 153
34.21763 138
34.23775 163
34.25786 175
34.27797 165
34.29809 140
34.3182 156
34.33831 169
34.35843 167
34.37854 145
34.39866 164
34.41877 158
34.43888 174
34.459 154
34.47911 151
34.49922 174
34.51934 159
34.53945 144
34.55957 171
34.57968 164
34.59979 159
34.61991 166
34.64002 190
34.66013 200
34.68025 187
34.70036 173
34.72047 172
34.74059 181
34.7607 208
34.78082 182
34.80093 184
34.82104 183
34.84116 229
34.86127 222
34.88138 168
34.9015 180
34.92161 186
34.94173 169
34.96184 190
34.98195 163
35.00207 183
35.02218 197
35.04229 199
35.06241 203
35.08252 187
35.10264 181
35.12275 190
35.14286 194
35.16298 178
35.18309 171
35.2032 191
35.22332 189
35.24343 196
35.26354 195
35.28366 189
35.30377 199
35.32389 191
35.344 193
35.36411 206
35.38423 222
35.40434 202
35.42445 215
35.44457 219
35.46468 205
35.4848 202
35.50491 213
35.52502 209
35.54514 205
35.56525 205
35.58536 195
35.60548 202
35.62559 190
35.64571 205
35.66582 203
35.68593 166
35.70605 208
35.72616 194
35.74627 196
35.76639 193
35.7865 218
35.80661 204
35.82673 217
35.84684 195
35.86696 206
35.88707 196
35.90718 212
35.9273 221
35.94741 208
35.96752 184
35.98764 219
36.00775 240
36.02787 259
36.04798 237
36.06809 206
36.08821 207
36.10832 265
36.12843 263
36.14855 265
36.16866 253
36.18878 280
36.20889 359
36.229 344
36.24912 365
36.26923 445
36.28934 545
36.30946 639
36.32957 705
36.34968 899
36.3698 1121
36.38991 1294
36.41003 1618
36.43014 1899
36.45025 2108
36.47037 2205
36.49048 2146
36.51059 2120
36.53071 1905
36.55082 1634
36.57094 1326
36.59105 1137
36.61116 890
36.63128 723
36.65139 528
36.6715 396
36.69162 339
36.71173 332
36.73184 278
36.75196 279
36.77207 261
36.79219 248
36.8123 250
36.83241 264
36.85253 224
36.87264 238
36.89275 215
36.91287 240
36.93298 244
36.9531 213
36.97321 208
36.99332 206
37.01344 209
37.03355 213
37.05366 216
37.07378 201
37.09389 176
37.11401 202
37.13412 202
37.15423 176
37.17435 160
37.19446 185
37.21457 180
37.23469 188
37.2548 179
37.27491 192
37.29503 189
37.31514 194
37.33526 175
37.35537 162
37.37548 183
37.3956 165
37.41571 163
37.43582 199
37.45594 173
37.47605 165
37.49617 149
37.51628 171
37.53639 179
37.55651 178
37.57662 181
37.59673 173
37.61685 172
37.63696 150
37.65708 165
37.67719 202
37.6973 159
37.71742 167
37.73753 177
37.75764 156
37.77776 170
37.79787 172
37.81798 164
37.8381 163
37.85821 169
37.87833 170
37.89844 174
37.91855 171
37.93867 162
37.95878 197
37.97889 182
37.99901 149
38.01912 165
38.03924 175
38.05935 188
38.07946 178
38.09958 187
38.11969 179
38.1398 167
38.15992 167
38.18003 186
38.20015 184
38.22026 203
38.24037 161
38.26049 196
38.2806 172
38.30071 193
38.32083 182
38.34094 161
38.36105 173
38.38117 199
38.40128 193
38.4214 177
38.44151 213
38.46162 183
38.48174 178
38.50185 194
38.52196 211
38.54208 203
38.56219 199
38.58231 163
38.60242 197
38.62253 181
38.64265 221
38.66276 194
38.68287 160
38.70299 189
38.7231 182
38.74321 195
38.76333 189
38.78344 197
38.80356 181
38.82367 188
38.84378 183
38.8639 187
38.88401 201
38.90412 216
38.92424 202
38.94435 197
38.96447 210
38.98458 211
39.00469 218
39.02481 221
39.04492 245
39.06503 251
39.08515 265
39.10526 278
39.12538 302
39.14549 301
39.1656 347
39.18572 396
39.20583 474
39.22594 549
39.24606 641
39.26617 754
39.28628 942
39.3064 1236
39.32651 1411
39.34663 1656
39.36674 1848
39.38685 2060
39.40697 2110
39.42708 1946
39.44719 1778
39.46731 1542
39.48742 1408
39.50754 1192
39.52765 1009
39.54776 782
39.56788 622
39.58799 509
39.6081 368
39.62822 311
39.64833 278
39.66845 283
39.68856 260
39.70867 256
39.72879 257
39.7489 237
39.76901 204
39.78913 245
39.80924 227
39.82935 232
39.84947 236
39.86958 227
39.8897 225
39.90981 227
39.92992 234
39.95004 246
39.97015 272
39.99026 281
40.01038 303
40.03049 314
40.05061 388
40.07072 425
40.09083 474
40.11095 570
40.13106 690
40.15117 795
40.17129 950
40.1914 1040
40.21152 1083
40.23163 1126
40.25174 1016
40.27186 950
40.29197 810
40.31208 737
40.3322 659
40.35231 608
40.37242 428
40.39254 380
40.41265 331
40.43277 231
40.45288 212
40.47299 221
40.49311 213
40.51322 219
40.53333 210
40.55345 183
40.57356 191
40.59368 170
40.61379 162
40.6339 179
40.65402 191
40.67413 173
40.69424 200
40.71436 171
40.73447 182
40.75458 176
40.7747 150
40.79481 171
40.81493 153
40.83504 172
40.85515 191
40.87527 163
40.89538 178
40.91549 178
40.93561 155
40.95572 149
40.97584 185
40.99595 167
41.01606 200
41.03618 184
41.05629 162
41.0764 173
41.09652 162
41.11663 170
41.13675 177
41.15686 181
41.17697 159
41.19709 170
41.2172 171
41.23731 163
41.25743 184
41.27754 176
41.29765 157
41.31777 174
41.33788 188
41.358 160
41.37811 174
41.39822 165
41.41834 199
41.43845 172
41.45856 195
41.47868 186
41.49879 176
41.51891 176
41.53902 171
41.55913 182
41.57925 183
41.59936 169
41.61947 194
41.63959 197
41.6597 193
41.67982 213
41.69993 212
41.72004 202
41.74016 208
41.76027 212
41.78038 182
41.8005 206
41.82061 224
41.84072 193
41.86084 205
41.88095 193
41.90107 198
41.92118 190
41.94129 183
41.96141 186
41.98152 195
42.00163 228
42.02175 193
42.04186 220
42.06198 244
42.08209 241
42.1022 241
42.12232 277
42.14243 344
42.16254 349
42.18266 392
42.20277 420
42.22289 511
42.243 597
42.26311 682
42.28323 873
42.30334 1006
42.32345 1161
42.34357 1377
42.36368 1512
42.38379 1499
42.40391 1497
42.42402 1337
42.44414 1201
42.46425 1064
42.48436 905
42.50448 796
42.52459 668
42.5447 556
42.56482 466
42.58493 363
42.60505 311
42.62516 249
42.64527 232
42.66539 205
42.6855 226
42.70561 215
42.72573 222
42.74584 188
42.76595 188
42.78607 208
42.80618 170
42.8263 177
42.84641 195
42.86652 177
42.88664 148
42.90675 165
42.92686 151
42.94698 161
42.96709 179
42.98721 164
43.00732 175
43.02743 158
43.04755 176
43.06766 173
43.08777 174
43.10789 167
43.128 147
43.14812 155
43.16823 161
43.18834 162
43.20846 174
43.22857 175
43.24868 143
43.2688 137
43.28891 161
43.30902 132
43.32914 161
43.34925 156
43.36937 165
43.38948 145
43.40959 164
43.42971 144
43.44982 163
43.46993 138
43.49005 149
43.51016 154
43.53028 162
43.55039 153
43.5705 160
43.59062 139
43.61073 156
43.63084 153
43.65096 139
43.67107 161
43.69119 151
43.7113 143
43.73141 148
43.75153 141
43.77164 145
43.79175 132
43.81187 108
43.83198 136
43.85209 172
43.87221 128
43.89232 149
43.91244 150
43.93255 152
43.95266 160
43.97278 147
43.99289 155
44.013 147
44.03312 168
44.05323 139
44.07335 162
44.09346 161
44.11357 128
44.13369 158
44.1538 157
44.17391 150
44.19403 153
44.21414 146
44.23426 147
44.25437 149
44.27448 143
44.2946 160
44.31471 159
44.33482 144
44.35494 165
44.37505 143
44.39516 148
44.41528 169
44.43539 145
44.45551 176
44.47562 148
44.49573 159
44.51585 159
44.53596 149
44.55607 144
44.57619 166
44.5963 151
44.61642 160
44.63653 131
44.65664 149
44.67676 182
44.69687 150
44.71698 155
44.7371 155
44.75721 169
44.77732 157
44.79744 170
44.81755 150
44.83767 134
44.85778 166
44.87789 156
44.89801 157
44.91812 171
44.93823 155
44.95835 163
44.97846 157
44.99858 148
45.01869 154
45.0388 155
45.05892 176
45.07903 136
45.09914 150
45.11926 161
45.13937 178
45.15949 166
45.1796 166
45.19971 167
45.21983 179
45.23994 164
45.26005 194
45.28017 182
45.30028 179
45.32039 164
45.34051 185
45.36062 185
45.38074 186
45.40085 182
45.42096 204
45.44108 240
45.46119 248
45.4813 230
45.50142 253
45.52153 312
45.54165 334
45.56176 396
45.58187 456
45.60199 573
45.6221 585
45.64221 722
45.66233 859
45.68244 947
45.70256 998
45.72267 1080
45.74278 993
45.7629 966
45.78301 828
45.80312 716
45.82324 661
45.84335 628
45.86346 530
45.88358 442
45.90369 411
45.92381 293
45.94392 246
45.96403 238
45.98415 200
46.00426 196
46.02437 180
46.04449 182
46.0646 178
46.08472 165
46.10483 173
46.12494 173
46.14506 166
46.16517 160
46.18528 152
46.2054 160
46.22551 116
46.24563 145
46.26574 145
46.28585 160
46.30597 119
46.32608 164
46.34619 147
46.36631 162
46.38642 157
46.40653 141
46.42665 148
46.44676 129
46.46688 157
46.48699 163
46.5071 146
46.52722 126
46.54733 133
46.56744 157
46.58756 129
46.60767 151
46.62779 174
46.6479 124
46.66801 141
46.68813 130
46.70824 124
46.72835 147
46.74847 165
46.76858 149
46.78869 131
46.80881 123
46.82892 147
46.84904 125
46.86915 154
46.88926 148
46.90938 140
46.92949 146
46.9496 151
46.96972 145
46.98983 151
47.00995 142
47.03006 165
47.05017 158
47.07029 157
47.0904 142
47.11051 152
47.13063 168
47.15074 142
47.17086 135
47.19097 139
47.21108 140
47.2312 153
47.25131 155
47.27142 137
47.29154 134
47.31165 165
47.33176 135
47.35188 146
47.37199 148
47.39211 156
47.41222 126
47.43233 149
47.45245 135
47.47256 140
47.49267 175
47.51279 156
47.5329 139
47.55302 148
47.57313 134
47.59324 126
47.61336 139
47.63347 149
47.65358 138
47.6737 147
47.69381 150
47.71393 133
47.73404 116
47.75415 116
47.77427 131
47.79438 133
47.81449 130
47.83461 123
47.85472 128
47.87483 138
47.89495 144
47.91506 128
47.93518 143
47.95529 135
47.9754 144
47.99552 136
48.01563 150
48.03574 147
48.05586 138
48.07597 133
48.09609 143
48.1162 144
48.13631 129
48.15643 142
48.17654 152
48.19665 150
48.21677 158
48.23688 144
48.257 139
48.27711 149
48.29722 146
48.31734 141
48.33745 128
48.35756 143
48.37768 114
48.39779 138
48.4179 146
48.43802 147
48.45813 144
48.47825 152
48.49836 149
48.51847 155
48.53859 150
48.5587 145
48.57881 162
48.59893 151
48.61904 152
48.63916 172
48.65927 161
48.67938 149
48.6995 140
48.71961 160
48.73972 131
48.75984 161
48.77995 154
48.80006 157
48.82018 176
48.84029 163
48.86041 169
48.88052 179
48.90063 162
48.92075 147
48.94086 168
48.96097 165
48.98109 170
49.0012 143
49.02132 161
49.04143 151
49.06154 176
49.08166 170
49.10177 173
49.12188 171
49.142 164
49.16211 152
49.18223 170
49.20234 159
49.22245 149
49.24257 178
49.26268 173
49.28279 162
49.30291 168
49.32302 174
49.34313 148
49.36325 172
49.38336 178
49.40348 199
49.42359 191
49.4437 172
49.46382 178
49.48393 178
49.50404 214
49.52416 217
49.54427 210
49.56439 222
49.5845 230
49.60461 256
49.62473 262
49.64484 248
49.66495 281
49.68507 289
49.70518 320
49.7253 363
49.74541 379
49.76552 387
49.78564 443
49.80575 524
49.82586 625
49.84598 682
49.86609 750
49.8862 908
49.90632 1080
49.92643 1278
49.94655 1489
49.96666 1887
49.98677 2168
50.00689 2645
50.027 3007
50.04711 3205
50.06723 3243
50.08734 3118
50.10746 2828
50.12757 2480
50.14768 2264
50.1678 2054
50.18791 1856
50.20802 1683
50.22814 1416
50.24825 1233
50.26837 946
50.28848 770
50.30859 511
50.32871 401
50.34882 382
50.36893 353
50.38905 304
50.40916 331
50.42927 302
50.44939 304
50.4695 306
50.48962 330
50.50973 311
50.52984 322
50.54996 281
50.57007 310
50.59018 299
50.6103 241
50.63041 268
50.65053 236
50.67064 249
50.69075 218
50.71087 225
50.73098 211
50.75109 194
50.77121 218
50.79132 188
50.81143 177
50.83155 152
50.85166 181
50.87178 157
50.89189 169
50.912 173
50.93212 173
50.95223 139
50.97234 166
50.99246 146
51.01257 162
51.03269 166
51.0528 173
51.07291 148
51.09303 163
51.11314 146
51.13325 164
51.15337 165
51.17348 134
51.1936 142
51.21371 168
51.23382 145
51.25394 117
51.27405 141
51.29416 139
51.31428 130
51.33439 152
51.3545 131
51.37462 132
51.39473 105
51.41485 142
51.43496 150
51.45507 151
51.47519 141
51.4953 128
51.51541 115
51.53553 129
51.55564 151
51.57576 143
51.59587 128
51.61598 136
51.6361 139
51.65621 131
51.67632 125
51.69644 133
51.71655 123
51.73667 134
51.75678 110
51.77689 136
51.79701 120
51.81712 132
51.83723 155
51.85735 135
51.87746 131
51.89757 133
51.91769 119
51.9378 113
51.95792 138
51.97803 123
51.99814 122
52.01826 132
52.03837 139
52.05848 126
52.0786 127
52.09871 116
52.11883 111
52.13894 122
52.15905 117
52.17917 136
52.19928 131
52.21939 115
52.23951 131
52.25962 130
52.27974 136
52.29985 142
52.31996 133
52.34008 94
52.36019 117
52.3803 132
52.40042 137
52.42053 128
52.44064 117
52.46076 124
52.48087 153
52.50099 112
52.5211 124
52.54121 114
52.56133 142
52.58144 114
52.60155 126
52.62167 132
52.64178 125
52.6619 145
52.68201 121
52.70212 140
52.72224 121
52.74235 153
52.76246 131
52.78258 136
52.80269 138
52.8228 151
52.84292 134
52.86303 148
52.88315 120
52.90326 136
52.92337 129
52.94349 134
52.9636 129
52.98371 129
53.00383 130
53.02394 129
53.04406 129
53.06417 125
53.08428 127
53.1044 179
53.12451 139
53.14462 142
53.16474 130
53.18485 140
53.20497 147
53.22508 135
53.24519 138
53.26531 148
53.28542 127
53.30553 146
53.32565 145
53.34576 146
53.36587 131
53.38599 132
53.4061 142
53.42622 143
53.44633 144
53.46644 160
53.48656 148
53.50667 161
53.52678 119
53.5469 137
53.56701 145
53.58713 150
53.60724 136
53.62735 149
53.64747 148
53.66758 138
53.68769 168
53.70781 155
53.72792 150
53.74804 146
53.76815 133
53.78826 129
53.80838 123
53.82849 142
53.8486 132
53.86872 137
53.88883 156
53.90894 151
53.92906 133
53.94917 144
53.96929 149
53.9894 140
54.00951 154
54.02963 122
54.04974 138
54.06985 137
54.08997 151
54.11008 120
54.1302 130
54.15031 146
54.17042 158
54.19054 155
54.21065 166
54.23076 152
54.25088 170
54.27099 155
54.29111 185
54.31122 161
54.33133 145
54.35145 169
54.37156 155
54.39167 176
54.41179 202
54.4319 181
54.45201 209
54.47213 192
54.49224 238
54.51236 259
54.53247 307
54.55258 284
54.5727 302
54.59281 293
54.61292 385
54.63304 418
54.65315 475
54.67327 556
54.69338 628
54.71349 710
54.73361 807
54.75372 920
54.77383 1023
54.79395 1045
54.81406 1036
54.83417 962
54.85429 860
54.8744 788
54.89452 677
54.91463 631
54.93474 641
54.95486 607
54.97497 556
54.99508 477
55.0152 430
55.03531 366
55.05543 362
55.07554 341
55.09565 347
55.11577 330
55.13588 349
55.15599 437
55.17611 443
55.19622 453
55.21634 504
55.23645 556
55.25656 517
55.27668 519
55.29679 459
55.3169 413
55.33702 391
55.35713 326
55.37724 363
55.39736 299
55.41747 338
55.43759 281
55.4577 275
55.47781 234
55.49793 243
55.51804 157
55.53815 177
55.55827 173
55.57838 151
55.5985 183
55.61861 168
55.63872 135
55.65884 168
55.67895 156
55.69906 137
55.71918 119
55.73929 154
55.75941 122
55.77952 132
55.79963 139
55.81975 152
55.83986 126
55.85997 136
55.88009 116
55.9002 168
55.92031 139
55.94043 169
55.96054 142
55.98066 131
56.00077 148
56.02088 150
56.041 131
56.06111 151
56.08122 121
56.10134 116
56.12145 149
56.14157 111
56.16168 123
56.18179 147
56.20191 136
56.22202 128
56.24213 133
56.26225 153
56.28236 121
56.30248 143
56.32259 117
56.3427 136
56.36282 137
56.38293 139
56.40304 138
56.42316 132
56.44327 125
56.46338 132
56.4835 134
56.50361 138
56.52373 138
56.54384 153
56.56395 146
56.58407 145
56.60418 127
56.62429 124
56.64441 130
56.66452 135
56.68464 147
56.70475 134
56.72486 148
56.74498 131
56.76509 145
56.7852 124
56.80532 135
56.82543 157
56.84554 143
56.86566 123
56.88577 129
56.90589 144
56.926 152
56.94611 139
56.96623 142
56.98634 131
57.00645 157
57.02657 142
57.04668 160
57.0668 163
57.08691 183
57.10702 155
57.12714 181
57.14725 180
57.16736 189
57.18748 172
57.20759 186
57.22771 168
57.24782 166
57.26793 163
57.28805 156
57.30816 174
57.32827 170
57.34839 144
57.3685 124
57.38861 130
57.40873 141
57.42884 123
57.44896 143
57.46907 140
57.48918 150
57.5093 135
57.52941 141
57.54952 139
57.56964 152
57.58975 134
57.60987 137
57.62998 123
57.65009 161
57.67021 158
57.69032 130
57.71043 160
57.73055 137
57.75066 120
57.77078 136
57.79089 128
57.811 122
57.83112 125
57.85123 134
57.87134 149
57.89146 145
57.91157 115
57.93168 116
57.9518 133
57.97191 125
57.99203 150
58.01214 146
58.03225 138
58.05237 132
58.07248 147
58.09259 124
58.11271 118
58.13282 147
58.15294 142
58.17305 137
58.19316 151
58.21328 112
58.23339 149
58.2535 139
58.27362 128
58.29373 133
58.31385 126
58.33396 118
58.35407 145
58.37419 146
58.3943 138
58.41441 109
58.43453 150
58.45464 154
58.47475 161
58.49487 133
58.51498 160
58.5351 142
58.55521 134
58.57532 149
58.59544 149
58.61555 124
58.63566 137
58.65578 152
58.67589 147
58.69601 126
58.71612 144
58.73623 136
58.75635 132
58.77646 126
58.79657 137
58.81669 147
58.8368 127
58.85691 121
58.87703 131
58.89714 153
58.91726 174
58.93737 135
58.95748 123
58.9776 144
58.99771 145
59.01782 113
59.03794 109
59.05805 151
59.07817 154
59.09828 149
59.11839 150
59.13851 168
59.15862 135
59.17873 153
59.19885 170
59.21896 147
59.23908 155
59.25919 156
59.2793 185
59.29942 159
59.31953 189
59.33964 185
59.35976 180
59.37987 187
59.39998 196
59.4201 202
59.44021 211
59.46033 243
59.48044 219
59.50055 248
59.52067 296
59.54078 309
59.56089 335
59.58101 363
59.60112 382
59.62124 429
59.64135 479
59.66146 511
59.68158 608
59.70169 674
59.7218 832
59.74192 933
59.76203 1170
59.78215 1353
59.80226 1535
59.82237 1743
59.84249 1979
59.8626 2082
59.88271 2075
59.90283 1940
59.92294 1761
59.94305 1560
59.96317 1418
59.98328 1264
60.0034 1174
60.02351 1136
60.04362 1089
60.06374 937
60.08385 834
60.10396 741
60.12408 529
60.14419 440
60.16431 355
60.18442 309
60.20453 260
60.22465 214
60.24476 237
60.26487 220
60.28499 214
60.3051 195
60.32522 202
60.34533 197
60.36544 173
60.38556 156
60.40567 162
60.42578 152
60.4459 173
60.46601 168
60.48612 163
60.50624 137
60.52635 138
60.54647 137
60.56658 149
60.58669 156
60.60681 145
60.62692 165
60.64703 142
60.66715 132
60.68726 156
60.70738 147
60.72749 146
60.7476 150
60.76772 142
60.78783 142
60.80794 147
60.82806 140
60.84817 126
60.86828 151
60.8884 114
60.90851 144
60.92863 127
60.94874 157
60.96885 157
60.98897 137
61.00908 121
61.02919 139
61.04931 141
61.06942 132
61.08954 114
61.10965 143
61.12976 128
61.14988 146
61.16999 127
61.1901 126
61.21022 141
61.23033 130
61.25045 156
61.27056 107
61.29067 136
61.31079 147
61.3309 141
61.35101 135
61.37113 126
61.39124 134
61.41135 127
61.43147 124
61.45158 138
61.4717 124
61.49181 129
61.51192 119
61.53204 121
61.55215 143
61.57226 144
61.59238 125
61.61249 128
61.63261 114
61.65272 146
61.67283 147
61.69295 117
61.71306 129
61.73317 126
61.75329 136
61.7734 133
61.79352 128
61.81363 116
61.83374 132
61.85386 130
61.87397 141
61.89408 139
61.9142 139
61.93431 149
61.95442 145
61.97454 136
61.99465 148
62.01477 154
62.03488 144
62.05499 150
62.07511 143
62.09522 152
62.11533 143
62.13545 150
62.15556 178
62.17568 145
62.19579 161
62.2159 176
62.23602 168
62.25613 174
62.27624 184
62.29636 169
62.31647 149
62.33659 169
62.3567 152
62.37681 167
62.39693 141
62.41704 149
62.43715 136
62.45727 145
62.47738 133
62.49749 141
62.51761 150
62.53772 129
62.55784 145
62.57795 116
62.59806 135
62.61818 122
62.63829 113
62.6584 121
62.67852 130
62.69863 129
62.71875 122
62.73886 139
62.75897 117
62.77909 135
62.7992 121
62.81931 133
62.83943 135
62.85954 131
62.87965 150
62.89977 139
62.91988 121
62.94 119
62.96011 135
62.98022 145
63.00034 136
63.02045 146
63.04056 127
63.06068 146
63.08079 131
63.10091 124
63.12102 149
63.14113 149
63.16125 134
63.18136 139
63.20147 131
63.22159 149
63.2417 150
63.26182 126
63.28193 139
63.30204 132
63.32216 117
63.34227 136
63.36238 138
63.3825 117
63.40261 128
63.42272 144
63.44284 144
63.46295 135
63.48307 140
63.50318 142
63.52329 143
63.54341 139
63.56352 141
63.58363 160
63.60375 156
63.62386 166
63.64398 164
63.66409 163
63.6842 188
63.70432 202
63.72443 207
63.74454 196
63.76466 249
63.78477 250
63.80489 264
63.825 268
63.84511 267
63.86523 351
63.88534 364
63.90545 404
63.92557 438
63.94568 465
63.96579 455
63.98591 421
64.00602 379
64.02614 384
64.04625 382
64.06636 324
64.08648 335
64.10659 272
64.1267 262
64.14682 306
64.16693 265
64.18705 215
64.20716 202
64.22727 195
64.24739 166
64.2675 156
64.28761 149
64.30773 122
64.32784 133
64.34796 137
64.36807 135
64.38818 128
64.4083 145
64.42841 133
64.44852 145
64.46864 136
64.48875 148
64.50886 126
64.52898 127
64.54909 119
64.56921 147
64.58932 139
64.60943 108
64.62955 125
64.64966 121
64.66977 111
64.68989 121
64.71 130
64.73012 133
64.75023 108
64.77034 123
64.79046 119
64.81057 121
64.83068 117
64.8508 128
64.87091 107
64.89102 151
64.91114 129
64.93125 131
64.95137 110
64.97148 127
64.99159 110
65.01171 120
65.03182 118
65.05193 143
65.07205 121
65.09216 135
65.11228 123
65.13239 122
65.1525 136
65.17262 132
65.19273 124
65.21284 133
65.23296 141
65.25307 140
65.27319 117
65.2933 132
65.31341 122
65.33353 124
65.35364 139
65.37375 143
65.39387 159
65.41398 134
65.43409 148
65.45421 136
65.47432 133
65.49444 153
65.51455 157
65.53466 158
65.55478 155
65.57489 179
65.595 182
65.61512 191
65.63523 181
65.65535 203
65.67546 206
65.69557 204
65.71569 206
65.7358 205
65.75591 215
65.77603 192
65.79614 184
65.81626 165
65.83637 148
65.85648 188
65.8766 163
65.89671 159
65.91682 170
65.93694 180
65.95705 148
65.97716 134
65.99728 140
66.01739 130
66.03751 139
66.05762 135
66.07773 143
66.09785 128
66.11796 159
66.13807 161
66.15819 145
66.1783 139
66.19842 136
66.21853 129
66.23864 113
66.25876 141
66.27887 151
66.29898 138
66.3191 136
66.33921 125
66.35933 137
66.37944 126
66.39955 137
66.41967 135
66.43978 147
66.45989 155
66.48001 143
66.50012 143
66.52023 132
66.54035 141
66.56046 142
66.58058 136
66.60069 145
66.6208 126
66.64092 137
66.66103 145
66.68114 150
66.70126 126
66.72137 134
66.74149 132
66.7616 136
66.78171 140
66.80183 144
66.82194 147
66.84205 132
66.86217 152
66.88228 143
66.90239 139
66.92251 153
66.94262 163
66.96274 156
66.98285 155
67.00296 172
67.02308 148
67.04319 166
67.0633 160
67.08342 166
67.10353 158
67.12365 174
67.14376 174
67.16387 164
67.18399 193
67.2041 187
67.22421 206
67.24433 209
67.26444 239
67.28456 211
67.30467 252
67.32478 263
67.3449 259
67.36501 270
67.38512 321
67.40524 324
67.42535 389
67.44546 418
67.46558 405
67.48569 493
67.50581 585
67.52592 685
67.54603 730
67.56615 880
67.58626 929
67.60637 1095
67.62649 1190
67.6466 1274
67.66672 1232
67.68683 1164
67.70694 1119
67.72706 1011
67.74717 916
67.76728 839
67.7874 897
67.80751 935
67.82763 963
67.84774 991
67.86785 1056
67.88797 1036
67.90808 1019
67.92819 1095
67.94831 1159
67.96842 1244
67.98853 1265
68.00865 1389
68.02876 1571
68.04888 1668
68.06899 1720
68.0891 1671
68.10922 1609
68.12933 1511
68.14944 1462
68.16956 1387
68.18967 1503
68.20979 1516
68.2299 1584
68.25001 1542
68.27013 1317
68.29024 1235
68.31035 1112
68.33047 880
68.35058 766
68.3707 653
68.39081 623
68.41092 624
68.43104 558
68.45115 490
68.47126 467
68.49138 428
68.51149 370
68.5316 317
68.55172 241
68.57183 265
68.59195 213
68.61206 193
68.63217 188
68.65229 195
68.6724 192
68.69251 170
68.71263 195
68.73274 172
68.75286 165
68.77297 155
68.79308 167
68.8132 151
68.83331 148
68.85342 162
68.87354 152
68.89365 166
68.91376 160
68.93388 160
68.95399 131
68.97411 145
68.99422 148
69.01433 136
69.03445 130
69.05456 146
69.07467 159
69.09479 153
69.1149 156
69.13502 136
69.15513 136
69.17524 143
69.19536 130
69.21547 150
69.23558 134
69.2557 134
69.27581 129
69.29593 134
69.31604 119
69.33615 138
69.35627 128
69.37638 111
69.39649 126
69.41661 115
69.43672 133
69.45683 121
69.47695 128
69.49706 131
69.51718 131
69.53729 115
69.5574 117
69.57752 125
69.59763 137
69.61774 125
69.63786 110
69.65797 122
69.67809 123
69.6982 126
69.71831 115
69.73843 103
69.75854 125
69.77865 113
69.79877 133
69.81888 115
69.839 143
69.85911 110
69.87922 140
69.89934 124
69.91945 119
69.93956 114
69.95968 112
69.97979 111
69.9999 110
70.02002 104
70.04013 119
70.06025 134
70.08036 119
70.10047 105
70.12059 133
70.1407 121
70.16081 116
70.18093 121
70.20104 124
70.22116 125
70.24127 133
70.26138 132
70.2815 121
70.30161 125
70.32172 114
70.34184 104
70.36195 113
70.38207 121
70.40218 124
70.42229 137
70.44241 133
70.46252 97
70.48263 98
70.50275 117
70.52286 111
70.54297 117
70.56309 111
70.5832 103
70.60332 127
70.62343 110
70.64354 117
70.66366 100
70.68377 116
70.70388 123
70.724 112
70.74411 126
70.76423 118
70.78434 123
70.80445 129
70.82457 146
70.84468 113
70.86479 123
70.88491 111
70.90502 110
70.92513 118
70.94525 118
70.96536 106
70.98548 100
71.00559 105
71.0257 113
71.04582 109
71.06593 118
71.08604 140
71.10616 126
71.12627 126
71.14639 127
71.1665 122
71.18661 111
71.20673 130
71.22684 114
71.24695 109
71.26707 125
71.28718 127
71.3073 121
71.32741 112
71.34752 105
71.36764 119
71.38775 117
71.40786 122
71.42798 96
71.44809 117
71.4682 119
71.48832 110
71.50843 122
71.52855 126
71.54866 129
71.56877 133
71.58889 121
71.609 119
71.62911 115
71.64923 108
71.66934 109
71.68946 126
71.70957 117
71.72968 104
71.7498 108
71.76991 126
71.79002 111
71.81014 126
71.83025 126
71.85037 112
71.87048 138
71.89059 130
71.91071 122
71.93082 111
71.95093 128
71.97105 113
71.99116 122
72.01127 126
72.03139 103
72.0515 110
72.07162 116
72.09173 106
72.11184 119
72.13196 124
72.15207 106
72.17218 116
72.1923 120
72.21241 112
72.23253 129
72.25264 107
72.27275 110
72.29287 117
72.31298 130
72.33309 115
72.35321 131
72.37332 134
72.39344 118
72.41355 111
72.43366 131
72.45378 111
72.47389 118
72.494 102
72.51412 110
72.53423 119
72.55434 110
72.57446 106
72.59457 94
72.61469 105
72.6348 135
72.65491 123
72.67503 127
72.69514 122
72.71525 114
72.73537 104
72.75548 140
72.7756 113
72.79571 150
72.81582 140
72.83594 135
72.85605 160
72.87616 120
72.89628 136
72.91639 141
72.9365 148
72.95662 135
72.97673 145
72.99685 141
73.01696 142
73.03707 163
73.05719 151
73.0773 157
73.09741 166
73.11753 196
73.13764 198
73.15776 212
73.17787 204
73.19798 233
73.2181 242
73.23821 274
73.25832 307
73.27844 346
73.29855 368
73.31867 376
73.33878 411
73.35889 504
73.37901 441
73.39912 531
73.41923 472
73.43935 425
73.45946 376
73.47957 289
73.49969 305
73.5198 315
73.53992 284
73.56003 274
73.58014 303
73.60026 281
73.62037 298
73.64048 272
73.6606 229
73.68071 190
73.70083 198
73.72094 167
73.74105 151
73.76117 149
73.78128 132
73.80139 137
73.82151 148
73.84162 146
73.86174 139
73.88185 118
73.90196 125
73.92208 125
73.94219 125
73.9623 119
73.98242 129
74.00253 132
74.02264 122
74.04276 129
74.06287 127
74.08299 131
74.1031 117
74.12321 116
74.14333 109
74.16344 111
74.18355 122
74.20367 126
74.22378 124
74.2439 132
74.26401 103
74.28412 137
74.30424 96
74.32435 98
74.34446 125
74.36458 114
74.38469 130
74.40481 109
74.42492 118
74.44503 129
74.46515 125
74.48526 121
74.50537 130
74.52549 121
74.5456 108
74.56571 130
74.58583 102
74.60594 129
74.62606 120
74.64617 115
74.66628 121
74.6864 130
74.70651 106
74.72662 107
74.74674 131
74.76685 113
74.78697 112
74.80708 139
74.82719 104
74.84731 110
74.86742 113
74.88753 115
74.90765 122
74.92776 128
74.94787 140
74.96799 127
74.9881 127
75.00822 131
