3.00117 20076
3.02128 19617
3.0414 19039
3.06151 18553
3.08162 17945
3.10174 17782
3.12185 16799
3.14197 16807
3.16208 16045
3.18219 15686
3.20231 15121
3.22242 14218
3.24253 14403
3.26265 13559
3.28276 12981
3.30288 12974
3.32299 12358
3.3431 12284
3.36322 11564
3.38333 11125
3.40344 11168
3.42356 10438
3.44367 10495
3.46379 9722
3.4839 9436
3.50401 9135
3.52413 8778
3.54424 8574
3.56435 8197
3.58447 7729
3.60458 7768
3.62469 7127
3.64481 7200
3.66492 6671
3.68504 6380
3.70515 6268
3.72526 5892
3.74538 5793
3.76549 5462
3.7856 5244
3.80572 5090
3.82583 4738
3.84595 4750
3.86606 4323
3.88617 4186
3.90629 4062
3.9264 3805
3.94651 3772
3.96663 3459
3.98674 3451
4.00686 3353
4.02697 3037
4.04708 3060
4.0672 2680
4.08731 2631
4.10742 2707
4.12754 2391
4.14765 2500
4.16776 2160
4.18788 2047
4.20799 2116
4.22811 2049
4.24822 1967
4.26833 1704
4.28845 1749
4.30856 1794
4.32867 1685
4.34879 1570
4.3689 1517
4.38902 1504
4.40913 1584
4.42924 1471
4.44936 1377
4.46947 1333
4.48958 1322
4.5097 1389
4.52981 1300
4.54992 1215
4.57004 1164
4.59015 1219
4.61027 1186
4.63038 1112
4.65049 1135
4.67061 1069
4.69072 978
4.71083 1061
4.73095 1013
4.75106 977
4.77118 894
4.79129 905
4.8114 972
4.83152 876
4.85163 886
4.87174 834
4.89186 822
4.91197 800
4.93209 825
4.9522 708
4.97231 701
4.99243 708
5.01254 732
5.03265 666
5.05277 663
5.07288 629
5.09299 655
5.11311 619
5.13322 652
5.15334 600
5.17345 562
5.19356 551
5.21368 587
5.23379 622
5.2539 513
5.27402 500
5.29413 527
5.31425 548
5.33436 497
5.35447 480
5.37459 442
5.3947 469
5.41481 442
5.43493 439
5.45504 402
5.47516 418
5.49527 449
5.51538 402
5.5355 386
5.55561 360
5.57572 373
5.59584 368
5.61595 332
5.63606 373
5.65618 355
5.67629 338
5.69641 336
5.71652 311
5.73663 318
5.75675 319
5.77686 330
5.79697 331
5.81709 273
5.8372 312
5.85732 269
5.87743 283
5.89754 289
5.91766 277
5.93777 251
5.95788 274
5.978 285
5.99811 271
6.01823 271
6.03834 277
6.05845 265
6.07857 279
6.09868 252
6.11879 255
6.13891 260
6.15902 251
6.17913 274
6.19925 255
6.21936 245
6.23948 270
6.25959 276
6.2797 238
6.29982 241
6.31993 230
6.34004 225
6.36016 192
6.38027 224
6.40039 202
6.4205 219
6.44061 254
6.46073 218
6.48084 231
6.50095 246
6.52107 246
6.54118 237
6.56129 237
6.58141 236
6.60152 265
6.62164 195
6.64175 239
6.66186 212
6.68198 221
6.70209 236
6.7222 225
6.74232 210
6.76243 216
6.78255 223
6.80266 209
6.82277 213
6.84289 216
6.863 187
6.88311 231
6.90323 220
6.92334 230
6.94346 228
6.96357 203
6.98368 205
7.0038 220
7.02391 227
7.04402 226
7.06414 238
7.08425 270
7.10436 199
7.12448 198
7.14459 233
7.16471 210
7.18482 190
7.20493 199
7.22505 242
7.24516 207
7.26527 221
7.28539 206
7.3055 224
7.32562 196
7.34573 246
7.36584 211
7.38596 226
7.40607 219
7.42618 214
7.4463 226
7.46641 229
7.48653 236
7.50664 213
7.52675 224
7.54687 244
7.56698 234
7.58709 216
7.60721 233
7.62732 238
7.64743 234
7.66755 230
7.68766 201
7.70778 244
7.72789 233
7.748 251
7.76812 245
7.78823 213
7.80834 225
7.82846 218
7.84857 231
7.86869 216
7.8888 221
7.90891 235
7.92903 257
7.94914 253
7.96925 244
7.98937 241
8.00948 225
8.0296 221
8.04971 238
8.06982 201
8.08994 229
8.11005 249
8.13016 276
8.15028 221
8.17039 206
8.1905 219
8.21062 235
8.23073 212
8.25085 228
8.27096 254
8.29107 251
8.31119 247
8.3313 246
8.35141 263
8.37153 263
8.39164 260
8.41176 205
8.43187 248
8.45198 233
8.4721 259
8.49221 242
8.51232 238
8.53244 227
8.55255 245
8.57266 242
8.59278 222
8.61289 217
8.63301 250
8.65312 255
8.67323 288
8.69335 280
8.71346 290
8.73357 234
8.75369 293
8.7738 239
8.79392 237
8.81403 240
8.83414 262
8.85426 278
8.87437 222
8.89448 250
8.9146 227
8.93471 208
8.95483 243
8.97494 273
8.99505 239
9.01517 208
9.03528 227
9.05539 239
9.07551 226
9.09562 224
9.11573 227
9.13585 236
9.15596 251
9.17608 269
9.19619 218
9.2163 272
9.23642 228
9.25653 234
9.27664 231
9.29676 232
9.31687 243
9.33699 224
9.3571 258
9.37721 235
9.39733 215
9.41744 219
9.43755 257
9.45767 256
9.47778 233
9.4979 250
9.51801 209
9.53812 222
9.55824 228
9.57835 227
9.59846 228
9.61858 242
9.63869 248
9.6588 235
9.67892 268
9.69903 254
9.71915 240
9.73926 233
9.75937 231
9.77949 211
9.7996 223
9.81971 174
9.83983 249
9.85994 251
9.88006 223
9.90017 247
9.92028 233
9.9404 204
9.96051 215
9.98062 251
10.00074 230
10.02085 196
10.04097 254
10.06108 202
10.08119 269
10.10131 244
10.12142 234
10.14153 253
10.16165 259
10.18176 219
10.20187 231
10.22199 245
10.2421 235
10.26222 240
10.28233 270
10.30244 209
10.32256 220
10.34267 238
10.36278 230
10.3829 248
10.40301 242
10.42313 232
10.44324 219
10.46335 241
10.48347 251
10.50358 251
10.52369 233
10.54381 257
10.56392 236
10.58403 269
10.60415 252
10.62426 207
10.64438 251
10.66449 201
10.6846 229
10.70472 257
10.72483 240
10.74494 204
10.76506 218
10.78517 251
10.80529 212
10.8254 207
10.84551 227
10.86563 256
10.88574 238
10.90585 220
10.92597 224
10.94608 267
10.9662 253
10.98631 245
11.00642 242
11.02654 236
11.04665 241
11.06676 225
11.08688 242
11.10699 228
11.1271 230
11.14722 223
11.16733 275
11.18745 233
11.20756 220
11.22767 239
11.24779 211
11.2679 225
11.28801 224
11.30813 209
11.32824 247
11.34836 217
11.36847 229
11.38858 258
11.4087 212
11.42881 246
11.44892 242
11.46904 232
11.48915 255
11.50927 257
11.52938 249
11.54949 213
11.56961 231
11.58972 249
11.60983 278
11.62995 266
11.65006 235
11.67017 233
11.69029 214
11.7104 244
11.73052 251
11.75063 243
11.77074 221
11.79086 240
11.81097 267
11.83108 242
11.8512 226
11.87131 233
11.89143 262
11.91154 227
11.93165 275
11.95177 283
11.97188 253
11.99199 248
12.01211 300
12.03222 257
12.05234 243
12.07245 247
12.09256 260
12.11268 286
12.13279 278
12.1529 281
12.17302 281
12.19313 299
12.21324 306
12.23336 267
12.25347 295
12.27359 309
12.2937 280
12.31381 289
12.33393 255
12.35404 296
12.37415 283
12.39427 260
12.41438 289
12.4345 255
12.45461 281
12.47472 275
12.49484 266
12.51495 259
12.53506 273
12.55518 289
12.57529 241
12.5954 243
12.61552 246
12.63563 232
12.65575 257
12.67586 240
12.69597 210
12.71609 219
12.7362 244
12.75631 237
12.77643 219
12.79654 207
12.81666 253
12.83677 214
12.85688 191
12.877 244
12.89711 212
12.91722 230
12.93734 231
12.95745 215
12.97757 226
12.99768 219
13.01779 216
13.03791 212
13.05802 230
13.07813 215
13.09825 247
13.11836 224
13.13847 220
13.15859 235
13.1787 214
13.19882 222
13.21893 215
13.23904 220
13.25916 212
13.27927 212
13.29938 197
13.3195 205
13.33961 185
13.35973 192
13.37984 182
13.39995 208
13.42007 233
13.44018 241
13.46029 203
13.48041 192
13.50052 205
13.52064 216
13.54075 201
13.56086 210
13.58098 220
13.60109 197
13.6212 231
13.64132 206
13.66143 198
13.68154 204
13.70166 200
13.72177 225
13.74189 182
13.762 166
13.78211 211
13.80223 199
13.82234 207
13.84245 184
13.86257 193
13.88268 193
13.9028 194
13.92291 209
13.94302 195
13.96314 184
13.98325 212
14.00336 165
14.02348 215
14.04359 193
14.06371 201
14.08382 196
14.10393 211
14.12405 176
14.14416 218
14.16427 190
14.18439 193
14.2045 197
14.22461 186
14.24473 211
14.26484 215
14.28496 180
14.30507 196
14.32518 185
14.3453 201
14.36541 191
14.38552 224
14.40564 212
14.42575 196
14.44587 191
14.46598 169
14.48609 199
14.50621 203
14.52632 178
14.54643 217
14.56655 202
14.58666 174
14.60677 159
14.62689 207
14.647 207
14.66712 201
14.68723 188
14.70734 209
14.72746 190
14.74757 182
14.76768 202
14.7878 167
14.80791 205
14.82803 203
14.84814 204
14.86825 175
14.88837 173
14.90848 217
14.92859 196
14.94871 168
14.96882 144
14.98894 175
15.00905 195
15.02916 180
15.04928 205
15.06939 173
15.0895 183
15.10962 170
15.12973 198
15.14984 199
15.16996 218
15.19007 177
15.21019 177
15.2303 210
15.25041 203
15.27053 194
15.29064 185
15.31075 175
15.33087 193
15.35098 189
15.3711 209
15.39121 193
15.41132 169
15.43144 205
15.45155 188
15.47166 172
15.49178 189
15.51189 174
15.53201 208
15.55212 217
15.57223 203
15.59235 194
15.61246 196
15.63257 161
15.65269 207
15.6728 187
15.69291 175
15.71303 171
15.73314 176
15.75326 186
15.77337 188
15.79348 167
15.8136 211
15.83371 187
15.85382 162
15.87394 170
15.89405 187
15.91417 189
15.93428 177
15.95439 205
15.97451 168
15.99462 213
16.01473 190
16.03485 161
16.05496 169
16.07508 179
16.09519 148
16.1153 170
16.13542 162
16.15553 168
16.17564 165
16.19576 174
16.21587 177
16.23598 179
16.2561 156
16.27621 183
16.29633 161
16.31644 169
16.33655 164
16.35667 176
16.37678 170
16.39689 204
16.41701 165
16.43712 209
16.45724 171
16.47735 168
16.49746 206
16.51758 208
16.53769 170
16.5578 185
16.57792 188
16.59803 190
16.61814 151
16.63826 158
16.65837 190
16.67849 207
16.6986 176
16.71871 167
16.73883 182
16.75894 174
16.77905 167
16.79917 169
16.81928 188
16.8394 172
16.85951 183
16.87962 154
16.89974 185
16.91985 169
16.93996 171
16.96008 156
16.98019 187
17.00031 203
17.02042 190
17.04053 185
17.06065 162
17.08076 180
17.10087 161
17.12099 159
17.1411 176
17.16121 159
17.18133 189
17.20144 180
17.22156 160
17.24167 180
17.26178 185
17.2819 164
17.30201 158
17.32212 190
17.34224 180
17.36235 176
17.38247 188
17.40258 178
17.42269 164
17.44281 187
17.46292 165
17.48303 196
17.50315 153
17.52326 178
17.54338 167
17.56349 184
17.5836 192
17.60372 178
17.62383 172
17.64394 177
17.66406 171
17.68417 184
17.70428 173
17.7244 194
17.74451 184
17.76463 177
17.78474 186
17.80485 182
17.82497 181
17.84508 181
17.86519 157
17.88531 157
17.90542 164
17.92554 177
17.94565 153
17.96576 174
17.98588 147
18.00599 183
18.0261 183
18.04622 177
18.06633 174
18.08645 164
18.10656 176
18.12667 184
18.14679 153
18.1669 187
18.18701 172
18.20713 161
18.22724 193
18.24735 167
18.26747 186
18.28758 183
18.3077 182
18.32781 182
18.34792 181
18.36804 181
18.38815 193
18.40826 162
18.42838 157
18.44849 159
18.46861 174
18.48872 171
18.50883 166
18.52895 184
18.54906 191
18.56917 163
18.58929 207
18.6094 181
18.62951 190
18.64963 195
18.66974 187
18.68986 197
18.70997 176
18.73008 187
18.7502 181
18.77031 201
18.79042 203
18.81054 186
18.83065 175
18.85077 172
18.87088 208
18.89099 187
18.91111 168
18.93122 189
18.95133 185
18.97145 180
18.99156 177
19.01168 180
19.03179 173
19.0519 184
19.07202 200
19.09213 166
19.11224 152
19.13236 161
19.15247 163
19.17258 183
19.1927 185
19.21281 193
19.23293 198
19.25304 180
19.27315 179
19.29327 147
19.31338 205
19.33349 186
19.35361 214
19.37372 196
19.39384 164
19.41395 194
19.43406 175
19.45418 219
19.47429 173
19.4944 206
19.51452 196
19.53463 222
19.55475 225
19.57486 217
19.59497 245
19.61509 227
19.6352 241
19.65531 233
19.67543 244
19.69554 252
19.71565 279
19.73577 322
19.75588 280
19.776 314
19.79611 315
19.81622 348
19.83634 331
19.85645 355
19.87656 296
19.89668 318
19.91679 339
19.93691 333
19.95702 352
19.97713 352
19.99725 326
20.01736 317
20.03747 303
20.05759 325
20.0777 320
20.09782 348
20.11793 299
20.13804 369
20.15816 333
20.17827 364
20.19838 338
20.2185 358
20.23861 376
20.25872 322
20.27884 361
20.29895 330
20.31907 327
20.33918 362
20.35929 365
20.37941 417
20.39952 400
20.41963 366
20.43975 398
20.45986 404
20.47998 397
20.50009 436
20.5202 432
20.54032 430
20.56043 449
20.58054 471
20.60066 519
20.62077 529
20.64088 699
20.661 736
20.68111 916
20.70123 1247
20.72134 1707
20.74145 2373
20.76157 3460
20.78168 4790
20.80179 6335
20.82191 7724
20.84202 8396
20.86214 8268
20.88225 7069
20.90236 5228
20.92248 3528
20.94259 2285
20.9627 1459
20.98282 865
21.00293 665
21.02305 592
21.04316 621
21.06327 543
21.08339 487
21.1035 465
21.12361 415
21.14373 417
21.16384 383
21.18395 360
21.20407 369
21.22418 366
21.2443 360
21.26441 335
21.28452 303
21.30464 268
21.32475 340
21.34486 323
21.36498 339
21.38509 321
21.40521 320
21.42532 280
21.44543 276
21.46555 317
21.48566 249
21.50577 278
21.52589 288
21.546 255
21.56612 247
21.58623 294
21.60634 269
21.62646 288
21.64657 293
21.66668 260
21.6868 265
21.70691 304
21.72702 280
21.74714 260
21.76725 257
21.78737 254
21.80748 250
21.82759 249
21.84771 224
21.86782 274
21.88793 251
21.90805 237
21.92816 229
21.94828 260
21.96839 237
21.9885 236
22.00862 281
22.02873 254
22.04884 224
22.06896 267
22.08907 223
22.10919 229
22.1293 234
22.14941 244
22.16953 218
22.18964 254
22.20975 236
22.22987 227
22.24998 225
22.27009 246
22.29021 248
22.31032 250
22.33044 222
22.35055 250
22.37066 256
22.39078 249
22.41089 213
22.431 233
22.45112 254
22.47123 247
22.49135 208
22.51146 240
22.53157 255
22.55169 232
22.5718 209
22.59191 209
22.61203 237
22.63214 218
22.65225 213
22.67237 214
22.69248 202
22.7126 235
22.73271 235
22.75282 255
22.77294 250
22.79305 226
22.81316 213
22.83328 243
22.85339 244
22.87351 241
22.89362 237
22.91373 237
22.93385 233
22.95396 235
22.97407 209
22.99419 216
23.0143 236
23.03442 209
23.05453 228
23.07464 224
23.09476 230
23.11487 252
23.13498 240
23.1551 258
23.17521 263
23.19532 230
23.21544 238
23.23555 228
23.25567 218
23.27578 232
23.29589 209
23.31601 198
23.33612 230
23.35623 226
23.37635 224
23.39646 202
23.41658 232
23.43669 210
23.4568 245
23.47692 234
23.49703 234
23.51714 237
23.53726 213
23.55737 250
23.57749 221
23.5976 218
23.61771 216
23.63783 193
23.65794 215
23.67805 211
23.69817 231
23.71828 235
23.73839 247
23.75851 246
23.77862 236
23.79874 238
23.81885 248
23.83896 225
23.85908 235
23.87919 300
23.8993 269
23.91942 305
23.93953 311
23.95965 276
23.97976 310
23.99987 352
24.01999 319
24.0401 313
24.06021 292
24.08033 255
24.10044 272
24.12056 241
24.14067 212
24.16078 195
24.1809 244
24.20101 224
24.22112 214
24.24124 245
24.26135 199
24.28146 239
24.30158 242
24.32169 248
24.34181 259
24.36192 248
24.38203 226
24.40215 245
24.42226 234
24.44237 236
24.46249 209
24.4826 250
24.50272 249
24.52283 237
24.54294 252
24.56306 224
24.58317 230
24.60328 269
24.6234 247
24.64351 254
24.66362 278
24.68374 317
24.70385 286
24.72397 271
24.74408 257
24.76419 272
24.78431 275
24.80442 260
24.82453 272
24.84465 281
24.86476 239
24.88488 263
24.90499 302
24.9251 256
24.94522 284
24.96533 270
24.98544 289
25.00556 277
25.02567 287
25.04579 262
25.0659 255
25.08601 255
25.10613 259
25.12624 280
25.14635 265
25.16647 293
25.18658 279
25.20669 287
25.22681 287
25.24692 316
25.26704 272
25.28715 257
25.30726 282
25.32738 279
25.34749 255
25.3676 295
25.38772 266
25.40783 275
25.42795 271
25.44806 268
25.46817 304
25.48829 325
25.5084 310
25.52851 310
25.54863 345
25.56874 327
25.58886 302
25.60897 335
25.62908 342
25.6492 357
25.66931 392
25.68942 406
25.70954 435
25.72965 473
25.74976 464
25.76988 423
25.78999 452
25.81011 510
25.83022 469
25.85033 500
25.87045 474
25.89056 513
25.91067 465
25.93079 463
25.9509 465
25.97102 507
25.99113 521
26.01124 574
26.03136 472
26.05147 530
26.07158 557
26.0917 621
26.11181 627
26.13193 629
26.15204 714
26.17215 746
26.19227 779
26.21238 790
26.23249 925
26.25261 955
26.27272 1047
26.29283 1134
26.31295 1218
26.33306 1323
26.35318 1440
26.37329 1748
26.3934 2050
26.41352 2518
26.43363 3166
26.45374 4216
26.47386 5724
26.49397 7948
26.51409 11230
26.5342 15816
26.55431 21693
26.57443 28717
26.59454 34911
26.61465 38075
26.63477 36868
26.65488 32542
26.67499 25490
26.69511 19264
26.71522 13476
26.73534 8516
26.75545 4791
26.77556 2913
26.79568 2017
26.81579 1707
26.8359 1513
26.85602 1344
26.87613 1249
26.89625 1112
26.91636 1061
26.93647 978
26.95659 840
26.9767 811
26.99681 741
27.01693 695
27.03704 636
27.05716 610
27.07727 577
27.09738 515
27.1175 521
27.13761 496
27.15772 464
27.17784 489
27.19795 440
27.21806 452
27.23818 479
27.25829 432
27.27841 426
27.29852 426
27.31863 430
27.33875 486
27.35886 485
27.37897 468
27.39909 451
27.4192 472
27.43932 480
27.45943 425
27.47954 420
27.49966 432
27.51977 421
27.53988 405
27.56 377
27.58011 381
27.60023 338
27.62034 334
27.64045 314
27.66057 322
27.68068 348
27.70079 336
27.72091 298
27.74102 301
27.76113 296
27.78125 305
27.80136 295
27.82148 306
27.84159 335
27.8617 354
27.88182 325
27.90193 282
27.92204 289
27.94216 326
27.96227 288
27.98239 325
28.0025 253
28.02261 287
28.04273 288
28.06284 293
28.08295 267
28.10307 270
28.12318 300
28.1433 273
28.16341 280
28.18352 264
28.20364 248
28.22375 318
28.24386 292
28.26398 262
28.28409 267
28.3042 270
28.32432 259
28.34443 255
28.36455 263
28.38466 235
28.40477 243
28.42489 255
28.445 295
28.46511 235
28.48523 270
28.50534 248
28.52546 245
28.54557 280
28.56568 264
28.5858 276
28.60591 278
28.62602 221
28.64614 247
28.66625 289
28.68636 226
28.70648 246
28.72659 229
28.74671 233
28.76682 229
28.78693 255
28.80705 253
28.82716 228
28.84727 229
28.86739 234
28.8875 227
28.90762 215
28.92773 230
28.94784 241
28.96796 246
28.98807 256
29.00818 244
29.0283 222
29.04841 244
29.06853 234
29.08864 223
29.10875 258
29.12887 229
29.14898 239
29.16909 241
29.18921 243
29.20932 230
29.22943 231
29.24955 228
29.26966 207
29.28978 196
29.30989 249
29.33 240
29.35012 240
29.37023 288
29.39034 244
29.41046 231
29.43057 245
29.45069 247
29.4708 265
29.49091 230
29.51103 222
29.53114 245
29.55125 224
29.57137 218
29.59148 242
29.6116 225
29.63171 232
29.65182 229
29.67194 210
29.69205 195
29.71216 255
29.73228 217
29.75239 200
29.7725 248
29.79262 240
29.81273 224
29.83285 221
29.85296 211
29.87307 222
29.89319 242
29.9133 223
29.93341 251
29.95353 219
29.97364 243
29.99376 228
30.01387 228
30.03398 234
30.0541 230
30.07421 205
30.09432 221
30.11444 237
30.13455 225
30.15467 229
30.17478 248
30.19489 225
30.21501 252
30.23512 207
30.25523 245
30.27535 228
30.29546 214
30.31557 238
30.33569 230
30.3558 211
30.37592 184
30.39603 231
30.41614 215
30.43626 203
30.45637 213
30.47648 205
30.4966 203
30.51671 192
30.53683 224
30.55694 197
30.57705 235
30.59717 231
30.61728 245
30.63739 208
30.65751 239
30.67762 221
30.69773 231
30.71785 227
30.73796 217
30.75808 234
30.77819 237
30.7983 205
30.81842 209
30.83853 237
30.85864 219
30.87876 217
30.89887 239
30.91899 223
30.9391 212
30.95921 205
30.97933 215
30.99944 196
31.01955 185
31.03967 211
31.05978 196
31.0799 193
31.10001 184
31.12012 194
31.14024 194
31.16035 212
31.18046 186
31.20058 209
31.22069 199
31.2408 193
31.26092 179
31.28103 208
31.30115 209
31.32126 195
31.34137 198
31.36149 198
31.3816 174
31.40171 169
31.42183 181
31.44194 207
31.46206 205
31.48217 196
31.50228 178
31.5224 162
31.54251 190
31.56262 170
31.58274 182
31.60285 175
31.62297 206
31.64308 165
31.66319 174
31.68331 184
31.70342 211
31.72353 196
31.74365 179
31.76376 178
31.78387 187
31.80399 200
31.8241 205
31.84422 182
31.86433 166
31.88444 151
31.90456 163
31.92467 195
31.94478 187
31.9649 202
31.98501 184
32.00513 175
32.02524 169
32.04535 191
32.06547 176
32.08558 156
32.10569 189
32.12581 193
32.14592 172
32.16604 166
32.18615 178
32.20626 162
32.22638 164
32.24649 177
32.2666 192
32.28672 189
32.30683 168
32.32694 193
32.34706 195
32.36717 175
32.38729 173
32.4074 178
32.42751 188
32.44763 173
32.46774 168
32.48785 180
32.50797 189
32.52808 172
32.5482 191
32.56831 174
32.58842 171
32.60854 160
32.62865 173
32.64876 157
32.66888 174
32.68899 159
32.7091 206
32.72922 181
32.74933 176
32.76945 156
32.78956 178
32.80967 181
32.82979 194
32.8499 155
32.87001 199
32.89013 167
32.91024 195
32.93036 184
32.95047 171
32.97058 137
32.9907 168
33.01081 181
33.03092 178
33.05104 169
33.07115 173
33.09127 170
33.11138 185
33.13149 166
33.15161 165
33.17172 173
33.19183 173
33.21195 154
33.23206 206
33.25217 145
33.27229 157
33.2924 165
33.31252 160
33.33263 167
33.35274 196
33.37286 180
33.39297 152
33.41308 187
33.4332 160
33.45331 177
33.47343 167
33.49354 177
33.51365 177
33.53377 175
33.55388 170
33.57399 148
33.59411 174
33.61422 145
33.63434 176
33.65445 167
33.67456 168
33.69468 165
33.71479 162
33.7349 182
33.75502 170
33.77513 167
33.79524 174
33.81536 157
33.83547 155
33.85559 146
33.8757 164
33.89581 195
33.91593 172
33.93604 154
33.95615 170
33.97627 158
33.99638 164
34.0165 147
34.03661 178
34.05672 154
34.07684 168
34.09695 159
34.11706 171
34.13718 171
34.15729 181
34.17741 158
34.19752 205
34.21763 150
34.23775 187
34.25786 186
34.27797 173
34.29809 149
34.3182 146
34.33831 166
34.35843 187
34.37854 169
34.39866 173
34.41877 172
34.43888 186
34.459 164
34.47911 220
34.49922 171
34.51934 185
34.53945 206
34.55957 191
34.57968 174
34.59979 201
34.61991 215
34.64002 243
34.66013 191
34.68025 226
34.70036 178
34.72047 267
34.74059 225
34.7607 234
34.78082 235
34.80093 212
34.82104 236
34.84116 255
34.86127 225
34.88138 259
34.9015 223
34.92161 222
34.94173 267
34.96184 231
34.98195 262
35.00207 247
35.02218 222
35.04229 208
35.06241 247
35.08252 213
35.10264 227
35.12275 182
35.14286 208
35.16298 219
35.18309 222
35.2032 226
35.22332 211
35.24343 224
35.26354 192
35.28366 208
35.30377 211
35.32389 176
35.344 196
35.36411 206
35.38423 208
35.40434 230
35.42445 230
35.44457 241
35.46468 219
35.4848 215
35.50491 212
35.52502 237
35.54514 223
35.56525 228
35.58536 227
35.60548 206
35.62559 218
35.64571 235
35.66582 201
35.68593 219
35.70605 228
35.72616 213
35.74627 234
35.76639 207
35.7865 234
35.80661 232
35.82673 192
35.84684 221
35.86696 250
35.88707 242
35.90718 236
35.9273 210
35.94741 240
35.96752 244
35.98764 203
36.00775 238
36.02787 223
36.04798 235
36.06809 225
36.08821 231
36.10832 249
36.12843 275
36.14855 232
36.16866 249
36.18878 271
36.20889 284
36.229 310
36.24912 316
36.26923 318
36.28934 362
36.30946 407
36.32957 450
36.34968 567
36.3698 681
36.38991 874
36.41003 1073
36.43014 1360
36.45025 1620
36.47037 2074
36.49048 2318
36.51059 2560
36.53071 2490
36.55082 2202
36.57094 1844
36.59105 1639
36.61116 1339
36.63128 1217
36.65139 886
36.6715 605
36.69162 468
36.71173 376
36.73184 285
36.75196 315
36.77207 296
36.79219 269
36.8123 247
36.83241 251
36.85253 244
36.87264 228
36.89275 230
36.91287 249
36.93298 253
36.9531 235
36.97321 230
36.99332 214
37.01344 215
37.03355 195
37.05366 226
37.07378 230
37.09389 213
37.11401 205
37.13412 211
37.15423 231
37.17435 206
37.19446 195
37.21457 188
37.23469 196
37.2548 183
37.27491 201
37.29503 202
37.31514 196
37.33526 199
37.35537 251
37.37548 189
37.3956 214
37.41571 221
37.43582 192
37.45594 154
37.47605 204
37.49617 217
37.51628 186
37.53639 216
37.55651 181
37.57662 176
37.59673 206
37.61685 204
37.63696 213
37.65708 194
37.67719 222
37.6973 188
37.71742 178
37.73753 190
37.75764 209
37.77776 183
37.79787 201
37.81798 201
37.8381 193
37.85821 195
37.87833 203
37.89844 179
37.91855 194
37.93867 187
37.95878 184
37.97889 201
37.99901 207
38.01912 213
38.03924 190
38.05935 224
38.07946 210
38.09958 201
38.11969 232
38.1398 220
38.15992 203
38.18003 182
38.20015 192
38.22026 225
38.24037 235
38.26049 214
38.2806 203
38.30071 215
38.32083 191
38.34094 220
38.36105 222
38.38117 210
38.40128 208
38.4214 186
38.44151 208
38.46162 194
38.48174 220
38.50185 226
38.52196 234
38.54208 221
38.56219 246
38.58231 212
38.60242 196
38.62253 219
38.64265 197
38.66276 208
38.68287 202
38.70299 205
38.7231 184
38.74321 194
38.76333 208
38.78344 213
38.80356 186
38.82367 212
38.84378 221
38.8639 215
38.88401 197
38.90412 216
38.92424 216
38.94435 247
38.96447 222
38.98458 229
39.00469 224
39.02481 235
39.04492 248
39.06503 234
39.08515 262
39.10526 245
39.12538 257
39.14549 289
39.1656 278
39.18572 346
39.20583 349
39.22594 387
39.24606 424
39.26617 493
39.28628 607
39.3064 749
39.32651 952
39.34663 1174
39.36674 1498
39.38685 1834
39.40697 2008
39.42708 2337
39.44719 2219
39.46731 2057
39.48742 1773
39.50754 1470
39.52765 1313
39.54776 1251
39.56788 992
39.58799 724
39.6081 494
39.62822 379
39.64833 297
39.66845 312
39.68856 257
39.70867 247
39.72879 262
39.7489 249
39.76901 216
39.78913 209
39.80924 233
39.82935 238
39.84947 230
39.86958 230
39.8897 217
39.90981 231
39.92992 219
39.95004 233
39.97015 242
39.99026 232
40.01038 261
40.03049 299
40.05061 322
40.07072 320
40.09083 374
40.11095 415
40.13106 502
40.15117 603
40.17129 725
40.1914 826
40.21152 1018
40.23163 1193
40.25174 1292
40.27186 1254
40.29197 1087
40.31208 960
40.3322 855
40.35231 742
40.37242 668
40.39254 594
40.41265 481
40.43277 336
40.45288 247
40.47299 264
40.49311 218
40.51322 195
40.53333 218
40.55345 233
40.57356 208
40.59368 216
40.61379 197
40.6339 193
40.65402 189
40.67413 203
40.69424 177
40.71436 180
40.73447 211
40.75458 185
40.7747 182
40.79481 169
40.81493 154
40.83504 181
40.85515 189
40.87527 216
40.89538 202
40.91549 181
40.93561 185
40.95572 173
40.97584 168
40.99595 188
41.01606 192
41.03618 182
41.05629 183
41.0764 183
41.09652 175
41.11663 180
41.13675 158
41.15686 168
41.17697 191
41.19709 170
41.2172 180
41.23731 202
41.25743 175
41.27754 187
41.29765 179
41.31777 182
41.33788 190
41.358 182
41.37811 186
41.39822 165
41.41834 183
41.43845 183
41.45856 197
41.47868 205
41.49879 216
41.51891 191
41.53902 164
41.55913 167
41.57925 196
41.59936 183
41.61947 202
41.63959 180
41.6597 179
41.67982 176
41.69993 191
41.72004 184
41.74016 224
41.76027 207
41.78038 239
41.8005 221
41.82061 209
41.84072 186
41.86084 232
41.88095 197
41.90107 201
41.92118 195
41.94129 184
41.96141 198
41.98152 203
42.00163 199
42.02175 220
42.04186 210
42.06198 195
42.08209 222
42.1022 237
42.12232 250
42.14243 254
42.16254 255
42.18266 286
42.20277 293
42.22289 374
42.243 426
42.26311 500
42.28323 569
42.30334 794
42.32345 890
42.34357 1069
42.36368 1307
42.38379 1524
42.40391 1709
42.42402 1706
42.44414 1573
42.46425 1377
42.48436 1155
42.50448 1004
42.52459 964
42.5447 871
42.56482 698
42.58493 538
42.60505 357
42.62516 328
42.64527 252
42.66539 230
42.6855 218
42.70561 221
42.72573 209
42.74584 205
42.76595 211
42.78607 192
42.80618 192
42.8263 166
42.84641 185
42.86652 172
42.88664 168
42.90675 171
42.92686 172
42.94698 190
42.96709 129
42.98721 176
43.00732 164
43.02743 166
43.04755 176
43.06766 171
43.08777 166
43.10789 163
43.128 169
43.14812 173
43.16823 152
43.18834 174
43.20846 163
43.22857 124
43.24868 161
43.2688 168
43.28891 172
43.30902 179
43.32914 175
43.34925 168
43.36937 151
43.38948 179
43.40959 156
43.42971 157
43.44982 155
43.46993 194
43.49005 156
43.51016 156
43.53028 169
43.55039 164
43.5705 163
43.59062 159
43.61073 153
43.63084 164
43.65096 167
43.67107 157
43.69119 154
43.7113 140
43.73141 186
43.75153 162
43.77164 158
43.79175 165
43.81187 147
43.83198 164
43.85209 149
43.87221 148
43.89232 153
43.91244 145
43.93255 134
43.95266 159
43.97278 160
43.99289 143
44.013 164
44.03312 160
44.05323 156
44.07335 173
44.09346 156
44.11357 174
44.13369 178
44.1538 146
44.17391 163
44.19403 154
44.21414 174
44.23426 175
44.25437 147
44.27448 147
44.2946 178
44.31471 150
44.33482 154
44.35494 186
44.37505 175
44.39516 148
44.41528 151
44.43539 156
44.45551 174
44.47562 132
44.49573 167
44.51585 145
44.53596 150
44.55607 159
44.57619 162
44.5963 162
44.61642 140
44.63653 142
44.65664 177
44.67676 143
44.69687 162
44.71698 139
44.7371 151
44.75721 168
44.77732 164
44.79744 153
44.81755 152
44.83767 181
44.85778 167
44.87789 161
44.89801 178
44.91812 169
44.93823 177
44.95835 175
44.97846 162
44.99858 184
45.01869 182
45.0388 190
45.05892 165
45.07903 173
45.09914 169
45.11926 182
45.13937 163
45.15949 171
45.1796 170
45.19971 189
45.21983 188
45.23994 179
45.26005 151
45.28017 150
45.30028 176
45.32039 189
45.34051 191
45.36062 181
45.38074 179
45.40085 207
45.42096 186
45.44108 214
45.46119 196
45.4813 204
45.50142 243
45.52153 245
45.54165 265
45.56176 306
45.58187 316
45.60199 383
45.6221 421
45.64221 509
45.66233 638
45.68244 735
45.70256 957
45.72267 1065
45.74278 1191
45.7629 1232
45.78301 1052
45.80312 991
45.82324 829
45.84335 780
45.86346 653
45.88358 622
45.90369 517
45.92381 452
45.94392 319
45.96403 286
45.98415 229
46.00426 198
46.02437 206
46.04449 176
46.0646 189
46.08472 192
46.10483 166
46.12494 182
46.14506 177
46.16517 177
46.18528 204
46.2054 169
46.22551 180
46.24563 157
46.26574 172
46.28585 151
46.30597 164
46.32608 185
46.34619 173
46.36631 166
46.38642 160
46.40653 178
46.42665 179
46.44676 183
46.46688 156
46.48699 146
46.5071 144
46.52722 166
46.54733 167
46.56744 170
46.58756 156
46.60767 139
46.62779 166
46.6479 144
46.66801 163
46.68813 156
46.70824 160
46.72835 164
46.74847 152
46.76858 168
46.78869 145
46.80881 156
46.82892 158
46.84904 135
46.86915 149
46.88926 167
46.90938 159
46.92949 154
46.9496 170
46.96972 154
46.98983 170
47.00995 177
47.03006 146
47.05017 158
47.07029 167
47.0904 169
47.11051 141
47.13063 157
47.15074 189
47.17086 182
47.19097 169
47.21108 151
47.2312 149
47.25131 139
47.27142 158
47.29154 165
47.31165 139
47.33176 152
47.35188 155
47.37199 161
47.39211 150
47.41222 145
47.43233 154
47.45245 165
47.47256 144
47.49267 168
47.51279 141
47.5329 142
47.55302 140
47.57313 148
47.59324 159
47.61336 164
47.63347 139
47.65358 157
47.6737 153
47.69381 154
47.71393 178
47.73404 144
47.75415 163
47.77427 142
47.79438 136
47.81449 152
47.83461 165
47.85472 155
47.87483 143
47.89495 153
47.91506 176
47.93518 137
47.95529 164
47.9754 142
47.99552 149
48.01563 161
48.03574 157
48.05586 155
48.07597 154
48.09609 169
48.1162 149
48.13631 151
48.15643 146
48.17654 156
48.19665 137
48.21677 160
48.23688 171
48.257 154
48.27711 154
48.29722 149
48.31734 168
48.33745 166
48.35756 123
48.37768 189
48.39779 144
48.4179 155
48.43802 158
48.45813 143
48.47825 145
48.49836 184
48.51847 159
48.53859 160
48.5587 147
48.57881 181
48.59893 144
48.61904 160
48.63916 154
48.65927 158
48.67938 148
48.6995 156
48.71961 183
48.73972 167
48.75984 174
48.77995 170
48.80006 164
48.82018 182
48.84029 160
48.86041 162
48.88052 131
48.90063 149
48.92075 150
48.94086 158
48.96097 164
48.98109 168
49.0012 157
49.02132 198
49.04143 155
49.06154 158
49.08166 163
49.10177 167
49.12188 165
49.142 177
49.16211 177
49.18223 170
49.20234 161
49.22245 179
49.24257 187
49.26268 170
49.28279 165
49.30291 176
49.32302 159
49.34313 158
49.36325 175
49.38336 179
49.40348 194
49.42359 160
49.4437 165
49.46382 189
49.48393 183
49.50404 179
49.52416 191
49.54427 203
49.56439 196
49.5845 188
49.60461 213
49.62473 189
49.64484 209
49.66495 210
49.68507 203
49.70518 229
49.7253 276
49.74541 282
49.76552 327
49.78564 343
49.80575 379
49.82586 396
49.84598 436
49.86609 502
49.8862 610
49.90632 702
49.92643 800
49.94655 976
49.96666 1281
49.98677 1544
50.00689 1922
50.027 2480
50.04711 2965
50.06723 3479
50.08734 3740
50.10746 3774
50.12757 3526
50.14768 2855
50.1678 2442
50.18791 2131
50.20802 2112
50.22814 1998
50.24825 1772
50.26837 1484
50.28848 1062
50.30859 717
50.32871 534
50.34882 419
50.36893 365
50.38905 333
50.40916 303
50.42927 296
50.44939 300
50.4695 286
50.48962 284
50.50973 300
50.52984 301
50.54996 293
50.57007 278
50.59018 298
50.6103 275
50.63041 246
50.65053 250
50.67064 231
50.69075 201
50.71087 219
50.73098 229
50.75109 203
50.77121 204
50.79132 192
50.81143 164
50.83155 178
50.85166 168
50.87178 195
50.89189 190
50.912 165
50.93212 175
50.95223 174
50.97234 180
50.99246 155
51.01257 146
51.03269 144
51.0528 188
51.07291 138
51.09303 170
51.11314 151
51.13325 157
51.15337 146
51.17348 167
51.1936 151
51.21371 145
51.23382 143
51.25394 138
51.27405 144
51.29416 155
51.31428 158
51.33439 161
51.3545 147
51.37462 162
51.39473 189
51.41485 141
51.43496 152
51.45507 137
51.47519 145
51.4953 154
51.51541 139
51.53553 144
51.55564 139
51.57576 151
51.59587 119
51.61598 154
51.6361 139
51.65621 165
51.67632 124
51.69644 146
51.71655 139
51.73667 138
51.75678 158
51.77689 148
51.79701 164
51.81712 131
51.83723 153
51.85735 142
51.87746 138
51.89757 129
51.91769 136
51.9378 143
51.95792 128
51.97803 128
51.99814 130
52.01826 143
52.03837 138
52.05848 125
52.0786 147
52.09871 162
52.11883 155
52.13894 146
52.15905 135
52.17917 143
52.19928 137
52.21939 135
52.23951 155
52.25962 145
52.27974 141
52.29985 148
52.31996 142
52.34008 145
52.36019 141
52.3803 126
52.40042 135
52.42053 151
52.44064 120
52.46076 148
52.48087 131
52.50099 123
52.5211 139
52.54121 133
52.56133 139
52.58144 144
52.60155 140
52.62167 121
52.64178 118
52.6619 139
52.68201 133
52.70212 133
52.72224 129
52.74235 141
52.76246 133
52.78258 154
52.80269 143
52.8228 119
52.84292 163
52.86303 143
52.88315 128
52.90326 122
52.92337 148
52.94349 127
52.9636 128
52.98371 164
53.00383 137
53.02394 157
53.04406 120
53.06417 145
53.08428 129
53.1044 150
53.12451 133
53.14462 159
53.16474 137
53.18485 129
53.20497 144
53.22508 137
53.24519 162
53.26531 126
53.28542 170
53.30553 152
53.32565 161
53.34576 151
53.36587 172
53.38599 155
53.4061 143
53.42622 176
53.44633 145
53.46644 159
53.48656 163
53.50667 152
53.52678 152
53.5469 144
53.56701 177
53.58713 168
53.60724 149
53.62735 166
53.64747 163
53.66758 163
53.68769 151
53.70781 182
53.72792 161
53.74804 150
53.76815 144
53.78826 172
53.80838 157
53.82849 152
53.8486 160
53.86872 150
53.88883 168
53.90894 170
53.92906 146
53.94917 162
53.96929 166
53.9894 183
54.00951 177
54.02963 169
54.04974 192
54.06985 171
54.08997 162
54.11008 177
54.1302 155
54.15031 174
54.17042 183
54.19054 177
54.21065 185
54.23076 175
54.25088 169
54.27099 176
54.29111 190
54.31122 178
54.33133 194
54.35145 181
54.37156 189
54.39167 179
54.41179 190
54.4319 179
54.45201 203
54.47213 197
54.49224 215
54.51236 216
54.53247 250
54.55258 253
54.5727 229
54.59281 270
54.61292 282
54.63304 311
54.65315 346
54.67327 444
54.69338 471
54.71349 536
54.73361 702
54.75372 773
54.77383 931
54.79395 1115
54.81406 1115
54.83417 1172
54.85429 1115
54.8744 1040
54.89452 791
54.91463 714
54.93474 693
54.95486 699
54.97497 710
54.99508 643
55.0152 626
55.03531 467
55.05543 386
55.07554 287
55.09565 310
55.11577 303
55.13588 313
55.15599 345
55.17611 383
55.19622 415
55.21634 436
55.23645 488
55.25656 585
55.27668 579
55.29679 564
55.3169 539
55.33702 486
55.35713 459
55.37724 377
55.39736 370
55.41747 349
55.43759 371
55.4577 357
55.47781 325
55.49793 280
55.51804 244
55.53815 209
55.55827 192
55.57838 197
55.5985 174
55.61861 171
55.63872 191
55.65884 181
55.67895 157
55.69906 176
55.71918 184
55.73929 176
55.75941 146
55.77952 164
55.79963 171
55.81975 161
55.83986 163
55.85997 144
55.88009 172
55.9002 162
55.92031 171
55.94043 155
55.96054 149
55.98066 153
56.00077 152
56.02088 156
56.041 151
56.06111 180
56.08122 183
56.10134 151
56.12145 144
56.14157 143
56.16168 173
56.18179 150
56.20191 155
56.22202 182
56.24213 139
56.26225 134
56.28236 155
56.30248 155
56.32259 158
56.3427 154
56.36282 153
56.38293 136
56.40304 167
56.42316 157
56.44327 174
56.46338 147
56.4835 151
56.50361 123
56.52373 153
56.54384 131
56.56395 179
56.58407 153
56.60418 148
56.62429 161
56.64441 168
56.66452 147
56.68464 144
56.70475 158
56.72486 151
56.74498 167
56.76509 159
56.7852 149
56.80532 176
56.82543 154
56.84554 135
56.86566 151
56.88577 150
56.90589 142
56.926 146
56.94611 171
56.96623 132
56.98634 153
57.00645 164
57.02657 146
57.04668 157
57.0668 160
57.08691 192
57.10702 177
57.12714 183
57.14725 209
57.16736 174
57.18748 211
57.20759 187
57.22771 196
57.24782 194
57.26793 153
57.28805 156
57.30816 178
57.32827 178
57.34839 178
57.3685 176
57.38861 155
57.40873 158
57.42884 178
57.44896 131
57.46907 144
57.48918 154
57.5093 122
57.52941 146
57.54952 148
57.56964 145
57.58975 139
57.60987 132
57.62998 148
57.65009 141
57.67021 158
57.69032 132
57.71043 147
57.73055 130
57.75066 154
57.77078 146
57.79089 137
57.811 140
57.83112 134
57.85123 135
57.87134 146
57.89146 135
57.91157 158
57.93168 150
57.9518 127
57.97191 160
57.99203 162
58.01214 135
58.03225 127
58.05237 163
58.07248 149
58.09259 157
58.11271 155
58.13282 146
58.15294 131
58.17305 153
58.19316 136
58.21328 174
58.23339 150
58.2535 150
58.27362 145
58.29373 142
58.31385 135
58.33396 173
58.35407 134
58.37419 168
58.3943 125
58.41441 151
58.43453 153
58.45464 156
58.47475 132
58.49487 155
58.51498 157
58.5351 139
58.55521 142
58.57532 146
58.59544 159
58.61555 135
58.63566 135
58.65578 154
58.67589 155
58.69601 146
58.71612 147
58.73623 132
58.75635 141
58.77646 161
58.79657 149
58.81669 158
58.8368 153
58.85691 145
58.87703 156
58.89714 149
58.91726 147
58.93737 149
58.95748 147
58.9776 154
58.99771 138
59.01782 143
59.03794 156
59.05805 150
59.07817 166
59.09828 140
59.11839 144
59.13851 155
59.15862 164
59.17873 164
59.19885 146
59.21896 165
59.23908 176
59.25919 169
59.2793 155
59.29942 178
59.31953 161
59.33964 179
59.35976 180
59.37987 177
59.39998 189
59.4201 177
59.44021 187
59.46033 215
59.48044 212
59.50055 231
59.52067 213
59.54078 239
59.56089 243
59.58101 285
59.60112 281
59.62124 350
59.64135 345
59.66146 382
59.68158 438
59.70169 501
59.7218 601
59.74192 666
59.76203 803
59.78215 992
59.80226 1168
59.82237 1497
59.84249 1707
59.8626 2018
59.88271 2220
59.90283 2360
59.92294 2346
59.94305 2106
59.96317 1820
59.98328 1467
60.0034 1288
60.02351 1229
60.04362 1311
60.06374 1320
60.08385 1203
60.10396 1089
60.12408 849
60.14419 570
60.16431 448
60.18442 338
60.20453 285
60.22465 272
60.24476 241
60.26487 236
60.28499 213
60.3051 193
60.32522 174
60.34533 198
60.36544 175
60.38556 182
60.40567 166
60.42578 194
60.4459 164
60.46601 190
60.48612 164
60.50624 167
60.52635 151
60.54647 142
60.56658 153
60.58669 153
60.60681 167
60.62692 153
60.64703 157
60.66715 164
60.68726 164
60.70738 141
60.72749 156
60.7476 174
60.76772 143
60.78783 150
60.80794 166
60.82806 136
60.84817 163
60.86828 148
60.8884 144
60.90851 139
60.92863 159
60.94874 149
60.96885 173
60.98897 149
61.00908 132
61.02919 166
61.04931 153
61.06942 142
61.08954 163
61.10965 156
61.12976 147
61.14988 158
61.16999 146
61.1901 172
61.21022 155
61.23033 128
61.25045 154
61.27056 141
61.29067 172
61.31079 121
61.3309 136
61.35101 131
61.37113 145
61.39124 146
61.41135 162
61.43147 164
61.45158 156
61.4717 149
61.49181 156
61.51192 153
61.53204 167
61.55215 162
61.57226 178
61.59238 181
61.61249 162
61.63261 154
61.65272 154
61.67283 148
61.69295 157
61.71306 155
61.73317 170
61.75329 178
61.7734 164
61.79352 159
61.81363 163
61.83374 141
61.85386 152
61.87397 182
61.89408 164
61.9142 147
61.93431 167
61.95442 171
61.97454 180
61.99465 180
62.01477 199
62.03488 171
62.05499 157
62.07511 175
62.09522 153
62.11533 196
62.13545 195
62.15556 198
62.17568 195
62.19579 194
62.2159 156
62.23602 170
62.25613 175
62.27624 150
62.29636 166
62.31647 201
62.33659 182
62.3567 180
62.37681 158
62.39693 169
62.41704 149
62.43715 160
62.45727 173
62.47738 171
62.49749 165
62.51761 172
62.53772 153
62.55784 164
62.57795 169
62.59806 148
62.61818 145
62.63829 152
62.6584 140
62.67852 145
62.69863 162
62.71875 127
62.73886 175
62.75897 158
62.77909 122
62.7992 131
62.81931 153
62.83943 138
62.85954 149
62.87965 148
62.89977 143
62.91988 147
62.94 161
62.96011 143
62.98022 148
63.00034 124
63.02045 143
63.04056 129
63.06068 141
63.08079 134
63.10091 139
63.12102 114
63.14113 139
63.16125 145
63.18136 143
63.20147 134
63.22159 111
63.2417 138
63.26182 175
63.28193 148
63.30204 160
63.32216 131
63.34227 135
63.36238 149
63.3825 136
63.40261 152
63.42272 142
63.44284 143
63.46295 123
63.48307 144
63.50318 161
63.52329 142
63.54341 145
63.56352 149
63.58363 160
63.60375 161
63.62386 153
63.64398 189
63.66409 152
63.6842 181
63.70432 181
63.72443 168
63.74454 199
63.76466 184
63.78477 204
63.80489 240
63.825 275
63.84511 257
63.86523 313
63.88534 306
63.90545 365
63.92557 447
63.94568 522
63.96579 505
63.98591 558
64.00602 562
64.02614 478
64.04625 389
64.06636 365
64.08648 305
64.10659 321
64.1267 356
64.14682 324
64.16693 344
64.18705 331
64.20716 260
64.22727 211
64.24739 205
64.2675 204
64.28761 170
64.30773 169
64.32784 148
64.34796 124
64.36807 172
64.38818 141
64.4083 147
64.42841 143
64.44852 134
64.46864 134
64.48875 137
64.50886 153
64.52898 145
64.54909 144
64.56921 128
64.58932 151
64.60943 137
64.62955 131
64.64966 135
64.66977 127
64.68989 107
64.71 133
64.73012 121
64.75023 127
64.77034 126
64.79046 134
64.81057 141
64.83068 135
64.8508 147
64.87091 134
64.89102 137
64.91114 148
64.93125 122
64.95137 133
64.97148 109
64.99159 119
65.01171 146
65.03182 138
65.05193 156
65.07205 141
65.09216 147
65.11228 143
65.13239 162
65.1525 147
65.17262 173
65.19273 130
65.21284 140
65.23296 151
65.25307 133
65.27319 158
65.2933 137
65.31341 144
65.33353 140
65.35364 136
65.37375 149
65.39387 145
65.41398 138
65.43409 136
65.45421 136
65.47432 153
65.49444 162
65.51455 157
65.53466 166
65.55478 160
65.57489 169
65.595 156
65.61512 190
65.63523 175
65.65535 237
65.67546 206
65.69557 251
65.71569 239
65.7358 232
65.75591 255
65.77603 190
65.79614 195
65.81626 189
65.83637 186
65.85648 162
65.8766 159
65.89671 177
65.91682 194
65.93694 173
65.95705 167
65.97716 166
65.99728 149
66.01739 144
66.03751 140
66.05762 159
66.07773 156
66.09785 136
66.11796 150
66.13807 145
66.15819 141
66.1783 142
66.19842 137
66.21853 139
66.23864 144
66.25876 150
66.27887 145
66.29898 140
66.3191 157
66.33921 136
66.35933 134
66.37944 161
66.39955 139
66.41967 140
66.43978 163
66.45989 140
66.48001 139
66.50012 152
66.52023 135
66.54035 148
66.56046 150
66.58058 156
66.60069 147
66.6208 139
66.64092 156
66.66103 171
66.68114 136
66.70126 167
66.72137 149
66.74149 139
66.7616 161
66.78171 150
66.80183 147
66.82194 146
66.84205 151
66.86217 160
66.88228 151
66.90239 170
66.92251 166
66.94262 163
66.96274 147
66.98285 160
67.00296 156
67.02308 175
67.04319 159
67.0633 175
67.08342 159
67.10353 175
67.12365 154
67.14376 171
67.16387 162
67.18399 150
67.2041 189
67.22421 161
67.24433 211
67.26444 171
67.28456 193
67.30467 246
67.32478 224
67.3449 217
67.36501 227
67.38512 261
67.40524 236
67.42535 285
67.44546 320
67.46558 355
67.48569 373
67.50581 452
67.52592 432
67.54603 574
67.56615 657
67.58626 764
67.60637 927
67.62649 1068
67.6466 1203
67.66672 1367
67.68683 1419
67.70694 1404
67.72706 1240
67.74717 1119
67.76728 951
67.7874 835
67.80751 848
67.82763 896
67.84774 923
67.86785 1029
67.88797 1065
67.90808 1046
67.92819 1046
67.94831 1020
67.96842 1020
67.98853 1152
68.00865 1301
68.02876 1413
68.04888 1639
68.06899 1888
68.0891 1907
68.10922 1845
68.12933 1731
68.14944 1591
68.16956 1480
68.18967 1482
68.20979 1516
68.2299 1622
68.25001 1770
68.27013 1756
68.29024 1622
68.31035 1432
68.33047 1224
68.35058 1038
68.3707 866
68.39081 713
68.41092 715
68.43104 690
68.45115 638
68.47126 566
68.49138 527
68.51149 414
68.5316 363
68.55172 301
68.57183 229
68.59195 256
68.61206 212
68.63217 207
68.65229 198
68.6724 177
68.69251 180
68.71263 186
68.73274 161
68.75286 173
68.77297 189
68.79308 166
68.8132 171
68.83331 159
68.85342 163
68.87354 135
68.89365 168
68.91376 155
68.93388 164
68.95399 153
68.97411 147
68.99422 151
69.01433 148
69.03445 134
69.05456 137
69.07467 157
69.09479 155
69.1149 146
69.13502 136
69.15513 131
69.17524 135
69.19536 144
69.21547 129
69.23558 155
69.2557 125
69.27581 133
69.29593 150
69.31604 143
69.33615 140
69.35627 124
69.37638 145
69.39649 144
69.41661 128
69.43672 130
69.45683 145
69.47695 147
69.49706 147
69.51718 147
69.53729 130
69.5574 155
69.57752 141
69.59763 144
69.61774 142
69.63786 145
69.65797 131
69.67809 132
69.6982 141
69.71831 133
69.73843 129
69.75854 142
69.77865 141
69.79877 154
69.81888 117
69.839 141
69.85911 125
69.87922 144
69.89934 148
69.91945 156
69.93956 125
69.95968 138
69.97979 129
69.9999 104
70.02002 138
70.04013 149
70.06025 122
70.08036 131
70.10047 141
70.12059 132
70.1407 149
70.16081 114
70.18093 150
70.20104 139
70.22116 116
70.24127 116
70.26138 133
70.2815 151
70.30161 122
70.32172 153
70.34184 126
70.36195 135
70.38207 140
70.40218 126
70.42229 117
70.44241 127
70.46252 125
70.48263 112
70.50275 122
70.52286 124
70.54297 126
70.56309 134
70.5832 136
70.60332 131
70.62343 120
70.64354 135
70.66366 133
70.68377 154
70.70388 128
70.724 128
70.74411 110
70.76423 123
70.78434 127
70.80445 124
70.82457 133
70.84468 144
70.86479 119
70.88491 123
70.90502 118
70.92513 126
70.94525 139
70.96536 121
70.98548 131
71.00559 112
71.0257 134
71.04582 127
71.06593 122
71.08604 116
71.10616 111
71.12627 123
71.14639 126
71.1665 129
71.18661 123
71.20673 116
71.22684 133
71.24695 113
71.26707 124
71.28718 125
71.3073 116
71.32741 124
71.34752 119
71.36764 129
71.38775 137
71.40786 123
71.42798 115
71.44809 152
71.4682 120
71.48832 132
71.50843 131
71.52855 138
71.54866 117
71.56877 125
71.58889 119
71.609 123
71.62911 128
71.64923 132
71.66934 117
71.68946 120
71.70957 119
71.72968 122
71.7498 135
71.76991 128
71.79002 128
71.81014 111
71.83025 133
71.85037 152
71.87048 127
71.89059 145
71.91071 132
71.93082 120
71.95093 124
71.97105 128
71.99116 128
72.01127 130
72.03139 140
72.0515 126
72.07162 148
72.09173 136
72.11184 136
72.13196 128
72.15207 129
72.17218 156
72.1923 142
72.21241 129
72.23253 144
72.25264 137
72.27275 120
72.29287 137
72.31298 130
72.33309 130
72.35321 135
72.37332 127
72.39344 111
72.41355 129
72.43366 130
72.45378 112
72.47389 135
72.494 142
72.51412 137
72.53423 130
72.55434 128
72.57446 125
72.59457 134
72.61469 118
72.6348 139
72.65491 116
72.67503 143
72.69514 155
72.71525 133
72.73537 132
72.75548 138
72.7756 152
72.79571 123
72.81582 130
72.83594 136
72.85605 131
72.87616 142
72.89628 154
72.91639 127
72.9365 148
72.95662 141
72.97673 146
72.99685 164
73.01696 143
73.03707 146
73.05719 164
73.0773 139
73.09741 145
73.11753 161
73.13764 181
73.15776 200
73.17787 201
73.19798 221
73.2181 224
73.23821 221
73.25832 272
73.27844 271
73.29855 346
73.31867 360
73.33878 401
73.35889 494
73.37901 485
73.39912 524
73.41923 545
73.43935 560
73.45946 483
73.47957 426
73.49969 356
73.5198 349
73.53992 281
73.56003 312
73.58014 319
73.60026 344
73.62037 341
73.64048 331
73.6606 305
73.68071 306
73.70083 228
73.72094 203
73.74105 189
73.76117 150
73.78128 157
73.80139 154
73.82151 161
73.84162 132
73.86174 144
73.88185 121
73.90196 142
73.92208 129
73.94219 129
73.9623 143
73.98242 143
74.00253 126
74.02264 136
74.04276 125
74.06287 130
74.08299 150
74.1031 142
74.12321 132
74.14333 127
74.16344 125
74.18355 121
74.20367 135
74.22378 129
74.2439 121
74.26401 115
74.28412 130
74.30424 121
74.32435 142
74.34446 143
74.36458 126
74.38469 147
74.40481 121
74.42492 127
74.44503 125
74.46515 128
74.48526 107
74.50537 131
74.52549 142
74.5456 129
74.56571 130
74.58583 138
74.60594 141
74.62606 142
74.64617 120
74.66628 134
74.6864 142
74.70651 135
74.72662 130
74.74674 140
74.76685 128
74.78697 128
74.80708 127
74.82719 138
74.84731 157
74.86742 138
74.88753 138
74.90765 133
74.92776 150
74.94787 158
74.96799 130
74.9881 148
75.00822 141
