3.00117 19324
3.02128 19012
3.0414 18322
3.06151 17605
3.08162 17354
3.10174 16767
3.12185 16454
3.14197 15820
3.16208 15341
3.18219 15066
3.20231 14621
3.22242 14366
3.24253 13732
3.26265 13022
3.28276 13430
3.30288 12470
3.32299 12224
3.3431 11816
3.36322 11127
3.38333 11002
3.40344 10334
3.42356 10169
3.44367 9943
3.46379 9288
3.4839 9185
3.50401 8861
3.52413 8758
3.54424 8172
3.56435 7877
3.58447 7711
3.60458 7292
3.62469 7298
3.64481 6800
3.66492 6463
3.68504 6406
3.70515 6058
3.72526 5694
3.74538 5560
3.76549 5271
3.7856 5176
3.80572 4961
3.82583 4712
3.84595 4473
3.86606 4282
3.88617 4397
3.90629 3939
3.9264 3779
3.94651 3567
3.96663 3415
3.98674 3422
4.00686 3164
4.02697 3025
4.04708 2844
4.0672 2675
4.08731 2757
4.10742 2590
4.12754 2502
4.14765 2425
4.16776 2234
4.18788 2219
4.20799 2146
4.22811 2041
4.24822 1892
4.26833 1836
4.28845 1731
4.30856 1641
4.32867 1681
4.34879 1568
4.3689 1566
4.38902 1587
4.40913 1553
4.42924 1479
4.44936 1381
4.46947 1316
4.48958 1425
4.5097 1340
4.52981 1222
4.54992 1282
4.57004 1168
4.59015 1168
4.61027 1200
4.63038 1108
4.65049 1087
4.67061 1050
4.69072 1056
4.71083 1082
4.73095 1019
4.75106 999
4.77118 919
4.79129 908
4.8114 950
4.83152 833
4.85163 851
4.87174 810
4.89186 800
4.91197 890
4.93209 774
4.9522 712
4.97231 690
4.99243 724
5.01254 810
5.03265 694
5.05277 698
5.07288 704
5.09299 627
5.11311 632
5.13322 563
5.15334 604
5.17345 582
5.19356 571
5.21368 597
5.23379 531
5.2539 547
5.27402 552
5.29413 518
5.31425 550
5.33436 499
5.35447 451
5.37459 517
5.3947 506
5.41481 442
5.43493 466
5.45504 438
5.47516 445
5.49527 409
5.51538 448
5.5355 424
5.55561 412
5.57572 387
5.59584 375
5.61595 409
5.63606 386
5.65618 378
5.67629 336
5.69641 346
5.71652 359
5.73663 320
5.75675 349
5.77686 381
5.79697 350
5.81709 351
5.8372 323
5.85732 319
5.87743 331
5.89754 348
5.91766 324
5.93777 313
5.95788 312
5.978 306
5.99811 309
6.01823 293
6.03834 285
6.05845 311
6.07857 322
6.09868 292
6.11879 291
6.13891 288
6.15902 301
6.17913 256
6.19925 283
6.21936 295
6.23948 278
6.25959 263
6.2797 269
6.29982 283
6.31993 287
6.34004 275
6.36016 283
6.38027 236
6.40039 264
6.4205 270
6.44061 252
6.46073 271
6.48084 293
6.50095 300
6.52107 265
6.54118 272
6.56129 262
6.58141 269
6.60152 264
6.62164 282
6.64175 281
6.66186 245
6.68198 263
6.70209 239
6.7222 250
6.74232 247
6.76243 252
6.78255 259
6.80266 244
6.82277 270
6.84289 254
6.863 271
6.88311 284
6.90323 255
6.92334 247
6.94346 235
6.96357 247
6.98368 274
7.0038 242
7.02391 276
7.04402 244
7.06414 225
7.08425 257
7.10436 235
7.12448 258
7.14459 255
7.16471 246
7.18482 308
7.20493 248
7.22505 289
7.24516 259
7.26527 241
7.28539 281
7.3055 224
7.32562 270
7.34573 252
7.36584 245
7.38596 221
7.40607 236
7.42618 233
7.4463 234
7.46641 260
7.48653 227
7.50664 255
7.52675 253
7.54687 236
7.56698 274
7.58709 262
7.60721 237
7.62732 261
7.64743 241
7.66755 255
7.68766 251
7.70778 258
7.72789 256
7.748 266
7.76812 234
7.78823 281
7.80834 244
7.82846 286
7.84857 276
7.86869 244
7.8888 229
7.90891 283
7.92903 266
7.94914 267
7.96925 226
7.98937 257
8.00948 245
8.0296 245
8.04971 263
8.06982 240
8.08994 274
8.11005 263
8.13016 222
8.15028 229
8.17039 275
8.1905 273
8.21062 286
8.23073 261
8.25085 260
8.27096 265
8.29107 224
8.31119 255
8.3313 251
8.35141 262
8.37153 330
8.39164 280
8.41176 277
8.43187 262
8.45198 261
8.4721 267
8.49221 301
8.51232 268
8.53244 302
8.55255 266
8.57266 283
8.59278 286
8.61289 285
8.63301 293
8.65312 266
8.67323 249
8.69335 260
8.71346 257
8.73357 299
8.75369 269
8.7738 304
8.79392 297
8.81403 313
8.83414 309
8.85426 256
8.87437 285
8.89448 262
8.9146 292
8.93471 277
8.95483 297
8.97494 272
8.99505 265
9.01517 247
9.03528 260
9.05539 243
9.07551 285
9.09562 245
9.11573 286
9.13585 272
9.15596 284
9.17608 254
9.19619 256
9.2163 264
9.23642 263
9.25653 301
9.27664 269
9.29676 284
9.31687 286
9.33699 245
9.3571 267
9.37721 256
9.39733 262
9.41744 299
9.43755 282
9.45767 279
9.47778 293
9.4979 271
9.51801 287
9.53812 267
9.55824 299
9.57835 297
9.59846 283
9.61858 273
9.63869 252
9.6588 254
9.67892 248
9.69903 266
9.71915 255
9.73926 298
9.75937 266
9.77949 266
9.7996 279
9.81971 255
9.83983 274
9.85994 237
9.88006 284
9.90017 263
9.92028 276
9.9404 279
9.96051 311
9.98062 299
10.00074 249
10.02085 251
10.04097 230
10.06108 255
10.08119 259
10.10131 249
10.12142 275
10.14153 247
10.16165 294
10.18176 282
10.20187 273
10.22199 271
10.2421 252
10.26222 273
10.28233 288
10.30244 273
10.32256 257
10.34267 273
10.36278 268
10.3829 269
10.40301 277
10.42313 242
10.44324 298
10.46335 279
10.48347 255
10.50358 290
10.52369 244
10.54381 281
10.56392 248
10.58403 279
10.60415 228
10.62426 252
10.64438 262
10.66449 233
10.6846 247
10.70472 269
10.72483 263
10.74494 273
10.76506 257
10.78517 251
10.80529 275
10.8254 271
10.84551 274
10.86563 278
10.88574 297
10.90585 262
10.92597 281
10.94608 268
10.9662 260
10.98631 280
11.00642 269
11.02654 261
11.04665 244
11.06676 237
11.08688 267
11.10699 280
11.1271 274
11.14722 262
11.16733 271
11.18745 270
11.20756 258
11.22767 285
11.24779 281
11.2679 265
11.28801 280
11.30813 276
11.32824 281
11.34836 282
11.36847 285
11.38858 276
11.4087 298
11.42881 268
11.44892 270
11.46904 265
11.48915 268
11.50927 262
11.52938 323
11.54949 286
11.56961 274
11.58972 289
11.60983 283
11.62995 304
11.65006 311
11.67017 288
11.69029 293
11.7104 284
11.73052 294
11.75063 281
11.77074 271
11.79086 276
11.81097 285
11.83108 271
11.8512 287
11.87131 292
11.89143 256
11.91154 309
11.93165 307
11.95177 308
11.97188 322
11.99199 303
12.01211 351
12.03222 333
12.05234 344
12.07245 372
12.09256 334
12.11268 324
12.13279 309
12.1529 352
12.17302 340
12.19313 363
12.21324 348
12.23336 352
12.25347 336
12.27359 333
12.2937 321
12.31381 331
12.33393 361
12.35404 298
12.37415 351
12.39427 330
12.41438 335
12.4345 309
12.45461 346
12.47472 330
12.49484 268
12.51495 308
12.53506 299
12.55518 269
12.57529 290
12.5954 287
12.61552 261
12.63563 256
12.65575 249
12.67586 285
12.69597 263
12.71609 291
12.7362 265
12.75631 274
12.77643 254
12.79654 261
12.81666 283
12.83677 287
12.85688 278
12.877 262
12.89711 267
12.91722 253
12.93734 250
12.95745 220
12.97757 230
12.99768 260
13.01779 236
13.03791 251
13.05802 256
13.07813 261
13.09825 269
13.11836 234
13.13847 237
13.15859 253
13.1787 250
13.19882 236
13.21893 240
13.23904 232
13.25916 251
13.27927 244
13.29938 254
13.3195 262
13.33961 256
13.35973 235
13.37984 259
13.39995 258
13.42007 273
13.44018 243
13.46029 284
13.48041 245
13.50052 262
13.52064 263
13.54075 257
13.56086 259
13.58098 287
13.60109 268
13.6212 312
13.64132 294
13.66143 259
13.68154 257
13.70166 267
13.72177 281
13.74189 264
13.762 284
13.78211 243
13.80223 237
13.82234 262
13.84245 246
13.86257 266
13.88268 246
13.9028 236
13.92291 261
13.94302 255
13.96314 231
13.98325 241
14.00336 214
14.02348 235
14.04359 272
14.06371 252
14.08382 253
14.10393 236
14.12405 205
14.14416 259
14.16427 239
14.18439 228
14.2045 241
14.22461 232
14.24473 225
14.26484 239
14.28496 224
14.30507 249
14.32518 226
14.3453 229
14.36541 253
14.38552 246
14.40564 266
14.42575 269
14.44587 268
14.46598 217
14.48609 263
14.50621 234
14.52632 218
14.54643 238
14.56655 214
14.58666 224
14.60677 250
14.62689 210
14.647 238
14.66712 240
14.68723 211
14.70734 226
14.72746 227
14.74757 253
14.76768 224
14.7878 253
14.80791 257
14.82803 263
14.84814 259
14.86825 211
14.88837 241
14.90848 236
14.92859 213
14.94871 211
14.96882 211
14.98894 244
15.00905 249
15.02916 268
15.04928 248
15.06939 243
15.0895 244
15.10962 263
15.12973 236
15.14984 224
15.16996 256
15.19007 234
15.21019 242
15.2303 220
15.25041 199
15.27053 250
15.29064 238
15.31075 218
15.33087 217
15.35098 214
15.3711 217
15.39121 232
15.41132 232
15.43144 232
15.45155 216
15.47166 244
15.49178 243
15.51189 245
15.53201 228
15.55212 239
15.57223 255
15.59235 232
15.61246 247
15.63257 248
15.65269 239
15.6728 230
15.69291 212
15.71303 225
15.73314 225
15.75326 206
15.77337 217
15.79348 206
15.8136 228
15.83371 213
15.85382 210
15.87394 222
15.89405 213
15.91417 220
15.93428 222
15.95439 214
15.97451 257
15.99462 227
16.01473 238
16.03485 250
16.05496 211
16.07508 228
16.09519 238
16.1153 222
16.13542 196
16.15553 206
16.17564 270
16.19576 215
16.21587 215
16.23598 239
16.2561 251
16.27621 173
16.29633 240
16.31644 236
16.33655 210
16.35667 194
16.37678 243
16.39689 225
16.41701 227
16.43712 253
16.45724 259
16.47735 229
16.49746 212
16.51758 225
16.53769 208
16.5578 237
16.57792 205
16.59803 230
16.61814 227
16.63826 226
16.65837 254
16.67849 240
16.6986 228
16.71871 207
16.73883 229
16.75894 236
16.77905 245
16.79917 219
16.81928 238
16.8394 231
16.85951 228
16.87962 213
16.89974 243
16.91985 209
16.93996 202
16.96008 218
16.98019 229
17.00031 214
17.02042 208
17.04053 198
17.06065 215
17.08076 244
17.10087 231
17.12099 239
17.1411 204
17.16121 215
17.18133 225
17.20144 210
17.22156 235
17.24167 225
17.26178 219
17.2819 209
17.30201 240
17.32212 234
17.34224 221
17.36235 225
17.38247 222
17.40258 212
17.42269 217
17.44281 232
17.46292 222
17.48303 232
17.50315 219
17.52326 236
17.54338 215
17.56349 235
17.5836 231
17.60372 226
17.62383 228
17.64394 235
17.66406 223
17.68417 207
17.70428 234
17.7244 208
17.74451 249
17.76463 238
17.78474 230
17.80485 216
17.82497 205
17.84508 234
17.86519 216
17.88531 233
17.90542 248
17.92554 202
17.94565 231
17.96576 210
17.98588 237
18.00599 231
18.0261 220
18.04622 209
18.06633 237
18.08645 230
18.10656 213
18.12667 220
18.14679 215
18.1669 253
18.18701 222
18.20713 203
18.22724 253
18.24735 243
18.26747 215
18.28758 216
18.3077 213
18.32781 215
18.34792 254
18.36804 213
18.38815 245
18.40826 234
18.42838 237
18.44849 202
18.46861 227
18.48872 221
18.50883 202
18.52895 220
18.54906 233
18.56917 227
18.58929 214
18.6094 202
18.62951 214
18.64963 224
18.66974 231
18.68986 242
18.70997 242
18.73008 246
18.7502 228
18.77031 234
18.79042 211
18.81054 230
18.83065 259
18.85077 275
18.87088 222
18.89099 218
18.91111 234
18.93122 234
18.95133 265
18.97145 210
18.99156 214
19.01168 223
19.03179 235
19.0519 233
19.07202 233
19.09213 222
19.11224 213
19.13236 207
19.15247 245
19.17258 235
19.1927 263
19.21281 255
19.23293 247
19.25304 252
19.27315 251
19.29327 246
19.31338 240
19.33349 224
19.35361 233
19.37372 218
19.39384 250
19.41395 252
19.43406 249
19.45418 244
19.47429 244
19.4944 271
19.51452 252
19.53463 248
19.55475 303
19.57486 273
19.59497 283
19.61509 257
19.6352 280
19.65531 296
19.67543 279
19.69554 316
19.71565 309
19.73577 314
19.75588 363
19.776 332
19.79611 350
19.81622 382
19.83634 367
19.85645 352
19.87656 405
19.89668 380
19.91679 402
19.93691 368
19.95702 372
19.97713 362
19.99725 316
20.01736 343
20.03747 323
20.05759 314
20.0777 364
20.09782 328
20.11793 366
20.13804 390
20.15816 333
20.17827 352
20.19838 324
20.2185 379
20.23861 392
20.25872 397
20.27884 383
20.29895 401
20.31907 397
20.33918 392
20.35929 433
20.37941 403
20.39952 454
20.41963 424
20.43975 383
20.45986 386
20.47998 430
20.50009 471
20.5202 519
20.54032 549
20.56043 530
20.58054 588
20.60066 704
20.62077 842
20.64088 920
20.661 1147
20.68111 1525
20.70123 1925
20.72134 2391
20.74145 2978
20.76157 3551
20.78168 4203
20.80179 4699
20.82191 4867
20.84202 4917
20.86214 4502
20.88225 3726
20.90236 2959
20.92248 2207
20.94259 1601
20.9627 1177
20.98282 863
21.00293 766
21.02305 643
21.04316 616
21.06327 570
21.08339 494
21.1035 505
21.12361 494
21.14373 432
21.16384 413
21.18395 457
21.20407 431
21.22418 446
21.2443 404
21.26441 390
21.28452 364
21.30464 388
21.32475 364
21.34486 397
21.36498 413
21.38509 339
21.40521 414
21.42532 394
21.44543 363
21.46555 353
21.48566 360
21.50577 383
21.52589 361
21.546 335
21.56612 339
21.58623 335
21.60634 334
21.62646 323
21.64657 332
21.66668 343
21.6868 317
21.70691 318
21.72702 335
21.74714 325
21.76725 331
21.78737 323
21.80748 316
21.82759 319
21.84771 354
21.86782 305
21.88793 334
21.90805 313
21.92816 338
21.94828 345
21.96839 338
21.9885 311
22.00862 311
22.02873 325
22.04884 318
22.06896 310
22.08907 312
22.10919 286
22.1293 281
22.14941 287
22.16953 295
22.18964 295
22.20975 307
22.22987 295
22.24998 305
22.27009 304
22.29021 289
22.31032 299
22.33044 304
22.35055 308
22.37066 321
22.39078 303
22.41089 301
22.431 326
22.45112 303
22.47123 318
22.49135 339
22.51146 318
22.53157 339
22.55169 301
22.5718 298
22.59191 304
22.61203 323
22.63214 280
22.65225 291
22.67237 274
22.69248 290
22.7126 285
22.73271 312
22.75282 250
22.77294 270
22.79305 291
22.81316 281
22.83328 268
22.85339 306
22.87351 276
22.89362 276
22.91373 230
22.93385 295
22.95396 288
22.97407 297
22.99419 294
23.0143 308
23.03442 284
23.05453 289
23.07464 301
23.09476 300
23.11487 299
23.13498 300
23.1551 311
23.17521 273
23.19532 273
23.21544 291
23.23555 257
23.25567 292
23.27578 279
23.29589 311
23.31601 307
23.33612 337
23.35623 317
23.37635 319
23.39646 365
23.41658 378
23.43669 382
23.4568 389
23.47692 440
23.49703 463
23.51714 438
23.53726 442
23.55737 424
23.57749 402
23.5976 392
23.61771 370
23.63783 330
23.65794 354
23.67805 347
23.69817 327
23.71828 339
23.73839 328
23.75851 323
23.77862 313
23.79874 326
23.81885 317
23.83896 344
23.85908 350
23.87919 306
23.8993 346
23.91942 327
23.93953 304
23.95965 336
23.97976 312
23.99987 346
24.01999 299
24.0401 309
24.06021 291
24.08033 299
24.10044 324
24.12056 309
24.14067 312
24.16078 270
24.1809 300
24.20101 305
24.22112 300
24.24124 279
24.26135 276
24.28146 302
24.30158 297
24.32169 296
24.34181 317
24.36192 315
24.38203 299
24.40215 335
24.42226 296
24.44237 344
24.46249 333
24.4826 317
24.50272 297
24.52283 322
24.54294 337
24.56306 320
24.58317 322
24.60328 311
24.6234 330
24.64351 337
24.66362 318
24.68374 318
24.70385 319
24.72397 340
24.74408 306
24.76419 335
24.78431 312
24.80442 316
24.82453 318
24.84465 321
24.86476 396
24.88488 350
24.90499 350
24.9251 338
24.94522 342
24.96533 358
24.98544 346
25.00556 354
25.02567 302
25.04579 335
25.0659 357
25.08601 357
25.10613 340
25.12624 334
25.14635 360
25.16647 398
25.18658 322
25.20669 346
25.22681 339
25.24692 345
25.26704 349
25.28715 349
25.30726 329
25.32738 327
25.34749 342
25.3676 341
25.38772 330
25.40783 344
25.42795 335
25.44806 329
25.46817 326
25.48829 340
25.5084 365
25.52851 381
25.54863 384
25.56874 432
25.58886 419
25.60897 456
25.62908 465
25.6492 470
25.66931 522
25.68942 454
25.70954 477
25.72965 511
25.74976 494
25.76988 470
25.78999 493
25.81011 439
25.83022 442
25.85033 452
25.87045 431
25.89056 476
25.91067 462
25.93079 453
25.9509 496
25.97102 512
25.99113 476
26.01124 509
26.03136 541
26.05147 535
26.07158 549
26.0917 557
26.11181 610
26.13193 701
26.15204 735
26.17215 751
26.19227 797
26.21238 898
26.23249 972
26.25261 1017
26.27272 1160
26.29283 1357
26.31295 1404
26.33306 1682
26.35318 2149
26.37329 2685
26.3934 3209
26.41352 4260
26.43363 5395
26.45374 6999
26.47386 8803
26.49397 11160
26.51409 13544
26.5342 16178
26.55431 18428
26.57443 20445
26.59454 21370
26.61465 21172
26.63477 19764
26.65488 16922
26.67499 13421
26.69511 10173
26.71522 7511
26.73534 5063
26.75545 3324
26.77556 2313
26.79568 1706
26.81579 1535
26.8359 1321
26.85602 1253
26.87613 1200
26.89625 1026
26.91636 1063
26.93647 950
26.95659 961
26.9767 900
26.99681 778
27.01693 802
27.03704 721
27.05716 720
27.07727 689
27.09738 698
27.1175 638
27.13761 590
27.15772 546
27.17784 530
27.19795 507
27.21806 518
27.23818 495
27.25829 533
27.27841 500
27.29852 502
27.31863 498
27.33875 565
27.35886 566
27.37897 573
27.39909 588
27.4192 584
27.43932 603
27.45943 634
27.47954 597
27.49966 631
27.51977 558
27.53988 538
27.56 515
27.58011 479
27.60023 447
27.62034 421
27.64045 445
27.66057 420
27.68068 375
27.70079 421
27.72091 424
27.74102 387
27.76113 407
27.78125 383
27.80136 389
27.82148 390
27.84159 353
27.8617 348
27.88182 357
27.90193 334
27.92204 364
27.94216 341
27.96227 360
27.98239 362
28.0025 348
28.02261 335
28.04273 308
28.06284 338
28.08295 344
28.10307 374
28.12318 305
28.1433 286
28.16341 324
28.18352 340
28.20364 307
28.22375 319
28.24386 317
28.26398 294
28.28409 321
28.3042 281
28.32432 321
28.34443 298
28.36455 361
28.38466 289
28.40477 304
28.42489 289
28.445 292
28.46511 322
28.48523 364
28.50534 270
28.52546 267
28.54557 280
28.56568 272
28.5858 298
28.60591 305
28.62602 295
28.64614 282
28.66625 284
28.68636 326
28.70648 292
28.72659 285
28.74671 267
28.76682 265
28.78693 311
28.80705 286
28.82716 296
28.84727 298
28.86739 290
28.8875 295
28.90762 286
28.92773 289
28.94784 287
28.96796 267
28.98807 295
29.00818 297
29.0283 257
29.04841 269
29.06853 305
29.08864 253
29.10875 262
29.12887 256
29.14898 267
29.16909 289
29.18921 286
29.20932 274
29.22943 284
29.24955 299
29.26966 285
29.28978 276
29.30989 292
29.33 275
29.35012 297
29.37023 274
29.39034 295
29.41046 244
29.43057 277
29.45069 251
29.4708 261
29.49091 251
29.51103 274
29.53114 285
29.55125 305
29.57137 266
29.59148 295
29.6116 309
29.63171 329
29.65182 345
29.67194 318
29.69205 348
29.71216 317
29.73228 348
29.75239 360
29.7725 366
29.79262 377
29.81273 365
29.83285 363
29.85296 341
29.87307 318
29.89319 338
29.9133 340
29.93341 284
29.95353 303
29.97364 275
29.99376 264
30.01387 288
30.03398 303
30.0541 243
30.07421 285
30.09432 278
30.11444 278
30.13455 263
30.15467 260
30.17478 275
30.19489 260
30.21501 306
30.23512 289
30.25523 270
30.27535 275
30.29546 280
30.31557 273
30.33569 279
30.3558 310
30.37592 302
30.39603 266
30.41614 268
30.43626 275
30.45637 268
30.47648 285
30.4966 248
30.51671 269
30.53683 272
30.55694 269
30.57705 275
30.59717 276
30.61728 316
30.63739 283
30.65751 293
30.67762 296
30.69773 315
30.71785 330
30.73796 329
30.75808 333
30.77819 312
30.7983 317
30.81842 311
30.83853 307
30.85864 298
30.87876 300
30.89887 264
30.91899 301
30.9391 298
30.95921 250
30.97933 247
30.99944 287
31.01955 269
31.03967 274
31.05978 285
31.0799 284
31.10001 278
31.12012 229
31.14024 234
31.16035 232
31.18046 261
31.20058 220
31.22069 250
31.2408 266
31.26092 252
31.28103 242
31.30115 212
31.32126 252
31.34137 263
31.36149 266
31.3816 249
31.40171 284
31.42183 238
31.44194 232
31.46206 251
31.48217 240
31.50228 254
31.5224 237
31.54251 230
31.56262 224
31.58274 226
31.60285 234
31.62297 238
31.64308 232
31.66319 246
31.68331 259
31.70342 254
31.72353 242
31.74365 264
31.76376 251
31.78387 243
31.80399 249
31.8241 264
31.84422 248
31.86433 228
31.88444 239
31.90456 218
31.92467 233
31.94478 234
31.9649 263
31.98501 243
32.00513 217
32.02524 246
32.04535 247
32.06547 266
32.08558 284
32.10569 264
32.12581 281
32.14592 266
32.16604 277
32.18615 287
32.20626 287
32.22638 271
32.24649 313
32.2666 267
32.28672 301
32.30683 305
32.32694 324
32.34706 298
32.36717 323
32.38729 301
32.4074 305
32.42751 324
32.44763 292
32.46774 299
32.48785 313
32.50797 285
32.52808 265
32.5482 322
32.56831 297
32.58842 320
32.60854 254
32.62865 295
32.64876 311
32.66888 272
32.68899 307
32.7091 278
32.72922 264
32.74933 264
32.76945 252
32.78956 305
32.80967 290
32.82979 274
32.8499 246
32.87001 241
32.89013 234
32.91024 259
32.93036 267
32.95047 236
32.97058 294
32.9907 272
33.01081 262
33.03092 260
33.05104 255
33.07115 281
33.09127 285
33.11138 268
33.13149 283
33.15161 269
33.17172 246
33.19183 272
33.21195 255
33.23206 272
33.25217 268
33.27229 263
33.2924 259
33.31252 271
33.33263 290
33.35274 301
33.37286 258
33.39297 272
33.41308 258
33.4332 266
33.45331 231
33.47343 250
33.49354 252
33.51365 258
33.53377 247
33.55388 216
33.57399 257
33.59411 252
33.61422 225
33.63434 239
33.65445 242
33.67456 262
33.69468 288
33.71479 245
33.7349 231
33.75502 242
33.77513 266
33.79524 258
33.81536 228
33.83547 243
33.85559 235
33.8757 245
33.89581 226
33.91593 200
33.93604 245
33.95615 246
33.97627 207
33.99638 215
34.0165 247
34.03661 223
34.05672 238
34.07684 271
34.09695 234
34.11706 252
34.13718 242
34.15729 277
34.17741 256
34.19752 278
34.21763 237
34.23775 292
34.25786 294
34.27797 262
34.29809 305
34.3182 259
34.33831 296
34.35843 270
34.37854 285
34.39866 288
34.41877 323
34.43888 328
34.459 273
34.47911 273
34.49922 271
34.51934 260
34.53945 267
34.55957 291
34.57968 299
34.59979 293
34.61991 315
34.64002 307
34.66013 327
34.68025 309
34.70036 327
34.72047 316
34.74059 349
34.7607 337
34.78082 339
34.80093 371
34.82104 363
34.84116 357
34.86127 369
34.88138 354
34.9015 379
34.92161 356
34.94173 354
34.96184 318
34.98195 341
35.00207 360
35.02218 324
35.04229 314
35.06241 369
35.08252 338
35.10264 320
35.12275 319
35.14286 367
35.16298 374
35.18309 324
35.2032 340
35.22332 358
35.24343 309
35.26354 365
35.28366 318
35.30377 329
35.32389 309
35.344 331
35.36411 315
35.38423 348
35.40434 346
35.42445 361
35.44457 362
35.46468 372
35.4848 356
35.50491 362
35.52502 342
35.54514 343
35.56525 351
35.58536 320
35.60548 369
35.62559 359
35.64571 338
35.66582 322
35.68593 307
35.70605 318
35.72616 335
35.74627 292
35.76639 306
35.7865 302
35.80661 317
35.82673 357
35.84684 323
35.86696 311
35.88707 317
35.90718 316
35.9273 322
35.94741 319
35.96752 304
35.98764 329
36.00775 316
36.02787 336
36.04798 336
36.06809 330
36.08821 320
36.10832 368
36.12843 327
36.14855 365
36.16866 313
36.18878 389
36.20889 394
36.229 372
36.24912 467
36.26923 465
36.28934 595
36.30946 605
36.32957 732
36.34968 799
36.3698 985
36.38991 1087
36.41003 1169
36.43014 1361
36.45025 1428
36.47037 1505
36.49048 1642
36.51059 1631
36.53071 1530
36.55082 1336
36.57094 1199
36.59105 946
36.61116 845
36.63128 752
36.65139 641
36.6715 512
36.69162 389
36.71173 382
36.73184 375
36.75196 324
36.77207 332
36.79219 332
36.8123 331
36.83241 297
36.85253 331
36.87264 314
36.89275 301
36.91287 301
36.93298 314
36.9531 298
36.97321 300
36.99332 291
37.01344 290
37.03355 273
37.05366 299
37.07378 290
37.09389 283
37.11401 286
37.13412 313
37.15423 261
37.17435 290
37.19446 292
37.21457 261
37.23469 263
37.2548 256
37.27491 287
37.29503 276
37.31514 284
37.33526 277
37.35537 228
37.37548 251
37.3956 285
37.41571 246
37.43582 248
37.45594 272
37.47605 268
37.49617 242
37.51628 240
37.53639 283
37.55651 295
37.57662 276
37.59673 286
37.61685 291
37.63696 260
37.65708 264
37.67719 304
37.6973 283
37.71742 284
37.73753 251
37.75764 270
37.77776 290
37.79787 272
37.81798 248
37.8381 269
37.85821 262
37.87833 253
37.89844 291
37.91855 291
37.93867 267
37.95878 282
37.97889 255
37.99901 257
38.01912 256
38.03924 277
38.05935 247
38.07946 288
38.09958 275
38.11969 283
38.1398 262
38.15992 274
38.18003 288
38.20015 293
38.22026 305
38.24037 291
38.26049 283
38.2806 239
38.30071 306
38.32083 329
38.34094 280
38.36105 249
38.38117 305
38.40128 273
38.4214 271
38.44151 254
38.46162 282
38.48174 308
38.50185 282
38.52196 289
38.54208 267
38.56219 289
38.58231 270
38.60242 306
38.62253 295
38.64265 250
38.66276 292
38.68287 308
38.70299 261
38.7231 301
38.74321 267
38.76333 295
38.78344 259
38.80356 272
38.82367 242
38.84378 300
38.8639 276
38.88401 308
38.90412 272
38.92424 285
38.94435 291
38.96447 289
38.98458 294
39.00469 291
39.02481 303
39.04492 327
39.06503 300
39.08515 334
39.10526 325
39.12538 379
39.14549 375
39.1656 429
39.18572 513
39.20583 469
39.22594 508
39.24606 653
39.26617 748
39.28628 860
39.3064 975
39.32651 1106
39.34663 1140
39.36674 1395
39.38685 1445
39.40697 1457
39.42708 1409
39.44719 1433
39.46731 1344
39.48742 1147
39.50754 988
39.52765 821
39.54776 722
39.56788 623
39.58799 502
39.6081 454
39.62822 340
39.64833 274
39.66845 295
39.68856 305
39.70867 299
39.72879 284
39.7489 280
39.76901 272
39.78913 304
39.80924 276
39.82935 292
39.84947 266
39.86958 276
39.8897 277
39.90981 280
39.92992 309
39.95004 325
39.97015 336
39.99026 345
40.01038 368
40.03049 348
40.05061 453
40.07072 512
40.09083 527
40.11095 600
40.13106 656
40.15117 676
40.17129 737
40.1914 786
40.21152 878
40.23163 866
40.25174 829
40.27186 814
40.29197 754
40.31208 661
40.3322 522
40.35231 595
40.37242 460
40.39254 412
40.41265 350
40.43277 327
40.45288 308
40.47299 272
40.49311 267
40.51322 277
40.53333 228
40.55345 255
40.57356 262
40.59368 258
40.61379 228
40.6339 245
40.65402 271
40.67413 269
40.69424 249
40.71436 249
40.73447 252
40.75458 248
40.7747 266
40.79481 270
40.81493 246
40.83504 269
40.85515 246
40.87527 262
40.89538 269
40.91549 269
40.93561 280
40.95572 267
40.97584 277
40.99595 280
41.01606 246
41.03618 272
41.05629 258
41.0764 266
41.09652 240
41.11663 250
41.13675 246
41.15686 261
41.17697 276
41.19709 256
41.2172 276
41.23731 259
41.25743 282
41.27754 275
41.29765 265
41.31777 250
41.33788 241
41.358 248
41.37811 210
41.39822 257
41.41834 267
41.43845 260
41.45856 269
41.47868 232
41.49879 289
41.51891 289
41.53902 265
41.55913 262
41.57925 294
41.59936 302
41.61947 259
41.63959 280
41.6597 305
41.67982 273
41.69993 307
41.72004 303
41.74016 274
41.76027 269
41.78038 292
41.8005 283
41.82061 232
41.84072 266
41.86084 290
41.88095 288
41.90107 243
41.92118 261
41.94129 245
41.96141 264
41.98152 244
42.00163 293
42.02175 289
42.04186 278
42.06198 324
42.08209 342
42.1022 277
42.12232 314
42.14243 353
42.16254 404
42.18266 435
42.20277 476
42.22289 518
42.243 644
42.26311 724
42.28323 682
42.30334 857
42.32345 927
42.34357 996
42.36368 1063
42.38379 1141
42.40391 1144
42.42402 1043
42.44414 951
42.46425 917
42.48436 839
42.50448 705
42.52459 609
42.5447 549
42.56482 526
42.58493 398
42.60505 333
42.62516 303
42.64527 287
42.66539 272
42.6855 289
42.70561 259
42.72573 253
42.74584 263
42.76595 253
42.78607 259
42.80618 247
42.8263 240
42.84641 247
42.86652 220
42.88664 246
42.90675 264
42.92686 201
42.94698 226
42.96709 241
42.98721 244
43.00732 247
43.02743 219
43.04755 210
43.06766 229
43.08777 216
43.10789 228
43.128 212
43.14812 220
43.16823 210
43.18834 202
43.20846 212
43.22857 225
43.24868 205
43.2688 223
43.28891 218
43.30902 204
43.32914 228
43.34925 240
43.36937 247
43.38948 244
43.40959 196
43.42971 210
43.44982 226
43.46993 225
43.49005 242
43.51016 227
43.53028 212
43.55039 218
43.5705 224
43.59062 204
43.61073 237
43.63084 219
43.65096 236
43.67107 211
43.69119 214
43.7113 225
43.73141 197
43.75153 229
43.77164 210
43.79175 225
43.81187 224
43.83198 214
43.85209 224
43.87221 239
43.89232 201
43.91244 214
43.93255 212
43.95266 235
43.97278 222
43.99289 226
44.013 228
44.03312 224
44.05323 223
44.07335 211
44.09346 223
44.11357 221
44.13369 235
44.1538 213
44.17391 236
44.19403 228
44.21414 201
44.23426 234
44.25437 198
44.27448 212
44.2946 209
44.31471 221
44.33482 191
44.35494 200
44.37505 210
44.39516 197
44.41528 213
44.43539 208
44.45551 183
44.47562 221
44.49573 211
44.51585 205
44.53596 226
44.55607 210
44.57619 205
44.5963 198
44.61642 216
44.63653 230
44.65664 194
44.67676 172
44.69687 226
44.71698 197
44.7371 210
44.75721 223
44.77732 231
44.79744 215
44.81755 249
44.83767 241
44.85778 241
44.87789 249
44.89801 236
44.91812 222
44.93823 242
44.95835 241
44.97846 246
44.99858 247
45.01869 232
45.0388 231
45.05892 254
45.07903 213
45.09914 255
45.11926 232
45.13937 222
45.15949 243
45.1796 241
45.19971 242
45.21983 279
45.23994 225
45.26005 208
45.28017 258
45.30028 214
45.32039 226
45.34051 292
45.36062 260
45.38074 266
45.40085 279
45.42096 268
45.44108 292
45.46119 315
45.4813 341
45.50142 342
45.52153 361
45.54165 380
45.56176 403
45.58187 462
45.60199 506
45.6221 577
45.64221 593
45.66233 695
45.68244 714
45.70256 794
45.72267 796
45.74278 803
45.7629 817
45.78301 725
45.80312 666
45.82324 602
45.84335 546
45.86346 551
45.88358 471
45.90369 423
45.92381 364
45.94392 324
45.96403 280
45.98415 236
46.00426 239
46.02437 223
46.04449 245
46.0646 273
46.08472 247
46.10483 235
46.12494 230
46.14506 227
46.16517 203
46.18528 218
46.2054 209
46.22551 209
46.24563 197
46.26574 241
46.28585 214
46.30597 219
46.32608 205
46.34619 236
46.36631 212
46.38642 214
46.40653 225
46.42665 251
46.44676 220
46.46688 223
46.48699 244
46.5071 230
46.52722 227
46.54733 223
46.56744 222
46.58756 241
46.60767 209
46.62779 228
46.6479 212
46.66801 212
46.68813 222
46.70824 210
46.72835 194
46.74847 197
46.76858 177
46.78869 207
46.80881 202
46.82892 214
46.84904 199
46.86915 201
46.88926 204
46.90938 186
46.92949 214
46.9496 195
46.96972 213
46.98983 210
47.00995 230
47.03006 232
47.05017 218
47.07029 222
47.0904 220
47.11051 223
47.13063 244
47.15074 242
47.17086 230
47.19097 225
47.21108 231
47.2312 262
47.25131 221
47.27142 216
47.29154 199
47.31165 251
47.33176 227
47.35188 211
47.37199 248
47.39211 218
47.41222 220
47.43233 249
47.45245 226
47.47256 217
47.49267 236
47.51279 224
47.5329 202
47.55302 227
47.57313 208
47.59324 213
47.61336 238
47.63347 200
47.65358 229
47.6737 220
47.69381 222
47.71393 203
47.73404 216
47.75415 232
47.77427 206
47.79438 203
47.81449 185
47.83461 204
47.85472 211
47.87483 179
47.89495 239
47.91506 216
47.93518 207
47.95529 196
47.9754 219
47.99552 214
48.01563 226
48.03574 215
48.05586 228
48.07597 229
48.09609 211
48.1162 212
48.13631 217
48.15643 243
48.17654 222
48.19665 220
48.21677 219
48.23688 192
48.257 235
48.27711 236
48.29722 228
48.31734 227
48.33745 216
48.35756 229
48.37768 228
48.39779 230
48.4179 239
48.43802 197
48.45813 227
48.47825 233
48.49836 236
48.51847 226
48.53859 210
48.5587 256
48.57881 214
48.59893 252
48.61904 259
48.63916 211
48.65927 222
48.67938 247
48.6995 239
48.71961 264
48.73972 231
48.75984 235
48.77995 230
48.80006 234
48.82018 234
48.84029 223
48.86041 222
48.88052 243
48.90063 242
48.92075 222
48.94086 250
48.96097 260
48.98109 203
49.0012 238
49.02132 233
49.04143 244
49.06154 220
49.08166 261
49.10177 247
49.12188 206
49.142 226
49.16211 241
49.18223 258
49.20234 218
49.22245 246
49.24257 228
49.26268 211
49.28279 263
49.30291 231
49.32302 267
49.34313 254
49.36325 244
49.38336 250
49.40348 239
49.42359 234
49.4437 259
49.46382 247
49.48393 251
49.50404 244
49.52416 258
49.54427 251
49.56439 278
49.5845 306
49.60461 273
49.62473 326
49.64484 332
49.66495 312
49.68507 323
49.70518 370
49.7253 381
49.74541 424
49.76552 494
49.78564 503
49.80575 572
49.82586 630
49.84598 620
49.86609 832
49.8862 894
49.90632 1024
49.92643 1079
49.94655 1371
49.96666 1528
49.98677 1706
50.00689 1843
50.027 2060
50.04711 2221
50.06723 2230
50.08734 2299
50.10746 2172
50.12757 1981
50.14768 1756
50.1678 1555
50.18791 1358
50.20802 1250
50.22814 1157
50.24825 929
50.26837 828
50.28848 665
50.30859 535
50.32871 446
50.34882 408
50.36893 337
50.38905 363
50.40916 337
50.42927 322
50.44939 320
50.4695 320
50.48962 318
50.50973 322
50.52984 307
50.54996 347
50.57007 333
50.59018 355
50.6103 383
50.63041 347
50.65053 320
50.67064 320
50.69075 320
50.71087 304
50.73098 299
50.75109 281
50.77121 265
50.79132 255
50.81143 265
50.83155 270
50.85166 268
50.87178 222
50.89189 221
50.912 213
50.93212 219
50.95223 225
50.97234 217
50.99246 219
51.01257 233
51.03269 215
51.0528 241
51.07291 220
51.09303 236
51.11314 193
51.13325 221
51.15337 228
51.17348 218
51.1936 210
51.21371 194
51.23382 226
51.25394 210
51.27405 226
51.29416 230
51.31428 203
51.33439 238
51.3545 230
51.37462 201
51.39473 209
51.41485 215
51.43496 216
51.45507 225
51.47519 218
51.4953 202
51.51541 229
51.53553 223
51.55564 222
51.57576 200
51.59587 225
51.61598 207
51.6361 228
51.65621 206
51.67632 220
51.69644 214
51.71655 235
51.73667 220
51.75678 193
51.77689 188
51.79701 190
51.81712 217
51.83723 199
51.85735 179
51.87746 189
51.89757 200
51.91769 178
51.9378 173
51.95792 203
51.97803 213
51.99814 201
52.01826 195
52.03837 192
52.05848 213
52.0786 236
52.09871 215
52.11883 216
52.13894 217
52.15905 214
52.17917 200
52.19928 220
52.21939 207
52.23951 198
52.25962 231
52.27974 222
52.29985 213
52.31996 195
52.34008 201
52.36019 211
52.3803 222
52.40042 196
52.42053 186
52.44064 198
52.46076 201
52.48087 197
52.50099 193
52.5211 209
52.54121 188
52.56133 240
52.58144 214
52.60155 232
52.62167 188
52.64178 218
52.6619 214
52.68201 244
52.70212 226
52.72224 205
52.74235 210
52.76246 217
52.78258 234
52.80269 222
52.8228 213
52.84292 246
52.86303 229
52.88315 228
52.90326 244
52.92337 243
52.94349 239
52.9636 249
52.98371 263
53.00383 224
53.02394 230
53.04406 264
53.06417 255
53.08428 256
53.1044 245
53.12451 243
53.14462 214
53.16474 254
53.18485 258
53.20497 241
53.22508 235
53.24519 253
53.26531 239
53.28542 249
53.30553 247
53.32565 287
53.34576 256
53.36587 289
53.38599 281
53.4061 249
53.42622 279
53.44633 267
53.46644 248
53.48656 260
53.50667 287
53.52678 255
53.5469 246
53.56701 259
53.58713 278
53.60724 251
53.62735 242
53.64747 237
53.66758 247
53.68769 249
53.70781 231
53.72792 229
53.74804 241
53.76815 245
53.78826 238
53.80838 253
53.82849 244
53.8486 244
53.86872 257
53.88883 258
53.90894 249
53.92906 261
53.94917 265
53.96929 257
53.9894 241
54.00951 260
54.02963 238
54.04974 247
54.06985 239
54.08997 232
54.11008 277
54.1302 271
54.15031 285
54.17042 240
54.19054 252
54.21065 268
54.23076 295
54.25088 247
54.27099 272
54.29111 240
54.31122 247
54.33133 284
54.35145 285
54.37156 288
54.39167 286
54.41179 258
54.4319 314
54.45201 319
54.47213 291
54.49224 303
54.51236 335
54.53247 326
54.55258 367
54.5727 379
54.59281 420
54.61292 439
54.63304 496
54.65315 510
54.67327 552
54.69338 621
54.71349 678
54.73361 689
54.75372 719
54.77383 744
54.79395 806
54.81406 782
54.83417 770
54.85429 752
54.8744 696
54.89452 619
54.91463 591
54.93474 524
54.95486 490
54.97497 508
54.99508 510
55.0152 450
55.03531 420
55.05543 398
55.07554 385
55.09565 357
55.11577 357
55.13588 383
55.15599 396
55.17611 435
55.19622 460
55.21634 439
55.23645 493
55.25656 470
55.27668 509
55.29679 439
55.3169 451
55.33702 417
55.35713 381
55.37724 345
55.39736 360
55.41747 316
55.43759 366
55.4577 291
55.47781 318
55.49793 276
55.51804 289
55.53815 246
55.55827 262
55.57838 231
55.5985 250
55.61861 243
55.63872 219
55.65884 228
55.67895 233
55.69906 235
55.71918 200
55.73929 235
55.75941 220
55.77952 227
55.79963 233
55.81975 229
55.83986 208
55.85997 239
55.88009 231
55.9002 224
55.92031 253
55.94043 214
55.96054 217
55.98066 211
56.00077 223
56.02088 225
56.041 231
56.06111 216
56.08122 214
56.10134 231
56.12145 220
56.14157 193
56.16168 233
56.18179 226
56.20191 234
56.22202 202
56.24213 243
56.26225 217
56.28236 233
56.30248 222
56.32259 225
56.3427 212
56.36282 230
56.38293 229
56.40304 228
56.42316 208
56.44327 228
56.46338 235
56.4835 237
56.50361 236
56.52373 218
56.54384 235
56.56395 229
56.58407 219
56.60418 203
56.62429 224
56.64441 235
56.66452 207
56.68464 219
56.70475 212
56.72486 202
56.74498 200
56.76509 241
56.7852 213
56.80532 229
56.82543 221
56.84554 216
56.86566 210
56.88577 229
56.90589 228
56.926 243
56.94611 219
56.96623 247
56.98634 207
57.00645 210
57.02657 228
57.04668 249
57.0668 231
57.08691 230
57.10702 243
57.12714 245
57.14725 238
57.16736 239
57.18748 246
57.20759 258
57.22771 247
57.24782 236
57.26793 220
57.28805 230
57.30816 236
57.32827 208
57.34839 249
57.3685 231
57.38861 230
57.40873 218
57.42884 207
57.44896 224
57.46907 215
57.48918 179
57.5093 210
57.52941 215
57.54952 221
57.56964 231
57.58975 219
57.60987 194
57.62998 209
57.65009 223
57.67021 220
57.69032 230
57.71043 212
57.73055 198
57.75066 223
57.77078 211
57.79089 224
57.811 224
57.83112 220
57.85123 203
57.87134 230
57.89146 227
57.91157 214
57.93168 220
57.9518 208
57.97191 228
57.99203 209
58.01214 213
58.03225 212
58.05237 224
58.07248 209
58.09259 208
58.11271 223
58.13282 202
58.15294 182
58.17305 210
58.19316 188
58.21328 224
58.23339 214
58.2535 187
58.27362 215
58.29373 210
58.31385 212
58.33396 187
58.35407 211
58.37419 231
58.3943 238
58.41441 212
58.43453 202
58.45464 204
58.47475 218
58.49487 200
58.51498 250
58.5351 208
58.55521 226
58.57532 214
58.59544 229
58.61555 215
58.63566 228
58.65578 214
58.67589 237
58.69601 212
58.71612 215
58.73623 207
58.75635 195
58.77646 214
58.79657 221
58.81669 186
58.8368 215
58.85691 222
58.87703 209
58.89714 216
58.91726 217
58.93737 201
58.95748 208
58.9776 221
58.99771 191
59.01782 214
59.03794 221
59.05805 220
59.07817 223
59.09828 216
59.11839 220
59.13851 257
59.15862 221
59.17873 226
59.19885 226
59.21896 215
59.23908 221
59.25919 237
59.2793 238
59.29942 233
59.31953 244
59.33964 221
59.35976 240
59.37987 236
59.39998 239
59.4201 262
59.44021 260
59.46033 298
59.48044 296
59.50055 316
59.52067 347
59.54078 369
59.56089 344
59.58101 386
59.60112 397
59.62124 478
59.64135 504
59.66146 557
59.68158 652
59.70169 699
59.7218 820
59.74192 861
59.76203 999
59.78215 1106
59.80226 1199
59.82237 1288
59.84249 1468
59.8626 1489
59.88271 1445
59.90283 1435
59.92294 1398
59.94305 1208
59.96317 1097
59.98328 1120
60.0034 961
60.02351 886
60.04362 800
60.06374 749
60.08385 691
60.10396 619
60.12408 543
60.14419 456
60.16431 399
60.18442 307
60.20453 292
60.22465 279
60.24476 254
60.26487 304
60.28499 263
60.3051 262
60.32522 245
60.34533 238
60.36544 245
60.38556 262
60.40567 232
60.42578 225
60.4459 240
60.46601 262
60.48612 227
60.50624 231
60.52635 216
60.54647 212
60.56658 206
60.58669 241
60.60681 231
60.62692 212
60.64703 217
60.66715 213
60.68726 222
60.70738 209
60.72749 220
60.7476 223
60.76772 226
60.78783 211
60.80794 218
60.82806 224
60.84817 245
60.86828 209
60.8884 224
60.90851 179
60.92863 229
60.94874 229
60.96885 221
60.98897 214
61.00908 226
61.02919 185
61.04931 181
61.06942 222
61.08954 237
61.10965 205
61.12976 210
61.14988 203
61.16999 238
61.1901 209
61.21022 239
61.23033 214
61.25045 215
61.27056 225
61.29067 206
61.31079 222
61.3309 230
61.35101 202
61.37113 227
61.39124 225
61.41135 219
61.43147 235
61.45158 222
61.4717 226
61.49181 261
61.51192 234
61.53204 219
61.55215 244
61.57226 217
61.59238 262
61.61249 234
61.63261 247
61.65272 255
61.67283 216
61.69295 225
61.71306 257
61.73317 256
61.75329 250
61.7734 241
61.79352 259
61.81363 215
61.83374 280
61.85386 285
61.87397 234
61.89408 263
61.9142 269
61.93431 232
61.95442 251
61.97454 250
61.99465 252
62.01477 241
62.03488 250
62.05499 239
62.07511 257
62.09522 293
62.11533 269
62.13545 254
62.15556 246
62.17568 257
62.19579 242
62.2159 256
62.23602 239
62.25613 205
62.27624 229
62.29636 245
62.31647 239
62.33659 227
62.3567 232
62.37681 221
62.39693 240
62.41704 233
62.43715 252
62.45727 231
62.47738 216
62.49749 232
62.51761 227
62.53772 238
62.55784 219
62.57795 223
62.59806 207
62.61818 231
62.63829 237
62.6584 204
62.67852 218
62.69863 227
62.71875 223
62.73886 221
62.75897 236
62.77909 212
62.7992 231
62.81931 202
62.83943 241
62.85954 179
62.87965 191
62.89977 215
62.91988 233
62.94 209
62.96011 231
62.98022 219
63.00034 233
63.02045 232
63.04056 226
63.06068 212
63.08079 237
63.10091 243
63.12102 221
63.14113 205
63.16125 218
63.18136 236
63.20147 202
63.22159 241
63.2417 237
63.26182 240
63.28193 225
63.30204 230
63.32216 213
63.34227 238
63.36238 212
63.3825 190
63.40261 226
63.42272 221
63.44284 218
63.46295 219
63.48307 243
63.50318 258
63.52329 195
63.54341 207
63.56352 208
63.58363 255
63.60375 237
63.62386 248
63.64398 230
63.66409 252
63.6842 254
63.70432 249
63.72443 244
63.74454 302
63.76466 304
63.78477 349
63.80489 346
63.825 364
63.84511 394
63.86523 360
63.88534 412
63.90545 420
63.92557 451
63.94568 442
63.96579 443
63.98591 415
64.00602 427
64.02614 450
64.04625 391
64.06636 341
64.08648 355
64.10659 337
64.1267 352
64.14682 326
64.16693 287
64.18705 297
64.20716 242
64.22727 230
64.24739 268
64.2675 215
64.28761 218
64.30773 214
64.32784 232
64.34796 211
64.36807 223
64.38818 230
64.4083 216
64.42841 219
64.44852 240
64.46864 180
64.48875 207
64.50886 218
64.52898 206
64.54909 201
64.56921 226
64.58932 177
64.60943 218
64.62955 216
64.64966 210
64.66977 197
64.68989 212
64.71 188
64.73012 203
64.75023 193
64.77034 195
64.79046 205
64.81057 219
64.83068 192
64.8508 196
64.87091 194
64.89102 232
64.91114 162
64.93125 209
64.95137 218
64.97148 184
64.99159 211
65.01171 205
65.03182 205
65.05193 209
65.07205 211
65.09216 206
65.11228 206
65.13239 211
65.1525 237
65.17262 213
65.19273 219
65.21284 207
65.23296 244
65.25307 201
65.27319 189
65.2933 216
65.31341 210
65.33353 226
65.35364 210
65.37375 212
65.39387 222
65.41398 203
65.43409 209
65.45421 244
65.47432 221
65.49444 219
65.51455 248
65.53466 244
65.55478 220
65.57489 219
65.595 224
65.61512 265
65.63523 266
65.65535 254
65.67546 273
65.69557 240
65.71569 239
65.7358 277
65.75591 265
65.77603 224
65.79614 230
65.81626 241
65.83637 227
65.85648 232
65.8766 233
65.89671 248
65.91682 226
65.93694 235
65.95705 220
65.97716 222
65.99728 190
66.01739 201
66.03751 208
66.05762 204
66.07773 214
66.09785 250
66.11796 200
66.13807 212
66.15819 221
66.1783 233
66.19842 242
66.21853 211
66.23864 183
66.25876 240
66.27887 190
66.29898 196
66.3191 227
66.33921 204
66.35933 210
66.37944 204
66.39955 221
66.41967 208
66.43978 207
66.45989 247
66.48001 182
66.50012 197
66.52023 211
66.54035 211
66.56046 195
66.58058 190
66.60069 194
66.6208 194
66.64092 210
66.66103 216
66.68114 208
66.70126 194
66.72137 218
66.74149 202
66.7616 210
66.78171 244
66.80183 225
66.82194 222
66.84205 207
66.86217 176
66.88228 181
66.90239 212
66.92251 200
66.94262 204
66.96274 213
66.98285 217
67.00296 204
67.02308 207
67.04319 212
67.0633 246
67.08342 223
67.10353 228
67.12365 231
67.14376 233
67.16387 251
67.18399 220
67.2041 294
67.22421 260
67.24433 237
67.26444 290
67.28456 276
67.30467 306
67.32478 309
67.3449 342
67.36501 341
67.38512 360
67.40524 349
67.42535 449
67.44546 440
67.46558 508
67.48569 559
67.50581 558
67.52592 595
67.54603 728
67.56615 847
67.58626 827
67.60637 907
67.62649 971
67.6466 989
67.66672 1014
67.68683 1029
67.70694 958
67.72706 860
67.74717 905
67.76728 846
67.7874 796
67.80751 766
67.82763 854
67.84774 823
67.86785 903
67.88797 882
67.90808 950
67.92819 1002
67.94831 1014
67.96842 1023
67.98853 1064
68.00865 1213
68.02876 1255
68.04888 1270
68.06899 1359
68.0891 1308
68.10922 1274
68.12933 1284
68.14944 1215
68.16956 1242
68.18967 1180
68.20979 1175
68.2299 1131
68.25001 1096
68.27013 1103
68.29024 977
68.31035 887
68.33047 812
68.35058 718
68.3707 631
68.39081 574
68.41092 514
68.43104 459
68.45115 446
68.47126 420
68.49138 419
68.51149 376
68.5316 293
68.55172 287
68.57183 259
68.59195 266
68.61206 272
68.63217 243
68.65229 252
68.6724 224
68.69251 234
68.71263 239
68.73274 220
68.75286 215
68.77297 249
68.79308 241
68.8132 211
68.83331 229
68.85342 219
68.87354 231
68.89365 240
68.91376 223
68.93388 225
68.95399 253
68.97411 245
68.99422 217
69.01433 237
69.03445 184
69.05456 227
69.07467 200
69.09479 204
69.1149 215
69.13502 207
69.15513 199
69.17524 183
69.19536 222
69.21547 211
69.23558 191
69.2557 189
69.27581 215
69.29593 209
69.31604 189
69.33615 210
69.35627 205
69.37638 221
69.39649 202
69.41661 203
69.43672 190
69.45683 208
69.47695 190
69.49706 193
69.51718 203
69.53729 214
69.5574 206
69.57752 179
69.59763 189
69.61774 197
69.63786 204
69.65797 227
69.67809 211
69.6982 211
69.71831 200
69.73843 191
69.75854 173
69.77865 218
69.79877 209
69.81888 170
69.839 214
69.85911 192
69.87922 209
69.89934 184
69.91945 184
69.93956 217
69.95968 224
69.97979 210
69.9999 201
70.02002 222
70.04013 202
70.06025 191
70.08036 196
70.10047 204
70.12059 211
70.1407 215
70.16081 191
70.18093 189
70.20104 193
70.22116 200
70.24127 184
70.26138 208
70.2815 193
70.30161 225
70.32172 207
70.34184 202
70.36195 200
70.38207 201
70.40218 199
70.42229 190
70.44241 189
70.46252 208
70.48263 212
70.50275 168
70.52286 178
70.54297 171
70.56309 190
70.5832 196
70.60332 178
70.62343 205
70.64354 177
70.66366 237
70.68377 185
70.70388 198
70.724 194
70.74411 182
70.76423 228
70.78434 207
70.80445 190
70.82457 206
70.84468 176
70.86479 178
70.88491 187
70.90502 181
70.92513 181
70.94525 202
70.96536 187
70.98548 179
71.00559 189
71.0257 187
71.04582 166
71.06593 193
71.08604 180
71.10616 186
71.12627 177
71.14639 205
71.1665 210
71.18661 220
71.20673 196
71.22684 174
71.24695 208
71.26707 193
71.28718 162
71.3073 194
71.32741 191
71.34752 185
71.36764 193
71.38775 193
71.40786 216
71.42798 193
71.44809 183
71.4682 193
71.48832 208
71.50843 182
71.52855 196
71.54866 205
71.56877 203
71.58889 192
71.609 184
71.62911 203
71.64923 210
71.66934 170
71.68946 186
71.70957 201
71.72968 201
71.7498 187
71.76991 204
71.79002 215
71.81014 184
71.83025 247
71.85037 185
71.87048 177
71.89059 187
71.91071 169
71.93082 181
71.95093 218
71.97105 200
71.99116 172
72.01127 196
72.03139 199
72.0515 201
72.07162 216
72.09173 186
72.11184 194
72.13196 189
72.15207 201
72.17218 184
72.1923 205
72.21241 199
72.23253 177
72.25264 173
72.27275 180
72.29287 187
72.31298 210
72.33309 181
72.35321 189
72.37332 182
72.39344 188
72.41355 198
72.43366 196
72.45378 159
72.47389 174
72.494 214
72.51412 218
72.53423 210
72.55434 177
72.57446 212
72.59457 197
72.61469 197
72.6348 192
72.65491 206
72.67503 188
72.69514 213
72.71525 234
72.73537 191
72.75548 202
72.7756 199
72.79571 178
72.81582 202
72.83594 189
72.85605 240
72.87616 210
72.89628 224
72.91639 222
72.9365 206
72.95662 209
72.97673 232
72.99685 225
73.01696 208
73.03707 204
73.05719 217
73.0773 228
73.09741 213
73.11753 246
73.13764 242
73.15776 300
73.17787 300
73.19798 295
73.2181 298
73.23821 352
73.25832 309
73.27844 426
73.29855 356
73.31867 431
73.33878 453
73.35889 467
73.37901 434
73.39912 452
73.41923 417
73.43935 416
73.45946 396
73.47957 375
73.49969 351
73.5198 327
73.53992 346
73.56003 370
73.58014 335
73.60026 338
73.62037 304
73.64048 290
73.6606 295
73.68071 241
73.70083 243
73.72094 244
73.74105 230
73.76117 201
73.78128 199
73.80139 206
73.82151 216
73.84162 221
73.86174 197
73.88185 218
73.90196 222
73.92208 183
73.94219 188
73.9623 176
73.98242 216
74.00253 196
74.02264 204
74.04276 189
74.06287 189
74.08299 190
74.1031 206
74.12321 188
74.14333 197
74.16344 204
74.18355 164
74.20367 229
74.22378 228
74.2439 204
74.26401 193
74.28412 223
74.30424 194
74.32435 186
74.34446 191
74.36458 197
74.38469 210
74.40481 192
74.42492 211
74.44503 210
74.46515 186
74.48526 185
74.50537 218
74.52549 181
74.5456 207
74.56571 212
74.58583 202
74.60594 185
74.62606 195
74.64617 187
74.66628 206
74.6864 184
74.70651 201
74.72662 180
74.74674 180
74.76685 177
74.78697 164
74.80708 203
74.82719 192
74.84731 194
74.86742 185
74.88753 180
74.90765 215
74.92776 198
74.94787 195
74.96799 211
74.9881 218
75.00822 175
