3.00117 21134
3.02128 20762
3.0414 19794
3.06151 19653
3.08162 18732
3.10174 18314
3.12185 17879
3.14197 17357
3.16208 17178
3.18219 16299
3.20231 15924
3.22242 15516
3.24253 15011
3.26265 15028
3.28276 13962
3.30288 13692
3.32299 13227
3.3431 12893
3.36322 12495
3.38333 11930
3.40344 11849
3.42356 11375
3.44367 10810
3.46379 10713
3.4839 10104
3.50401 9975
3.52413 9642
3.54424 9115
3.56435 9234
3.58447 8423
3.60458 8287
3.62469 7957
3.64481 7796
3.66492 7611
3.68504 6962
3.70515 6965
3.72526 6531
3.74538 6192
3.76549 6046
3.7856 5773
3.80572 5569
3.82583 5556
3.84595 5124
3.86606 5027
3.88617 4647
3.90629 4535
3.9264 4488
3.94651 4213
3.96663 4188
3.98674 3834
4.00686 3625
4.02697 3476
4.04708 3401
4.0672 3286
4.08731 3003
4.10742 2954
4.12754 3039
4.14765 2779
4.16776 2708
4.18788 2385
4.20799 2482
4.22811 2319
4.24822 2333
4.26833 2235
4.28845 1986
4.30856 1995
4.32867 2098
4.34879 1988
4.3689 1999
4.38902 1754
4.40913 1753
4.42924 1667
4.44936 1857
4.46947 1612
4.48958 1552
4.5097 1615
4.52981 1552
4.54992 1568
4.57004 1423
4.59015 1468
4.61027 1475
4.63038 1437
4.65049 1384
4.67061 1381
4.69072 1272
4.71083 1299
4.73095 1279
4.75106 1275
4.77118 1222
4.79129 1189
4.8114 1173
4.83152 1051
4.85163 1166
4.87174 1066
4.89186 1013
4.91197 979
4.93209 1000
4.9522 1014
4.97231 1008
4.99243 970
5.01254 922
5.03265 967
5.05277 923
5.07288 863
5.09299 904
5.11311 846
5.13322 875
5.15334 900
5.17345 748
5.19356 777
5.21368 834
5.23379 786
5.2539 800
5.27402 731
5.29413 793
5.31425 685
5.33436 703
5.35447 762
5.37459 674
5.3947 671
5.41481 662
5.43493 643
5.45504 643
5.47516 598
5.49527 625
5.51538 662
5.5355 657
5.55561 640
5.57572 586
5.59584 600
5.61595 559
5.63606 518
5.65618 568
5.67629 525
5.69641 545
5.71652 566
5.73663 546
5.75675 525
5.77686 535
5.79697 526
5.81709 588
5.8372 524
5.85732 463
5.87743 450
5.89754 500
5.91766 485
5.93777 487
5.95788 522
5.978 480
5.99811 509
6.01823 430
6.03834 484
6.05845 479
6.07857 457
6.09868 464
6.11879 481
6.13891 473
6.15902 469
6.17913 460
6.19925 504
6.21936 437
6.23948 480
6.25959 478
6.2797 435
6.29982 452
6.31993 431
6.34004 454
6.36016 466
6.38027 427
6.40039 417
6.4205 427
6.44061 461
6.46073 419
6.48084 408
6.50095 464
6.52107 421
6.54118 429
6.56129 398
6.58141 433
6.60152 423
6.62164 415
6.64175 439
6.66186 428
6.68198 458
6.70209 420
6.7222 376
6.74232 467
6.76243 447
6.78255 433
6.80266 391
6.82277 488
6.84289 377
6.863 439
6.88311 403
6.90323 399
6.92334 423
6.94346 413
6.96357 446
6.98368 456
7.0038 430
7.02391 419
7.04402 447
7.06414 448
7.08425 405
7.10436 449
7.12448 411
7.14459 446
7.16471 456
7.18482 417
7.20493 462
7.22505 421
7.24516 376
7.26527 435
7.28539 464
7.3055 407
7.32562 431
7.34573 395
7.36584 403
7.38596 420
7.40607 426
7.42618 441
7.4463 454
7.46641 403
7.48653 436
7.50664 423
7.52675 395
7.54687 423
7.56698 425
7.58709 378
7.60721 397
7.62732 437
7.64743 440
7.66755 403
7.68766 414
7.70778 419
7.72789 472
7.748 419
7.76812 411
7.78823 398
7.80834 444
7.82846 442
7.84857 424
7.86869 399
7.8888 407
7.90891 464
7.92903 379
7.94914 419
7.96925 451
7.98937 428
8.00948 381
8.0296 428
8.04971 417
8.06982 419
8.08994 425
8.11005 414
8.13016 424
8.15028 389
8.17039 441
8.1905 441
8.21062 426
8.23073 438
8.25085 407
8.27096 426
8.29107 439
8.31119 383
8.3313 411
8.35141 447
8.37153 408
8.39164 417
8.41176 382
8.43187 391
8.45198 449
8.4721 403
8.49221 410
8.51232 399
8.53244 401
8.55255 444
8.57266 421
8.59278 416
8.61289 451
8.63301 418
8.65312 367
8.67323 406
8.69335 394
8.71346 422
8.73357 442
8.75369 431
8.7738 464
8.79392 438
8.81403 398
8.83414 427
8.85426 419
8.87437 445
8.89448 436
8.9146 471
8.93471 439
8.95483 412
8.97494 394
8.99505 394
9.01517 463
9.03528 422
9.05539 430
9.07551 385
9.09562 463
9.11573 454
9.13585 403
9.15596 430
9.17608 416
9.19619 391
9.2163 397
9.23642 420
9.25653 405
9.27664 412
9.29676 396
9.31687 429
9.33699 439
9.3571 379
9.37721 417
9.39733 402
9.41744 436
9.43755 425
9.45767 423
9.47778 403
9.4979 410
9.51801 399
9.53812 399
9.55824 456
9.57835 482
9.59846 416
9.61858 421
9.63869 408
9.6588 415
9.67892 431
9.69903 408
9.71915 441
9.73926 442
9.75937 387
9.77949 406
9.7996 430
9.81971 399
9.83983 403
9.85994 418
9.88006 396
9.90017 429
9.92028 419
9.9404 387
9.96051 409
9.98062 384
10.00074 394
10.02085 435
10.04097 393
10.06108 390
10.08119 412
10.10131 367
10.12142 394
10.14153 402
10.16165 407
10.18176 387
10.20187 445
10.22199 412
10.2421 435
10.26222 430
10.28233 404
10.30244 455
10.32256 386
10.34267 379
10.36278 362
10.3829 392
10.40301 418
10.42313 407
10.44324 424
10.46335 399
10.48347 431
10.50358 394
10.52369 423
10.54381 401
10.56392 420
10.58403 420
10.60415 414
10.62426 443
10.64438 411
10.66449 406
10.6846 416
10.70472 399
10.72483 393
10.74494 403
10.76506 424
10.78517 448
10.80529 390
10.8254 457
10.84551 418
10.86563 455
10.88574 387
10.90585 419
10.92597 468
10.94608 376
10.9662 403
10.98631 415
11.00642 427
11.02654 415
11.04665 455
11.06676 404
11.08688 418
11.10699 405
11.1271 384
11.14722 434
11.16733 396
11.18745 450
11.20756 408
11.22767 388
11.24779 427
11.2679 396
11.28801 415
11.30813 468
11.32824 457
11.34836 423
11.36847 444
11.38858 432
11.4087 454
11.42881 425
11.44892 439
11.46904 411
11.48915 477
11.50927 440
11.52938 447
11.54949 434
11.56961 412
11.58972 420
11.60983 451
11.62995 480
11.65006 444
11.67017 431
11.69029 460
11.7104 463
11.73052 458
11.75063 452
11.77074 512
11.79086 533
11.81097 452
11.83108 460
11.8512 494
11.87131 494
11.89143 503
11.91154 523
11.93165 513
11.95177 547
11.97188 522
11.99199 559
12.01211 577
12.03222 572
12.05234 630
12.07245 628
12.09256 631
12.11268 618
12.13279 695
12.1529 739
12.17302 729
12.19313 761
12.21324 806
12.23336 793
12.25347 890
12.27359 872
12.2937 917
12.31381 1029
12.33393 970
12.35404 918
12.37415 954
12.39427 982
12.41438 924
12.4345 876
12.45461 843
12.47472 781
12.49484 719
12.51495 679
12.53506 663
12.55518 638
12.57529 619
12.5954 599
12.61552 555
12.63563 544
12.65575 523
12.67586 542
12.69597 513
12.71609 507
12.7362 454
12.75631 433
12.77643 485
12.79654 458
12.81666 436
12.83677 450
12.85688 438
12.877 470
12.89711 455
12.91722 424
12.93734 431
12.95745 430
12.97757 406
12.99768 416
13.01779 441
13.03791 399
13.05802 428
13.07813 417
13.09825 460
13.11836 395
13.13847 393
13.15859 426
13.1787 384
13.19882 429
13.21893 412
13.23904 407
13.25916 405
13.27927 435
13.29938 362
13.3195 406
13.33961 379
13.35973 414
13.37984 384
13.39995 376
13.42007 409
13.44018 389
13.46029 367
13.48041 421
13.50052 416
13.52064 418
13.54075 426
13.56086 397
13.58098 358
13.60109 374
13.6212 385
13.64132 377
13.66143 374
13.68154 383
13.70166 427
13.72177 387
13.74189 370
13.762 374
13.78211 371
13.80223 413
13.82234 381
13.84245 405
13.86257 409
13.88268 407
13.9028 371
13.92291 345
13.94302 389
13.96314 419
13.98325 401
14.00336 361
14.02348 382
14.04359 338
14.06371 391
14.08382 374
14.10393 377
14.12405 356
14.14416 374
14.16427 386
14.18439 405
14.2045 364
14.22461 397
14.24473 406
14.26484 400
14.28496 361
14.30507 365
14.32518 371
14.3453 386
14.36541 375
14.38552 437
14.40564 418
14.42575 415
14.44587 387
14.46598 400
14.48609 392
14.50621 388
14.52632 417
14.54643 358
14.56655 428
14.58666 416
14.60677 418
14.62689 390
14.647 400
14.66712 362
14.68723 373
14.70734 420
14.72746 372
14.74757 431
14.76768 403
14.7878 420
14.80791 354
14.82803 362
14.84814 380
14.86825 399
14.88837 380
14.90848 385
14.92859 399
14.94871 360
14.96882 377
14.98894 369
15.00905 364
15.02916 347
15.04928 364
15.06939 391
15.0895 371
15.10962 378
15.12973 361
15.14984 406
15.16996 381
15.19007 394
15.21019 396
15.2303 363
15.25041 378
15.27053 376
15.29064 367
15.31075 360
15.33087 373
15.35098 384
15.3711 404
15.39121 421
15.41132 408
15.43144 383
15.45155 396
15.47166 377
15.49178 383
15.51189 371
15.53201 376
15.55212 398
15.57223 374
15.59235 361
15.61246 376
15.63257 412
15.65269 369
15.6728 407
15.69291 421
15.71303 354
15.73314 409
15.75326 368
15.77337 388
15.79348 365
15.8136 389
15.83371 396
15.85382 374
15.87394 336
15.89405 410
15.91417 402
15.93428 376
15.95439 397
15.97451 376
15.99462 372
16.01473 381
16.03485 386
16.05496 375
16.07508 382
16.09519 385
16.1153 376
16.13542 412
16.15553 379
16.17564 392
16.19576 417
16.21587 383
16.23598 389
16.2561 394
16.27621 403
16.29633 375
16.31644 347
16.33655 370
16.35667 364
16.37678 388
16.39689 353
16.41701 387
16.43712 410
16.45724 382
16.47735 405
16.49746 391
16.51758 379
16.53769 355
16.5578 390
16.57792 404
16.59803 354
16.61814 377
16.63826 389
16.65837 357
16.67849 372
16.6986 383
16.71871 379
16.73883 415
16.75894 365
16.77905 385
16.79917 382
16.81928 355
16.8394 393
16.85951 355
16.87962 370
16.89974 380
16.91985 366
16.93996 360
16.96008 363
16.98019 390
17.00031 349
17.02042 394
17.04053 364
17.06065 405
17.08076 380
17.10087 377
17.12099 379
17.1411 390
17.16121 365
17.18133 377
17.20144 375
17.22156 400
17.24167 354
17.26178 391
17.2819 398
17.30201 371
17.32212 371
17.34224 402
17.36235 416
17.38247 369
17.40258 400
17.42269 376
17.44281 367
17.46292 372
17.48303 394
17.50315 356
17.52326 418
17.54338 377
17.56349 388
17.5836 408
17.60372 394
17.62383 438
17.64394 394
17.66406 384
17.68417 440
17.70428 370
17.7244 420
17.74451 423
17.76463 388
17.78474 417
17.80485 410
17.82497 389
17.84508 376
17.86519 408
17.88531 445
17.90542 406
17.92554 454
17.94565 456
17.96576 372
17.98588 429
18.00599 444
18.0261 445
18.04622 392
18.06633 402
18.08645 397
18.10656 473
18.12667 506
18.14679 522
18.1669 551
18.18701 564
18.20713 697
18.22724 826
18.24735 945
18.26747 1129
18.28758 1158
18.3077 1091
18.32781 1036
18.34792 923
18.36804 758
18.38815 620
18.40826 514
18.42838 458
18.44849 481
18.46861 395
18.48872 439
18.50883 432
18.52895 445
18.54906 399
18.56917 428
18.58929 415
18.6094 393
18.62951 422
18.64963 355
18.66974 434
18.68986 412
18.70997 395
18.73008 357
18.7502 432
18.77031 411
18.79042 400
18.81054 403
18.83065 383
18.85077 406
18.87088 410
18.89099 389
18.91111 397
18.93122 374
18.95133 403
18.97145 388
18.99156 361
19.01168 397
19.03179 422
19.0519 400
19.07202 359
19.09213 391
19.11224 429
19.13236 393
19.15247 396
19.17258 401
19.1927 402
19.21281 394
19.23293 403
19.25304 418
19.27315 399
19.29327 369
19.31338 394
19.33349 393
19.35361 412
19.37372 437
19.39384 369
19.41395 417
19.43406 362
19.45418 390
19.47429 417
19.4944 399
19.51452 398
19.53463 421
19.55475 414
19.57486 422
19.59497 496
19.61509 467
19.6352 467
19.65531 459
19.67543 457
19.69554 503
19.71565 494
19.73577 517
19.75588 643
19.776 595
19.79611 650
19.81622 692
19.83634 769
19.85645 727
19.87656 756
19.89668 731
19.91679 784
19.93691 743
19.95702 702
19.97713 676
19.99725 705
20.01736 748
20.03747 759
20.05759 678
20.0777 665
20.09782 682
20.11793 667
20.13804 693
20.15816 697
20.17827 717
20.19838 772
20.2185 834
20.23861 857
20.25872 913
20.27884 950
20.29895 917
20.31907 925
20.33918 907
20.35929 876
20.37941 840
20.39952 779
20.41963 797
20.43975 824
20.45986 823
20.47998 830
20.50009 852
20.5202 857
20.54032 872
20.56043 877
20.58054 853
20.60066 801
20.62077 819
20.64088 883
20.661 834
20.68111 949
20.70123 1071
20.72134 1268
20.74145 1466
20.76157 1892
20.78168 2398
20.80179 2964
20.82191 3591
20.84202 4154
20.86214 4104
20.88225 3727
20.90236 2946
20.92248 2283
20.94259 1689
20.9627 1212
20.98282 962
21.00293 924
21.02305 869
21.04316 814
21.06327 814
21.08339 802
21.1035 825
21.12361 839
21.14373 813
21.16384 844
21.18395 879
21.20407 842
21.22418 810
21.2443 817
21.26441 924
21.28452 862
21.30464 887
21.32475 893
21.34486 962
21.36498 970
21.38509 933
21.40521 962
21.42532 858
21.44543 920
21.46555 864
21.48566 862
21.50577 822
21.52589 809
21.546 781
21.56612 754
21.58623 747
21.60634 754
21.62646 711
21.64657 767
21.66668 667
21.6868 647
21.70691 606
21.72702 667
21.74714 689
21.76725 612
21.78737 627
21.80748 617
21.82759 573
21.84771 656
21.86782 639
21.88793 570
21.90805 590
21.92816 601
21.94828 554
21.96839 577
21.9885 522
22.00862 560
22.02873 540
22.04884 578
22.06896 553
22.08907 550
22.10919 535
22.1293 544
22.14941 592
22.16953 575
22.18964 556
22.20975 558
22.22987 562
22.24998 548
22.27009 602
22.29021 507
22.31032 507
22.33044 519
22.35055 600
22.37066 532
22.39078 494
22.41089 536
22.431 521
22.45112 535
22.47123 529
22.49135 476
22.51146 503
22.53157 500
22.55169 508
22.5718 508
22.59191 525
22.61203 474
22.63214 512
22.65225 531
22.67237 498
22.69248 510
22.7126 522
22.73271 501
22.75282 542
22.77294 521
22.79305 506
22.81316 520
22.83328 515
22.85339 492
22.87351 495
22.89362 517
22.91373 507
22.93385 501
22.95396 515
22.97407 481
22.99419 525
23.0143 514
23.03442 481
23.05453 473
23.07464 504
23.09476 490
23.11487 456
23.13498 545
23.1551 502
23.17521 510
23.19532 518
23.21544 489
23.23555 434
23.25567 467
23.27578 494
23.29589 526
23.31601 459
23.33612 475
23.35623 489
23.37635 520
23.39646 468
23.41658 463
23.43669 558
23.4568 475
23.47692 478
23.49703 493
23.51714 483
23.53726 441
23.55737 514
23.57749 493
23.5976 493
23.61771 434
23.63783 459
23.65794 485
23.67805 557
23.69817 544
23.71828 473
23.73839 449
23.75851 453
23.77862 500
23.79874 501
23.81885 469
23.83896 479
23.85908 494
23.87919 493
23.8993 497
23.91942 473
23.93953 533
23.95965 514
23.97976 517
23.99987 545
24.01999 535
24.0401 485
24.06021 551
24.08033 525
24.10044 483
24.12056 479
24.14067 554
24.16078 493
24.1809 496
24.20101 522
24.22112 529
24.24124 494
24.26135 531
24.28146 524
24.30158 562
24.32169 514
24.34181 495
24.36192 504
24.38203 539
24.40215 537
24.42226 501
24.44237 557
24.46249 539
24.4826 551
24.50272 553
24.52283 551
24.54294 585
24.56306 562
24.58317 668
24.60328 641
24.6234 679
24.64351 665
24.66362 625
24.68374 724
24.70385 729
24.72397 754
24.74408 798
24.76419 783
24.78431 830
24.80442 825
24.82453 854
24.84465 868
24.86476 896
24.88488 867
24.90499 865
24.9251 831
24.94522 818
24.96533 778
24.98544 756
25.00556 663
25.02567 697
25.04579 726
25.0659 748
25.08601 796
25.10613 697
25.12624 764
25.14635 766
25.16647 772
25.18658 820
25.20669 811
25.22681 701
25.24692 652
25.26704 603
25.28715 591
25.30726 580
25.32738 564
25.34749 611
25.3676 597
25.38772 545
25.40783 552
25.42795 537
25.44806 518
25.46817 507
25.48829 512
25.5084 517
25.52851 510
25.54863 524
25.56874 496
25.58886 521
25.60897 521
25.62908 542
25.6492 538
25.66931 513
25.68942 527
25.70954 577
25.72965 531
25.74976 530
25.76988 599
25.78999 545
25.81011 553
25.83022 526
25.85033 589
25.87045 574
25.89056 575
25.91067 578
25.93079 604
25.9509 572
25.97102 612
25.99113 624
26.01124 616
26.03136 625
26.05147 631
26.07158 608
26.0917 666
26.11181 672
26.13193 687
26.15204 689
26.17215 742
26.19227 728
26.21238 763
26.23249 841
26.25261 782
26.27272 875
26.29283 865
26.31295 919
26.33306 954
26.35318 1067
26.37329 1137
26.3934 1329
26.41352 1537
26.43363 1871
26.45374 2159
26.47386 2734
26.49397 3661
26.51409 4918
26.5342 6627
26.55431 9136
26.57443 11799
26.59454 14755
26.61465 16563
26.63477 16570
26.65488 14763
26.67499 11635
26.69511 9131
26.71522 6863
26.73534 4496
26.75545 2681
26.77556 1882
26.79568 1466
26.81579 1288
26.8359 1170
26.85602 1056
26.87613 967
26.89625 974
26.91636 891
26.93647 892
26.95659 788
26.9767 734
26.99681 639
27.01693 657
27.03704 631
27.05716 609
27.07727 605
27.09738 633
27.1175 544
27.13761 560
27.15772 540
27.17784 492
27.19795 505
27.21806 486
27.23818 543
27.25829 536
27.27841 564
27.29852 574
27.31863 555
27.33875 488
27.35886 519
27.37897 514
27.39909 524
27.4192 528
27.43932 540
27.45943 515
27.47954 490
27.49966 540
27.51977 469
27.53988 478
27.56 462
27.58011 449
27.60023 525
27.62034 451
27.64045 493
27.66057 468
27.68068 474
27.70079 505
27.72091 491
27.74102 471
27.76113 485
27.78125 479
27.80136 463
27.82148 466
27.84159 470
27.8617 486
27.88182 494
27.90193 467
27.92204 500
27.94216 461
27.96227 453
27.98239 483
28.0025 510
28.02261 487
28.04273 476
28.06284 493
28.08295 479
28.10307 471
28.12318 487
28.1433 463
28.16341 456
28.18352 440
28.20364 434
28.22375 450
28.24386 479
28.26398 489
28.28409 424
28.3042 464
28.32432 451
28.34443 470
28.36455 425
28.38466 479
28.40477 400
28.42489 419
28.445 464
28.46511 450
28.48523 443
28.50534 467
28.52546 441
28.54557 436
28.56568 457
28.5858 439
28.60591 417
28.62602 455
28.64614 450
28.66625 418
28.68636 454
28.70648 435
28.72659 471
28.74671 409
28.76682 446
28.78693 450
28.80705 438
28.82716 417
28.84727 443
28.86739 435
28.8875 434
28.90762 427
28.92773 452
28.94784 419
28.96796 406
28.98807 454
29.00818 429
29.0283 376
29.04841 410
29.06853 397
29.08864 406
29.10875 441
29.12887 416
29.14898 426
29.16909 456
29.18921 413
29.20932 473
29.22943 395
29.24955 439
29.26966 413
29.28978 444
29.30989 396
29.33 408
29.35012 390
29.37023 431
29.39034 429
29.41046 402
29.43057 427
29.45069 449
29.4708 426
29.49091 407
29.51103 422
29.53114 429
29.55125 410
29.57137 404
29.59148 437
29.6116 395
29.63171 403
29.65182 431
29.67194 420
29.69205 408
29.71216 422
29.73228 416
29.75239 452
29.7725 429
29.79262 459
29.81273 434
29.83285 431
29.85296 418
29.87307 407
29.89319 461
29.9133 436
29.93341 453
29.95353 429
29.97364 434
29.99376 399
30.01387 431
30.03398 480
30.0541 402
30.07421 446
30.09432 437
30.11444 370
30.13455 456
30.15467 422
30.17478 397
30.19489 402
30.21501 383
30.23512 397
30.25523 470
30.27535 412
30.29546 418
30.31557 380
30.33569 438
30.3558 412
30.37592 425
30.39603 399
30.41614 438
30.43626 427
30.45637 375
30.47648 379
30.4966 438
30.51671 400
30.53683 395
30.55694 424
30.57705 415
30.59717 428
30.61728 416
30.63739 405
30.65751 395
30.67762 413
30.69773 405
30.71785 379
30.73796 424
30.75808 384
30.77819 396
30.7983 384
30.81842 384
30.83853 389
30.85864 407
30.87876 400
30.89887 418
30.91899 411
30.9391 373
30.95921 431
30.97933 385
30.99944 391
31.01955 410
31.03967 421
31.05978 412
31.0799 410
31.10001 419
31.12012 412
31.14024 386
31.16035 424
31.18046 405
31.20058 410
31.22069 399
31.2408 410
31.26092 397
31.28103 388
31.30115 413
31.32126 397
31.34137 394
31.36149 387
31.3816 389
31.40171 365
31.42183 377
31.44194 415
31.46206 378
31.48217 393
31.50228 395
31.5224 408
31.54251 422
31.56262 430
31.58274 383
31.60285 412
31.62297 410
31.64308 407
31.66319 421
31.68331 391
31.70342 415
31.72353 412
31.74365 389
31.76376 436
31.78387 412
31.80399 429
31.8241 370
31.84422 406
31.86433 406
31.88444 438
31.90456 394
31.92467 388
31.94478 397
31.9649 399
31.98501 422
32.00513 457
32.02524 400
32.04535 447
32.06547 431
32.08558 406
32.10569 419
32.12581 401
32.14592 381
32.16604 382
32.18615 400
32.20626 431
32.22638 388
32.24649 411
32.2666 388
32.28672 384
32.30683 404
32.32694 427
32.34706 384
32.36717 412
32.38729 406
32.4074 423
32.42751 445
32.44763 424
32.46774 456
32.48785 417
32.50797 409
32.52808 424
32.5482 447
32.56831 411
32.58842 383
32.60854 444
32.62865 459
32.64876 428
32.66888 408
32.68899 422
32.7091 474
32.72922 427
32.74933 437
32.76945 449
32.78956 447
32.80967 444
32.82979 434
32.8499 415
32.87001 441
32.89013 438
32.91024 457
32.93036 492
32.95047 504
32.97058 450
32.9907 489
33.01081 497
33.03092 465
33.05104 502
33.07115 500
33.09127 504
33.11138 488
33.13149 508
33.15161 498
33.17172 540
33.19183 512
33.21195 505
33.23206 506
33.25217 491
33.27229 502
33.2924 454
33.31252 472
33.33263 439
33.35274 464
33.37286 469
33.39297 471
33.41308 458
33.4332 463
33.45331 471
33.47343 524
33.49354 460
33.51365 475
33.53377 504
33.55388 481
33.57399 497
33.59411 449
33.61422 504
33.63434 482
33.65445 515
33.67456 466
33.69468 491
33.71479 452
33.7349 526
33.75502 446
33.77513 455
33.79524 459
33.81536 461
33.83547 472
33.85559 446
33.8757 472
33.89581 417
33.91593 423
33.93604 416
33.95615 431
33.97627 431
33.99638 389
34.0165 440
34.03661 431
34.05672 465
34.07684 454
34.09695 395
34.11706 430
34.13718 407
34.15729 451
34.17741 408
34.19752 434
34.21763 440
34.23775 427
34.25786 443
34.27797 430
34.29809 414
34.3182 398
34.33831 441
34.35843 423
34.37854 402
34.39866 426
34.41877 455
34.43888 441
34.459 395
34.47911 413
34.49922 463
34.51934 407
34.53945 401
34.55957 446
34.57968 468
34.59979 434
34.61991 429
34.64002 472
34.66013 457
34.68025 462
34.70036 507
34.72047 463
34.74059 475
34.7607 472
34.78082 513
34.80093 515
34.82104 584
34.84116 546
34.86127 588
34.88138 603
34.9015 616
34.92161 612
34.94173 617
34.96184 603
34.98195 615
35.00207 641
35.02218 622
35.04229 614
35.06241 596
35.08252 605
35.10264 607
35.12275 597
35.14286 577
35.16298 570
35.18309 547
35.2032 588
35.22332 627
35.24343 587
35.26354 576
35.28366 595
35.30377 579
35.32389 590
35.344 577
35.36411 579
35.38423 628
35.40434 602
35.42445 607
35.44457 649
35.46468 634
35.4848 570
35.50491 596
35.52502 557
35.54514 551
35.56525 578
35.58536 626
35.60548 615
35.62559 613
35.64571 622
35.66582 574
35.68593 595
35.70605 673
35.72616 630
35.74627 664
35.76639 640
35.7865 645
35.80661 639
35.82673 608
35.84684 635
35.86696 641
35.88707 678
35.90718 649
35.9273 639
35.94741 635
35.96752 637
35.98764 589
36.00775 633
36.02787 640
36.04798 604
36.06809 567
36.08821 580
36.10832 537
36.12843 496
36.14855 531
36.16866 524
36.18878 525
36.20889 575
36.229 535
36.24912 542
36.26923 587
36.28934 614
36.30946 580
36.32957 670
36.34968 643
36.3698 717
36.38991 835
36.41003 880
36.43014 974
36.45025 1167
36.47037 1260
36.49048 1448
36.51059 1553
36.53071 1569
36.55082 1476
36.57094 1368
36.59105 1181
36.61116 1117
36.63128 1020
36.65139 870
36.6715 701
36.69162 688
36.71173 617
36.73184 600
36.75196 563
36.77207 553
36.79219 577
36.8123 607
36.83241 546
36.85253 558
36.87264 561
36.89275 566
36.91287 624
36.93298 550
36.9531 558
36.97321 606
36.99332 613
37.01344 610
37.03355 604
37.05366 626
37.07378 608
37.09389 659
37.11401 592
37.13412 601
37.15423 591
37.17435 617
37.19446 575
37.21457 585
37.23469 606
37.2548 595
37.27491 566
37.29503 542
37.31514 553
37.33526 500
37.35537 502
37.37548 544
37.3956 530
37.41571 562
37.43582 461
37.45594 543
37.47605 518
37.49617 511
37.51628 500
37.53639 536
37.55651 585
37.57662 580
37.59673 553
37.61685 578
37.63696 586
37.65708 599
37.67719 610
37.6973 613
37.71742 593
37.73753 601
37.75764 562
37.77776 529
37.79787 548
37.81798 522
37.8381 563
37.85821 528
37.87833 499
37.89844 496
37.91855 513
37.93867 536
37.95878 484
37.97889 474
37.99901 438
38.01912 521
38.03924 561
38.05935 492
38.07946 511
38.09958 514
38.11969 543
38.1398 546
38.15992 554
38.18003 531
38.20015 605
38.22026 617
38.24037 642
38.26049 647
38.2806 612
38.30071 605
38.32083 621
38.34094 654
38.36105 751
38.38117 683
38.40128 692
38.4214 648
38.44151 664
38.46162 662
38.48174 641
38.50185 569
38.52196 594
38.54208 629
38.56219 550
38.58231 574
38.60242 555
38.62253 532
38.64265 524
38.66276 562
38.68287 549
38.70299 488
38.7231 497
38.74321 490
38.76333 557
38.78344 496
38.80356 492
38.82367 503
38.84378 487
38.8639 529
38.88401 527
38.90412 454
38.92424 500
38.94435 542
38.96447 523
38.98458 522
39.00469 573
39.02481 558
39.04492 578
39.06503 566
39.08515 564
39.10526 522
39.12538 613
39.14549 611
39.1656 602
39.18572 598
39.20583 607
39.22594 629
39.24606 650
39.26617 696
39.28628 691
39.3064 789
39.32651 795
39.34663 943
39.36674 1001
39.38685 1144
39.40697 1262
39.42708 1433
39.44719 1438
39.46731 1325
39.48742 1182
39.50754 1035
39.52765 960
39.54776 955
39.56788 842
39.58799 728
39.6081 600
39.62822 506
39.64833 517
39.66845 446
39.68856 465
39.70867 493
39.72879 444
39.7489 424
39.76901 400
39.78913 443
39.80924 428
39.82935 448
39.84947 487
39.86958 469
39.8897 445
39.90981 466
39.92992 499
39.95004 475
39.97015 458
39.99026 504
40.01038 500
40.03049 512
40.05061 523
40.07072 535
40.09083 541
40.11095 558
40.13106 612
40.15117 630
40.17129 680
40.1914 729
40.21152 827
40.23163 873
40.25174 878
40.27186 957
40.29197 914
40.31208 758
40.3322 752
40.35231 695
40.37242 641
40.39254 645
40.41265 610
40.43277 539
40.45288 533
40.47299 521
40.49311 463
40.51322 473
40.53333 484
40.55345 490
40.57356 507
40.59368 471
40.61379 469
40.6339 499
40.65402 459
40.67413 463
40.69424 476
40.71436 433
40.73447 478
40.75458 481
40.7747 479
40.79481 480
40.81493 471
40.83504 446
40.85515 500
40.87527 474
40.89538 517
40.91549 512
40.93561 487
40.95572 490
40.97584 506
40.99595 459
41.01606 502
41.03618 448
41.05629 456
41.0764 472
41.09652 451
41.11663 451
41.13675 455
41.15686 480
41.17697 483
41.19709 441
41.2172 407
41.23731 441
41.25743 444
41.27754 432
41.29765 428
41.31777 414
41.33788 411
41.358 430
41.37811 456
41.39822 442
41.41834 431
41.43845 442
41.45856 444
41.47868 477
41.49879 446
41.51891 453
41.53902 476
41.55913 443
41.57925 427
41.59936 471
41.61947 452
41.63959 502
41.6597 495
41.67982 449
41.69993 453
41.72004 481
41.74016 463
41.76027 455
41.78038 486
41.8005 459
41.82061 449
41.84072 459
41.86084 441
41.88095 388
41.90107 457
41.92118 439
41.94129 410
41.96141 431
41.98152 413
42.00163 467
42.02175 432
42.04186 466
42.06198 477
42.08209 437
42.1022 436
42.12232 410
42.14243 441
42.16254 438
42.18266 490
42.20277 494
42.22289 479
42.243 536
42.26311 530
42.28323 607
42.30334 585
42.32345 678
42.34357 735
42.36368 838
42.38379 958
42.40391 974
42.42402 1054
42.44414 974
42.46425 922
42.48436 847
42.50448 717
42.52459 749
42.5447 687
42.56482 598
42.58493 533
42.60505 501
42.62516 438
42.64527 407
42.66539 410
42.6855 384
42.70561 391
42.72573 403
42.74584 401
42.76595 391
42.78607 360
42.80618 397
42.8263 393
42.84641 394
42.86652 390
42.88664 412
42.90675 380
42.92686 343
42.94698 394
42.96709 377
42.98721 363
43.00732 427
43.02743 380
43.04755 356
43.06766 389
43.08777 359
43.10789 381
43.128 363
43.14812 387
43.16823 341
43.18834 360
43.20846 371
43.22857 401
43.24868 379
43.2688 375
43.28891 389
43.30902 392
43.32914 360
43.34925 352
43.36937 372
43.38948 361
43.40959 396
43.42971 390
43.44982 375
43.46993 382
43.49005 346
43.51016 367
43.53028 393
43.55039 368
43.5705 363
43.59062 373
43.61073 377
43.63084 400
43.65096 363
43.67107 364
43.69119 391
43.7113 373
43.73141 373
43.75153 376
43.77164 405
43.79175 378
43.81187 388
43.83198 376
43.85209 422
43.87221 376
43.89232 387
43.91244 352
43.93255 404
43.95266 371
43.97278 397
43.99289 419
44.013 397
44.03312 409
44.05323 463
44.07335 439
44.09346 423
44.11357 443
44.13369 423
44.1538 410
44.17391 428
44.19403 429
44.21414 388
44.23426 442
44.25437 404
44.27448 410
44.2946 411
44.31471 396
44.33482 372
44.35494 407
44.37505 385
44.39516 375
44.41528 379
44.43539 370
44.45551 386
44.47562 402
44.49573 370
44.51585 362
44.53596 401
44.55607 374
44.57619 368
44.5963 373
44.61642 382
44.63653 371
44.65664 381
44.67676 355
44.69687 360
44.71698 386
44.7371 360
44.75721 362
44.77732 379
44.79744 370
44.81755 394
44.83767 399
44.85778 409
44.87789 399
44.89801 414
44.91812 382
44.93823 382
44.95835 375
44.97846 370
44.99858 423
45.01869 349
45.0388 376
45.05892 389
45.07903 356
45.09914 398
45.11926 429
45.13937 420
45.15949 367
45.1796 459
45.19971 423
45.21983 424
45.23994 444
45.26005 392
45.28017 468
45.30028 434
45.32039 479
45.34051 489
45.36062 481
45.38074 484
45.40085 474
45.42096 484
45.44108 487
45.46119 538
45.4813 481
45.50142 512
45.52153 502
45.54165 526
45.56176 506
45.58187 519
45.60199 522
45.6221 559
45.64221 559
45.66233 633
45.68244 662
45.70256 702
45.72267 785
45.74278 779
45.7629 852
45.78301 810
45.80312 732
45.82324 726
45.84335 627
45.86346 621
45.88358 601
45.90369 579
45.92381 543
45.94392 478
45.96403 442
45.98415 434
46.00426 387
46.02437 402
46.04449 398
46.0646 424
46.08472 425
46.10483 391
46.12494 428
46.14506 388
46.16517 420
46.18528 379
46.2054 450
46.22551 417
46.24563 398
46.26574 392
46.28585 386
46.30597 385
46.32608 414
46.34619 365
46.36631 397
46.38642 372
46.40653 350
46.42665 392
46.44676 370
46.46688 376
46.48699 400
46.5071 352
46.52722 401
46.54733 391
46.56744 373
46.58756 356
46.60767 405
46.62779 429
46.6479 426
46.66801 394
46.68813 396
46.70824 412
46.72835 376
46.74847 380
46.76858 398
46.78869 390
46.80881 426
46.82892 383
46.84904 428
46.86915 391
46.88926 390
46.90938 415
46.92949 390
46.9496 406
46.96972 389
46.98983 419
47.00995 374
47.03006 365
47.05017 387
47.07029 370
47.0904 396
47.11051 406
47.13063 419
47.15074 407
47.17086 368
47.19097 415
47.21108 377
47.2312 397
47.25131 410
47.27142 397
47.29154 428
47.31165 420
47.33176 383
47.35188 399
47.37199 380
47.39211 398
47.41222 409
47.43233 394
47.45245 405
47.47256 417
47.49267 429
47.51279 389
47.5329 392
47.55302 381
47.57313 441
47.59324 391
47.61336 390
47.63347 426
47.65358 420
47.6737 423
47.69381 407
47.71393 452
47.73404 397
47.75415 412
47.77427 434
47.79438 409
47.81449 427
47.83461 416
47.85472 416
47.87483 422
47.89495 411
47.91506 428
47.93518 385
47.95529 403
47.9754 417
47.99552 387
48.01563 360
48.03574 364
48.05586 391
48.07597 373
48.09609 379
48.1162 387
48.13631 404
48.15643 411
48.17654 372
48.19665 381
48.21677 379
48.23688 398
48.257 381
48.27711 362
48.29722 425
48.31734 392
48.33745 376
48.35756 395
48.37768 401
48.39779 397
48.4179 392
48.43802 398
48.45813 386
48.47825 375
48.49836 361
48.51847 400
48.53859 379
48.5587 395
48.57881 374
48.59893 380
48.61904 409
48.63916 378
48.65927 369
48.67938 389
48.6995 389
48.71961 390
48.73972 406
48.75984 373
48.77995 390
48.80006 349
48.82018 389
48.84029 424
48.86041 398
48.88052 379
48.90063 405
48.92075 407
48.94086 383
48.96097 369
48.98109 384
49.0012 388
49.02132 392
49.04143 384
49.06154 404
49.08166 401
49.10177 384
49.12188 404
49.142 421
49.16211 418
49.18223 400
49.20234 385
49.22245 376
49.24257 412
49.26268 368
49.28279 405
49.30291 417
49.32302 381
49.34313 378
49.36325 418
49.38336 429
49.40348 409
49.42359 426
49.4437 411
49.46382 415
49.48393 386
49.50404 406
49.52416 418
49.54427 410
49.56439 375
49.5845 405
49.60461 435
49.62473 444
49.64484 419
49.66495 405
49.68507 427
49.70518 437
49.7253 399
49.74541 443
49.76552 447
49.78564 470
49.80575 465
49.82586 498
49.84598 468
49.86609 501
49.8862 550
49.90632 625
49.92643 654
49.94655 692
49.96666 785
49.98677 960
50.00689 1085
50.027 1259
50.04711 1489
50.06723 1735
50.08734 1861
50.10746 1903
50.12757 1728
50.14768 1569
50.1678 1322
50.18791 1155
50.20802 1194
50.22814 1109
50.24825 1074
50.26837 886
50.28848 765
50.30859 632
50.32871 544
50.34882 508
50.36893 449
50.38905 463
50.40916 478
50.42927 477
50.44939 447
50.4695 472
50.48962 490
50.50973 451
50.52984 491
50.54996 467
50.57007 502
50.59018 452
50.6103 437
50.63041 423
50.65053 408
50.67064 446
50.69075 407
50.71087 412
50.73098 439
50.75109 418
50.77121 438
50.79132 382
50.81143 404
50.83155 385
50.85166 338
50.87178 391
50.89189 372
50.912 402
50.93212 402
50.95223 410
50.97234 400
50.99246 358
51.01257 395
51.03269 375
51.0528 398
51.07291 409
51.09303 367
51.11314 380
51.13325 410
51.15337 432
51.17348 372
51.1936 398
51.21371 370
51.23382 388
51.25394 358
51.27405 362
51.29416 382
51.31428 419
51.33439 363
51.3545 402
51.37462 360
51.39473 351
51.41485 374
51.43496 372
51.45507 358
51.47519 335
51.4953 362
51.51541 373
51.53553 350
51.55564 346
51.57576 372
51.59587 386
51.61598 372
51.6361 362
51.65621 320
51.67632 348
51.69644 401
51.71655 366
51.73667 326
51.75678 342
51.77689 361
51.79701 362
51.81712 348
51.83723 381
51.85735 385
51.87746 373
51.89757 377
51.91769 369
51.9378 364
51.95792 338
51.97803 361
51.99814 382
52.01826 397
52.03837 348
52.05848 386
52.0786 379
52.09871 386
52.11883 376
52.13894 391
52.15905 368
52.17917 402
52.19928 400
52.21939 393
52.23951 395
52.25962 373
52.27974 403
52.29985 392
52.31996 348
52.34008 347
52.36019 394
52.3803 371
52.40042 309
52.42053 360
52.44064 365
52.46076 352
52.48087 349
52.50099 368
52.5211 364
52.54121 362
52.56133 361
52.58144 355
52.60155 365
52.62167 389
52.64178 381
52.6619 348
52.68201 376
52.70212 324
52.72224 333
52.74235 366
52.76246 372
52.78258 355
52.80269 359
52.8228 356
52.84292 340
52.86303 362
52.88315 354
52.90326 384
52.92337 358
52.94349 350
52.9636 410
52.98371 380
53.00383 351
53.02394 373
53.04406 393
53.06417 370
53.08428 398
53.1044 393
53.12451 372
53.14462 401
53.16474 389
53.18485 389
53.20497 345
53.22508 374
53.24519 376
53.26531 408
53.28542 435
53.30553 416
53.32565 393
53.34576 442
53.36587 417
53.38599 426
53.4061 424
53.42622 413
53.44633 382
53.46644 395
53.48656 398
53.50667 408
53.52678 448
53.5469 408
53.56701 434
53.58713 442
53.60724 425
53.62735 455
53.64747 484
53.66758 460
53.68769 483
53.70781 491
53.72792 437
53.74804 550
53.76815 459
53.78826 483
53.80838 497
53.82849 517
53.8486 465
53.86872 508
53.88883 467
53.90894 494
53.92906 512
53.94917 500
53.96929 489
53.9894 473
54.00951 469
54.02963 487
54.04974 481
54.06985 486
54.08997 550
54.11008 480
54.1302 459
54.15031 496
54.17042 517
54.19054 493
54.21065 437
54.23076 527
54.25088 483
54.27099 480
54.29111 508
54.31122 510
54.33133 479
54.35145 487
54.37156 498
54.39167 498
54.41179 499
54.4319 488
54.45201 470
54.47213 501
54.49224 463
54.51236 481
54.53247 502
54.55258 475
54.5727 464
54.59281 532
54.61292 486
54.63304 565
54.65315 557
54.67327 576
54.69338 589
54.71349 622
54.73361 687
54.75372 748
54.77383 794
54.79395 781
54.81406 887
54.83417 816
54.85429 879
54.8744 812
54.89452 773
54.91463 638
54.93474 714
54.95486 661
54.97497 669
54.99508 681
55.0152 620
55.03531 597
55.05543 506
55.07554 529
55.09565 470
55.11577 536
55.13588 539
55.15599 544
55.17611 537
55.19622 538
55.21634 623
55.23645 609
55.25656 630
55.27668 627
55.29679 607
55.3169 580
55.33702 548
55.35713 543
55.37724 556
55.39736 556
55.41747 526
55.43759 567
55.4577 471
55.47781 457
55.49793 473
55.51804 465
55.53815 401
55.55827 399
55.57838 417
55.5985 410
55.61861 410
55.63872 429
55.65884 432
55.67895 402
55.69906 373
55.71918 379
55.73929 397
55.75941 406
55.77952 395
55.79963 406
55.81975 401
55.83986 392
55.85997 367
55.88009 374
55.9002 368
55.92031 372
55.94043 389
55.96054 380
55.98066 375
56.00077 392
56.02088 392
56.041 399
56.06111 361
56.08122 381
56.10134 378
56.12145 389
56.14157 395
56.16168 385
56.18179 391
56.20191 391
56.22202 393
56.24213 381
56.26225 387
56.28236 390
56.30248 419
56.32259 375
56.3427 438
56.36282 376
56.38293 397
56.40304 402
56.42316 410
56.44327 377
56.46338 411
56.4835 401
56.50361 376
56.52373 383
56.54384 392
56.56395 380
56.58407 372
56.60418 379
56.62429 385
56.64441 403
56.66452 372
56.68464 399
56.70475 361
56.72486 387
56.74498 388
56.76509 381
56.7852 375
56.80532 368
56.82543 382
56.84554 375
56.86566 366
56.88577 364
56.90589 377
56.926 366
56.94611 358
56.96623 363
56.98634 410
57.00645 348
57.02657 376
57.04668 356
57.0668 368
57.08691 408
57.10702 370
57.12714 393
57.14725 383
57.16736 421
57.18748 371
57.20759 379
57.22771 380
57.24782 415
57.26793 360
57.28805 345
57.30816 376
57.32827 384
57.34839 386
57.3685 368
57.38861 345
57.40873 366
57.42884 355
57.44896 384
57.46907 354
57.48918 382
57.5093 354
57.52941 341
57.54952 355
57.56964 369
57.58975 384
57.60987 387
57.62998 345
57.65009 358
57.67021 382
57.69032 375
57.71043 380
57.73055 329
57.75066 369
57.77078 367
57.79089 376
57.811 401
57.83112 379
57.85123 394
57.87134 393
57.89146 352
57.91157 357
57.93168 359
57.9518 382
57.97191 351
57.99203 347
58.01214 371
58.03225 370
58.05237 373
58.07248 417
58.09259 398
58.11271 369
58.13282 326
58.15294 387
58.17305 364
58.19316 359
58.21328 380
58.23339 369
58.2535 360
58.27362 371
58.29373 400
58.31385 358
58.33396 377
58.35407 366
58.37419 373
58.3943 338
58.41441 374
58.43453 363
58.45464 386
58.47475 367
58.49487 350
58.51498 367
58.5351 367
58.55521 368
58.57532 346
58.59544 360
58.61555 353
58.63566 325
58.65578 357
58.67589 348
58.69601 363
58.71612 347
58.73623 347
58.75635 328
58.77646 375
58.79657 342
58.81669 383
58.8368 371
58.85691 361
58.87703 362
58.89714 373
58.91726 396
58.93737 344
58.95748 369
58.9776 313
58.99771 348
59.01782 345
59.03794 377
59.05805 383
59.07817 350
59.09828 358
59.11839 380
59.13851 373
59.15862 366
59.17873 367
59.19885 387
59.21896 386
59.23908 385
59.25919 362
59.2793 378
59.29942 346
59.31953 357
59.33964 342
59.35976 355
59.37987 408
59.39998 363
59.4201 398
59.44021 420
59.46033 392
59.48044 397
59.50055 414
59.52067 448
59.54078 384
59.56089 407
59.58101 421
59.60112 465
59.62124 452
59.64135 468
59.66146 491
59.68158 512
59.70169 496
59.7218 576
59.74192 604
59.76203 686
59.78215 745
59.80226 795
59.82237 851
59.84249 1017
59.8626 1114
59.88271 1198
59.90283 1198
59.92294 1256
59.94305 1200
59.96317 1101
59.98328 972
60.0034 867
60.02351 831
60.04362 806
60.06374 840
60.08385 739
60.10396 737
60.12408 675
60.14419 571
60.16431 515
60.18442 483
60.20453 451
60.22465 428
60.24476 408
60.26487 387
60.28499 411
60.3051 383
60.32522 399
60.34533 384
60.36544 400
60.38556 414
60.40567 360
60.42578 352
60.4459 352
60.46601 375
60.48612 364
60.50624 342
60.52635 361
60.54647 332
60.56658 380
60.58669 321
60.60681 317
60.62692 356
60.64703 346
60.66715 353
60.68726 335
60.70738 360
60.72749 361
60.7476 338
60.76772 347
60.78783 331
60.80794 353
60.82806 369
60.84817 376
60.86828 350
60.8884 336
60.90851 373
60.92863 371
60.94874 371
60.96885 354
60.98897 283
61.00908 305
61.02919 326
61.04931 358
61.06942 336
61.08954 348
61.10965 368
61.12976 383
61.14988 334
61.16999 338
61.1901 336
61.21022 338
61.23033 345
61.25045 334
61.27056 369
61.29067 336
61.31079 299
61.3309 381
61.35101 364
61.37113 350
61.39124 361
61.41135 362
61.43147 358
61.45158 346
61.4717 329
61.49181 319
61.51192 360
61.53204 384
61.55215 351
61.57226 392
61.59238 372
61.61249 369
61.63261 329
61.65272 351
61.67283 348
61.69295 380
61.71306 365
61.73317 376
61.75329 389
61.7734 371
61.79352 385
61.81363 355
61.83374 363
61.85386 396
61.87397 376
61.89408 423
61.9142 390
61.93431 394
61.95442 400
61.97454 428
61.99465 410
62.01477 400
62.03488 437
62.05499 425
62.07511 437
62.09522 459
62.11533 466
62.13545 494
62.15556 490
62.17568 499
62.19579 460
62.2159 492
62.23602 491
62.25613 522
62.27624 496
62.29636 490
62.31647 516
62.33659 458
62.3567 492
62.37681 516
62.39693 502
62.41704 502
62.43715 494
62.45727 469
62.47738 488
62.49749 459
62.51761 463
62.53772 449
62.55784 442
62.57795 423
62.59806 394
62.61818 422
62.63829 416
62.6584 383
62.67852 390
62.69863 389
62.71875 385
62.73886 378
62.75897 418
62.77909 386
62.7992 399
62.81931 381
62.83943 390
62.85954 339
62.87965 333
62.89977 362
62.91988 344
62.94 378
62.96011 346
62.98022 364
63.00034 364
63.02045 359
63.04056 361
63.06068 388
63.08079 334
63.10091 362
63.12102 360
63.14113 373
63.16125 351
63.18136 328
63.20147 365
63.22159 345
63.2417 355
63.26182 360
63.28193 349
63.30204 347
63.32216 346
63.34227 328
63.36238 342
63.3825 342
63.40261 349
63.42272 344
63.44284 347
63.46295 327
63.48307 342
63.50318 373
63.52329 350
63.54341 360
63.56352 333
63.58363 349
63.60375 364
63.62386 395
63.64398 398
63.66409 389
63.6842 396
63.70432 402
63.72443 390
63.74454 436
63.76466 423
63.78477 404
63.80489 399
63.825 435
63.84511 446
63.86523 433
63.88534 459
63.90545 469
63.92557 491
63.94568 496
63.96579 532
63.98591 524
64.00602 572
64.02614 527
64.04625 444
64.06636 439
64.08648 440
64.10659 463
64.1267 441
64.14682 458
64.16693 427
64.18705 474
64.20716 402
64.22727 417
64.24739 372
64.2675 357
64.28761 380
64.30773 395
64.32784 350
64.34796 381
64.36807 352
64.38818 354
64.4083 317
64.42841 368
64.44852 353
64.46864 343
64.48875 339
64.50886 357
64.52898 388
64.54909 355
64.56921 334
64.58932 367
64.60943 317
64.62955 344
64.64966 358
64.66977 349
64.68989 331
64.71 335
64.73012 340
64.75023 326
64.77034 321
64.79046 319
64.81057 305
64.83068 347
64.8508 335
64.87091 346
64.89102 376
64.91114 355
64.93125 330
64.95137 377
64.97148 336
64.99159 342
65.01171 318
65.03182 332
65.05193 348
65.07205 335
65.09216 343
65.11228 378
65.13239 301
65.1525 348
65.17262 353
65.19273 326
65.21284 354
65.23296 344
65.25307 335
65.27319 332
65.2933 346
65.31341 352
65.33353 306
65.35364 324
65.37375 314
65.39387 368
65.41398 319
65.43409 362
65.45421 289
65.47432 309
65.49444 327
65.51455 343
65.53466 330
65.55478 343
65.57489 333
65.595 339
65.61512 332
65.63523 355
65.65535 331
65.67546 353
65.69557 353
65.71569 350
65.7358 391
65.75591 363
65.77603 367
65.79614 332
65.81626 367
65.83637 368
65.85648 344
65.8766 338
65.89671 350
65.91682 329
65.93694 372
65.95705 369
65.97716 322
65.99728 351
66.01739 346
66.03751 301
66.05762 333
66.07773 358
66.09785 318
66.11796 346
66.13807 378
66.15819 302
66.1783 326
66.19842 343
66.21853 339
66.23864 356
66.25876 364
66.27887 341
66.29898 353
66.3191 355
66.33921 322
66.35933 331
66.37944 330
66.39955 317
66.41967 337
66.43978 347
66.45989 328
66.48001 328
66.50012 331
66.52023 349
66.54035 306
66.56046 334
66.58058 336
66.60069 347
66.6208 348
66.64092 318
66.66103 314
66.68114 352
66.70126 348
66.72137 334
66.74149 321
66.7616 331
66.78171 334
66.80183 319
66.82194 318
66.84205 322
66.86217 289
66.88228 329
66.90239 326
66.92251 349
66.94262 358
66.96274 320
66.98285 327
67.00296 365
67.02308 363
67.04319 340
67.0633 336
67.08342 316
67.10353 321
67.12365 304
67.14376 343
67.16387 331
67.18399 348
67.2041 337
67.22421 343
67.24433 332
67.26444 388
67.28456 350
67.30467 349
67.32478 340
67.3449 380
67.36501 368
67.38512 379
67.40524 371
67.42535 414
67.44546 411
67.46558 438
67.48569 416
67.50581 416
67.52592 454
67.54603 470
67.56615 548
67.58626 575
67.60637 598
67.62649 705
67.6466 728
67.66672 814
67.68683 865
67.70694 824
67.72706 824
67.74717 775
67.76728 673
67.7874 612
67.80751 615
67.82763 626
67.84774 609
67.86785 673
67.88797 725
67.90808 690
67.92819 715
67.94831 696
67.96842 696
67.98853 689
68.00865 762
68.02876 831
68.04888 923
68.06899 932
68.0891 984
68.10922 1037
68.12933 986
68.14944 985
68.16956 852
68.18967 839
68.20979 863
68.2299 903
68.25001 958
68.27013 896
68.29024 972
68.31035 855
68.33047 706
68.35058 629
68.3707 571
68.39081 564
68.41092 502
68.43104 562
68.45115 530
68.47126 563
68.49138 503
68.51149 477
68.5316 414
68.55172 374
68.57183 385
68.59195 362
68.61206 364
68.63217 365
68.65229 362
68.6724 330
68.69251 364
68.71263 350
68.73274 339
68.75286 373
68.77297 383
68.79308 332
68.8132 349
68.83331 335
68.85342 337
68.87354 353
68.89365 334
68.91376 343
68.93388 332
68.95399 359
68.97411 361
68.99422 337
69.01433 314
69.03445 340
69.05456 318
69.07467 305
69.09479 307
69.1149 293
69.13502 309
69.15513 325
69.17524 333
69.19536 323
69.21547 307
69.23558 335
69.2557 307
69.27581 290
69.29593 316
69.31604 323
69.33615 341
69.35627 309
69.37638 290
69.39649 300
69.41661 298
69.43672 294
69.45683 290
69.47695 351
69.49706 305
69.51718 301
69.53729 298
69.5574 319
69.57752 325
69.59763 311
69.61774 319
69.63786 319
69.65797 330
69.67809 325
69.6982 333
69.71831 331
69.73843 324
69.75854 331
69.77865 336
69.79877 336
69.81888 305
69.839 320
69.85911 318
69.87922 316
69.89934 304
69.91945 329
69.93956 339
69.95968 350
69.97979 308
69.9999 349
70.02002 325
70.04013 317
70.06025 335
70.08036 314
70.10047 299
70.12059 318
70.1407 315
70.16081 343
70.18093 322
70.20104 312
70.22116 298
70.24127 301
70.26138 331
70.2815 319
70.30161 337
70.32172 317
70.34184 305
70.36195 318
70.38207 318
70.40218 312
70.42229 335
70.44241 298
70.46252 296
70.48263 327
70.50275 323
70.52286 343
70.54297 310
70.56309 324
70.5832 316
70.60332 335
70.62343 319
70.64354 298
70.66366 304
70.68377 331
70.70388 292
70.724 291
70.74411 318
70.76423 293
70.78434 314
70.80445 295
70.82457 316
70.84468 308
70.86479 313
70.88491 328
70.90502 329
70.92513 284
70.94525 290
70.96536 323
70.98548 318
71.00559 300
71.0257 284
71.04582 277
71.06593 316
71.08604 287
71.10616 265
71.12627 304
71.14639 295
71.1665 278
71.18661 330
71.20673 314
71.22684 295
71.24695 305
71.26707 277
71.28718 293
71.3073 323
71.32741 335
71.34752 276
71.36764 273
71.38775 292
71.40786 310
71.42798 306
71.44809 292
71.4682 316
71.48832 299
71.50843 304
71.52855 306
71.54866 298
71.56877 303
71.58889 328
71.609 316
71.62911 317
71.64923 309
71.66934 298
71.68946 310
71.70957 327
71.72968 305
71.7498 332
71.76991 280
71.79002 326
71.81014 329
71.83025 325
71.85037 291
71.87048 302
71.89059 317
71.91071 305
71.93082 273
71.95093 294
71.97105 334
71.99116 329
72.01127 320
72.03139 314
72.0515 341
72.07162 338
72.09173 336
72.11184 353
72.13196 330
72.15207 281
72.17218 307
72.1923 308
72.21241 326
72.23253 321
72.25264 311
72.27275 325
72.29287 318
72.31298 285
72.33309 324
72.35321 328
72.37332 312
72.39344 311
72.41355 328
72.43366 290
72.45378 308
72.47389 289
72.494 308
72.51412 323
72.53423 281
72.55434 320
72.57446 320
72.59457 288
72.61469 330
72.6348 285
72.65491 312
72.67503 295
72.69514 305
72.71525 335
72.73537 313
72.75548 314
72.7756 305
72.79571 296
72.81582 266
72.83594 322
72.85605 289
72.87616 305
72.89628 287
72.91639 314
72.9365 288
72.95662 309
72.97673 310
72.99685 317
73.01696 330
73.03707 326
73.05719 315
73.0773 342
73.09741 326
73.11753 321
73.13764 311
73.15776 331
73.17787 290
73.19798 321
73.2181 336
73.23821 363
73.25832 355
73.27844 367
73.29855 373
73.31867 387
73.33878 401
73.35889 422
73.37901 454
73.39912 447
73.41923 499
73.43935 444
73.45946 435
73.47957 417
73.49969 390
73.5198 382
73.53992 345
73.56003 352
73.58014 418
73.60026 376
73.62037 408
73.64048 375
73.6606 364
73.68071 374
73.70083 369
73.72094 361
73.74105 304
73.76117 304
73.78128 319
73.80139 276
73.82151 293
73.84162 297
73.86174 325
73.88185 306
73.90196 276
73.92208 309
73.94219 291
73.9623 296
73.98242 287
74.00253 268
74.02264 288
74.04276 286
74.06287 277
74.08299 285
74.1031 285
74.12321 287
74.14333 280
74.16344 308
74.18355 314
74.20367 304
74.22378 294
74.2439 304
74.26401 278
74.28412 274
74.30424 301
74.32435 296
74.34446 246
74.36458 300
74.38469 306
74.40481 282
74.42492 296
74.44503 274
74.46515 268
74.48526 285
74.50537 256
74.52549 261
74.5456 267
74.56571 300
74.58583 282
74.60594 303
74.62606 303
74.64617 296
74.66628 263
74.6864 302
74.70651 311
74.72662 295
74.74674 308
74.76685 299
74.78697 316
74.80708 288
74.82719 304
74.84731 282
74.86742 295
74.88753 313
74.90765 294
74.92776 337
74.94787 302
74.96799 317
74.9881 266
75.00822 299
