3.00117 19790
3.02128 19001
3.0414 18565
3.06151 18032
3.08162 17439
3.10174 17230
3.12185 16531
3.14197 16257
3.16208 15566
3.18219 14816
3.20231 14607
3.22242 14101
3.24253 13711
3.26265 13205
3.28276 12470
3.30288 12436
3.32299 11757
3.3431 11487
3.36322 11245
3.38333 10744
3.40344 10466
3.42356 10162
3.44367 9667
3.46379 9627
3.4839 9083
3.50401 8780
3.52413 8377
3.54424 7917
3.56435 7913
3.58447 7325
3.60458 7332
3.62469 6967
3.64481 6718
3.66492 6386
3.68504 6032
3.70515 5960
3.72526 5445
3.74538 5398
3.76549 5248
3.7856 4682
3.80572 4760
3.82583 4512
3.84595 4234
3.86606 4281
3.88617 3957
3.90629 3742
3.9264 3610
3.94651 3454
3.96663 3348
3.98674 3001
4.00686 3046
4.02697 2867
4.04708 2471
4.0672 2533
4.08731 2361
4.10742 2428
4.12754 2226
4.14765 2140
4.16776 2010
4.18788 1900
4.20799 1863
4.22811 1816
4.24822 1695
4.26833 1613
4.28845 1486
4.30856 1498
4.32867 1587
4.34879 1376
4.3689 1377
4.38902 1371
4.40913 1275
4.42924 1299
4.44936 1136
4.46947 1195
4.48958 1138
4.5097 1099
4.52981 1184
4.54992 1057
4.57004 1085
4.59015 975
4.61027 951
4.63038 978
4.65049 863
4.67061 895
4.69072 954
4.71083 876
4.73095 884
4.75106 793
4.77118 820
4.79129 700
4.8114 739
4.83152 756
4.85163 685
4.87174 706
4.89186 660
4.91197 720
4.93209 668
4.9522 599
4.97231 623
4.99243 586
5.01254 540
5.03265 584
5.05277 538
5.07288 553
5.09299 527
5.11311 496
5.13322 523
5.15334 451
5.17345 468
5.19356 483
5.21368 430
5.23379 428
5.2539 428
5.27402 412
5.29413 384
5.31425 379
5.33436 422
5.35447 343
5.37459 365
5.3947 348
5.41481 405
5.43493 312
5.45504 312
5.47516 278
5.49527 305
5.51538 338
5.5355 281
5.55561 284
5.57572 252
5.59584 298
5.61595 291
5.63606 283
5.65618 246
5.67629 235
5.69641 255
5.71652 240
5.73663 258
5.75675 265
5.77686 209
5.79697 255
5.81709 240
5.8372 214
5.85732 211
5.87743 209
5.89754 243
5.91766 208
5.93777 207
5.95788 193
5.978 214
5.99811 195
6.01823 183
6.03834 192
6.05845 194
6.07857 180
6.09868 203
6.11879 162
6.13891 194
6.15902 182
6.17913 206
6.19925 154
6.21936 169
6.23948 163
6.25959 181
6.2797 161
6.29982 207
6.31993 168
6.34004 162
6.36016 175
6.38027 160
6.40039 179
6.4205 185
6.44061 142
6.46073 158
6.48084 184
6.50095 179
6.52107 164
6.54118 166
6.56129 152
6.58141 142
6.60152 148
6.62164 159
6.64175 154
6.66186 155
6.68198 180
6.70209 158
6.7222 185
6.74232 146
6.76243 152
6.78255 169
6.80266 183
6.82277 177
6.84289 173
6.863 158
6.88311 160
6.90323 161
6.92334 157
6.94346 171
6.96357 164
6.98368 143
7.0038 155
7.02391 163
7.04402 195
7.06414 165
7.08425 162
7.10436 179
7.12448 183
7.14459 170
7.16471 154
7.18482 177
7.20493 158
7.22505 161
7.24516 142
7.26527 183
7.28539 165
7.3055 152
7.32562 188
7.34573 156
7.36584 190
7.38596 202
7.40607 177
7.42618 127
7.4463 155
7.46641 173
7.48653 164
7.50664 167
7.52675 149
7.54687 157
7.56698 152
7.58709 187
7.60721 158
7.62732 168
7.64743 196
7.66755 197
7.68766 177
7.70778 205
7.72789 166
7.748 187
7.76812 181
7.78823 175
7.80834 180
7.82846 176
7.84857 182
7.86869 159
7.8888 189
7.90891 195
7.92903 200
7.94914 194
7.96925 199
7.98937 184
8.00948 211
8.0296 163
8.04971 175
8.06982 194
8.08994 159
8.11005 182
8.13016 182
8.15028 208
8.17039 178
8.1905 170
8.21062 185
8.23073 205
8.25085 155
8.27096 191
8.29107 193
8.31119 179
8.3313 196
8.35141 167
8.37153 187
8.39164 172
8.41176 208
8.43187 204
8.45198 201
8.4721 187
8.49221 168
8.51232 192
8.53244 152
8.55255 195
8.57266 202
8.59278 210
8.61289 182
8.63301 196
8.65312 210
8.67323 215
8.69335 179
8.71346 179
8.73357 175
8.75369 185
8.7738 194
8.79392 174
8.81403 186
8.83414 178
8.85426 206
8.87437 200
8.89448 186
8.9146 226
8.93471 188
8.95483 184
8.97494 208
8.99505 172
9.01517 177
9.03528 191
9.05539 228
9.07551 192
9.09562 214
9.11573 219
9.13585 207
9.15596 202
9.17608 202
9.19619 180
9.2163 215
9.23642 189
9.25653 243
9.27664 184
9.29676 188
9.31687 174
9.33699 166
9.3571 223
9.37721 207
9.39733 209
9.41744 187
9.43755 201
9.45767 206
9.47778 214
9.4979 191
9.51801 236
9.53812 184
9.55824 194
9.57835 189
9.59846 214
9.61858 199
9.63869 228
9.6588 197
9.67892 206
9.69903 197
9.71915 200
9.73926 210
9.75937 192
9.77949 193
9.7996 179
9.81971 223
9.83983 176
9.85994 223
9.88006 225
9.90017 205
9.92028 216
9.9404 220
9.96051 198
9.98062 178
10.00074 190
10.02085 209
10.04097 193
10.06108 196
10.08119 193
10.10131 193
10.12142 199
10.14153 194
10.16165 191
10.18176 198
10.20187 195
10.22199 198
10.2421 214
10.26222 189
10.28233 195
10.30244 206
10.32256 211
10.34267 249
10.36278 202
10.3829 211
10.40301 207
10.42313 197
10.44324 181
10.46335 196
10.48347 196
10.50358 215
10.52369 211
10.54381 196
10.56392 218
10.58403 200
10.60415 212
10.62426 197
10.64438 210
10.66449 196
10.6846 179
10.70472 209
10.72483 228
10.74494 181
10.76506 203
10.78517 213
10.80529 201
10.8254 205
10.84551 197
10.86563 222
10.88574 183
10.90585 203
10.92597 215
10.94608 217
10.9662 192
10.98631 215
11.00642 207
11.02654 198
11.04665 220
11.06676 195
11.08688 200
11.10699 229
11.1271 190
11.14722 199
11.16733 197
11.18745 189
11.20756 211
11.22767 202
11.24779 193
11.2679 192
11.28801 199
11.30813 177
11.32824 232
11.34836 167
11.36847 202
11.38858 203
11.4087 220
11.42881 193
11.44892 212
11.46904 217
11.48915 222
11.50927 212
11.52938 218
11.54949 188
11.56961 167
11.58972 216
11.60983 196
11.62995 207
11.65006 200
11.67017 181
11.69029 213
11.7104 217
11.73052 217
11.75063 187
11.77074 220
11.79086 184
11.81097 233
11.83108 168
11.8512 196
11.87131 172
11.89143 213
11.91154 257
11.93165 205
11.95177 237
11.97188 183
11.99199 186
12.01211 190
12.03222 178
12.05234 209
12.07245 216
12.09256 222
12.11268 238
12.13279 206
12.1529 200
12.17302 203
12.19313 208
12.21324 207
12.23336 192
12.25347 200
12.27359 218
12.2937 248
12.31381 211
12.33393 212
12.35404 183
12.37415 219
12.39427 218
12.41438 211
12.4345 219
12.45461 208
12.47472 209
12.49484 233
12.51495 201
12.53506 209
12.55518 181
12.57529 194
12.5954 161
12.61552 168
12.63563 193
12.65575 174
12.67586 224
12.69597 208
12.71609 174
12.7362 181
12.75631 197
12.77643 173
12.79654 194
12.81666 199
12.83677 195
12.85688 198
12.877 198
12.89711 174
12.91722 199
12.93734 188
12.95745 210
12.97757 195
12.99768 219
13.01779 170
13.03791 191
13.05802 213
13.07813 219
13.09825 214
13.11836 208
13.13847 212
13.15859 197
13.1787 194
13.19882 205
13.21893 196
13.23904 218
13.25916 229
13.27927 244
13.29938 224
13.3195 256
13.33961 249
13.35973 237
13.37984 230
13.39995 231
13.42007 241
13.44018 237
13.46029 210
13.48041 242
13.50052 219
13.52064 197
13.54075 226
13.56086 253
13.58098 273
13.60109 297
13.6212 284
13.64132 380
13.66143 339
13.68154 332
13.70166 333
13.72177 253
13.74189 220
13.762 229
13.78211 222
13.80223 170
13.82234 205
13.84245 198
13.86257 213
13.88268 196
13.9028 201
13.92291 190
13.94302 163
13.96314 184
13.98325 168
14.00336 178
14.02348 167
14.04359 164
14.06371 183
14.08382 186
14.10393 173
14.12405 149
14.14416 186
14.16427 182
14.18439 167
14.2045 161
14.22461 176
14.24473 174
14.26484 182
14.28496 183
14.30507 165
14.32518 185
14.3453 160
14.36541 169
14.38552 173
14.40564 180
14.42575 183
14.44587 167
14.46598 176
14.48609 173
14.50621 205
14.52632 170
14.54643 172
14.56655 195
14.58666 179
14.60677 181
14.62689 170
14.647 179
14.66712 186
14.68723 178
14.70734 191
14.72746 176
14.74757 151
14.76768 170
14.7878 171
14.80791 163
14.82803 215
14.84814 199
14.86825 193
14.88837 187
14.90848 218
14.92859 205
14.94871 228
14.96882 186
14.98894 232
15.00905 211
15.02916 259
15.04928 236
15.06939 238
15.0895 238
15.10962 238
15.12973 263
15.14984 245
15.16996 246
15.19007 214
15.21019 218
15.2303 206
15.25041 177
15.27053 204
15.29064 193
15.31075 200
15.33087 154
15.35098 173
15.3711 158
15.39121 172
15.41132 161
15.43144 170
15.45155 174
15.47166 150
15.49178 154
15.51189 151
15.53201 165
15.55212 150
15.57223 167
15.59235 172
15.61246 165
15.63257 173
15.65269 182
15.6728 192
15.69291 149
15.71303 178
15.73314 154
15.75326 165
15.77337 172
15.79348 174
15.8136 177
15.83371 165
15.85382 152
15.87394 150
15.89405 172
15.91417 155
15.93428 174
15.95439 154
15.97451 143
15.99462 154
16.01473 152
16.03485 186
16.05496 154
16.07508 181
16.09519 152
16.1153 160
16.13542 166
16.15553 141
16.17564 195
16.19576 157
16.21587 174
16.23598 157
16.2561 150
16.27621 148
16.29633 161
16.31644 146
16.33655 173
16.35667 181
16.37678 185
16.39689 132
16.41701 141
16.43712 151
16.45724 152
16.47735 142
16.49746 178
16.51758 145
16.53769 151
16.5578 149
16.57792 154
16.59803 151
16.61814 151
16.63826 151
16.65837 151
16.67849 136
16.6986 144
16.71871 141
16.73883 163
16.75894 173
16.77905 157
16.79917 158
16.81928 168
16.8394 157
16.85951 149
16.87962 152
16.89974 180
16.91985 185
16.93996 179
16.96008 153
16.98019 177
17.00031 148
17.02042 174
17.04053 160
17.06065 167
17.08076 144
17.10087 181
17.12099 155
17.1411 150
17.16121 157
17.18133 164
17.20144 145
17.22156 141
17.24167 150
17.26178 151
17.2819 187
17.30201 181
17.32212 157
17.34224 159
17.36235 147
17.38247 142
17.40258 165
17.42269 175
17.44281 164
17.46292 144
17.48303 175
17.50315 140
17.52326 158
17.54338 146
17.56349 185
17.5836 164
17.60372 176
17.62383 152
17.64394 166
17.66406 155
17.68417 150
17.70428 165
17.7244 173
17.74451 166
17.76463 139
17.78474 150
17.80485 160
17.82497 192
17.84508 156
17.86519 175
17.88531 159
17.90542 149
17.92554 168
17.94565 157
17.96576 160
17.98588 174
18.00599 177
18.0261 153
18.04622 144
18.06633 138
18.08645 168
18.10656 153
18.12667 169
18.14679 163
18.1669 142
18.18701 158
18.20713 139
18.22724 155
18.24735 157
18.26747 145
18.28758 153
18.3077 147
18.32781 138
18.34792 147
18.36804 155
18.38815 145
18.40826 147
18.42838 153
18.44849 136
18.46861 170
18.48872 144
18.50883 165
18.52895 147
18.54906 181
18.56917 172
18.58929 165
18.6094 171
18.62951 170
18.64963 176
18.66974 157
18.68986 174
18.70997 158
18.73008 148
18.7502 148
18.77031 192
18.79042 164
18.81054 159
18.83065 188
18.85077 143
18.87088 154
18.89099 179
18.91111 155
18.93122 163
18.95133 172
18.97145 161
18.99156 161
19.01168 141
19.03179 173
19.0519 176
19.07202 157
19.09213 164
19.11224 152
19.13236 175
19.15247 168
19.17258 172
19.1927 171
19.21281 166
19.23293 188
19.25304 219
19.27315 186
19.29327 166
19.31338 193
19.33349 198
19.35361 186
19.37372 202
19.39384 207
19.41395 164
19.43406 166
19.45418 181
19.47429 156
19.4944 158
19.51452 168
19.53463 155
19.55475 155
19.57486 172
19.59497 156
19.61509 183
19.6352 172
19.65531 211
19.67543 168
19.69554 181
19.71565 182
19.73577 166
19.75588 198
19.776 242
19.79611 180
19.81622 214
19.83634 206
19.85645 211
19.87656 179
19.89668 203
19.91679 245
19.93691 258
19.95702 283
19.97713 304
19.99725 309
20.01736 294
20.03747 295
20.05759 239
20.0777 245
20.09782 244
20.11793 253
20.13804 201
20.15816 243
20.17827 238
20.19838 250
20.2185 232
20.23861 201
20.25872 278
20.27884 244
20.29895 261
20.31907 262
20.33918 228
20.35929 286
20.37941 251
20.39952 263
20.41963 271
20.43975 250
20.45986 280
20.47998 283
20.50009 293
20.5202 292
20.54032 318
20.56043 319
20.58054 333
20.60066 322
20.62077 334
20.64088 408
20.661 413
20.68111 493
20.70123 671
20.72134 778
20.74145 1056
20.76157 1629
20.78168 2345
20.80179 3412
20.82191 4709
20.84202 5981
20.86214 6870
20.88225 6420
20.90236 5218
20.92248 3879
20.94259 2739
20.9627 1811
20.98282 1328
21.00293 1355
21.02305 1377
21.04316 1364
21.06327 1233
21.08339 1078
21.1035 851
21.12361 685
21.14373 519
21.16384 388
21.18395 363
21.20407 355
21.22418 312
21.2443 313
21.26441 275
21.28452 303
21.30464 265
21.32475 277
21.34486 293
21.36498 267
21.38509 245
21.40521 242
21.42532 250
21.44543 246
21.46555 284
21.48566 217
21.50577 200
21.52589 228
21.546 240
21.56612 215
21.58623 234
21.60634 222
21.62646 224
21.64657 225
21.66668 214
21.6868 227
21.70691 206
21.72702 212
21.74714 205
21.76725 210
21.78737 231
21.80748 243
21.82759 194
21.84771 209
21.86782 218
21.88793 194
21.90805 228
21.92816 261
21.94828 263
21.96839 251
21.9885 293
22.00862 272
22.02873 301
22.04884 254
22.06896 215
22.08907 232
22.10919 259
22.1293 236
22.14941 228
22.16953 252
22.18964 237
22.20975 237
22.22987 263
22.24998 267
22.27009 248
22.29021 262
22.31032 317
22.33044 307
22.35055 370
22.37066 345
22.39078 360
22.41089 329
22.431 335
22.45112 367
22.47123 387
22.49135 392
22.51146 401
22.53157 385
22.55169 338
22.5718 364
22.59191 358
22.61203 281
22.63214 291
22.65225 279
22.67237 248
22.69248 246
22.7126 205
22.73271 232
22.75282 196
22.77294 212
22.79305 215
22.81316 209
22.83328 235
22.85339 205
22.87351 219
22.89362 232
22.91373 234
22.93385 242
22.95396 229
22.97407 264
22.99419 259
23.0143 296
23.03442 267
23.05453 306
23.07464 307
23.09476 334
23.11487 336
23.13498 405
23.1551 361
23.17521 381
23.19532 360
23.21544 398
23.23555 389
23.25567 400
23.27578 413
23.29589 375
23.31601 382
23.33612 385
23.35623 404
23.37635 399
23.39646 406
23.41658 442
23.43669 445
23.4568 501
23.47692 520
23.49703 508
23.51714 549
23.53726 550
23.55737 611
23.57749 635
23.5976 581
23.61771 597
23.63783 592
23.65794 529
23.67805 477
23.69817 467
23.71828 416
23.73839 367
23.75851 385
23.77862 401
23.79874 388
23.81885 351
23.83896 331
23.85908 353
23.87919 353
23.8993 348
23.91942 352
23.93953 389
23.95965 438
23.97976 424
23.99987 455
24.01999 411
24.0401 359
24.06021 323
24.08033 318
24.10044 302
24.12056 237
24.14067 253
24.16078 226
24.1809 234
24.20101 258
24.22112 257
24.24124 231
24.26135 284
24.28146 303
24.30158 277
24.32169 286
24.34181 288
24.36192 307
24.38203 269
24.40215 305
24.42226 256
24.44237 315
24.46249 305
24.4826 284
24.50272 277
24.52283 262
24.54294 284
24.56306 332
24.58317 280
24.60328 337
24.6234 322
24.64351 320
24.66362 314
24.68374 331
24.70385 335
24.72397 304
24.74408 309
24.76419 292
24.78431 277
24.80442 292
24.82453 302
24.84465 272
24.86476 270
24.88488 278
24.90499 279
24.9251 273
24.94522 262
24.96533 257
24.98544 274
25.00556 309
25.02567 286
25.04579 260
25.0659 273
25.08601 252
25.10613 287
25.12624 261
25.14635 263
25.16647 253
25.18658 267
25.20669 297
25.22681 286
25.24692 273
25.26704 287
25.28715 300
25.30726 297
25.32738 257
25.34749 280
25.3676 262
25.38772 288
25.40783 313
25.42795 355
25.44806 326
25.46817 357
25.48829 443
25.5084 561
25.52851 674
25.54863 740
25.56874 837
25.58886 933
25.60897 1005
25.62908 1015
25.6492 1014
25.66931 935
25.68942 840
25.70954 698
25.72965 557
25.74976 471
25.76988 467
25.78999 372
25.81011 385
25.83022 385
25.85033 410
25.87045 370
25.89056 354
25.91067 433
25.93079 384
25.9509 418
25.97102 355
25.99113 385
26.01124 413
26.03136 400
26.05147 416
26.07158 445
26.0917 457
26.11181 453
26.13193 469
26.15204 478
26.17215 549
26.19227 556
26.21238 610
26.23249 683
26.25261 696
26.27272 747
26.29283 809
26.31295 830
26.33306 917
26.35318 1040
26.37329 1099
26.3934 1255
26.41352 1485
26.43363 1776
26.45374 2230
26.47386 2847
26.49397 3750
26.51409 5280
26.5342 7442
26.55431 10802
26.57443 15408
26.59454 21341
26.61465 26843
26.63477 29903
26.65488 28283
26.67499 22919
26.69511 17753
26.71522 13608
26.73534 9632
26.75545 5206
26.77556 2932
26.79568 2065
26.81579 1771
26.8359 1629
26.85602 1523
26.87613 1477
26.89625 1559
26.91636 1462
26.93647 1534
26.95659 1487
26.9767 1516
26.99681 1526
27.01693 1496
27.03704 1565
27.05716 1698
27.07727 1664
27.09738 1652
27.1175 1459
27.13761 1292
27.15772 1093
27.17784 901
27.19795 795
27.21806 737
27.23818 684
27.25829 699
27.27841 658
27.29852 692
27.31863 804
27.33875 827
27.35886 921
27.37897 1116
27.39909 1348
27.4192 1747
27.43932 1937
27.45943 2199
27.47954 2337
27.49966 2279
27.51977 2107
27.53988 1908
27.56 1590
27.58011 1128
27.60023 977
27.62034 705
27.64045 552
27.66057 443
27.68068 463
27.70079 419
27.72091 449
27.74102 475
27.76113 426
27.78125 443
27.80136 382
27.82148 380
27.84159 423
27.8617 420
27.88182 386
27.90193 410
27.92204 429
27.94216 409
27.96227 442
27.98239 439
28.0025 398
28.02261 375
28.04273 347
28.06284 349
28.08295 321
28.10307 290
28.12318 269
28.1433 266
28.16341 278
28.18352 254
28.20364 256
28.22375 298
28.24386 292
28.26398 280
28.28409 257
28.3042 242
28.32432 264
28.34443 277
28.36455 238
28.38466 218
28.40477 250
28.42489 217
28.445 222
28.46511 230
28.48523 231
28.50534 216
28.52546 250
28.54557 219
28.56568 219
28.5858 217
28.60591 227
28.62602 225
28.64614 239
28.66625 225
28.68636 218
28.70648 200
28.72659 203
28.74671 221
28.76682 234
28.78693 200
28.80705 224
28.82716 257
28.84727 199
28.86739 248
28.8875 217
28.90762 223
28.92773 224
28.94784 248
28.96796 219
28.98807 217
29.00818 222
29.0283 219
29.04841 219
29.06853 249
29.08864 220
29.10875 238
29.12887 233
29.14898 237
29.16909 211
29.18921 226
29.20932 221
29.22943 211
29.24955 238
29.26966 232
29.28978 239
29.30989 246
29.33 254
29.35012 264
29.37023 255
29.39034 277
29.41046 326
29.43057 317
29.45069 329
29.4708 350
29.49091 352
29.51103 352
29.53114 361
29.55125 332
29.57137 330
29.59148 340
29.6116 338
29.63171 361
29.65182 396
29.67194 383
29.69205 398
29.71216 407
29.73228 416
29.75239 501
29.7725 502
29.79262 492
29.81273 496
29.83285 554
29.85296 560
29.87307 485
29.89319 509
29.9133 474
29.93341 468
29.95353 440
29.97364 417
29.99376 417
30.01387 342
30.03398 354
30.0541 363
30.07421 390
30.09432 387
30.11444 383
30.13455 399
30.15467 352
30.17478 392
30.19489 380
30.21501 393
30.23512 339
30.25523 356
30.27535 352
30.29546 292
30.31557 311
30.33569 314
30.3558 281
30.37592 297
30.39603 319
30.41614 298
30.43626 283
30.45637 304
30.47648 268
30.4966 295
30.51671 254
30.53683 278
30.55694 242
30.57705 240
30.59717 282
30.61728 290
30.63739 296
30.65751 308
30.67762 371
30.69773 416
30.71785 463
30.73796 527
30.75808 628
30.77819 698
30.7983 705
30.81842 701
30.83853 615
30.85864 574
30.87876 548
30.89887 463
30.91899 397
30.9391 336
30.95921 275
30.97933 249
30.99944 239
31.01955 221
31.03967 190
31.05978 219
31.0799 212
31.10001 191
31.12012 213
31.14024 191
31.16035 178
31.18046 236
31.20058 199
31.22069 159
31.2408 165
31.26092 174
31.28103 205
31.30115 179
31.32126 208
31.34137 210
31.36149 211
31.3816 181
31.40171 195
31.42183 196
31.44194 152
31.46206 190
31.48217 183
31.50228 157
31.5224 179
31.54251 188
31.56262 167
31.58274 179
31.60285 158
31.62297 164
31.64308 181
31.66319 160
31.68331 155
31.70342 150
31.72353 165
31.74365 174
31.76376 189
31.78387 175
31.80399 195
31.8241 164
31.84422 167
31.86433 195
31.88444 179
31.90456 158
31.92467 197
31.94478 178
31.9649 198
31.98501 177
32.00513 175
32.02524 192
32.04535 209
32.06547 199
32.08558 238
32.10569 240
32.12581 255
32.14592 271
32.16604 270
32.18615 269
32.20626 282
32.22638 282
32.24649 321
32.2666 335
32.28672 395
32.30683 394
32.32694 355
32.34706 319
32.36717 345
32.38729 318
32.4074 324
32.42751 294
32.44763 282
32.46774 279
32.48785 239
32.50797 242
32.52808 221
32.5482 200
32.56831 230
32.58842 188
32.60854 186
32.62865 167
32.64876 180
32.66888 189
32.68899 159
32.7091 143
32.72922 172
32.74933 184
32.76945 190
32.78956 168
32.80967 154
32.82979 149
32.8499 152
32.87001 165
32.89013 184
32.91024 182
32.93036 175
32.95047 154
32.97058 154
32.9907 157
33.01081 181
33.03092 166
33.05104 157
33.07115 163
33.09127 165
33.11138 180
33.13149 176
33.15161 199
33.17172 164
33.19183 173
33.21195 150
33.23206 185
33.25217 140
33.27229 161
33.2924 182
33.31252 150
33.33263 157
33.35274 147
33.37286 164
33.39297 162
33.41308 155
33.4332 159
33.45331 172
33.47343 159
33.49354 165
33.51365 151
33.53377 167
33.55388 164
33.57399 152
33.59411 148
33.61422 173
33.63434 159
33.65445 191
33.67456 168
33.69468 163
33.71479 165
33.7349 142
33.75502 171
33.77513 183
33.79524 202
33.81536 171
33.83547 163
33.85559 189
33.8757 174
33.89581 175
33.91593 194
33.93604 170
33.95615 174
33.97627 168
33.99638 182
34.0165 152
34.03661 179
34.05672 190
34.07684 210
34.09695 199
34.11706 202
34.13718 247
34.15729 241
34.17741 228
34.19752 253
34.21763 315
34.23775 254
34.25786 314
34.27797 275
34.29809 296
34.3182 301
34.33831 289
34.35843 298
34.37854 325
34.39866 316
34.41877 311
34.43888 318
34.459 295
34.47911 301
34.49922 288
34.51934 311
34.53945 324
34.55957 325
34.57968 311
34.59979 286
34.61991 313
34.64002 313
34.66013 278
34.68025 297
34.70036 297
34.72047 289
34.74059 311
34.7607 312
34.78082 339
34.80093 352
34.82104 355
34.84116 353
34.86127 335
34.88138 323
34.9015 351
34.92161 352
34.94173 361
34.96184 334
34.98195 335
35.00207 320
35.02218 332
35.04229 334
35.06241 362
35.08252 367
35.10264 339
35.12275 333
35.14286 346
35.16298 314
35.18309 316
35.2032 280
35.22332 264
35.24343 289
35.26354 271
35.28366 266
35.30377 291
35.32389 270
35.344 288
35.36411 293
35.38423 267
35.40434 311
35.42445 287
35.44457 300
35.46468 301
35.4848 371
35.50491 403
35.52502 402
35.54514 386
35.56525 380
35.58536 400
35.60548 344
35.62559 341
35.64571 325
35.66582 359
35.68593 302
35.70605 316
35.72616 305
35.74627 207
35.76639 243
35.7865 235
35.80661 226
35.82673 244
35.84684 217
35.86696 239
35.88707 251
35.90718 223
35.9273 198
35.94741 201
35.96752 198
35.98764 199
36.00775 209
36.02787 224
36.04798 202
36.06809 211
36.08821 217
36.10832 180
36.12843 219
36.14855 213
36.16866 259
36.18878 218
36.20889 251
36.229 226
36.24912 250
36.26923 242
36.28934 263
36.30946 289
36.32957 286
36.34968 326
36.3698 391
36.38991 483
36.41003 556
36.43014 763
36.45025 911
36.47037 1226
36.49048 1583
36.51059 1897
36.53071 2104
36.55082 1910
36.57094 1604
36.59105 1302
36.61116 1133
36.63128 1112
36.65139 885
36.6715 593
36.69162 408
36.71173 317
36.73184 275
36.75196 269
36.77207 259
36.79219 241
36.8123 223
36.83241 228
36.85253 241
36.87264 265
36.89275 245
36.91287 265
36.93298 215
36.9531 269
36.97321 239
36.99332 239
37.01344 236
37.03355 242
37.05366 265
37.07378 273
37.09389 240
37.11401 260
37.13412 235
37.15423 236
37.17435 260
37.19446 244
37.21457 262
37.23469 260
37.2548 248
37.27491 214
37.29503 221
37.31514 185
37.33526 227
37.35537 212
37.37548 181
37.3956 224
37.41571 178
37.43582 211
37.45594 178
37.47605 189
37.49617 201
37.51628 184
37.53639 218
37.55651 207
37.57662 188
37.59673 202
37.61685 174
37.63696 215
37.65708 198
37.67719 191
37.6973 206
37.71742 207
37.73753 210
37.75764 193
37.77776 191
37.79787 188
37.81798 214
37.8381 200
37.85821 170
37.87833 204
37.89844 176
37.91855 169
37.93867 173
37.95878 181
37.97889 177
37.99901 185
38.01912 208
38.03924 174
38.05935 164
38.07946 165
38.09958 165
38.11969 166
38.1398 197
38.15992 180
38.18003 165
38.20015 151
38.22026 173
38.24037 152
38.26049 158
38.2806 199
38.30071 173
38.32083 190
38.34094 196
38.36105 187
38.38117 168
38.40128 208
38.4214 213
38.44151 206
38.46162 244
38.48174 226
38.50185 235
38.52196 229
38.54208 269
38.56219 305
38.58231 294
38.60242 308
38.62253 286
38.64265 285
38.66276 234
38.68287 227
38.70299 228
38.7231 216
38.74321 195
38.76333 190
38.78344 172
38.80356 191
38.82367 185
38.84378 166
38.8639 161
38.88401 173
38.90412 164
38.92424 176
38.94435 171
38.96447 172
38.98458 173
39.00469 202
39.02481 184
39.04492 196
39.06503 194
39.08515 199
39.10526 194
39.12538 216
39.14549 229
39.1656 212
39.18572 257
39.20583 265
39.22594 273
39.24606 277
39.26617 338
39.28628 376
39.3064 438
39.32651 541
39.34663 646
39.36674 845
39.38685 1104
39.40697 1344
39.42708 1684
39.44719 1918
39.46731 1825
39.48742 1518
39.50754 1170
39.52765 1017
39.54776 1021
39.56788 906
39.58799 731
39.6081 509
39.62822 329
39.64833 273
39.66845 214
39.68856 229
39.70867 222
39.72879 193
39.7489 194
39.76901 208
39.78913 174
39.80924 175
39.82935 180
39.84947 185
39.86958 204
39.8897 187
39.90981 175
39.92992 187
39.95004 159
39.97015 180
39.99026 194
40.01038 209
40.03049 222
40.05061 217
40.07072 210
40.09083 254
40.11095 278
40.13106 307
40.15117 341
40.17129 386
40.1914 544
40.21152 602
40.23163 765
40.25174 865
40.27186 1006
40.29197 915
40.31208 813
40.3322 682
40.35231 607
40.37242 589
40.39254 569
40.41265 478
40.43277 352
40.45288 292
40.47299 202
40.49311 210
40.51322 225
40.53333 225
40.55345 208
40.57356 212
40.59368 197
40.61379 198
40.6339 211
40.65402 191
40.67413 173
40.69424 179
40.71436 173
40.73447 190
40.75458 189
40.7747 177
40.79481 190
40.81493 213
40.83504 172
40.85515 173
40.87527 196
40.89538 205
40.91549 185
40.93561 183
40.95572 183
40.97584 181
40.99595 179
41.01606 184
41.03618 188
41.05629 189
41.0764 176
41.09652 185
41.11663 172
41.13675 173
41.15686 197
41.17697 183
41.19709 200
41.2172 199
41.23731 206
41.25743 184
41.27754 188
41.29765 170
41.31777 180
41.33788 192
41.358 191
41.37811 173
41.39822 193
41.41834 181
41.43845 189
41.45856 184
41.47868 204
41.49879 173
41.51891 226
41.53902 206
41.55913 226
41.57925 237
41.59936 242
41.61947 277
41.63959 282
41.6597 288
41.67982 380
41.69993 415
41.72004 435
41.74016 481
41.76027 504
41.78038 519
41.8005 493
41.82061 437
41.84072 393
41.86084 356
41.88095 355
41.90107 313
41.92118 304
41.94129 244
41.96141 235
41.98152 200
42.00163 257
42.02175 218
42.04186 221
42.06198 222
42.08209 199
42.1022 208
42.12232 211
42.14243 215
42.16254 219
42.18266 231
42.20277 260
42.22289 281
42.243 314
42.26311 307
42.28323 362
42.30334 445
42.32345 585
42.34357 646
42.36368 865
42.38379 1037
42.40391 1230
42.42402 1396
42.44414 1416
42.46425 1239
42.48436 983
42.50448 854
42.52459 794
42.5447 805
42.56482 697
42.58493 557
42.60505 404
42.62516 319
42.64527 314
42.66539 285
42.6855 279
42.70561 269
42.72573 259
42.74584 263
42.76595 233
42.78607 247
42.80618 245
42.8263 258
42.84641 236
42.86652 215
42.88664 219
42.90675 207
42.92686 191
42.94698 195
42.96709 197
42.98721 177
43.00732 161
43.02743 170
43.04755 178
43.06766 181
43.08777 198
43.10789 181
43.128 162
43.14812 174
43.16823 184
43.18834 168
43.20846 161
43.22857 163
43.24868 166
43.2688 160
43.28891 209
43.30902 155
43.32914 148
43.34925 164
43.36937 150
43.38948 154
43.40959 178
43.42971 171
43.44982 181
43.46993 166
43.49005 165
43.51016 178
43.53028 163
43.55039 200
43.5705 191
43.59062 173
43.61073 211
43.63084 217
43.65096 207
43.67107 209
43.69119 203
43.7113 244
43.73141 234
43.75153 209
43.77164 212
43.79175 218
43.81187 202
43.83198 212
43.85209 211
43.87221 187
43.89232 170
43.91244 172
43.93255 163
43.95266 182
43.97278 164
43.99289 171
44.013 156
44.03312 193
44.05323 187
44.07335 170
44.09346 189
44.11357 195
44.13369 201
44.1538 194
44.17391 221
44.19403 164
44.21414 180
44.23426 184
44.25437 166
44.27448 185
44.2946 177
44.31471 153
44.33482 159
44.35494 144
44.37505 171
44.39516 147
44.41528 175
44.43539 150
44.45551 157
44.47562 160
44.49573 154
44.51585 162
44.53596 151
44.55607 170
44.57619 149
44.5963 176
44.61642 179
44.63653 175
44.65664 173
44.67676 164
44.69687 151
44.71698 179
44.7371 152
44.75721 150
44.77732 178
44.79744 195
44.81755 179
44.83767 185
44.85778 143
44.87789 164
44.89801 178
44.91812 157
44.93823 164
44.95835 192
44.97846 163
44.99858 187
45.01869 202
45.0388 209
45.05892 193
45.07903 178
45.09914 180
45.11926 170
45.13937 187
45.15949 175
45.1796 192
45.19971 169
45.21983 180
45.23994 193
45.26005 219
45.28017 188
45.30028 178
45.32039 172
45.34051 177
45.36062 172
45.38074 176
45.40085 194
45.42096 201
45.44108 220
45.46119 192
45.4813 230
45.50142 231
45.52153 237
45.54165 244
45.56176 262
45.58187 293
45.60199 306
45.6221 342
45.64221 393
45.66233 482
45.68244 491
45.70256 626
45.72267 743
45.74278 846
45.7629 957
45.78301 979
45.80312 912
45.82324 708
45.84335 599
45.86346 570
45.88358 568
45.90369 556
45.92381 480
45.94392 430
45.96403 281
45.98415 263
46.00426 248
46.02437 249
46.04449 246
46.0646 195
46.08472 192
46.10483 213
46.12494 204
46.14506 199
46.16517 183
46.18528 190
46.2054 190
46.22551 154
46.24563 188
46.26574 181
46.28585 178
46.30597 169
46.32608 164
46.34619 170
46.36631 174
46.38642 161
46.40653 180
46.42665 181
46.44676 154
46.46688 145
46.48699 158
46.5071 150
46.52722 158
46.54733 159
46.56744 139
46.58756 152
46.60767 133
46.62779 147
46.6479 151
46.66801 153
46.68813 153
46.70824 141
46.72835 151
46.74847 166
46.76858 155
46.78869 157
46.80881 155
46.82892 165
46.84904 142
46.86915 150
46.88926 153
46.90938 181
46.92949 173
46.9496 182
46.96972 170
46.98983 162
47.00995 189
47.03006 194
47.05017 193
47.07029 209
47.0904 221
47.11051 230
47.13063 232
47.15074 246
47.17086 257
47.19097 265
47.21108 250
47.2312 222
47.25131 229
47.27142 260
47.29154 193
47.31165 212
47.33176 217
47.35188 195
47.37199 203
47.39211 197
47.41222 185
47.43233 221
47.45245 222
47.47256 246
47.49267 241
47.51279 262
47.5329 242
47.55302 206
47.57313 206
47.59324 183
47.61336 218
47.63347 160
47.65358 181
47.6737 171
47.69381 163
47.71393 164
47.73404 154
47.75415 164
47.77427 163
47.79438 176
47.81449 128
47.83461 128
47.85472 150
47.87483 152
47.89495 172
47.91506 156
47.93518 162
47.95529 154
47.9754 173
47.99552 163
48.01563 143
48.03574 162
48.05586 158
48.07597 161
48.09609 160
48.1162 150
48.13631 153
48.15643 172
48.17654 149
48.19665 159
48.21677 165
48.23688 170
48.257 158
48.27711 154
48.29722 162
48.31734 140
48.33745 181
48.35756 158
48.37768 145
48.39779 146
48.4179 153
48.43802 161
48.45813 175
48.47825 160
48.49836 145
48.51847 172
48.53859 139
48.5587 164
48.57881 168
48.59893 175
48.61904 164
48.63916 187
48.65927 179
48.67938 146
48.6995 170
48.71961 180
48.73972 169
48.75984 184
48.77995 196
48.80006 203
48.82018 182
48.84029 235
48.86041 234
48.88052 205
48.90063 199
48.92075 222
48.94086 217
48.96097 232
48.98109 234
49.0012 239
49.02132 220
49.04143 222
49.06154 227
49.08166 193
49.10177 213
49.12188 194
49.142 200
49.16211 221
49.18223 212
49.20234 190
49.22245 193
49.24257 195
49.26268 158
49.28279 188
49.30291 200
49.32302 188
49.34313 184
49.36325 184
49.38336 151
49.40348 164
49.42359 168
49.4437 170
49.46382 185
49.48393 171
49.50404 164
49.52416 160
49.54427 177
49.56439 198
49.5845 209
49.60461 188
49.62473 213
49.64484 222
49.66495 196
49.68507 226
49.70518 216
49.7253 217
49.74541 265
49.76552 256
49.78564 263
49.80575 257
49.82586 318
49.84598 368
49.86609 368
49.8862 425
49.90632 439
49.92643 528
49.94655 561
49.96666 720
49.98677 821
50.00689 1079
50.027 1406
50.04711 1613
50.06723 2097
50.08734 2483
50.10746 2828
50.12757 2863
50.14768 2613
50.1678 1933
50.18791 1467
50.20802 1488
50.22814 1567
50.24825 1595
50.26837 1414
50.28848 1147
50.30859 732
50.32871 495
50.34882 403
50.36893 373
50.38905 343
50.40916 388
50.42927 400
50.44939 412
50.4695 406
50.48962 465
50.50973 485
50.52984 510
50.54996 520
50.57007 573
50.59018 538
50.6103 533
50.63041 554
50.65053 530
50.67064 485
50.69075 486
50.71087 453
50.73098 461
50.75109 399
50.77121 377
50.79132 355
50.81143 332
50.83155 311
50.85166 306
50.87178 265
50.89189 268
50.912 236
50.93212 244
50.95223 237
50.97234 221
50.99246 210
51.01257 191
51.03269 226
51.0528 193
51.07291 185
51.09303 182
51.11314 186
51.13325 176
51.15337 169
51.17348 157
51.1936 217
51.21371 178
51.23382 156
51.25394 198
51.27405 147
51.29416 193
51.31428 188
51.33439 174
51.3545 172
51.37462 172
51.39473 158
51.41485 152
51.43496 155
51.45507 181
51.47519 151
51.4953 154
51.51541 167
51.53553 154
51.55564 151
51.57576 131
51.59587 163
51.61598 147
51.6361 159
51.65621 156
51.67632 156
51.69644 147
51.71655 155
51.73667 161
51.75678 153
51.77689 161
51.79701 160
51.81712 138
51.83723 157
51.85735 142
51.87746 155
51.89757 137
51.91769 132
51.9378 125
51.95792 130
51.97803 151
51.99814 163
52.01826 147
52.03837 141
52.05848 155
52.0786 151
52.09871 146
52.11883 176
52.13894 182
52.15905 156
52.17917 168
52.19928 156
52.21939 138
52.23951 169
52.25962 164
52.27974 152
52.29985 158
52.31996 163
52.34008 154
52.36019 153
52.3803 184
52.40042 183
52.42053 173
52.44064 145
52.46076 167
52.48087 156
52.50099 173
52.5211 166
52.54121 146
52.56133 156
52.58144 145
52.60155 174
52.62167 150
52.64178 140
52.6619 148
52.68201 171
52.70212 149
52.72224 170
52.74235 168
52.76246 167
52.78258 157
52.80269 155
52.8228 164
52.84292 174
52.86303 141
52.88315 175
52.90326 170
52.92337 163
52.94349 150
52.9636 153
52.98371 143
53.00383 149
53.02394 150
53.04406 141
53.06417 139
53.08428 147
53.1044 160
53.12451 170
53.14462 136
53.16474 144
53.18485 150
53.20497 171
53.22508 167
53.24519 181
53.26531 175
53.28542 175
53.30553 192
53.32565 205
53.34576 233
53.36587 204
53.38599 223
53.4061 242
53.42622 222
53.44633 209
53.46644 219
53.48656 214
53.50667 195
53.52678 181
53.5469 215
53.56701 160
53.58713 187
53.60724 183
53.62735 193
53.64747 146
53.66758 163
53.68769 135
53.70781 159
53.72792 173
53.74804 163
53.76815 171
53.78826 156
53.80838 137
53.82849 145
53.8486 144
53.86872 171
53.88883 138
53.90894 152
53.92906 167
53.94917 159
53.96929 151
53.9894 169
54.00951 155
54.02963 178
54.04974 174
54.06985 165
54.08997 151
54.11008 144
54.1302 171
54.15031 165
54.17042 153
54.19054 161
54.21065 178
54.23076 140
54.25088 168
54.27099 142
54.29111 176
54.31122 174
54.33133 158
54.35145 151
54.37156 181
54.39167 166
54.41179 180
54.4319 177
54.45201 166
54.47213 189
54.49224 187
54.51236 183
54.53247 184
54.55258 196
54.5727 204
54.59281 208
54.61292 223
54.63304 214
54.65315 232
54.67327 255
54.69338 323
54.71349 341
54.73361 430
54.75372 475
54.77383 564
54.79395 724
54.81406 772
54.83417 932
54.85429 957
54.8744 822
54.89452 652
54.91463 520
54.93474 528
54.95486 489
54.97497 496
54.99508 535
55.0152 545
55.03531 453
55.05543 333
55.07554 278
55.09565 237
55.11577 238
55.13588 259
55.15599 238
55.17611 252
55.19622 277
55.21634 328
55.23645 393
55.25656 408
55.27668 440
55.29679 468
55.3169 536
55.33702 406
55.35713 371
55.37724 310
55.39736 325
55.41747 309
55.43759 299
55.4577 352
55.47781 318
55.49793 259
55.51804 221
55.53815 215
55.55827 238
55.57838 226
55.5985 217
55.61861 192
55.63872 224
55.65884 191
55.67895 207
55.69906 169
55.71918 194
55.73929 169
55.75941 165
55.77952 166
55.79963 156
55.81975 156
55.83986 131
55.85997 171
55.88009 160
55.9002 151
55.92031 168
55.94043 145
55.96054 146
55.98066 182
56.00077 152
56.02088 169
56.041 139
56.06111 151
56.08122 157
56.10134 140
56.12145 161
56.14157 148
56.16168 157
56.18179 163
56.20191 143
56.22202 127
56.24213 136
56.26225 132
56.28236 144
56.30248 145
56.32259 138
56.3427 132
56.36282 154
56.38293 140
56.40304 163
56.42316 147
56.44327 146
56.46338 168
56.4835 143
56.50361 160
56.52373 152
56.54384 157
56.56395 166
56.58407 143
56.60418 158
56.62429 152
56.64441 151
56.66452 153
56.68464 176
56.70475 183
56.72486 194
56.74498 189
56.76509 186
56.7852 159
56.80532 148
56.82543 165
56.84554 138
56.86566 178
56.88577 167
56.90589 169
56.926 168
56.94611 139
56.96623 149
56.98634 148
57.00645 133
57.02657 145
57.04668 147
57.0668 142
57.08691 148
57.10702 142
57.12714 177
57.14725 164
57.16736 175
57.18748 186
57.20759 162
57.22771 187
57.24782 186
57.26793 165
57.28805 171
57.30816 167
57.32827 169
57.34839 172
57.3685 184
57.38861 180
57.40873 155
57.42884 155
57.44896 151
57.46907 139
57.48918 139
57.5093 167
57.52941 146
57.54952 141
57.56964 140
57.58975 162
57.60987 152
57.62998 155
57.65009 151
57.67021 141
57.69032 145
57.71043 137
57.73055 156
57.75066 162
57.77078 162
57.79089 156
57.811 146
57.83112 133
57.85123 164
57.87134 168
57.89146 146
57.91157 131
57.93168 159
57.9518 131
57.97191 132
57.99203 129
58.01214 151
58.03225 136
58.05237 134
58.07248 133
58.09259 140
58.11271 152
58.13282 150
58.15294 133
58.17305 134
58.19316 126
58.21328 165
58.23339 146
58.2535 174
58.27362 130
58.29373 145
58.31385 123
58.33396 153
58.35407 149
58.37419 143
58.3943 122
58.41441 160
58.43453 168
58.45464 144
58.47475 165
58.49487 156
58.51498 189
58.5351 169
58.55521 188
58.57532 168
58.59544 186
58.61555 223
58.63566 207
58.65578 222
58.67589 181
58.69601 182
58.71612 200
58.73623 167
58.75635 209
58.77646 181
58.79657 179
58.81669 164
58.8368 157
58.85691 179
58.87703 148
58.89714 127
58.91726 158
58.93737 153
58.95748 144
58.9776 124
58.99771 138
59.01782 146
59.03794 144
59.05805 142
59.07817 162
59.09828 160
59.11839 143
59.13851 138
59.15862 129
59.17873 139
59.19885 151
59.21896 158
59.23908 148
59.25919 153
59.2793 167
59.29942 157
59.31953 140
59.33964 173
59.35976 151
59.37987 161
59.39998 160
59.4201 154
59.44021 176
59.46033 170
59.48044 164
59.50055 171
59.52067 211
59.54078 189
59.56089 204
59.58101 189
59.60112 208
59.62124 267
59.64135 274
59.66146 277
59.68158 265
59.70169 319
59.7218 336
59.74192 384
59.76203 471
59.78215 602
59.80226 725
59.82237 810
59.84249 939
59.8626 1197
59.88271 1458
59.90283 1687
59.92294 1827
59.94305 1758
59.96317 1486
59.98328 1196
60.0034 977
60.02351 798
60.04362 901
60.06374 876
60.08385 974
60.10396 943
60.12408 794
60.14419 564
60.16431 430
60.18442 327
60.20453 267
60.22465 251
60.24476 244
60.26487 211
60.28499 196
60.3051 206
60.32522 192
60.34533 176
60.36544 196
60.38556 180
60.40567 193
60.42578 174
60.4459 187
60.46601 178
60.48612 198
60.50624 169
60.52635 170
60.54647 149
60.56658 173
60.58669 145
60.60681 151
60.62692 167
60.64703 143
60.66715 171
60.68726 144
60.70738 163
60.72749 164
60.7476 182
60.76772 183
60.78783 177
60.80794 152
60.82806 150
60.84817 159
60.86828 157
60.8884 162
60.90851 155
60.92863 171
60.94874 169
60.96885 160
60.98897 142
61.00908 162
61.02919 162
61.04931 164
61.06942 175
61.08954 184
61.10965 177
61.12976 185
61.14988 170
61.16999 159
61.1901 198
61.21022 177
61.23033 177
61.25045 162
61.27056 175
61.29067 165
61.31079 180
61.3309 182
61.35101 186
61.37113 154
61.39124 168
61.41135 148
61.43147 165
61.45158 156
61.4717 135
61.49181 182
61.51192 137
61.53204 176
61.55215 158
61.57226 157
61.59238 142
61.61249 162
61.63261 154
61.65272 190
61.67283 170
61.69295 188
61.71306 184
61.73317 150
61.75329 165
61.7734 166
61.79352 152
61.81363 173
61.83374 141
61.85386 175
61.87397 177
61.89408 188
61.9142 156
61.93431 190
61.95442 214
61.97454 195
61.99465 172
62.01477 178
62.03488 198
62.05499 177
62.07511 185
62.09522 177
62.11533 179
62.13545 178
62.15556 199
62.17568 203
62.19579 177
62.2159 171
62.23602 188
62.25613 197
62.27624 146
62.29636 154
62.31647 168
62.33659 183
62.3567 163
62.37681 155
62.39693 139
62.41704 161
62.43715 167
62.45727 153
62.47738 163
62.49749 158
62.51761 159
62.53772 153
62.55784 161
62.57795 143
62.59806 166
62.61818 171
62.63829 179
62.6584 155
62.67852 146
62.69863 188
62.71875 197
62.73886 169
62.75897 175
62.77909 191
62.7992 173
62.81931 162
62.83943 190
62.85954 194
62.87965 196
62.89977 179
62.91988 201
62.94 173
62.96011 149
62.98022 210
63.00034 172
63.02045 184
63.04056 159
63.06068 180
63.08079 175
63.10091 150
63.12102 148
63.14113 167
63.16125 145
63.18136 137
63.20147 131
63.22159 162
63.2417 152
63.26182 160
63.28193 132
63.30204 147
63.32216 165
63.34227 145
63.36238 147
63.3825 135
63.40261 137
63.42272 137
63.44284 133
63.46295 147
63.48307 137
63.50318 133
63.52329 146
63.54341 135
63.56352 149
63.58363 140
63.60375 160
63.62386 169
63.64398 161
63.66409 167
63.6842 163
63.70432 186
63.72443 199
63.74454 207
63.76466 201
63.78477 221
63.80489 216
63.825 229
63.84511 237
63.86523 256
63.88534 280
63.90545 348
63.92557 327
63.94568 391
63.96579 414
63.98591 414
64.00602 476
64.02614 491
64.04625 419
64.06636 360
64.08648 330
64.10659 270
64.1267 298
64.14682 338
64.16693 327
64.18705 261
64.20716 288
64.22727 279
64.24739 229
64.2675 176
64.28761 177
64.30773 152
64.32784 146
64.34796 175
64.36807 158
64.38818 160
64.4083 163
64.42841 153
64.44852 143
64.46864 164
64.48875 168
64.50886 147
64.52898 155
64.54909 150
64.56921 150
64.58932 135
64.60943 157
64.62955 150
64.64966 157
64.66977 176
64.68989 150
64.71 162
64.73012 155
64.75023 158
64.77034 146
64.79046 148
64.81057 136
64.83068 167
64.8508 156
64.87091 187
64.89102 161
64.91114 159
64.93125 184
64.95137 162
64.97148 147
64.99159 163
65.01171 116
65.03182 152
65.05193 163
65.07205 153
65.09216 146
65.11228 172
65.13239 157
65.1525 175
65.17262 168
65.19273 163
65.21284 165
65.23296 160
65.25307 158
65.27319 169
65.2933 174
65.31341 207
65.33353 195
65.35364 194
65.37375 193
65.39387 141
65.41398 167
65.43409 156
65.45421 172
65.47432 161
65.49444 172
65.51455 160
65.53466 166
65.55478 171
65.57489 165
65.595 166
65.61512 157
65.63523 161
65.65535 154
65.67546 203
65.69557 221
65.71569 203
65.7358 194
65.75591 198
65.77603 217
65.79614 183
65.81626 172
65.83637 192
65.85648 155
65.8766 190
65.89671 193
65.91682 187
65.93694 182
65.95705 180
65.97716 161
65.99728 175
66.01739 159
66.03751 144
66.05762 148
66.07773 137
66.09785 138
66.11796 165
66.13807 156
66.15819 132
66.1783 146
66.19842 194
66.21853 155
66.23864 163
66.25876 178
66.27887 184
66.29898 187
66.3191 201
66.33921 171
66.35933 208
66.37944 168
66.39955 171
66.41967 171
66.43978 168
66.45989 152
66.48001 169
66.50012 164
66.52023 175
66.54035 175
66.56046 144
66.58058 150
66.60069 161
66.6208 145
66.64092 162
66.66103 154
66.68114 137
66.70126 132
66.72137 147
66.74149 130
66.7616 143
66.78171 140
66.80183 142
66.82194 157
66.84205 125
66.86217 157
66.88228 138
66.90239 152
66.92251 148
66.94262 136
66.96274 167
66.98285 152
67.00296 187
67.02308 146
67.04319 148
67.0633 179
67.08342 155
67.10353 156
67.12365 166
67.14376 168
67.16387 154
67.18399 169
67.2041 151
67.22421 167
67.24433 144
67.26444 179
67.28456 176
67.30467 152
67.32478 200
67.3449 177
67.36501 214
67.38512 231
67.40524 233
67.42535 219
67.44546 226
67.46558 273
67.48569 259
67.50581 306
67.52592 320
67.54603 370
67.56615 443
67.58626 506
67.60637 597
67.62649 727
67.6466 799
67.66672 911
67.68683 1007
67.70694 1112
67.72706 1037
67.74717 899
67.76728 751
67.7874 659
67.80751 572
67.82763 558
67.84774 654
67.86785 683
67.88797 734
67.90808 776
67.92819 747
67.94831 722
67.96842 706
67.98853 684
68.00865 783
68.02876 851
68.04888 997
68.06899 1159
68.0891 1260
68.10922 1388
68.12933 1374
68.14944 1324
68.16956 1088
68.18967 993
68.20979 993
68.2299 1062
68.25001 1187
68.27013 1234
68.29024 1286
68.31035 1235
68.33047 1094
68.35058 885
68.3707 664
68.39081 612
68.41092 508
68.43104 503
68.45115 531
68.47126 508
68.49138 498
68.51149 455
68.5316 361
68.55172 309
68.57183 233
68.59195 230
68.61206 199
68.63217 198
68.65229 198
68.6724 158
68.69251 163
68.71263 183
68.73274 156
68.75286 174
68.77297 167
68.79308 158
68.8132 170
68.83331 183
68.85342 156
68.87354 159
68.89365 155
68.91376 146
68.93388 138
68.95399 163
68.97411 148
68.99422 156
69.01433 152
69.03445 155
69.05456 137
69.07467 136
69.09479 141
69.1149 129
69.13502 151
69.15513 135
69.17524 137
69.19536 132
69.21547 121
69.23558 142
69.2557 105
69.27581 132
69.29593 124
69.31604 124
69.33615 114
69.35627 126
69.37638 114
69.39649 139
69.41661 119
69.43672 129
69.45683 135
69.47695 123
69.49706 116
69.51718 127
69.53729 118
69.5574 117
69.57752 126
69.59763 139
69.61774 124
69.63786 135
69.65797 137
69.67809 131
69.6982 127
69.71831 105
69.73843 124
69.75854 111
69.77865 121
69.79877 126
69.81888 124
69.839 138
69.85911 127
69.87922 135
69.89934 132
69.91945 126
69.93956 120
69.95968 108
69.97979 145
69.9999 124
70.02002 147
70.04013 136
70.06025 134
70.08036 131
70.10047 118
70.12059 143
70.1407 144
70.16081 136
70.18093 136
70.20104 146
70.22116 120
70.24127 113
70.26138 143
70.2815 157
70.30161 156
70.32172 145
70.34184 122
70.36195 146
70.38207 126
70.40218 113
70.42229 135
70.44241 119
70.46252 133
70.48263 136
70.50275 128
70.52286 129
70.54297 127
70.56309 146
70.5832 121
70.60332 138
70.62343 142
70.64354 112
70.66366 116
70.68377 138
70.70388 116
70.724 118
70.74411 118
70.76423 142
70.78434 131
70.80445 143
70.82457 125
70.84468 136
70.86479 141
70.88491 120
70.90502 132
70.92513 156
70.94525 96
70.96536 111
70.98548 136
71.00559 131
71.0257 125
71.04582 118
71.06593 122
71.08604 117
71.10616 139
71.12627 93
71.14639 131
71.1665 129
71.18661 124
71.20673 124
71.22684 114
71.24695 133
71.26707 114
71.28718 129
71.3073 121
71.32741 132
71.34752 117
71.36764 100
71.38775 124
71.40786 131
71.42798 106
71.44809 149
71.4682 141
71.48832 130
71.50843 132
71.52855 151
71.54866 151
71.56877 173
71.58889 160
71.609 149
71.62911 152
71.64923 151
71.66934 152
71.68946 152
71.70957 163
71.72968 170
71.7498 158
71.76991 186
71.79002 161
71.81014 144
71.83025 129
71.85037 161
71.87048 154
71.89059 146
71.91071 157
71.93082 134
71.95093 163
71.97105 141
71.99116 139
72.01127 142
72.03139 134
72.0515 145
72.07162 160
72.09173 148
72.11184 141
72.13196 123
72.15207 133
72.17218 165
72.1923 141
72.21241 145
72.23253 149
72.25264 141
72.27275 132
72.29287 129
72.31298 150
72.33309 161
72.35321 148
72.37332 170
72.39344 140
72.41355 156
72.43366 136
72.45378 151
72.47389 150
72.494 144
72.51412 151
72.53423 144
72.55434 154
72.57446 144
72.59457 137
72.61469 143
72.6348 146
72.65491 140
72.67503 138
72.69514 132
72.71525 143
72.73537 155
72.75548 148
72.7756 134
72.79571 155
72.81582 148
72.83594 147
72.85605 162
72.87616 157
72.89628 137
72.91639 135
72.9365 156
72.95662 140
72.97673 162
72.99685 151
73.01696 155
73.03707 154
73.05719 153
73.0773 157
73.09741 162
73.11753 164
73.13764 174
73.15776 161
73.17787 176
73.19798 178
73.2181 209
73.23821 186
73.25832 229
73.27844 215
73.29855 268
73.31867 246
73.33878 296
73.35889 328
73.37901 397
73.39912 427
73.41923 430
73.43935 432
73.45946 424
73.47957 417
73.49969 326
73.5198 261
73.53992 251
73.56003 265
73.58014 270
73.60026 275
73.62037 295
73.64048 317
73.6606 272
73.68071 281
73.70083 255
73.72094 213
73.74105 210
73.76117 202
73.78128 171
73.80139 179
73.82151 168
73.84162 165
73.86174 170
73.88185 167
73.90196 145
73.92208 159
73.94219 160
73.9623 140
73.98242 143
74.00253 163
74.02264 146
74.04276 156
74.06287 166
74.08299 150
74.1031 161
74.12321 157
74.14333 152
74.16344 137
74.18355 164
74.20367 136
74.22378 140
74.2439 144
74.26401 136
74.28412 136
74.30424 150
74.32435 153
74.34446 139
74.36458 139
74.38469 148
74.40481 116
74.42492 148
74.44503 157
74.46515 159
74.48526 153
74.50537 147
74.52549 143
74.5456 147
74.56571 158
74.58583 136
74.60594 158
74.62606 156
74.64617 138
74.66628 165
74.6864 154
74.70651 135
74.72662 159
74.74674 151
74.76685 144
74.78697 135
74.80708 178
74.82719 152
74.84731 134
74.86742 136
74.88753 139
74.90765 127
74.92776 122
74.94787 168
74.96799 146
74.9881 168
75.00822 152
