3.00117 19651
3.02128 18812
3.0414 18756
3.06151 17974
3.08162 17863
3.10174 17158
3.12185 16655
3.14197 16322
3.16208 15701
3.18219 15170
3.20231 14896
3.22242 14148
3.24253 14085
3.26265 13337
3.28276 13013
3.30288 12783
3.32299 11957
3.3431 11924
3.36322 11473
3.38333 10898
3.40344 10650
3.42356 10176
3.44367 10149
3.46379 9798
3.4839 9336
3.50401 9183
3.52413 8668
3.54424 8332
3.56435 7948
3.58447 7702
3.60458 7487
3.62469 6947
3.64481 6890
3.66492 6587
3.68504 6355
3.70515 6276
3.72526 5552
3.74538 5619
3.76549 5446
3.7856 5049
3.80572 5086
3.82583 4806
3.84595 4395
3.86606 4255
3.88617 4313
3.90629 4168
3.9264 3620
3.94651 3697
3.96663 3506
3.98674 3152
4.00686 3265
4.02697 2821
4.04708 2944
4.0672 2807
4.08731 2607
4.10742 2735
4.12754 2331
4.14765 2313
4.16776 2258
4.18788 2152
4.20799 2039
4.22811 1947
4.24822 1825
4.26833 1795
4.28845 1730
4.30856 1810
4.32867 1570
4.34879 1559
4.3689 1525
4.38902 1470
4.40913 1486
4.42924 1362
4.44936 1436
4.46947 1369
4.48958 1280
4.5097 1333
4.52981 1221
4.54992 1203
4.57004 1162
4.59015 1158
4.61027 1199
4.63038 1075
4.65049 1111
4.67061 1085
4.69072 1029
4.71083 1050
4.73095 949
4.75106 886
4.77118 907
4.79129 897
4.8114 910
4.83152 923
4.85163 852
4.87174 852
4.89186 810
4.91197 778
4.93209 803
4.9522 690
4.97231 761
4.99243 772
5.01254 734
5.03265 678
5.05277 639
5.07288 632
5.09299 699
5.11311 589
5.13322 637
5.15334 559
5.17345 581
5.19356 547
5.21368 523
5.23379 510
5.2539 518
5.27402 536
5.29413 482
5.31425 491
5.33436 466
5.35447 485
5.37459 494
5.3947 442
5.41481 436
5.43493 398
5.45504 431
5.47516 409
5.49527 436
5.51538 399
5.5355 341
5.55561 373
5.57572 353
5.59584 363
5.61595 356
5.63606 344
5.65618 300
5.67629 350
5.69641 313
5.71652 302
5.73663 308
5.75675 276
5.77686 288
5.79697 301
5.81709 287
5.8372 297
5.85732 268
5.87743 275
5.89754 283
5.91766 249
5.93777 280
5.95788 261
5.978 250
5.99811 251
6.01823 230
6.03834 236
6.05845 253
6.07857 232
6.09868 237
6.11879 231
6.13891 209
6.15902 227
6.17913 215
6.19925 220
6.21936 261
6.23948 216
6.25959 218
6.2797 203
6.29982 207
6.31993 200
6.34004 261
6.36016 211
6.38027 189
6.40039 222
6.4205 240
6.44061 210
6.46073 192
6.48084 217
6.50095 232
6.52107 237
6.54118 222
6.56129 188
6.58141 239
6.60152 226
6.62164 210
6.64175 209
6.66186 218
6.68198 222
6.70209 193
6.7222 193
6.74232 204
6.76243 212
6.78255 213
6.80266 189
6.82277 219
6.84289 220
6.863 201
6.88311 224
6.90323 223
6.92334 198
6.94346 190
6.96357 186
6.98368 219
7.0038 205
7.02391 178
7.04402 222
7.06414 216
7.08425 215
7.10436 205
7.12448 230
7.14459 203
7.16471 192
7.18482 229
7.20493 189
7.22505 194
7.24516 194
7.26527 227
7.28539 208
7.3055 202
7.32562 181
7.34573 239
7.36584 189
7.38596 208
7.40607 207
7.42618 218
7.4463 198
7.46641 217
7.48653 201
7.50664 243
7.52675 236
7.54687 211
7.56698 204
7.58709 199
7.60721 205
7.62732 211
7.64743 216
7.66755 230
7.68766 232
7.70778 234
7.72789 210
7.748 208
7.76812 200
7.78823 217
7.80834 219
7.82846 200
7.84857 228
7.86869 179
7.8888 232
7.90891 232
7.92903 205
7.94914 252
7.96925 210
7.98937 214
8.00948 221
8.0296 210
8.04971 209
8.06982 250
8.08994 218
8.11005 235
8.13016 217
8.15028 222
8.17039 218
8.1905 210
8.21062 259
8.23073 248
8.25085 203
8.27096 249
8.29107 268
8.31119 208
8.3313 205
8.35141 257
8.37153 213
8.39164 236
8.41176 208
8.43187 243
8.45198 231
8.4721 232
8.49221 251
8.51232 220
8.53244 250
8.55255 240
8.57266 251
8.59278 242
8.61289 228
8.63301 239
8.65312 277
8.67323 282
8.69335 236
8.71346 251
8.73357 269
8.75369 274
8.7738 299
8.79392 278
8.81403 289
8.83414 312
8.85426 276
8.87437 255
8.89448 275
8.9146 280
8.93471 236
8.95483 260
8.97494 222
8.99505 215
9.01517 230
9.03528 240
9.05539 262
9.07551 249
9.09562 231
9.11573 239
9.13585 219
9.15596 204
9.17608 223
9.19619 240
9.2163 220
9.23642 219
9.25653 210
9.27664 255
9.29676 228
9.31687 224
9.33699 232
9.3571 247
9.37721 247
9.39733 226
9.41744 211
9.43755 246
9.45767 232
9.47778 195
9.4979 231
9.51801 229
9.53812 204
9.55824 245
9.57835 252
9.59846 260
9.61858 207
9.63869 232
9.6588 238
9.67892 240
9.69903 231
9.71915 228
9.73926 239
9.75937 236
9.77949 237
9.7996 252
9.81971 257
9.83983 225
9.85994 191
9.88006 247
9.90017 218
9.92028 224
9.9404 247
9.96051 259
9.98062 219
10.00074 225
10.02085 205
10.04097 239
10.06108 225
10.08119 211
10.10131 248
10.12142 223
10.14153 245
10.16165 227
10.18176 236
10.20187 235
10.22199 209
10.2421 216
10.26222 234
10.28233 245
10.30244 245
10.32256 217
10.34267 210
10.36278 219
10.3829 196
10.40301 229
10.42313 233
10.44324 223
10.46335 231
10.48347 217
10.50358 219
10.52369 208
10.54381 220
10.56392 269
10.58403 230
10.60415 216
10.62426 225
10.64438 233
10.66449 237
10.6846 231
10.70472 219
10.72483 218
10.74494 256
10.76506 224
10.78517 221
10.80529 254
10.8254 230
10.84551 210
10.86563 250
10.88574 199
10.90585 239
10.92597 215
10.94608 236
10.9662 216
10.98631 213
11.00642 238
11.02654 219
11.04665 249
11.06676 232
11.08688 245
11.10699 269
11.1271 225
11.14722 238
11.16733 228
11.18745 221
11.20756 242
11.22767 229
11.24779 247
11.2679 242
11.28801 212
11.30813 245
11.32824 234
11.34836 235
11.36847 220
11.38858 236
11.4087 238
11.42881 216
11.44892 228
11.46904 232
11.48915 263
11.50927 248
11.52938 261
11.54949 226
11.56961 226
11.58972 261
11.60983 250
11.62995 235
11.65006 203
11.67017 262
11.69029 256
11.7104 240
11.73052 223
11.75063 237
11.77074 239
11.79086 221
11.81097 253
11.83108 211
11.8512 232
11.87131 257
11.89143 251
11.91154 247
11.93165 214
11.95177 288
11.97188 274
11.99199 263
12.01211 262
12.03222 251
12.05234 273
12.07245 266
12.09256 262
12.11268 255
12.13279 257
12.1529 253
12.17302 280
12.19313 259
12.21324 283
12.23336 279
12.25347 235
12.27359 267
12.2937 277
12.31381 284
12.33393 296
12.35404 292
12.37415 283
12.39427 274
12.41438 262
12.4345 260
12.45461 275
12.47472 271
12.49484 233
12.51495 241
12.53506 253
12.55518 226
12.57529 244
12.5954 225
12.61552 216
12.63563 238
12.65575 245
12.67586 250
12.69597 228
12.71609 231
12.7362 233
12.75631 199
12.77643 238
12.79654 197
12.81666 198
12.83677 223
12.85688 212
12.877 226
12.89711 195
12.91722 246
12.93734 229
12.95745 210
12.97757 240
12.99768 192
13.01779 219
13.03791 222
13.05802 232
13.07813 262
13.09825 256
13.11836 273
13.13847 301
13.15859 257
13.1787 264
13.19882 287
13.21893 246
13.23904 242
13.25916 261
13.27927 216
13.29938 231
13.3195 219
13.33961 218
13.35973 227
13.37984 194
13.39995 206
13.42007 206
13.44018 219
13.46029 215
13.48041 216
13.50052 239
13.52064 255
13.54075 268
13.56086 268
13.58098 334
13.60109 332
13.6212 330
13.64132 390
13.66143 390
13.68154 357
13.70166 294
13.72177 288
13.74189 219
13.762 227
13.78211 227
13.80223 202
13.82234 215
13.84245 225
13.86257 205
13.88268 236
13.9028 210
13.92291 209
13.94302 214
13.96314 214
13.98325 209
14.00336 228
14.02348 182
14.04359 182
14.06371 181
14.08382 196
14.10393 200
14.12405 208
14.14416 195
14.16427 183
14.18439 188
14.2045 157
14.22461 187
14.24473 180
14.26484 184
14.28496 173
14.30507 197
14.32518 204
14.3453 184
14.36541 184
14.38552 201
14.40564 189
14.42575 186
14.44587 194
14.46598 212
14.48609 196
14.50621 189
14.52632 209
14.54643 186
14.56655 186
14.58666 185
14.60677 199
14.62689 175
14.647 191
14.66712 185
14.68723 192
14.70734 210
14.72746 213
14.74757 179
14.76768 178
14.7878 223
14.80791 218
14.82803 197
14.84814 212
14.86825 210
14.88837 234
14.90848 283
14.92859 248
14.94871 237
14.96882 250
14.98894 261
15.00905 259
15.02916 220
15.04928 249
15.06939 222
15.0895 205
15.10962 203
15.12973 199
15.14984 214
15.16996 225
15.19007 203
15.21019 242
15.2303 244
15.25041 223
15.27053 250
15.29064 251
15.31075 187
15.33087 183
15.35098 203
15.3711 191
15.39121 184
15.41132 180
15.43144 179
15.45155 162
15.47166 179
15.49178 178
15.51189 170
15.53201 175
15.55212 190
15.57223 172
15.59235 177
15.61246 179
15.63257 184
15.65269 175
15.6728 210
15.69291 180
15.71303 186
15.73314 182
15.75326 166
15.77337 167
15.79348 197
15.8136 186
15.83371 167
15.85382 186
15.87394 165
15.89405 182
15.91417 191
15.93428 192
15.95439 193
15.97451 195
15.99462 168
16.01473 162
16.03485 202
16.05496 195
16.07508 169
16.09519 174
16.1153 184
16.13542 187
16.15553 199
16.17564 168
16.19576 192
16.21587 151
16.23598 202
16.2561 173
16.27621 177
16.29633 164
16.31644 189
16.33655 165
16.35667 160
16.37678 164
16.39689 162
16.41701 151
16.43712 186
16.45724 203
16.47735 200
16.49746 160
16.51758 171
16.53769 178
16.5578 208
16.57792 158
16.59803 181
16.61814 170
16.63826 179
16.65837 179
16.67849 164
16.6986 191
16.71871 158
16.73883 158
16.75894 163
16.77905 167
16.79917 155
16.81928 205
16.8394 201
16.85951 158
16.87962 161
16.89974 162
16.91985 173
16.93996 168
16.96008 188
16.98019 178
17.00031 181
17.02042 167
17.04053 156
17.06065 173
17.08076 150
17.10087 155
17.12099 165
17.1411 187
17.16121 160
17.18133 182
17.20144 163
17.22156 151
17.24167 187
17.26178 188
17.2819 180
17.30201 173
17.32212 169
17.34224 166
17.36235 166
17.38247 160
17.40258 182
17.42269 171
17.44281 202
17.46292 173
17.48303 182
17.50315 168
17.52326 188
17.54338 184
17.56349 173
17.5836 178
17.60372 181
17.62383 182
17.64394 168
17.66406 165
17.68417 168
17.70428 189
17.7244 184
17.74451 171
17.76463 163
17.78474 171
17.80485 171
17.82497 193
17.84508 164
17.86519 181
17.88531 177
17.90542 181
17.92554 159
17.94565 163
17.96576 170
17.98588 173
18.00599 169
18.0261 166
18.04622 183
18.06633 174
18.08645 175
18.10656 196
18.12667 173
18.14679 178
18.1669 191
18.18701 190
18.20713 189
18.22724 164
18.24735 183
18.26747 159
18.28758 196
18.3077 188
18.32781 179
18.34792 154
18.36804 149
18.38815 182
18.40826 154
18.42838 171
18.44849 196
18.46861 194
18.48872 168
18.50883 154
18.52895 180
18.54906 180
18.56917 168
18.58929 152
18.6094 133
18.62951 162
18.64963 146
18.66974 193
18.68986 179
18.70997 177
18.73008 186
18.7502 155
18.77031 179
18.79042 174
18.81054 185
18.83065 188
18.85077 197
18.87088 189
18.89099 202
18.91111 205
18.93122 184
18.95133 185
18.97145 184
18.99156 197
19.01168 169
19.03179 177
19.0519 180
19.07202 188
19.09213 174
19.11224 187
19.13236 189
19.15247 205
19.17258 201
19.1927 175
19.21281 238
19.23293 220
19.25304 219
19.27315 216
19.29327 260
19.31338 245
19.33349 224
19.35361 201
19.37372 206
19.39384 190
19.41395 199
19.43406 209
19.45418 207
19.47429 198
19.4944 191
19.51452 221
19.53463 180
19.55475 183
19.57486 192
19.59497 237
19.61509 215
19.6352 218
19.65531 255
19.67543 251
19.69554 239
19.71565 239
19.73577 238
19.75588 256
19.776 264
19.79611 315
19.81622 303
19.83634 303
19.85645 309
19.87656 302
19.89668 319
19.91679 312
19.93691 335
19.95702 333
19.97713 311
19.99725 337
20.01736 299
20.03747 334
20.05759 268
20.0777 289
20.09782 304
20.11793 308
20.13804 274
20.15816 321
20.17827 317
20.19838 300
20.2185 337
20.23861 302
20.25872 309
20.27884 306
20.29895 333
20.31907 298
20.33918 332
20.35929 334
20.37941 328
20.39952 311
20.41963 321
20.43975 339
20.45986 354
20.47998 313
20.50009 344
20.5202 385
20.54032 433
20.56043 370
20.58054 359
20.60066 436
20.62077 467
20.64088 480
20.661 494
20.68111 587
20.70123 734
20.72134 975
20.74145 1298
20.76157 1917
20.78168 2573
20.80179 3590
20.82191 4699
20.84202 5446
20.86214 5669
20.88225 5101
20.90236 3942
20.92248 2931
20.94259 2085
20.9627 1634
20.98282 1479
21.00293 1370
21.02305 1320
21.04316 1315
21.06327 1045
21.08339 847
21.1035 695
21.12361 563
21.14373 495
21.16384 387
21.18395 390
21.20407 350
21.22418 369
21.2443 331
21.26441 315
21.28452 342
21.30464 302
21.32475 301
21.34486 305
21.36498 342
21.38509 315
21.40521 327
21.42532 293
21.44543 306
21.46555 304
21.48566 293
21.50577 256
21.52589 279
21.546 275
21.56612 297
21.58623 295
21.60634 281
21.62646 217
21.64657 275
21.66668 238
21.6868 288
21.70691 272
21.72702 282
21.74714 275
21.76725 273
21.78737 263
21.80748 249
21.82759 267
21.84771 251
21.86782 260
21.88793 284
21.90805 316
21.92816 324
21.94828 337
21.96839 399
21.9885 381
22.00862 428
22.02873 352
22.04884 379
22.06896 377
22.08907 285
22.10919 301
22.1293 300
22.14941 267
22.16953 298
22.18964 305
22.20975 317
22.22987 348
22.24998 404
22.27009 414
22.29021 471
22.31032 487
22.33044 433
22.35055 419
22.37066 364
22.39078 368
22.41089 352
22.431 346
22.45112 308
22.47123 307
22.49135 314
22.51146 322
22.53157 356
22.55169 278
22.5718 288
22.59191 348
22.61203 347
22.63214 362
22.65225 332
22.67237 320
22.69248 282
22.7126 296
22.73271 252
22.75282 251
22.77294 247
22.79305 250
22.81316 243
22.83328 237
22.85339 257
22.87351 244
22.89362 266
22.91373 298
22.93385 307
22.95396 302
22.97407 336
22.99419 318
23.0143 354
23.03442 388
23.05453 372
23.07464 390
23.09476 463
23.11487 500
23.13498 502
23.1551 627
23.17521 574
23.19532 654
23.21544 653
23.23555 581
23.25567 538
23.27578 469
23.29589 431
23.31601 405
23.33612 382
23.35623 365
23.37635 377
23.39646 339
23.41658 380
23.43669 392
23.4568 360
23.47692 388
23.49703 361
23.51714 371
23.53726 372
23.55737 418
23.57749 426
23.5976 445
23.61771 430
23.63783 375
23.65794 366
23.67805 373
23.69817 363
23.71828 357
23.73839 356
23.75851 332
23.77862 376
23.79874 398
23.81885 391
23.83896 364
23.85908 407
23.87919 468
23.8993 478
23.91942 502
23.93953 552
23.95965 571
23.97976 684
23.99987 650
24.01999 673
24.0401 575
24.06021 519
24.08033 423
24.10044 375
24.12056 353
24.14067 375
24.16078 331
24.1809 328
24.20101 323
24.22112 363
24.24124 384
24.26135 381
24.28146 414
24.30158 452
24.32169 429
24.34181 420
24.36192 373
24.38203 367
24.40215 360
24.42226 307
24.44237 312
24.46249 339
24.4826 322
24.50272 310
24.52283 295
24.54294 283
24.56306 287
24.58317 313
24.60328 316
24.6234 328
24.64351 358
24.66362 398
24.68374 399
24.70385 446
24.72397 412
24.74408 399
24.76419 378
24.78431 373
24.80442 372
24.82453 372
24.84465 375
24.86476 394
24.88488 367
24.90499 341
24.9251 345
24.94522 354
24.96533 376
24.98544 371
25.00556 273
25.02567 311
25.04579 301
25.0659 298
25.08601 286
25.10613 314
25.12624 296
25.14635 312
25.16647 285
25.18658 312
25.20669 331
25.22681 287
25.24692 259
25.26704 325
25.28715 330
25.30726 309
25.32738 321
25.34749 327
25.3676 360
25.38772 388
25.40783 402
25.42795 458
25.44806 504
25.46817 599
25.48829 743
25.5084 771
25.52851 861
25.54863 836
25.56874 903
25.58886 879
25.60897 828
25.62908 875
25.6492 873
25.66931 832
25.68942 737
25.70954 621
25.72965 600
25.74976 502
25.76988 438
25.78999 442
25.81011 409
25.83022 434
25.85033 436
25.87045 423
25.89056 365
25.91067 435
25.93079 379
25.9509 416
25.97102 429
25.99113 408
26.01124 358
26.03136 470
26.05147 428
26.07158 441
26.0917 482
26.11181 481
26.13193 488
26.15204 565
26.17215 556
26.19227 553
26.21238 656
26.23249 669
26.25261 741
26.27272 811
26.29283 892
26.31295 954
26.33306 1133
26.35318 1240
26.37329 1488
26.3934 1703
26.41352 2036
26.43363 2263
26.45374 2679
26.47386 3292
26.49397 4386
26.51409 6136
26.5342 8675
26.55431 11956
26.57443 16710
26.59454 21154
26.61465 24913
26.63477 25435
26.65488 22338
26.67499 17925
26.69511 13737
26.71522 10038
26.73534 6540
26.75545 3542
26.77556 2172
26.79568 1632
26.81579 1375
26.8359 1243
26.85602 1195
26.87613 1099
26.89625 1090
26.91636 1090
26.93647 1096
26.95659 1070
26.9767 1099
26.99681 1192
27.01693 1327
27.03704 1434
27.05716 1397
27.07727 1354
27.09738 1308
27.1175 1092
27.13761 1034
27.15772 873
27.17784 844
27.19795 746
27.21806 733
27.23818 740
27.25829 742
27.27841 854
27.29852 909
27.31863 1072
27.33875 1211
27.35886 1364
27.37897 1564
27.39909 1816
27.4192 2055
27.43932 2249
27.45943 2268
27.47954 2217
27.49966 1978
27.51977 1748
27.53988 1425
27.56 1101
27.58011 913
27.60023 694
27.62034 573
27.64045 545
27.66057 493
27.68068 519
27.70079 528
27.72091 492
27.74102 518
27.76113 524
27.78125 517
27.80136 489
27.82148 564
27.84159 544
27.8617 544
27.88182 611
27.90193 636
27.92204 610
27.94216 607
27.96227 623
27.98239 570
28.0025 547
28.02261 467
28.04273 434
28.06284 400
28.08295 412
28.10307 369
28.12318 313
28.1433 360
28.16341 332
28.18352 320
28.20364 364
28.22375 358
28.24386 364
28.26398 326
28.28409 278
28.3042 289
28.32432 291
28.34443 276
28.36455 286
28.38466 279
28.40477 282
28.42489 273
28.445 265
28.46511 232
28.48523 257
28.50534 255
28.52546 248
28.54557 278
28.56568 254
28.5858 255
28.60591 259
28.62602 265
28.64614 241
28.66625 241
28.68636 285
28.70648 269
28.72659 270
28.74671 241
28.76682 257
28.78693 229
28.80705 239
28.82716 232
28.84727 223
28.86739 240
28.8875 277
28.90762 214
28.92773 237
28.94784 264
28.96796 222
28.98807 242
29.00818 231
29.0283 260
29.04841 242
29.06853 245
29.08864 254
29.10875 253
29.12887 239
29.14898 255
29.16909 261
29.18921 274
29.20932 278
29.22943 273
29.24955 298
29.26966 288
29.28978 325
29.30989 359
29.33 443
29.35012 471
29.37023 488
29.39034 535
29.41046 533
29.43057 563
29.45069 518
29.4708 550
29.49091 482
29.51103 479
29.53114 437
29.55125 410
29.57137 352
29.59148 335
29.6116 347
29.63171 335
29.65182 321
29.67194 323
29.69205 294
29.71216 329
29.73228 314
29.75239 304
29.7725 318
29.79262 338
29.81273 321
29.83285 359
29.85296 337
29.87307 340
29.89319 323
29.9133 297
29.93341 336
29.95353 335
29.97364 355
29.99376 334
30.01387 376
30.03398 403
30.0541 428
30.07421 462
30.09432 438
30.11444 479
30.13455 527
30.15467 508
30.17478 572
30.19489 581
30.21501 610
30.23512 547
30.25523 466
30.27535 466
30.29546 387
30.31557 387
30.33569 314
30.3558 345
30.37592 316
30.39603 311
30.41614 318
30.43626 339
30.45637 325
30.47648 314
30.4966 293
30.51671 312
30.53683 293
30.55694 317
30.57705 287
30.59717 305
30.61728 328
30.63739 394
30.65751 404
30.67762 504
30.69773 469
30.71785 532
30.73796 579
30.75808 585
30.77819 566
30.7983 606
30.81842 514
30.83853 541
30.85864 510
30.87876 474
30.89887 476
30.91899 410
30.9391 350
30.95921 350
30.97933 298
30.99944 288
31.01955 234
31.03967 252
31.05978 228
31.0799 229
31.10001 214
31.12012 217
31.14024 232
31.16035 207
31.18046 232
31.20058 231
31.22069 232
31.2408 212
31.26092 215
31.28103 249
31.30115 214
31.32126 213
31.34137 213
31.36149 229
31.3816 207
31.40171 229
31.42183 222
31.44194 214
31.46206 216
31.48217 208
31.50228 237
31.5224 197
31.54251 200
31.56262 169
31.58274 231
31.60285 202
31.62297 210
31.64308 211
31.66319 223
31.68331 202
31.70342 195
31.72353 201
31.74365 230
31.76376 189
31.78387 182
31.80399 185
31.8241 224
31.84422 202
31.86433 209
31.88444 203
31.90456 227
31.92467 193
31.94478 181
31.9649 189
31.98501 206
32.00513 207
32.02524 248
32.04535 254
32.06547 270
32.08558 285
32.10569 290
32.12581 296
32.14592 290
32.16604 298
32.18615 310
32.20626 278
32.22638 287
32.24649 271
32.2666 307
32.28672 291
32.30683 276
32.32694 286
32.34706 330
32.36717 302
32.38729 359
32.4074 328
32.42751 334
32.44763 332
32.46774 349
32.48785 325
32.50797 299
32.52808 257
32.5482 236
32.56831 231
32.58842 237
32.60854 201
32.62865 214
32.64876 213
32.66888 199
32.68899 233
32.7091 194
32.72922 170
32.74933 181
32.76945 192
32.78956 165
32.80967 182
32.82979 169
32.8499 169
32.87001 186
32.89013 168
32.91024 183
32.93036 162
32.95047 203
32.97058 176
32.9907 199
33.01081 174
33.03092 182
33.05104 162
33.07115 171
33.09127 188
33.11138 201
33.13149 154
33.15161 185
33.17172 178
33.19183 170
33.21195 176
33.23206 187
33.25217 181
33.27229 186
33.2924 198
33.31252 198
33.33263 189
33.35274 183
33.37286 190
33.39297 187
33.41308 189
33.4332 176
33.45331 176
33.47343 175
33.49354 172
33.51365 167
33.53377 180
33.55388 184
33.57399 174
33.59411 184
33.61422 178
33.63434 180
33.65445 184
33.67456 155
33.69468 174
33.71479 189
33.7349 191
33.75502 207
33.77513 210
33.79524 201
33.81536 216
33.83547 213
33.85559 234
33.8757 209
33.89581 210
33.91593 206
33.93604 232
33.95615 176
33.97627 184
33.99638 206
34.0165 245
34.03661 218
34.05672 255
34.07684 237
34.09695 291
34.11706 284
34.13718 334
34.15729 378
34.17741 390
34.19752 440
34.21763 383
34.23775 415
34.25786 340
34.27797 336
34.29809 345
34.3182 322
34.33831 307
34.35843 327
34.37854 289
34.39866 298
34.41877 299
34.43888 280
34.459 287
34.47911 309
34.49922 287
34.51934 271
34.53945 305
34.55957 304
34.57968 331
34.59979 327
34.61991 310
34.64002 308
34.66013 319
34.68025 280
34.70036 329
34.72047 290
34.74059 315
34.7607 328
34.78082 311
34.80093 327
34.82104 294
34.84116 353
34.86127 349
34.88138 371
34.9015 391
34.92161 372
34.94173 338
34.96184 364
34.98195 334
35.00207 342
35.02218 339
35.04229 320
35.06241 345
35.08252 384
35.10264 393
35.12275 363
35.14286 388
35.16298 392
35.18309 376
35.2032 358
35.22332 369
35.24343 340
35.26354 329
35.28366 332
35.30377 344
35.32389 335
35.344 332
35.36411 357
35.38423 317
35.40434 353
35.42445 361
35.44457 320
35.46468 412
35.4848 352
35.50491 437
35.52502 439
35.54514 381
35.56525 399
35.58536 378
35.60548 376
35.62559 314
35.64571 314
35.66582 312
35.68593 290
35.70605 282
35.72616 298
35.74627 281
35.76639 300
35.7865 277
35.80661 268
35.82673 246
35.84684 305
35.86696 273
35.88707 287
35.90718 281
35.9273 271
35.94741 276
35.96752 258
35.98764 256
36.00775 268
36.02787 239
36.04798 236
36.06809 213
36.08821 256
36.10832 277
36.12843 274
36.14855 232
36.16866 248
36.18878 233
36.20889 270
36.229 283
36.24912 246
36.26923 294
36.28934 321
36.30946 331
36.32957 353
36.34968 380
36.3698 450
36.38991 557
36.41003 662
36.43014 868
36.45025 1017
36.47037 1248
36.49048 1612
36.51059 1779
36.53071 1720
36.55082 1601
36.57094 1285
36.59105 1092
36.61116 1037
36.63128 920
36.65139 753
36.6715 496
36.69162 373
36.71173 303
36.73184 303
36.75196 280
36.77207 286
36.79219 266
36.8123 280
36.83241 273
36.85253 287
36.87264 306
36.89275 341
36.91287 338
36.93298 339
36.9531 364
36.97321 352
36.99332 365
37.01344 344
37.03355 362
37.05366 322
37.07378 338
37.09389 300
37.11401 296
37.13412 249
37.15423 262
37.17435 221
37.19446 271
37.21457 236
37.23469 254
37.2548 237
37.27491 235
37.29503 249
37.31514 227
37.33526 245
37.35537 219
37.37548 241
37.3956 221
37.41571 205
37.43582 248
37.45594 206
37.47605 271
37.49617 233
37.51628 231
37.53639 226
37.55651 227
37.57662 202
37.59673 213
37.61685 253
37.63696 251
37.65708 230
37.67719 224
37.6973 248
37.71742 210
37.73753 242
37.75764 193
37.77776 250
37.79787 228
37.81798 230
37.8381 232
37.85821 203
37.87833 217
37.89844 215
37.91855 194
37.93867 208
37.95878 193
37.97889 193
37.99901 182
38.01912 216
38.03924 206
38.05935 188
38.07946 207
38.09958 188
38.11969 236
38.1398 226
38.15992 202
38.18003 198
38.20015 229
38.22026 189
38.24037 244
38.26049 211
38.2806 226
38.30071 214
38.32083 229
38.34094 222
38.36105 241
38.38117 258
38.40128 260
38.4214 260
38.44151 266
38.46162 289
38.48174 248
38.50185 288
38.52196 313
38.54208 307
38.56219 304
38.58231 280
38.60242 308
38.62253 315
38.64265 288
38.66276 258
38.68287 247
38.70299 250
38.7231 236
38.74321 222
38.76333 213
38.78344 232
38.80356 218
38.82367 200
38.84378 199
38.8639 201
38.88401 223
38.90412 244
38.92424 214
38.94435 224
38.96447 228
38.98458 227
39.00469 245
39.02481 216
39.04492 214
39.06503 284
39.08515 233
39.10526 247
39.12538 233
39.14549 273
39.1656 256
39.18572 298
39.20583 299
39.22594 303
39.24606 354
39.26617 434
39.28628 444
39.3064 484
39.32651 614
39.34663 753
39.36674 988
39.38685 1139
39.40697 1386
39.42708 1551
39.44719 1719
39.46731 1488
39.48742 1231
39.50754 1041
39.52765 919
39.54776 907
39.56788 759
39.58799 591
39.6081 403
39.62822 325
39.64833 269
39.66845 232
39.68856 247
39.70867 262
39.72879 223
39.7489 222
39.76901 200
39.78913 219
39.80924 219
39.82935 180
39.84947 222
39.86958 205
39.8897 243
39.90981 241
39.92992 211
39.95004 241
39.97015 193
39.99026 226
40.01038 235
40.03049 268
40.05061 241
40.07072 263
40.09083 288
40.11095 322
40.13106 344
40.15117 384
40.17129 487
40.1914 534
40.21152 716
40.23163 811
40.25174 870
40.27186 907
40.29197 830
40.31208 764
40.3322 627
40.35231 524
40.37242 545
40.39254 490
40.41265 418
40.43277 342
40.45288 277
40.47299 251
40.49311 244
40.51322 248
40.53333 218
40.55345 249
40.57356 232
40.59368 221
40.61379 236
40.6339 216
40.65402 200
40.67413 199
40.69424 191
40.71436 209
40.73447 159
40.75458 229
40.7747 177
40.79481 209
40.81493 190
40.83504 197
40.85515 163
40.87527 185
40.89538 196
40.91549 212
40.93561 184
40.95572 203
40.97584 208
40.99595 195
41.01606 196
41.03618 205
41.05629 182
41.0764 203
41.09652 217
41.11663 197
41.13675 194
41.15686 245
41.17697 211
41.19709 206
41.2172 181
41.23731 194
41.25743 191
41.27754 219
41.29765 208
41.31777 179
41.33788 195
41.358 199
41.37811 225
41.39822 203
41.41834 205
41.43845 205
41.45856 237
41.47868 204
41.49879 231
41.51891 250
41.53902 248
41.55913 236
41.57925 261
41.59936 338
41.61947 288
41.63959 342
41.6597 320
41.67982 329
41.69993 403
41.72004 491
41.74016 508
41.76027 567
41.78038 547
41.8005 518
41.82061 502
41.84072 423
41.86084 411
41.88095 382
41.90107 385
41.92118 329
41.94129 334
41.96141 269
41.98152 240
42.00163 257
42.02175 227
42.04186 249
42.06198 250
42.08209 223
42.1022 228
42.12232 244
42.14243 246
42.16254 239
42.18266 259
42.20277 308
42.22289 290
42.243 316
42.26311 394
42.28323 409
42.30334 476
42.32345 543
42.34357 720
42.36368 879
42.38379 1006
42.40391 1094
42.42402 1176
42.44414 1154
42.46425 984
42.48436 864
42.50448 770
42.52459 698
42.5447 659
42.56482 600
42.58493 480
42.60505 360
42.62516 281
42.64527 313
42.66539 287
42.6855 280
42.70561 273
42.72573 285
42.74584 276
42.76595 238
42.78607 263
42.80618 251
42.8263 251
42.84641 227
42.86652 226
42.88664 217
42.90675 237
42.92686 200
42.94698 233
42.96709 221
42.98721 208
43.00732 197
43.02743 214
43.04755 214
43.06766 213
43.08777 191
43.10789 212
43.128 207
43.14812 210
43.16823 221
43.18834 196
43.20846 230
43.22857 218
43.24868 223
43.2688 181
43.28891 187
43.30902 191
43.32914 191
43.34925 197
43.36937 179
43.38948 160
43.40959 179
43.42971 187
43.44982 192
43.46993 202
43.49005 212
43.51016 206
43.53028 232
43.55039 208
43.5705 227
43.59062 181
43.61073 194
43.63084 211
43.65096 195
43.67107 208
43.69119 193
43.7113 209
43.73141 188
43.75153 173
43.77164 184
43.79175 189
43.81187 177
43.83198 159
43.85209 191
43.87221 176
43.89232 223
43.91244 173
43.93255 179
43.95266 204
43.97278 208
43.99289 199
44.013 203
44.03312 190
44.05323 204
44.07335 224
44.09346 211
44.11357 180
44.13369 180
44.1538 197
44.17391 196
44.19403 212
44.21414 211
44.23426 199
44.25437 183
44.27448 188
44.2946 202
44.31471 205
44.33482 168
44.35494 181
44.37505 188
44.39516 221
44.41528 170
44.43539 161
44.45551 163
44.47562 198
44.49573 186
44.51585 197
44.53596 189
44.55607 200
44.57619 179
44.5963 172
44.61642 202
44.63653 199
44.65664 192
44.67676 179
44.69687 199
44.71698 179
44.7371 194
44.75721 191
44.77732 176
44.79744 160
44.81755 164
44.83767 210
44.85778 172
44.87789 161
44.89801 191
44.91812 166
44.93823 180
44.95835 176
44.97846 196
44.99858 168
45.01869 205
45.0388 211
45.05892 199
45.07903 180
45.09914 198
45.11926 173
45.13937 175
45.15949 186
45.1796 189
45.19971 170
45.21983 204
45.23994 195
45.26005 215
45.28017 200
45.30028 214
45.32039 199
45.34051 204
45.36062 225
45.38074 228
45.40085 247
45.42096 265
45.44108 272
45.46119 273
45.4813 318
45.50142 344
45.52153 312
45.54165 304
45.56176 346
45.58187 342
45.60199 411
45.6221 394
45.64221 466
45.66233 500
45.68244 628
45.70256 739
45.72267 841
45.74278 868
45.7629 896
45.78301 887
45.80312 807
45.82324 653
45.84335 544
45.86346 573
45.88358 551
45.90369 470
45.92381 442
45.94392 323
45.96403 287
45.98415 218
46.00426 220
46.02437 231
46.04449 231
46.0646 236
46.08472 222
46.10483 217
46.12494 241
46.14506 216
46.16517 217
46.18528 220
46.2054 240
46.22551 245
46.24563 250
46.26574 214
46.28585 205
46.30597 210
46.32608 200
46.34619 202
46.36631 189
46.38642 167
46.40653 194
46.42665 194
46.44676 164
46.46688 166
46.48699 170
46.5071 177
46.52722 173
46.54733 147
46.56744 167
46.58756 143
46.60767 159
46.62779 169
46.6479 149
46.66801 187
46.68813 162
46.70824 170
46.72835 156
46.74847 167
46.76858 177
46.78869 199
46.80881 188
46.82892 178
46.84904 188
46.86915 204
46.88926 190
46.90938 200
46.92949 196
46.9496 188
46.96972 208
46.98983 206
47.00995 290
47.03006 236
47.05017 292
47.07029 285
47.0904 272
47.11051 294
47.13063 281
47.15074 255
47.17086 251
47.19097 274
47.21108 257
47.2312 220
47.25131 200
47.27142 213
47.29154 217
47.31165 223
47.33176 226
47.35188 234
47.37199 233
47.39211 239
47.41222 243
47.43233 250
47.45245 280
47.47256 221
47.49267 214
47.51279 203
47.5329 219
47.55302 243
47.57313 204
47.59324 205
47.61336 226
47.63347 191
47.65358 182
47.6737 189
47.69381 187
47.71393 172
47.73404 172
47.75415 166
47.77427 178
47.79438 181
47.81449 154
47.83461 179
47.85472 169
47.87483 166
47.89495 156
47.91506 180
47.93518 187
47.95529 160
47.9754 191
47.99552 166
48.01563 177
48.03574 177
48.05586 179
48.07597 183
48.09609 189
48.1162 175
48.13631 180
48.15643 183
48.17654 172
48.19665 181
48.21677 192
48.23688 178
48.257 198
48.27711 188
48.29722 192
48.31734 184
48.33745 204
48.35756 179
48.37768 161
48.39779 178
48.4179 204
48.43802 168
48.45813 202
48.47825 184
48.49836 178
48.51847 192
48.53859 191
48.5587 199
48.57881 183
48.59893 189
48.61904 191
48.63916 221
48.65927 221
48.67938 236
48.6995 213
48.71961 239
48.73972 198
48.75984 216
48.77995 234
48.80006 227
48.82018 240
48.84029 206
48.86041 252
48.88052 236
48.90063 256
48.92075 267
48.94086 244
48.96097 281
48.98109 256
49.0012 245
49.02132 247
49.04143 255
49.06154 240
49.08166 246
49.10177 240
49.12188 249
49.142 237
49.16211 232
49.18223 246
49.20234 196
49.22245 218
49.24257 201
49.26268 185
49.28279 186
49.30291 227
49.32302 200
49.34313 188
49.36325 207
49.38336 201
49.40348 175
49.42359 192
49.4437 194
49.46382 203
49.48393 183
49.50404 194
49.52416 177
49.54427 202
49.56439 196
49.5845 200
49.60461 195
49.62473 209
49.64484 246
49.66495 227
49.68507 218
49.70518 221
49.7253 242
49.74541 297
49.76552 277
49.78564 304
49.80575 269
49.82586 327
49.84598 378
49.86609 383
49.8862 436
49.90632 520
49.92643 524
49.94655 661
49.96666 783
49.98677 980
50.00689 1186
50.027 1471
50.04711 1732
50.06723 2000
50.08734 2328
50.10746 2629
50.12757 2509
50.14768 2129
50.1678 1609
50.18791 1356
50.20802 1378
50.22814 1337
50.24825 1343
50.26837 1264
50.28848 913
50.30859 622
50.32871 476
50.34882 390
50.36893 369
50.38905 383
50.40916 413
50.42927 450
50.44939 462
50.4695 548
50.48962 583
50.50973 590
50.52984 551
50.54996 555
50.57007 580
50.59018 528
50.6103 494
50.63041 507
50.65053 485
50.67064 402
50.69075 421
50.71087 409
50.73098 338
50.75109 365
50.77121 324
50.79132 323
50.81143 325
50.83155 313
50.85166 314
50.87178 319
50.89189 292
50.912 300
50.93212 312
50.95223 256
50.97234 225
50.99246 222
51.01257 266
51.03269 260
51.0528 221
51.07291 203
51.09303 251
51.11314 193
51.13325 206
51.15337 213
51.17348 230
51.1936 207
51.21371 203
51.23382 203
51.25394 221
51.27405 209
51.29416 223
51.31428 169
51.33439 191
51.3545 159
51.37462 181
51.39473 187
51.41485 156
51.43496 153
51.45507 157
51.47519 135
51.4953 149
51.51541 172
51.53553 162
51.55564 183
51.57576 177
51.59587 167
51.61598 155
51.6361 173
51.65621 143
51.67632 150
51.69644 179
51.71655 168
51.73667 190
51.75678 161
51.77689 160
51.79701 146
51.81712 156
51.83723 139
51.85735 153
51.87746 155
51.89757 162
51.91769 148
51.9378 168
51.95792 152
51.97803 172
51.99814 162
52.01826 156
52.03837 156
52.05848 150
52.0786 162
52.09871 153
52.11883 172
52.13894 155
52.15905 139
52.17917 178
52.19928 164
52.21939 157
52.23951 160
52.25962 185
52.27974 160
52.29985 181
52.31996 161
52.34008 173
52.36019 181
52.3803 175
52.40042 156
52.42053 171
52.44064 181
52.46076 155
52.48087 179
52.50099 162
52.5211 157
52.54121 169
52.56133 195
52.58144 186
52.60155 187
52.62167 191
52.64178 200
52.6619 185
52.68201 196
52.70212 179
52.72224 170
52.74235 173
52.76246 181
52.78258 185
52.80269 173
52.8228 200
52.84292 176
52.86303 193
52.88315 187
52.90326 203
52.92337 165
52.94349 163
52.9636 187
52.98371 162
53.00383 181
53.02394 175
53.04406 180
53.06417 181
53.08428 177
53.1044 166
53.12451 174
53.14462 188
53.16474 180
53.18485 169
53.20497 173
53.22508 195
53.24519 178
53.26531 191
53.28542 173
53.30553 170
53.32565 221
53.34576 184
53.36587 171
53.38599 151
53.4061 188
53.42622 154
53.44633 159
53.46644 155
53.48656 182
53.50667 176
53.52678 207
53.5469 175
53.56701 172
53.58713 169
53.60724 182
53.62735 188
53.64747 169
53.66758 207
53.68769 186
53.70781 182
53.72792 188
53.74804 199
53.76815 173
53.78826 173
53.80838 215
53.82849 175
53.8486 200
53.86872 179
53.88883 183
53.90894 184
53.92906 164
53.94917 181
53.96929 199
53.9894 223
54.00951 192
54.02963 177
54.04974 190
54.06985 218
54.08997 211
54.11008 199
54.1302 197
54.15031 197
54.17042 189
54.19054 194
54.21065 207
54.23076 216
54.25088 200
54.27099 220
54.29111 199
54.31122 192
54.33133 201
54.35145 191
54.37156 207
54.39167 204
54.41179 228
54.4319 224
54.45201 202
54.47213 217
54.49224 221
54.51236 234
54.53247 204
54.55258 220
54.5727 242
54.59281 229
54.61292 252
54.63304 272
54.65315 301
54.67327 326
54.69338 321
54.71349 371
54.73361 468
54.75372 503
54.77383 596
54.79395 707
54.81406 834
54.83417 838
54.85429 902
54.8744 782
54.89452 638
54.91463 549
54.93474 529
54.95486 499
54.97497 501
54.99508 538
55.0152 488
55.03531 395
55.05543 327
55.07554 291
55.09565 269
55.11577 277
55.13588 285
55.15599 294
55.17611 287
55.19622 337
55.21634 359
55.23645 412
55.25656 467
55.27668 517
55.29679 489
55.3169 455
55.33702 466
55.35713 381
55.37724 349
55.39736 325
55.41747 364
55.43759 400
55.4577 365
55.47781 358
55.49793 319
55.51804 250
55.53815 260
55.55827 250
55.57838 199
55.5985 238
55.61861 225
55.63872 217
55.65884 227
55.67895 201
55.69906 219
55.71918 190
55.73929 197
55.75941 185
55.77952 186
55.79963 176
55.81975 180
55.83986 198
55.85997 199
55.88009 182
55.9002 226
55.92031 181
55.94043 183
55.96054 194
55.98066 181
56.00077 182
56.02088 182
56.041 162
56.06111 184
56.08122 173
56.10134 167
56.12145 162
56.14157 160
56.16168 189
56.18179 155
56.20191 135
56.22202 169
56.24213 162
56.26225 190
56.28236 171
56.30248 161
56.32259 181
56.3427 175
56.36282 192
56.38293 174
56.40304 151
56.42316 170
56.44327 164
56.46338 180
56.4835 153
56.50361 180
56.52373 184
56.54384 186
56.56395 172
56.58407 178
56.60418 205
56.62429 187
56.64441 199
56.66452 154
56.68464 194
56.70475 193
56.72486 194
56.74498 194
56.76509 205
56.7852 186
56.80532 181
56.82543 173
56.84554 171
56.86566 190
56.88577 190
56.90589 205
56.926 201
56.94611 183
56.96623 165
56.98634 166
57.00645 163
57.02657 197
57.04668 190
57.0668 186
57.08691 175
57.10702 196
57.12714 207
57.14725 167
57.16736 193
57.18748 229
57.20759 208
57.22771 180
57.24782 232
57.26793 205
57.28805 196
57.30816 226
57.32827 194
57.34839 213
57.3685 211
57.38861 228
57.40873 194
57.42884 215
57.44896 204
57.46907 204
57.48918 193
57.5093 190
57.52941 185
57.54952 184
57.56964 194
57.58975 179
57.60987 151
57.62998 186
57.65009 140
57.67021 166
57.69032 176
57.71043 157
57.73055 171
57.75066 156
57.77078 176
57.79089 168
57.811 184
57.83112 168
57.85123 135
57.87134 183
57.89146 189
57.91157 185
57.93168 182
57.9518 158
57.97191 172
57.99203 154
58.01214 156
58.03225 184
58.05237 176
58.07248 191
58.09259 186
58.11271 178
58.13282 158
58.15294 170
58.17305 171
58.19316 173
58.21328 192
58.23339 180
58.2535 156
58.27362 168
58.29373 174
58.31385 172
58.33396 180
58.35407 174
58.37419 167
58.3943 206
58.41441 169
58.43453 197
58.45464 186
58.47475 194
58.49487 221
58.51498 204
58.5351 214
58.55521 193
58.57532 225
58.59544 227
58.61555 215
58.63566 232
58.65578 227
58.67589 208
58.69601 223
58.71612 218
58.73623 196
58.75635 213
58.77646 194
58.79657 187
58.81669 169
58.8368 155
58.85691 182
58.87703 156
58.89714 191
58.91726 185
58.93737 162
58.95748 171
58.9776 170
58.99771 159
59.01782 160
59.03794 151
59.05805 178
59.07817 176
59.09828 167
59.11839 166
59.13851 175
59.15862 168
59.17873 173
59.19885 187
59.21896 181
59.23908 168
59.25919 182
59.2793 166
59.29942 186
59.31953 190
59.33964 177
59.35976 179
59.37987 185
59.39998 200
59.4201 201
59.44021 196
59.46033 208
59.48044 240
59.50055 225
59.52067 231
59.54078 243
59.56089 226
59.58101 241
59.60112 255
59.62124 285
59.64135 283
59.66146 305
59.68158 327
59.70169 387
59.7218 403
59.74192 472
59.76203 514
59.78215 602
59.80226 749
59.82237 884
59.84249 1063
59.8626 1295
59.88271 1530
59.90283 1646
59.92294 1665
59.94305 1622
59.96317 1294
59.98328 1022
60.0034 838
60.02351 870
60.04362 864
60.06374 943
60.08385 992
60.10396 895
60.12408 751
60.14419 551
60.16431 398
60.18442 319
60.20453 297
60.22465 243
60.24476 248
60.26487 226
60.28499 242
60.3051 239
60.32522 229
60.34533 219
60.36544 203
60.38556 220
60.40567 216
60.42578 214
60.4459 213
60.46601 220
60.48612 185
60.50624 197
60.52635 231
60.54647 207
60.56658 172
60.58669 178
60.60681 195
60.62692 175
60.64703 190
60.66715 171
60.68726 176
60.70738 181
60.72749 170
60.7476 193
60.76772 199
60.78783 179
60.80794 205
60.82806 191
60.84817 176
60.86828 193
60.8884 185
60.90851 205
60.92863 172
60.94874 178
60.96885 175
60.98897 215
61.00908 199
61.02919 198
61.04931 205
61.06942 224
61.08954 240
61.10965 237
61.12976 255
61.14988 246
61.16999 221
61.1901 254
61.21022 211
61.23033 196
61.25045 229
61.27056 249
61.29067 211
61.31079 222
61.3309 231
61.35101 224
61.37113 222
61.39124 210
61.41135 174
61.43147 214
61.45158 204
61.4717 188
61.49181 165
61.51192 201
61.53204 186
61.55215 187
61.57226 155
61.59238 201
61.61249 153
61.63261 187
61.65272 181
61.67283 190
61.69295 181
61.71306 191
61.73317 190
61.75329 170
61.7734 187
61.79352 181
61.81363 167
61.83374 209
61.85386 179
61.87397 209
61.89408 205
61.9142 186
61.93431 174
61.95442 199
61.97454 185
61.99465 198
62.01477 187
62.03488 182
62.05499 172
62.07511 196
62.09522 191
62.11533 226
62.13545 176
62.15556 196
62.17568 218
62.19579 228
62.2159 212
62.23602 211
62.25613 195
62.27624 204
62.29636 197
62.31647 202
62.33659 193
62.3567 205
62.37681 193
62.39693 208
62.41704 183
62.43715 195
62.45727 175
62.47738 222
62.49749 201
62.51761 210
62.53772 205
62.55784 201
62.57795 210
62.59806 208
62.61818 178
62.63829 172
62.6584 210
62.67852 236
62.69863 215
62.71875 207
62.73886 175
62.75897 197
62.77909 202
62.7992 211
62.81931 213
62.83943 216
62.85954 227
62.87965 219
62.89977 200
62.91988 196
62.94 218
62.96011 186
62.98022 199
63.00034 200
63.02045 214
63.04056 226
63.06068 224
63.08079 241
63.10091 243
63.12102 213
63.14113 231
63.16125 217
63.18136 203
63.20147 192
63.22159 188
63.2417 202
63.26182 206
63.28193 224
63.30204 182
63.32216 194
63.34227 171
63.36238 192
63.3825 195
63.40261 185
63.42272 185
63.44284 162
63.46295 176
63.48307 176
63.50318 208
63.52329 184
63.54341 183
63.56352 203
63.58363 211
63.60375 211
63.62386 176
63.64398 233
63.66409 224
63.6842 214
63.70432 244
63.72443 262
63.74454 252
63.76466 256
63.78477 271
63.80489 285
63.825 293
63.84511 307
63.86523 323
63.88534 340
63.90545 365
63.92557 411
63.94568 446
63.96579 509
63.98591 525
64.00602 513
64.02614 512
64.04625 435
64.06636 361
64.08648 313
64.10659 315
64.1267 317
64.14682 317
64.16693 344
64.18705 312
64.20716 274
64.22727 248
64.24739 258
64.2675 209
64.28761 191
64.30773 180
64.32784 185
64.34796 186
64.36807 172
64.38818 203
64.4083 168
64.42841 162
64.44852 146
64.46864 198
64.48875 158
64.50886 173
64.52898 157
64.54909 144
64.56921 167
64.58932 173
64.60943 139
64.62955 164
64.64966 160
64.66977 152
64.68989 156
64.71 162
64.73012 169
64.75023 173
64.77034 170
64.79046 153
64.81057 189
64.83068 175
64.8508 185
64.87091 166
64.89102 189
64.91114 206
64.93125 176
64.95137 183
64.97148 188
64.99159 210
65.01171 214
65.03182 194
65.05193 177
65.07205 198
65.09216 207
65.11228 229
65.13239 193
65.1525 211
65.17262 221
65.19273 250
65.21284 203
65.23296 212
65.25307 237
65.27319 212
65.2933 237
65.31341 205
65.33353 216
65.35364 229
65.37375 215
65.39387 201
65.41398 192
65.43409 185
65.45421 191
65.47432 183
65.49444 182
65.51455 197
65.53466 174
65.55478 184
65.57489 200
65.595 187
65.61512 189
65.63523 227
65.65535 214
65.67546 218
65.69557 208
65.71569 245
65.7358 218
65.75591 212
65.77603 222
65.79614 201
65.81626 180
65.83637 166
65.85648 180
65.8766 187
65.89671 192
65.91682 182
65.93694 195
65.95705 183
65.97716 211
65.99728 191
66.01739 204
66.03751 175
66.05762 189
66.07773 167
66.09785 221
66.11796 160
66.13807 209
66.15819 196
66.1783 216
66.19842 226
66.21853 180
66.23864 199
66.25876 202
66.27887 232
66.29898 221
66.3191 227
66.33921 225
66.35933 211
66.37944 245
66.39955 206
66.41967 185
66.43978 176
66.45989 222
66.48001 190
66.50012 199
66.52023 211
66.54035 161
66.56046 178
66.58058 187
66.60069 162
66.6208 195
66.64092 161
66.66103 171
66.68114 164
66.70126 169
66.72137 156
66.74149 164
66.7616 170
66.78171 143
66.80183 178
66.82194 177
66.84205 187
66.86217 185
66.88228 191
66.90239 189
66.92251 179
66.94262 203
66.96274 173
66.98285 172
67.00296 193
67.02308 200
67.04319 158
67.0633 152
67.08342 180
67.10353 199
67.12365 193
67.14376 181
67.16387 197
67.18399 188
67.2041 193
67.22421 194
67.24433 180
67.26444 194
67.28456 194
67.30467 220
67.32478 215
67.3449 256
67.36501 207
67.38512 231
67.40524 240
67.42535 253
67.44546 267
67.46558 259
67.48569 285
67.50581 315
67.52592 347
67.54603 390
67.56615 453
67.58626 539
67.60637 572
67.62649 717
67.6466 835
67.66672 925
67.68683 1002
67.70694 1072
67.72706 987
67.74717 869
67.76728 747
67.7874 607
67.80751 556
67.82763 591
67.84774 642
67.86785 655
67.88797 771
67.90808 786
67.92819 746
67.94831 768
67.96842 695
67.98853 717
68.00865 812
68.02876 896
68.04888 1114
68.06899 1196
68.0891 1307
68.10922 1379
68.12933 1325
68.14944 1220
68.16956 1049
68.18967 1029
68.20979 988
68.2299 1085
68.25001 1251
68.27013 1319
68.29024 1233
68.31035 1191
68.33047 1010
68.35058 815
68.3707 625
68.39081 558
68.41092 487
68.43104 544
68.45115 569
68.47126 514
68.49138 465
68.51149 408
68.5316 353
68.55172 276
68.57183 233
68.59195 212
68.61206 212
68.63217 220
68.65229 208
68.6724 186
68.69251 209
68.71263 189
68.73274 217
68.75286 208
68.77297 170
68.79308 192
68.8132 184
68.83331 211
68.85342 191
68.87354 204
68.89365 180
68.91376 169
68.93388 186
68.95399 168
68.97411 197
68.99422 170
69.01433 177
69.03445 169
69.05456 210
69.07467 174
69.09479 166
69.1149 152
69.13502 158
69.15513 166
69.17524 160
69.19536 145
69.21547 162
69.23558 172
69.2557 190
69.27581 165
69.29593 153
69.31604 166
69.33615 183
69.35627 156
69.37638 154
69.39649 161
69.41661 163
69.43672 146
69.45683 165
69.47695 181
69.49706 142
69.51718 167
69.53729 168
69.5574 142
69.57752 169
69.59763 154
69.61774 174
69.63786 153
69.65797 177
69.67809 160
69.6982 151
69.71831 162
69.73843 157
69.75854 144
69.77865 159
69.79877 174
69.81888 175
69.839 146
69.85911 158
69.87922 150
69.89934 144
69.91945 172
69.93956 169
69.95968 157
69.97979 167
69.9999 175
70.02002 179
70.04013 187
70.06025 166
70.08036 151
70.10047 140
70.12059 171
70.1407 165
70.16081 171
70.18093 160
70.20104 174
70.22116 143
70.24127 171
70.26138 178
70.2815 171
70.30161 171
70.32172 131
70.34184 140
70.36195 134
70.38207 147
70.40218 123
70.42229 157
70.44241 144
70.46252 135
70.48263 174
70.50275 164
70.52286 154
70.54297 160
70.56309 174
70.5832 145
70.60332 183
70.62343 154
70.64354 162
70.66366 156
70.68377 169
70.70388 183
70.724 153
70.74411 160
70.76423 192
70.78434 161
70.80445 165
70.82457 185
70.84468 180
70.86479 177
70.88491 174
70.90502 146
70.92513 146
70.94525 156
70.96536 168
70.98548 134
71.00559 170
71.0257 189
71.04582 152
71.06593 161
71.08604 142
71.10616 150
71.12627 151
71.14639 160
71.1665 146
71.18661 164
71.20673 172
71.22684 136
71.24695 157
71.26707 178
71.28718 173
71.3073 154
71.32741 133
71.34752 166
71.36764 180
71.38775 153
71.40786 173
71.42798 173
71.44809 170
71.4682 187
71.48832 169
71.50843 196
71.52855 189
71.54866 179
71.56877 198
71.58889 178
71.609 181
71.62911 190
71.64923 161
71.66934 199
71.68946 166
71.70957 170
71.72968 165
71.7498 178
71.76991 163
71.79002 181
71.81014 156
71.83025 179
71.85037 190
71.87048 162
71.89059 159
71.91071 155
71.93082 174
71.95093 148
71.97105 170
71.99116 158
72.01127 176
72.03139 177
72.0515 176
72.07162 178
72.09173 161
72.11184 187
72.13196 170
72.15207 168
72.17218 179
72.1923 213
72.21241 200
72.23253 191
72.25264 207
72.27275 212
72.29287 188
72.31298 188
72.33309 201
72.35321 179
72.37332 186
72.39344 174
72.41355 171
72.43366 194
72.45378 170
72.47389 198
72.494 160
72.51412 176
72.53423 197
72.55434 159
72.57446 163
72.59457 174
72.61469 186
72.6348 166
72.65491 168
72.67503 155
72.69514 151
72.71525 194
72.73537 188
72.75548 171
72.7756 215
72.79571 152
72.81582 197
72.83594 192
72.85605 195
72.87616 192
72.89628 203
72.91639 177
72.9365 175
72.95662 179
72.97673 192
72.99685 204
73.01696 201
73.03707 209
73.05719 219
73.0773 227
73.09741 224
73.11753 214
73.13764 226
73.15776 234
73.17787 210
73.19798 215
73.2181 242
73.23821 226
73.25832 245
73.27844 292
73.29855 307
73.31867 288
73.33878 381
73.35889 404
73.37901 431
73.39912 429
73.41923 481
73.43935 476
73.45946 439
73.47957 415
73.49969 356
73.5198 323
73.53992 280
73.56003 291
73.58014 304
73.60026 316
73.62037 314
73.64048 347
73.6606 334
73.68071 260
73.70083 257
73.72094 263
73.74105 194
73.76117 205
73.78128 203
73.80139 165
73.82151 177
73.84162 169
73.86174 169
73.88185 156
73.90196 167
73.92208 159
73.94219 172
73.9623 171
73.98242 187
74.00253 173
74.02264 172
74.04276 154
74.06287 174
74.08299 154
74.1031 186
74.12321 157
74.14333 168
74.16344 176
74.18355 158
74.20367 173
74.22378 156
74.2439 170
74.26401 169
74.28412 154
74.30424 182
74.32435 171
74.34446 166
74.36458 173
74.38469 176
74.40481 177
74.42492 178
74.44503 183
74.46515 185
74.48526 174
74.50537 190
74.52549 189
74.5456 163
74.56571 171
74.58583 145
74.60594 195
74.62606 174
74.64617 195
74.66628 186
74.6864 173
74.70651 173
74.72662 151
74.74674 175
74.76685 182
74.78697 176
74.80708 178
74.82719 165
74.84731 196
74.86742 211
74.88753 165
74.90765 184
74.92776 164
74.94787 176
74.96799 169
74.9881 195
75.00822 173
