3.00117 20137.0023689951
3.02128 19911.6708018706
3.0414 19038
3.06151 18735.7681386755
3.08162 17992.3278091984
3.10174 17660.8905293532
3.12185 17469.6752848951
3.14197 16548.8718207608
3.16208 16415.1512419486
3.18219 15950.2991712897
3.20231 15482.8815435946
3.22242 15155.1755616313
3.24253 14180.4700505883
3.26265 14468.4728745976
3.28276 14036.668820766
3.30288 13277.4024425022
3.32299 13135.1221282866
3.3431 12632
3.36322 12110.3699093441
3.38333 11485.4672762706
3.40344 11451.1664936714
3.42356 11301.0585153566
3.44367 10588.8092153955
3.46379 10314.1290206867
3.4839 9916
3.50401 9597.92973685386
3.52413 9455.43504624588
3.54424 8919.24286960978
3.56435 8815.05007844633
3.58447 8601.73499959876
3.60458 8058.27781336387
3.62469 7947.17620574262
3.64481 7378.8308238728
3.66492 7324.85027847573
3.68504 6901.0241361041
3.70515 6626.04102631955
3.72526 6630.77219029503
3.74538 5948.49343273347
3.76549 5865.96091719924
3.7856 5763
3.80572 5363.91179026386
3.82583 5405.49050218805
3.84595 4775.22311738431
3.86606 4871.02259581969
3.88617 4540.51937437798
3.90629 4442.94093563037
3.9264 4513
3.94651 4087.82641914665
3.96663 3938.82507730089
3.98674 3743.57241317746
4.00686 3598.08862600855
4.02697 3546.29659738341
4.04708 3263.16363837107
4.0672 3213
4.08731 2978.94304550948
4.10742 3024.03452308699
4.12754 2889.4186110998
4.14765 2623.16586347421
4.16776 2694.05304055845
4.18788 2491.22002389046
4.20799 2399.98547214079
4.22811 2418.9441969898
4.24822 2210.85284960511
4.26833 2214.1335436066
4.28845 2245.73830210546
4.30856 2126.8601199444
4.32867 2259.20297793098
4.34879 1916.07801107223
4.3689 2008
4.38902 1833.87164766584
4.40913 1898.26442995214
4.42924 1954.56804421691
4.44936 1640.16038811434
4.46947 1795.90265800654
4.48958 1675.07381411338
4.5097 1756
4.52981 1741.91577847418
4.54992 1547.94233082266
4.57004 1612.0233887701
4.59015 1525.14310627818
4.61027 1559.90674109972
4.63038 1568.06316840768
4.65049 1466.04486011718
4.67061 1431.00653962925
4.69072 1429.92986783697
4.71083 1320.90822424638
4.73095 1310.90008967563
4.75106 1238.05248342894
4.77118 1269.9769491016
4.79129 1260.00013165097
4.8114 1283
4.83152 1292.02868950671
4.85163 1301.88771354945
4.87174 1179.87176309586
4.89186 1192.98759995248
4.91197 1150.07483390624
4.93209 1126.00333703719
4.9522 1119
4.97231 1095.9906031509
4.99243 1069.91731996509
5.01254 1042.15629521172
5.03265 1159.97365366725
5.05277 1023.2658658811
5.07288 937.964156726416
5.09299 1009.00425574168
5.11311 939.000762643983
5.13322 1005.9937459131
5.15334 904.843071895495
5.17345 915.123329772442
5.19356 950.96362971635
5.21368 940.047894354051
5.23379 873.029619726065
5.2539 837
5.27402 829.018448213045
5.29413 862.035353696809
5.31425 858.941585471994
5.33436 822.098116487129
5.35447 771.063852839402
5.37459 744.006796806336
5.3947 738
5.41481 728.987626135833
5.43493 693.953859477475
5.45504 695.093020662979
5.47516 743.0185826461
5.49527 712.934173211701
5.51538 781.053325410694
5.5355 634
5.55561 694.028104409136
5.57572 674.962924935133
5.59584 669.035169324859
5.61595 682.030901753969
5.63606 657.0080081538
5.65618 677.983847575062
5.67629 672.007901085911
5.69641 642.971293046792
5.71652 598.024598706334
5.73663 668.050927131893
5.75675 644.948695996164
5.77686 634.105755585839
5.79697 573.969345057706
5.81709 641.004343895283
5.8372 561
5.85732 624.055336136975
5.87743 613.941230272587
5.89754 589.999789447782
5.91766 596.028043779353
5.93777 567.018634608452
5.95788 575.996149297714
5.978 564
5.99811 548.981542827262
6.01823 516.02446972749
6.03834 568.057513582284
6.05845 555.037313710142
6.07857 562.976188522572
6.09868 569.006817035197
6.11879 555.006209448737
6.13891 555.007352752421
6.15902 578.022272990209
6.17913 590.000949364079
6.19925 567.862887789561
6.21936 522.96210416737
6.23948 574.002687955196
6.25959 512.020381175706
6.2797 526
6.29982 525.992946882198
6.31993 521.990854555938
6.34004 512.985223268337
6.36016 515.964670214029
6.38027 538.978572278401
6.40039 532.013469421992
6.4205 510
6.44061 527.993538191161
6.46073 496.004375185104
6.48084 523.979210049769
6.50095 479.029588712726
6.52107 516.944669448543
6.54118 501.069927320156
6.56129 436.997875580761
6.58141 501.026344314436
6.60152 501.978807585427
6.62164 483.962627962065
6.64175 466.97866249377
6.66186 466.995694503757
6.68198 459.023885200792
6.70209 438.995063266276
6.7222 474
6.74232 476.987212280923
6.76243 480.06007194761
6.78255 524.989919367074
6.80266 475.077316467093
6.82277 474.985411801366
6.84289 474.001625817714
6.863 473
6.88311 471.002495736228
6.90323 477.996442097371
6.92334 474.02681478927
6.94346 498.977573801695
6.96357 481.056297907659
6.98368 457.983399926405
7.0038 478
7.02391 411.999179205341
7.04402 472.026903896014
7.06414 441.966632249689
7.08425 468.923283470107
7.10436 469.050965092017
7.12448 443.006156655531
7.14459 454.995893504651
7.16471 460.012041353757
7.18482 472.949167047301
7.20493 397.990958855018
7.22505 464.121643825071
7.24516 430.185582641333
7.26527 369.936995405384
7.28539 473.972373485466
7.3055 452
7.32562 470.005543875442
7.34573 454.002726524503
7.36584 464.944735171587
7.38596 416.008769751593
7.40607 465.927295556311
7.42618 468.034123337657
7.4463 431
7.46641 439.006320077766
7.48653 438.984316824509
7.50664 431.010584215831
7.52675 441.011868552592
7.54687 423.015236335459
7.56698 419.020341909605
7.58709 394.995989134546
7.60721 419.995551413753
7.62732 393.021509519203
7.64743 443.992056329475
7.66755 387.960860741743
7.68766 433.924048768361
7.70778 429.014012302532
7.72789 432.992429990373
7.748 443
7.76812 415.953254115821
7.78823 396.07736634384
7.80834 460.950111398913
7.82846 368.069535184931
7.84857 412.967942766371
7.86869 388.993849174507
7.8888 439
7.90891 396.991808211892
7.92903 427.034249889326
7.94914 411.939061458962
7.96925 394.990911685498
7.98937 414.962468257088
8.00948 424.01714903613
8.0296 405
8.04971 438.001714211565
8.06982 395.945408318027
8.08994 371.030154185809
8.11005 403.038682751177
8.13016 409.921890090844
8.15028 455.016783548841
8.17039 393.011180151032
8.1905 423
8.21062 402.006911769059
8.23073 438.010140685311
8.25085 410.981650876286
8.27096 428.014261191475
8.29107 392.031197786406
8.31119 402.992248955933
8.3313 402
8.35141 399.009096481842
8.37153 415.970572548222
8.39164 372.964808068644
8.41176 395.939752608814
8.43187 408.993330875648
8.45198 419.976235002243
8.4721 444
8.49221 420.979808686278
8.51232 397.016386216962
8.53244 431.009578929862
8.55255 409.9919285177
8.57266 429.047356412237
8.59278 376.009502862726
8.61289 417.985683164183
8.63301 405.992288246647
8.65312 404.994336086723
8.67323 400.030247151052
8.69335 433.021768840441
8.71346 412.038312969962
8.73357 405.023337012888
8.75369 391.989118095977
8.7738 433
8.79392 408.981011365924
8.81403 420.037998371132
8.83414 427.948630556982
8.85426 390.023719845307
8.87437 408.974898878585
8.89448 398.031100196256
8.9146 373
8.93471 393.0074725657
8.95483 400.030754569293
8.97494 421.979346417644
8.99505 381.088875248726
9.01517 376.972319520521
9.03528 394.996625857272
9.05539 385.003992319374
9.07551 384.999351260689
9.09562 377.992253537506
9.11573 386.053006302366
9.13585 419.979503444508
9.15596 372.088133664192
9.17608 361.988310342113
9.19619 381.986486597813
9.2163 398
9.23642 367.980639265858
9.25653 373.022978247693
9.27664 378.981792640097
9.29676 376.934251082197
9.31687 414.026917320348
9.33699 354.014624462941
9.3571 382
9.37721 392.994036332887
9.39733 373.976646546142
9.41744 371.017250630122
9.43755 390.921150533875
9.45767 405.050267896275
9.47778 362.980772159235
9.4979 419
9.51801 356.985420558402
9.53812 385.017325158691
9.55824 371.00304846084
9.57835 391.994315079452
9.59846 369.99086717904
9.61858 399.992094947682
9.63869 382.000132343524
9.6588 402
9.67892 379.998040212684
9.69903 407.035824602131
9.71915 399.914811080237
9.73926 373.972023938514
9.75937 407.001106592208
9.77949 373.006843217051
9.7996 391
9.81971 374.994408668423
9.83983 368.957017208644
9.85994 343.060426872157
9.88006 402.982169489266
9.90017 357.036766199886
9.92028 376.988743618204
9.9404 365
9.96051 391.008355513498
9.98062 373.956454977008
10.00074 333.974643614535
10.02085 347.958445655576
10.04097 350.009071501571
10.06108 346.995366867563
10.08119 360.989848516618
10.10131 373.997359275147
10.12142 366.015738434504
10.14153 398.021115557304
10.16165 379.923759594341
10.18176 364.980972837552
10.20187 386.979718342221
10.22199 391.991454611811
10.2421 417
10.26222 393.958270858939
10.28233 368.019598238512
10.30244 401.021193981159
10.32256 376.062692525368
10.34267 371.957488433812
10.36278 401.007585591417
10.3829 367
10.40301 387.008299213214
10.42313 379.977549799739
10.44324 367.973131982726
10.46335 342.110727333457
10.48347 308.977727618542
10.50358 359.961750390886
10.52369 358.010730972186
10.54381 357.019365172931
10.56392 411.024793754957
10.58403 388.936047035943
10.60415 358.976379715148
10.62426 361.005990350803
10.64438 353.993424072559
10.66449 368.999745232105
10.6846 356
10.70472 368.006902814435
10.72483 369.02061687295
10.74494 398.055598748274
10.76506 406.029134748377
10.78517 384.017161230856
10.80529 388.995265330059
10.8254 394
10.84551 387.986993452848
10.86563 359.99879284064
10.88574 382.023106680107
10.90585 377.979407469297
10.92597 399.986404920337
10.94608 381.035395040943
10.9662 357
10.98631 390.022657051303
11.00642 411.97861532604
11.02654 370.96678030982
11.04665 392.922572277157
11.06676 399.047429783103
11.08688 373.992568476327
11.10699 404.994131630505
11.1271 389
11.14722 382.960733608263
11.16733 350.075227619126
11.18745 447.075350728411
11.20756 393.084831346714
11.22767 411.947309239361
11.24779 417.013237149577
11.2679 378
11.28801 369.002834176235
11.30813 387.052280816951
11.32824 415.990451328741
11.34836 393.989652745511
11.36847 423.987917595894
11.38858 399.022239475038
11.4087 389
11.42881 361.0016500242
11.44892 414.085198854634
11.46904 472.980215937766
11.48915 413.120552666024
11.50927 409.977439658733
11.52938 417.997136646189
11.54949 416.004276586493
11.56961 416.012709899281
11.58972 445.996443631004
11.60983 411.965019822027
11.62995 431.130890783181
11.65006 468.038200402671
11.67017 426.982429158392
11.69029 483.990250739513
11.7104 451
11.73052 484.052621477533
11.75063 504.952859212492
11.77074 452.960544920661
11.79086 473.964550710422
11.81097 473.982823881649
11.83108 514.941295632292
11.8512 554
11.87131 513.984262075195
11.89143 499.958432694871
11.91154 477.06367523014
11.93165 556.825658604799
11.95177 564.077468952437
11.97188 518.976223026616
11.99199 597.971179165304
12.01211 605.001228076561
12.03222 617.992314654073
12.05234 585.942890089517
12.07245 580.021703529745
12.09256 603.905526322656
12.11268 652.980092356757
12.13279 658.981277031433
12.1529 723
12.17302 727.008866399231
12.19313 743.98219809725
12.21324 723.053050306902
12.23336 790.909120397341
12.25347 787.026728511753
12.27359 796.978116876641
12.2937 833
12.31381 797.018235239537
12.33393 891.071089689543
12.35404 848.856861660809
12.37415 798.095293497249
12.39427 757.074656067519
12.41438 713.016497219479
12.4345 702
12.45461 624.974080883237
12.47472 614.99636679895
12.49484 582.881736007068
12.51495 528.047497943024
12.53506 545.949686152712
12.55518 544.033818220517
12.57529 504.007547318462
12.5954 501
12.61552 434.946092479714
12.63563 415.994518163606
12.65575 399.910017053064
12.67586 383.896063575532
12.69597 469.944358359568
12.71609 443.011855609709
12.7362 450
12.75631 412.970851341505
12.77643 363.967628790509
12.79654 380.09284416695
12.81666 414.03010433202
12.83677 363.055885802802
12.85688 368.970456955933
12.877 405
12.89711 422.977101150241
12.91722 342.953666514409
12.93734 355.056889548921
12.95745 369.967675365436
12.97757 380.008722517507
12.99768 352.043246005321
13.01779 326.989684210409
13.03791 369.005644615697
13.05802 336.963897233362
13.07813 322.993852081452
13.09825 317.989515494537
13.11836 329.91697029031
13.13847 372.001265284101
13.15859 337.008427221065
13.1787 354
13.19882 348.994583859587
13.21893 340.952520434131
13.23904 296.953322624311
13.25916 310.929343391388
13.27927 336.002417678339
13.29938 320.001814631811
13.3195 346
13.33961 356.978859561328
13.35973 290.949453439772
13.37984 293.978731562969
13.39995 275.921494793114
13.42007 333.99363662691
13.44018 279.038972921265
13.46029 301.972017986656
13.48041 336.994058262615
13.50052 287.949666496661
13.52064 273.044696543546
13.54075 303.014806491644
13.56086 286.014522310461
13.58098 301.979859090284
13.60109 316.990398537814
13.6212 330
13.64132 293.965692064201
13.66143 287.033606949466
13.68154 316.020974403222
13.70166 296.074529668002
13.72177 272.984460527086
13.74189 305.987303587376
13.762 308
13.78211 297.99028257813
13.80223 277.993487667443
13.82234 299.079982808284
13.84245 320.075675591141
13.86257 270.008267634405
13.88268 302.998766504536
13.9028 277
13.92291 340.011195030356
13.94302 300.960182522989
13.96314 295.00538681928
13.98325 281.076000610334
14.00336 262.952998169466
14.02348 303.995377810628
14.04359 262.022389215962
14.06371 258.018603808296
14.08382 291.985470121345
14.10393 247.986286763817
14.12405 284.068898555163
14.14416 276.035170733362
14.16427 271.989700100432
14.18439 283.993040422975
14.2045 292
14.22461 286.001734614932
14.24473 281.938603445808
14.26484 238.033666082166
14.28496 301.934324180904
14.30507 286.008077123639
14.32518 303.008443440081
14.3453 266
14.36541 274.001678084088
14.38552 268.012874048258
14.40564 295.015798636864
14.42575 270.095633677783
14.44587 250.97908959777
14.46598 277.993864545
14.48609 271.987842280995
14.50621 318.007937460329
14.52632 294.980689625949
14.54643 288.962296886393
14.56655 253.993463752767
14.58666 288.929126203001
14.60677 297.016479800203
14.62689 275.016570975701
14.647 257
14.66712 295.998979901507
14.68723 250.942534924652
14.70734 255.064288238089
14.72746 281.995830469804
14.74757 266.011908181174
14.76768 263.027108496487
14.7878 227
14.80791 260.008855374758
14.82803 245.97851723769
14.84814 253.037676767487
14.86825 277.914643851159
14.88837 302.014225513399
14.90848 266.031757145713
14.92859 259.994458797795
14.94871 280.014586254535
14.96882 295.97964655561
14.98894 254.95499373986
15.00905 259.000568011094
15.02916 244.022240148431
15.04928 255.964655659195
15.06939 284.005479588277
15.0895 244
15.10962 255.033283686317
15.12973 270.961905454223
15.14984 238.034775324808
15.16996 289.975518885814
15.19007 250.046279020794
15.21019 270.972873352348
15.2303 310
15.25041 264.978304982859
15.27053 250.002600052009
15.29064 258.031255706176
15.31075 267.033756883557
15.33087 243.009579575384
15.35098 265.964109706575
15.3711 283
15.39121 249.993843443161
15.41132 266.016417364469
15.43144 260.958759087799
15.45155 247.9690928168
15.47166 277.956116245406
15.49178 272.028313076283
15.51189 249.996082322194
15.53201 272.999918788608
15.55212 255.007660245686
15.57223 290.030641440258
15.59235 283.992529231623
15.61246 285.046467327692
15.63257 252.994766901009
15.65269 284.995526886053
15.6728 263
15.69291 268.990436230242
15.71303 237.01245019136
15.73314 275.008332319919
15.75326 240.031587331284
15.77337 256.991813766377
15.79348 236.017829406657
15.8136 239
15.83371 262.023548612186
15.85382 307.002506667477
15.87394 263.897188405312
15.89405 241.976667842954
15.91417 259.99638186487
15.93428 248.000951602966
15.95439 263.99336991547
15.97451 260.993361357902
15.99462 248.995087874769
16.01473 264.062970441821
16.03485 296.950633315634
16.05496 249.015394469251
16.07508 286.97908442408
16.09519 261.020025971422
16.1153 235
16.13542 242.046940682526
16.15553 293.002002380189
16.17564 249.942378429162
16.19576 261.957402476381
16.21587 267.008399808475
16.23598 263.99287383771
16.2561 266
16.27621 237.008058125872
16.29633 284.022896358489
16.31644 251.934362920279
16.33655 257.904398901866
16.35667 293.992214025755
16.37678 268.028889516084
16.39689 250.010489383888
16.41701 239.013139310072
16.43712 281.008456512603
16.45724 258.998894356884
16.47735 285.015071495525
16.49746 261.035006856108
16.51758 265.992648929168
16.53769 262.004465249765
16.5578 261
16.57792 283.017758527917
16.59803 288.998527367864
16.61814 285.990181965859
16.63826 275.041982177091
16.65837 250.027619804382
16.67849 244.99749188095
16.6986 257
16.71871 266.991904209246
16.73883 246.019119719624
16.75894 289.062356968138
16.77905 285.052593263529
16.79917 266.023615738501
16.81928 261.984698532674
16.8394 275
16.85951 246.005897068295
16.87962 287.007440565885
16.89974 248.934347303172
16.91985 250.95885900277
16.93996 258.011983142211
16.96008 257.971499376399
16.98019 294.998847532206
17.00031 254.976720858172
17.02042 246.037810273982
17.04053 293.013290002442
17.06065 259.920500800128
17.08076 263.936471717966
17.10087 293.990559431845
17.12099 280.004480907963
17.1411 281
17.16121 267.003571631531
17.18133 284.988920755147
17.20144 252.960731008598
17.22156 256.995219806361
17.24167 249.998202982495
17.26178 265.980409223336
17.2819 283
17.30201 292.992622213625
17.32212 266.992290597083
17.34224 275.989853221183
17.36235 258.989613969441
17.38247 276.017316865258
17.40258 244.002548309042
17.42269 283.97728804857
17.44281 293.985033845823
17.46292 260.002667271834
17.48303 293.024701728107
17.50315 273.932504731234
17.52326 262.001694836665
17.54338 269.981360659528
17.56349 280.010008465354
17.5836 257
17.60372 315.033589735647
17.62383 307.992355109557
17.64394 311.955802621471
17.66406 279.979837011999
17.68417 313.022486555719
17.70428 257.018366766422
17.7244 295
17.74451 288.987999800166
17.76463 275.002844983862
17.78474 295.068953572926
17.80485 322.991910356443
17.82497 299.053500678786
17.84508 272.012741060286
17.86519 275.99105678051
17.88531 286.992954236112
17.90542 265.005614966539
17.92554 292.013325641352
17.94565 270.96329235165
17.96576 284.937936609261
17.98588 312.984174625106
18.00599 311.008321811837
18.0261 287
18.04622 274.013516581485
18.06633 293.990573582648
18.08645 264.96141572887
18.10656 269.012859892611
18.12667 261.951605252279
18.14679 311.997301933487
18.1669 277
18.18701 310.012285502449
18.20713 298.964397263331
18.22724 281.97363818329
18.24735 269.032209502907
18.26747 271.947517444887
18.28758 312.99593474387
18.3077 276
18.32781 260.998525743249
18.34792 268.027008481673
18.36804 298.010758857748
18.38815 284.994579222459
18.40826 308.9626074027
18.42838 301.029042051641
18.44849 275.001957517885
18.46861 287.001414325119
18.48872 269.977595817022
18.50883 262.018326585182
18.52895 288.06850275213
18.54906 301.01113234466
18.56917 287.012454064355
18.58929 292.992589023118
18.6094 311
18.62951 322.996115613795
18.64963 300.970856600474
18.66974 285.950172647252
18.68986 263.982396976949
18.70997 298.956988119748
18.73008 300.015917819407
18.7502 290
18.77031 315.013921536007
18.79042 316.960934642973
18.81054 274.012004790547
18.83065 323.910913952339
18.85077 313.04846766899
18.87088 298.980906064447
18.89099 330.995249775615
18.91111 310.98940261315
18.93122 302.991764672904
18.95133 298.023016397733
18.97145 325.031598993755
18.99156 316.024420583021
19.01168 310.008573741857
19.03179 300.000624814768
19.0519 307
19.07202 307.003783726823
19.09213 317.015246747716
19.11224 312.946769802385
19.13236 277.045490226999
19.15247 286.939537598537
19.17258 336.959592986825
19.1927 344
19.21281 309.001473333533
19.23293 346.038961452047
19.25304 336.952916363636
19.27315 326.971283162369
19.29327 343.006618962799
19.31338 332.975802219848
19.33349 368.008960255287
19.35361 315.998480385099
19.37372 377.05719128629
19.39384 387.977976426844
19.41395 378.981945750546
19.43406 383.944340680867
19.45418 413.999728747836
19.47429 400.989016411535
19.4944 454
19.51452 425.927954374304
19.53463 382.063293560064
19.55475 478.147498110295
19.57486 463.073304491839
19.59497 465.922718308998
19.61509 534.977439861495
19.6352 549
19.65531 586.021972344356
19.67543 631.079810738527
19.69554 684.071579544657
19.71565 722.80644189714
19.73577 818.915052847978
19.75588 834.969303958641
19.776 904
19.79611 951.009385374759
19.81622 975.062693037741
19.83634 1057.09394791622
19.85645 1040.14114890037
19.87656 994.018334172561
19.89668 1032.92824641619
19.91679 1100.97930845396
19.93691 1086.96197615392
19.95702 1016.0091164591
19.97713 1089.06893352413
19.99725 1058.83722321732
20.01736 1004.07724009752
20.03747 990.974023866947
20.05759 1002.01841293309
20.0777 942
20.09782 979.032782170044
20.11793 984.015324629352
20.13804 997.966212715486
20.15816 934.18213891332
20.17827 879.955627049831
20.19838 953.968185980024
20.2185 913
20.23861 880.991233680693
20.25872 863.981879647765
20.27884 851.000987933749
20.29895 866.937705724918
20.31907 884.00273098501
20.33918 857.04730058373
20.35929 825.991022173665
20.37941 884.027953847682
20.39952 894.964209074486
20.41963 848.973995844568
20.43975 870.077031132558
20.45986 870.086219026913
20.47998 818.013563819458
20.50009 855.972323242478
20.5202 893
20.54032 884.967284243269
20.56043 864.04251788439
20.58054 914.012353570599
20.60066 878.022206968899
20.62077 911.951423423676
20.64088 939.933337181448
20.661 1052
20.68111 1156.05178169266
20.70123 1309.35174147453
20.72134 1574.413265873
20.74145 1753.34019363956
20.76157 2155.29343427086
20.78168 2567.71858837202
20.80179 2795.8427927028
20.82191 3164.11981071266
20.84202 3179.87258597369
20.86214 2969.38058355695
20.88225 2608.15244987037
20.90236 2289.72377624586
20.92248 1881.38136856447
20.94259 1565.13699303396
20.9627 1318
20.98282 1165.89659699884
21.00293 1071.82416414932
21.02305 940.751362082553
21.04316 894.03067431311
21.06327 888.990380043849
21.08339 883.021606981496
21.1035 814
21.12361 784.990017140373
21.14373 769.004344291646
21.16384 773.951238108257
21.18395 730.053570808192
21.20407 737.000113621481
21.22418 731.972273339985
21.2443 766
21.26441 710.002264402931
21.28452 762.997554103248
21.30464 700.956219882624
21.32475 739.946838158381
21.34486 720.012831851138
21.36498 733.016723052857
21.38509 680.022970973228
21.40521 682.024126918352
21.42532 727.99617819752
21.44543 687.977062751021
21.46555 693.909108076465
21.48566 632.012390599512
21.50577 676.983770035047
21.52589 632.018340078238
21.546 646
21.56612 662.955493716369
21.58623 607.02709430925
21.60634 682.059058668052
21.62646 639.080748884765
21.64657 636.007749427905
21.66668 606.037381028247
21.6868 594
21.70691 637.006253253782
21.72702 599.938395751799
21.74714 575.098036288975
21.76725 644.008528161264
21.78737 581.026514905472
21.80748 624.982970215254
21.82759 581.025115876599
21.84771 562.99942117751
21.86782 572.028003056821
21.88793 614.062211582332
21.90805 626.925197276785
21.92816 579.051965194943
21.94828 579.009001085931
21.96839 567.985417875235
21.9885 629
22.00862 611.936191143724
22.02873 552.980319052012
22.04884 575.012377648005
22.06896 548.052595309505
22.08907 541.00346392383
22.10919 530.009100731757
22.1293 529
22.14941 575.999091234585
22.16953 531.965230481646
22.18964 546.010638348716
22.20975 533.980320576978
22.22987 563.974823072769
22.24998 542.050964315473
22.27009 501.000436013971
22.29021 531.010736896367
22.31032 532.007418282659
22.33044 542.969343414042
22.35055 515.007302275696
22.37066 541.998666361389
22.39078 514.008629245888
22.41089 537.989093573292
22.431 536
22.45112 535.021059184208
22.47123 561.005081955566
22.49135 532.897919348035
22.51146 505.013826428159
22.53157 514.977341374104
22.55169 511.017797591862
22.5718 480
22.59191 542.018265071465
22.61203 534.992585684856
22.63214 543.978689665655
22.65225 503.118700854573
22.67237 475.00751881985
22.69248 490.968497306237
22.7126 518
22.73271 520.012980516255
22.75282 550.987398091453
22.77294 502.947032786278
22.79305 513.979569388714
22.81316 494.065741492827
22.83328 484.963233049039
22.85339 530.003476066187
22.87351 489.001598460163
22.89362 526.985368212591
22.91373 477.028910278672
22.93385 549.009087925375
22.95396 480.049658269549
22.97407 516.003811811131
22.99419 460.012130915154
23.0143 491
23.03442 487.005104525623
23.05453 503.990327755124
23.07464 481.005219494658
23.09476 516.931066506546
23.11487 510.081184836814
23.13498 468.961015557582
23.1551 549
23.17521 489.983609164714
23.19532 505.988814022341
23.21544 473.053422685708
23.23555 547.926843003388
23.25567 506.068243757216
23.27578 493.011465350284
23.29589 472.005063842867
23.31601 481.008060320705
23.33612 481.975435320725
23.35623 445.966357844948
23.37635 459.114716305823
23.39646 500.000343146497
23.41658 465.027642096256
23.43669 467.992411251702
23.4568 489
23.47692 514.970877356608
23.49703 449.941918551913
23.51714 471.106193421056
23.53726 500.049067849962
23.55737 456.995636212416
23.57749 506.98332979707
23.5976 493
23.61771 477.997694824823
23.63783 479.008223481803
23.65794 478.971287082199
23.67805 479.863445515383
23.69817 547.002162216331
23.71828 473.069174790159
23.73839 462.986357051851
23.75851 483.996365549431
23.77862 471.025645668237
23.79874 526.060417169999
23.81885 511.938569059799
23.83896 489.083976839026
23.85908 453.980193419225
23.87919 516.976972312809
23.8993 519
23.91942 524.014676363049
23.93953 531.985035095455
23.95965 513.988238332107
23.97976 522.00197346253
23.99987 521.951259003505
24.01999 553.018353770679
24.0401 479
24.06021 517.993813840196
24.08033 454.987441880232
24.10044 506.021264167259
24.12056 470.972674577925
24.14067 531.981457225654
24.16078 479.038746385735
24.1809 491
24.20101 501.012012082703
24.22112 530.000255638673
24.24124 504.973524503355
24.26135 518.950567633384
24.28146 526.006374696742
24.30158 518.009911106683
24.32169 515.99350913683
24.34181 537.007322882005
24.36192 530.973138827203
24.38203 510.018296070548
24.40215 533.967883689231
24.42226 499.981405537744
24.44237 555.937877399802
24.46249 556.003785599591
24.4826 561
24.50272 565.019033999113
24.52283 590.009948439318
24.54294 579.998118811943
24.56306 588.017668653365
24.58317 569.990373785159
24.60328 606.960355232608
24.6234 631
24.64351 641.998213023446
24.66362 627.98820466072
24.68374 635.059920875885
24.70385 669.957489776453
24.72397 694.878938179259
24.74408 806.931285783086
24.76419 796.026880911869
24.78431 768.015043833451
24.80442 840.064881613073
24.82453 853.950296088393
24.84465 845.206674559458
24.86476 963.939608690206
24.88488 879.102776247315
24.90499 831.008000892876
24.9251 817
24.94522 798.994042283112
24.96533 788.937960332058
24.98544 722.888584454301
25.00556 700.002234525913
25.02567 704.989731284551
25.04579 712.993735289657
25.0659 727
25.08601 718.985290686458
25.10613 699.038197980761
25.12624 740.98694999772
25.14635 692.049993885055
25.16647 729.919410947915
25.18658 764.977083926002
25.20669 791.98013415984
25.22681 818.989635959347
25.24692 783.016258934752
25.26704 830.983322132202
25.28715 751.809311934035
25.30726 731.963477314554
25.32738 745.017187701818
25.34749 703.017957887462
25.3676 689
25.38772 677.98659438839
25.40783 660.964532959607
25.42795 635.956479567606
25.44806 629.998220716043
25.46817 624.032717941521
25.48829 601.000043969115
25.5084 613
25.52851 577.98717022659
25.54863 587.053800334905
25.56874 597.883608028381
25.58886 523.981429021919
25.60897 601.949659320327
25.62908 569.0087375805
25.6492 602
25.66931 568.000510205909
25.68942 605.003813044278
25.70954 583.056802833952
25.72965 642.017921599794
25.74976 571.071268489314
25.76988 600.973272463061
25.78999 577.026671042116
25.81011 552.02025543863
25.83022 603.971933477656
25.85033 526.995187261128
25.87045 589.99906843487
25.89056 520.032338378532
25.91067 583.928984223931
25.93079 580.995415829425
25.9509 606
25.97102 553.983605459114
25.99113 587.041268036417
26.01124 588.015329314055
26.03136 610.973543018143
26.05147 605.015011776928
26.07158 612.967256471935
26.0917 663
26.11181 692.998954111079
26.13193 691.059948105645
26.15204 739.965454284347
26.17215 658.17171113997
26.19227 678.834582971157
26.21238 810.916352084673
26.23249 811.025250669282
26.25261 768.996582728305
26.27272 810.0750053737
26.29283 875.034853757609
26.31295 886.146933129101
26.33306 1006.73119508766
26.35318 1115.91122839212
26.37329 1213.93574375039
26.3934 1416
26.41352 1759.32781883814
26.43363 2079.56265549577
26.45374 2605.39040724061
26.47386 3419.32228615602
26.49397 4361.21801227827
26.51409 5823.20999337791
26.5342 7465
26.55431 9288.87794334531
26.57443 10898.1999662839
26.59454 11979.8154785898
26.61465 11848.6439064112
26.63477 11426.546481744
26.65488 9830.64018388958
26.67499 8355.78624085959
26.69511 6598.14437947723
26.71522 5086.66601911962
26.73534 3884.90518999008
26.75545 2948.86489824353
26.77556 2219.01559974183
26.79568 1862.35533990846
26.81579 1433.20708247566
26.8359 1127
26.85602 1026.93042698869
26.87613 940.85756328271
26.89625 852.825078067224
26.91636 806.054707509711
26.93647 770.101364232199
26.95659 692.021190256089
26.9767 694
26.99681 679.982946371606
27.01693 643.965543585184
27.03704 635.989567604953
27.05716 616.078779421113
27.07727 574.033018760712
27.09738 586.959349843952
27.1175 615
27.13761 561.979054591797
27.15772 543.974039342899
27.17784 511.992944459802
27.19795 534.967186785518
27.21806 523.032319897945
27.23818 513.014160724705
27.25829 499.997922502189
27.27841 527.019640893533
27.29852 556.005834525045
27.31863 549.004440020277
27.33875 562.00076935255
27.35886 557.95501045179
27.37897 587.023573397582
27.39909 540.00647788048
27.4192 590
27.43932 639.00260358735
27.45943 612.972415232259
27.47954 612.986952010511
27.49966 581.101135200044
27.51977 536.031007685959
27.53988 530.019171863971
27.56 488
27.58011 460.998276611952
27.60023 475.03128314668
27.62034 473.917414821204
27.64045 426.004167891222
27.66057 453.021679412119
27.68068 405.002910054459
27.70079 453.985599967559
27.72091 420.967764937061
27.74102 380.008301100555
27.76113 427.074132649868
27.78125 442.954655890305
27.80136 422.977724137098
27.82148 451.002435613527
27.84159 419.006593836571
27.8617 445
27.88182 458.983640156099
27.90193 424.95260367683
27.92204 413.01112141426
27.94216 428.957727703557
27.96227 438.023445160405
27.98239 414.001597854029
28.0025 431
28.02261 407.977678913814
28.04273 366.970120193281
28.06284 379.076027146522
28.08295 411.00250271713
28.10307 383.033397824114
28.12318 381.996572780082
28.1433 390
28.16341 416.991621418804
28.18352 366.968828891811
28.20364 379.056448782041
28.22375 399.034429396389
28.24386 399.047168467884
28.26398 367.014909449242
28.28409 377.989781205837
28.3042 388
28.32432 373.984362415224
28.34443 368.010621644508
28.36455 382.028169010724
28.38466 382.020755213143
28.40477 372.994989182186
28.42489 385.995577582938
28.445 377
28.46511 355.002883645023
28.48523 377.005597911636
28.50534 358.982073396674
28.52546 364.013290785626
28.54557 357.951159009054
28.56568 406.995517583964
28.5858 370
28.60591 390.001153651327
28.62602 356.966226400496
28.64614 351.033001503068
28.66625 362.043142472514
28.68636 329.026261734953
28.70648 346.975290275138
28.72659 352.008539807151
28.74671 340.011405513637
28.76682 381.012468598052
28.78693 365.002657846793
28.80705 383.973791763562
28.82716 343.050611133326
28.84727 354.961913715717
28.86739 361.01128379648
28.8875 330
28.90762 347.019402129505
28.92773 349.987482543216
28.94784 345.015987848057
28.96796 364.958146768861
28.98807 369.030350740888
29.00818 340.014447818431
29.0283 342
29.04841 326.993153548842
29.06853 330.032526784126
29.08864 339.931478590223
29.10875 294.972382087128
29.12887 360.920818073858
29.14898 357.036938300786
29.16909 332.994244387622
29.18921 357.996867608664
29.20932 320.97760697889
29.22943 329.014140875083
29.24955 328.013833112572
29.26966 340.991614217714
29.28978 336.995524509004
29.30989 348.999125517082
29.33 343
29.35012 359.002200795201
29.37023 343.98139836205
29.39034 341.993454090111
29.41046 335.002608964478
29.43057 342.982731349785
29.45069 352.995515328768
29.4708 362
29.49091 370.002225970423
29.51103 357.941280406731
29.53114 311.957762761637
29.55125 325.929955105635
29.57137 340.011086732211
29.59148 327.992338987093
29.6116 349
29.63171 330.993670624495
29.65182 331.996448223447
29.67194 320.993973423886
29.69205 333.046871090009
29.71216 349.971238668297
29.73228 355.010823096518
29.75239 340.998938525072
29.7725 348
29.79262 318.00372936013
29.81273 352.023771867511
29.83285 334.958481023311
29.85296 335.994198088259
29.87307 336.98342485435
29.89319 349.004189392766
29.9133 327
29.93341 337.000952888141
29.95353 328.004023545695
29.97364 342.004817338672
29.99376 333.988827230672
30.01387 354.978948825976
30.03398 353.004917594933
30.0541 353
30.07421 339.983705970194
30.09432 312.008309154613
30.11444 345.028820764684
30.13455 341.941608118316
30.15467 375.027814165389
30.17478 320.01447713819
30.19489 365.975342339411
30.21501 365.9772490405
30.23512 314.980464243709
30.25523 336.051480636568
30.27535 356.011469971406
30.29546 343.063290722717
30.31557 313.009331347939
30.33569 325.997216216753
30.3558 315
30.37592 320.016866759866
30.39603 337.01243998403
30.41614 332.97733377859
30.43626 324.997452233934
30.45637 330.999459886724
30.47648 325.999679679061
30.4966 330
30.51671 317.99722870855
30.53683 327.026889211067
30.55694 337.987029204544
30.57705 314.076307326253
30.59717 308.936718362648
30.61728 361.995259580805
30.63739 317.018489939199
30.65751 323.013368562313
30.67762 343.007590560071
30.69773 346.017277441566
30.71785 351.932911662322
30.73796 308.034722747571
30.75808 326.97802038119
30.77819 333.996485410017
30.7983 347
30.81842 342.981393733998
30.83853 321.985251123567
30.85864 320.98470162441
30.87876 311.978795634972
30.89887 326.029639034199
30.91899 286.004437464492
30.9391 317
30.95921 311.986548110647
30.97933 296.024977899263
30.99944 320.974626656597
31.01955 276.063209330302
31.03967 290.963323984149
31.05978 303.98899434559
31.0799 312
31.10001 296.995622459182
31.12012 301.008008301363
31.14024 308.019124151536
31.16035 310.048299362216
31.18046 292.954113322022
31.20058 329.016150480438
31.22069 279.998452164486
31.2408 327
31.26092 280.006415423404
31.28103 340.02383557743
31.30115 298.965812227263
31.32126 330.976041657658
31.34137 303.033484140858
31.36149 309.992751157767
31.3816 307
31.40171 277.992552455793
31.42183 284.022139587989
31.44194 304.067017149743
31.46206 325.052986805228
31.48217 271.039282475197
31.50228 285.985458460419
31.5224 278
31.54251 283.010353898803
31.56262 310.023748406591
31.58274 311.941487104479
31.60285 278.997701707197
31.62297 305.988269129276
31.64308 282.023073102646
31.66319 280.995095838337
31.68331 291.00533695051
31.70342 296.995243444492
31.72353 282.976621956505
31.74365 283.063530976467
31.76376 305.040750011611
31.78387 261.014577814874
31.80399 295.983988893716
31.8241 300
31.84422 308.01177913807
31.86433 307.968047724435
31.88444 281.991448260365
31.90456 304.941531845062
31.92467 314.02593938766
31.94478 285.019572618809
31.9649 294
31.98501 327.000822560015
32.00513 294.940755014918
32.02524 285.062302900637
32.04535 323.004235109583
32.06547 285.036755037368
32.08558 295.981032558698
32.10569 299.004793684159
32.12581 284.993293201305
32.14592 285.021495319165
32.16604 312.016128494033
32.18615 301.991901565717
32.20626 307.019920087835
32.22638 285.007589815434
32.24649 296.994802902704
32.2666 294
32.28672 292.003163371568
32.30683 305.041021780628
32.32694 324.971902485297
32.34706 289.037287123783
32.36717 304.956229894171
32.38729 316.00876185987
32.4074 288
32.42751 308.016315196108
32.44763 314.939560951501
32.46774 262.988009398299
32.48785 307.892374929714
32.50797 311.03464646688
32.52808 295.986322397877
32.5482 310
32.56831 248.992566508214
32.58842 296.052635884424
32.60854 307.960516211154
32.62865 278.067776704542
32.64876 271.958040582269
32.66888 299.991391082625
32.68899 285.008252201118
32.7091 280
32.72922 281.013728486218
32.74933 302.019649973776
32.76945 293.931299289782
32.78956 272.979336528866
32.80967 306.962318561355
32.82979 294.023989697188
32.8499 252
32.87001 290.012527556627
32.89013 277.961815252139
32.91024 273.052273316208
32.93036 305.991462668601
32.95047 279.03835139503
32.97058 277.985661477704
32.9907 292
33.01081 299.010288307021
33.03092 313.976403673723
33.05104 270.980250250958
33.07115 293.991466592555
33.09127 271.005537828094
33.11138 296.979858083554
33.13149 291.008554788281
33.15161 281.000287662935
33.17172 289.008858295175
33.19183 289.986234966576
33.21195 287.054765979165
33.23206 316.99594615533
33.25217 277.090021319761
33.27229 249.980950045667
33.2924 318
33.31252 304.003892661341
33.33263 325.967992447949
33.35274 271.971231706596
33.37286 304.967930055441
33.39297 287.00764498324
33.41308 306.98982945443
33.4332 287
33.45331 267.006242671174
33.47343 296.018669635775
33.49354 289.0064224494
33.51365 305.988878508134
33.53377 296.00021366246
33.55388 312.983073757313
33.57399 315.005411914675
33.59411 289.978870160234
33.61422 266.033654022434
33.63434 323.012558027242
33.65445 276.933508698884
33.67456 291.984677396144
33.69468 277.003924207388
33.71479 286.004957871324
33.7349 270
33.75502 322.026332127208
33.77513 298.93728609552
33.79524 271.983368034013
33.81536 274.993019613802
33.83547 275.990541082451
33.85559 291.9890134467
33.8757 295
33.89581 250.001364757782
33.91593 302.071402994478
33.93604 305.947405979056
33.95615 282.997587111359
33.97627 300.988517333841
33.99638 293.998666719112
34.0165 301
34.03661 278.001565745298
34.05672 302.003577699974
34.07684 274.946902461396
34.09695 279.907941383529
34.11706 326.931248574671
34.13718 324.042744458206
34.15729 286.991307171359
34.17741 343.014855735914
34.19752 324.977008024035
34.21763 318.986025062298
34.23775 313.061189708522
34.25786 345.022030245325
34.27797 305.006748845224
34.29809 344.985682072232
34.3182 326
34.33831 302.016288955337
34.35843 357.014414755322
34.37854 316.946569368945
34.39866 338.913472395303
34.41877 362.018143797298
34.43888 340.988675056904
34.459 386
34.47911 386.98651220527
34.49922 357.986094167523
34.51934 367.046049543807
34.53945 396.905487880599
34.55957 437.94415348457
34.57968 457.007553171011
34.59979 436.006425014367
34.61991 444.01006251252
34.64002 467.024880840259
34.66013 481.990614304078
34.68025 470.02257307939
34.70036 494.982283316617
34.72047 500.928247220574
34.74059 563.997293859096
34.7607 507
34.78082 520.069139854014
34.80093 592.043015223979
34.82104 579.989773010167
34.84116 604.939437975515
34.86127 618.004143451337
34.88138 600.034018266168
34.9015 585
34.92161 644.00182310932
34.94173 589.939690747397
34.96184 616.148190125464
34.98195 665.081159472145
35.00207 576.095680929099
35.02218 581.960436622091
35.04229 617.984618939511
35.06241 618.97390645702
35.08252 542.954038742613
35.10264 535.976932213521
35.12275 504.946145882116
35.14286 507.971658399818
35.16298 526.969432386023
35.18309 546.011521112295
35.2032 508
35.22332 556.032816144483
35.24343 540.942919913847
35.26354 513.988044195051
35.28366 523.9776189857
35.30377 528.991101576292
35.32389 536.998065272257
35.344 538
35.36411 542.996089276675
35.38423 515.940135095936
35.40434 490.018619217392
35.42445 519.96387089108
35.44457 512.002363812889
35.46468 526.987314755198
35.4848 516
35.50491 482.000908150222
35.52502 516.030024273929
35.54514 526.018687087298
35.56525 530.063792152018
35.58536 487.047121114452
35.60548 498.973083289367
35.62559 517.995825879954
35.64571 526.010165668828
35.66582 555.020806161678
35.68593 547.942968947518
35.70605 518.052077332605
35.72616 565.983325831617
35.74627 531.023491194822
35.76639 558.983425088406
35.7865 560
35.80661 539.014459955897
35.82673 595.028884286828
35.84684 564.942440712565
35.86696 564.98730732292
35.88707 567.981301172824
35.90718 583.002542571315
35.9273 563
35.94741 563.005651303642
35.96752 576.010705802931
35.98764 572.95129186831
36.00775 539.058502985651
36.02787 534.992762041598
36.04798 536.004911226637
36.06809 537.988104516989
36.08821 547.972722964738
36.10832 466.982388842857
36.12843 518.053770145676
36.14855 488.848664378947
36.16866 470.86825559869
36.18878 555.005845201596
36.20889 466.028477255004
36.229 491
36.24912 499.988271105858
36.26923 505.069374548667
36.28934 566.047908990519
36.30946 541.068914451236
36.32957 554.878473073888
36.34968 661.928897161286
36.3698 687
36.38991 759.051567794738
36.41003 882.21113762946
36.43014 1016.20199067818
36.45025 1086.83511870907
36.47037 1166.87298905805
36.49048 1235.9598656267
36.51059 1236.01952681879
36.53071 1142.91927147317
36.55082 985.938647630143
36.57094 1011.02662079871
36.59105 947.734917894456
36.61116 830.255959716936
36.63128 719.063952972449
36.65139 685.024645818654
36.6715 618
36.69162 603.968777573801
36.71173 538.893777656797
36.73184 497.996450161916
36.75196 515.981522213498
36.77207 495.066259027493
36.79219 451.013211548145
36.8123 446
36.83241 447.000127510615
36.85253 460.055910674419
36.87264 493.981999970414
36.89275 467.943701949315
36.91287 504.07693105387
36.93298 407.995878073932
36.9531 504
36.97321 439.977392033752
36.99332 467.036521039494
37.01344 455.89335286251
37.03355 413.953120835152
37.05366 473.935510212938
37.07378 459.012961559
37.09389 469.996167958829
37.11401 457.989665538347
37.13412 441.991458845222
37.15423 445.02413529933
37.17435 461.002300230852
37.19446 441.063071457444
37.21457 415.017841187621
37.23469 417.994836208231
37.2548 424
37.27491 429.016433262552
37.29503 465.99469076553
37.31514 423.931986397008
37.33526 421.983380028879
37.35537 430.967306789547
37.37548 455.994085305925
37.3956 439
37.41571 446.025047635882
37.43582 500.003167191832
37.45594 450.903759218972
37.47605 440.966558996257
37.49617 457.976403259379
37.51628 469.989719692931
37.53639 477.998570002327
37.55651 482.007062681353
37.57662 490.979433071496
37.59673 470.04841365452
37.61685 519.945537196865
37.63696 441.062935791077
37.65708 489.941511717696
37.67719 500.013205683294
37.6973 479
37.71742 512.004450201675
37.73753 494.018555624705
37.75764 540.059880186255
37.77776 528.061080180083
37.79787 509.996009828551
37.81798 515.019036047991
37.8381 480
37.85821 484.996576635354
37.87833 474.038118841939
37.89844 519.0138706857
37.91855 485.050379713938
37.93867 491.014768659745
37.95878 463.006021943039
37.97889 472.011451571183
37.99901 439.013075730209
38.01912 498.999033810099
38.03924 444.990742841902
38.05935 509.125344325184
38.07946 497.081407728204
38.09958 470.00384485305
38.11969 495.973525724079
38.1398 539
38.15992 504.982208562452
38.18003 518.016110644813
38.20015 511.989071954225
38.22026 527.927272110563
38.24037 552.032718894379
38.26049 501.014657822707
38.2806 526
38.30071 575.002191871915
38.32083 546.97546622576
38.34094 559.027039191209
38.36105 557.019610726271
38.38117 548.022501519031
38.40128 535.994813091025
38.4214 549
38.44151 543.013594849269
38.46162 592.022533295231
38.48174 571.938050163741
38.50185 550.059156352019
38.52196 525.028576512889
38.54208 523.996937488373
38.56219 522.003469390904
38.58231 513.997429973662
38.60242 505.979731815911
38.62253 483.994952338495
38.64265 503.062391525795
38.66276 514.014043251286
38.68287 494.035799353536
38.70299 480.998009197367
38.7231 493
38.74321 478.985211750906
38.76333 444.955170951652
38.78344 439.059756800945
38.80356 477.982800368713
38.82367 452.038700448269
38.84378 449.989052215542
38.8639 458
38.88401 456.003766277619
38.90412 467.999874126936
38.92424 461.015731344007
38.94435 478.996451847718
38.96447 464.006935741509
38.98458 461.036700502139
39.00469 410.004798063531
39.02481 448.018065438108
39.04492 449.984325711107
39.06503 442.012995984499
39.08515 451.967556344259
39.10526 425.014801062082
39.12538 446.972202217521
39.14549 471.981770098987
39.1656 513
39.18572 509.98358630587
39.20583 502.014269437879
39.22594 515.99270190898
39.24606 519.883047639645
39.26617 607.933842521922
39.28628 603.983746746123
39.3064 658
39.32651 701.056726409802
39.34663 860.163920299515
39.36674 917.187347335122
39.38685 1070.64011874778
39.40697 1127.06614838722
39.42708 1033.08020823455
39.44719 1005.99820072633
39.46731 976.949251452885
39.48742 864.981460588566
39.50754 896.874189207026
39.52765 725.634784790052
39.54776 663.09982991832
39.56788 584.076675347548
39.58799 526.02617333928
39.6081 482
39.62822 463.940920058983
39.64833 390.97444939212
39.66845 424.020566743235
39.68856 376.120609926311
39.70867 341.021625986178
39.72879 342.990347439571
39.7489 365
39.76901 347.980242291484
39.78913 317.009085451881
39.80924 349.037092917581
39.82935 342.014102762011
39.84947 350.985199197167
39.86958 355.992041401258
39.8897 354
39.90981 316.001876886718
39.92992 356.023833355206
39.95004 341.956685665591
39.97015 346.910580411278
39.99026 385.980305713001
40.01038 368.012109969704
40.03049 385.980723876478
40.05061 406.987109839164
40.07072 368.010793077128
40.09083 435.099771687737
40.11095 454.956395074408
40.13106 453.880889167447
40.15117 558.865878716767
40.17129 599.99057697066
40.1914 619
40.21152 635.028016528956
40.23163 657.984913925013
40.25174 627.982201784265
40.27186 642.998296462952
40.29197 607.085696036093
40.31208 558.025958096246
40.3322 552
40.35231 537.989819760675
40.37242 498.926533213968
40.39254 423.947841377987
40.41265 431.062058791518
40.43277 374.035184684456
40.45288 389.006989134179
40.47299 350.010041511297
40.49311 355.994363848148
40.51322 314.960572001817
40.53333 314.065677993212
40.55345 368.056632502735
40.57356 347.071773628191
40.59368 324.010368821264
40.61379 322.99717816551
40.6339 336
40.65402 352.989477938566
40.67413 334.01865595162
40.69424 360.969666532058
40.71436 313.028262523352
40.73447 344.963638969089
40.75458 340.002101800569
40.7747 357
40.79481 353.982039126044
40.81493 310.979668596155
40.83504 319.97777876446
40.85515 292.989044838312
40.87527 324.987240494223
40.89538 305.999418887483
40.91549 332.993538404372
40.93561 320.996280381668
40.95572 334.019906611148
40.97584 337.956961666326
40.99595 310.993406360085
41.01606 333.959906147401
41.03618 335.006028104506
41.05629 330.0039148033
41.0764 324
41.09652 343.028566825234
41.11663 353.956037609429
41.13675 315.012387903767
41.15686 359.945466645267
41.17697 346.032589810135
41.19709 344.99257326998
41.2172 359
41.23731 348.996427385549
41.25743 352.009983318852
41.27754 352.98486446154
41.29765 340.030171524649
41.31777 330.019002231943
41.33788 326.976080823337
41.358 355
41.37811 308.978255690741
41.39822 298.012448678669
41.41834 310.999375664892
41.43845 302.99074756287
41.45856 319.975340110301
41.47868 316.014109548714
41.49879 312.988373703833
41.51891 337.993326841224
41.53902 300.994221020576
41.55913 326.001237619902
41.57925 295.968326157643
41.59936 320.930404830124
41.61947 331.033211305456
41.63959 299.005830145291
41.6597 312
41.67982 308.993394024834
41.69993 313.026158725916
41.72004 335.029056090769
41.74016 333.031661754476
41.76027 317.007416007175
41.78038 322.994341960406
41.8005 319
41.82061 315.008655279567
41.84072 346.023100325641
41.86084 348.983355462117
41.88095 329.100563254779
41.90107 296.978534038112
41.92118 332.00838435751
41.94129 281.014138767094
41.96141 302.015930771101
41.98152 322.02314026707
42.00163 341.992456093427
42.02175 313.932243910305
42.04186 310.958098920641
42.06198 333.996922628994
42.08209 322.998670608064
42.1022 348
42.12232 360.99858856452
42.14243 356.002188426948
42.16254 355.961321564765
42.18266 326.026764822947
42.20277 339.961966372444
42.22289 366.982859318977
42.243 409
42.26311 455.027265170139
42.28323 494.992567765409
42.30334 479.073448290281
42.32345 582.701188291797
42.34357 670.91418055091
42.36368 719.939198433638
42.38379 780.986057410229
42.40391 770.990001673804
42.42402 745.947641890361
42.44414 671.867576573744
42.46425 635.972829178191
42.48436 623.072271201054
42.50448 574.029342379408
42.52459 563.01284585488
42.5447 507
42.56482 447.953834533393
42.58493 406.93106154066
42.60505 357.903309775263
42.62516 337.015813710581
42.64527 334.997018794917
42.66539 335.003018027794
42.6855 326
42.70561 319.990009672933
42.72573 288.961216987072
42.74584 281.0142384033
42.76595 298.932470951151
42.78607 318.007407892117
42.80618 298.010059056216
42.8263 300
42.84641 280.996918374292
42.86652 290.0034825985
42.88664 280.984352549069
42.90675 289.930885647008
42.92686 315.996790329352
42.94698 293.024808911419
42.96709 275.01236783457
42.98721 257.008169976622
43.00732 295.019151742114
43.02743 284.985715360767
43.04755 289.002756504866
43.06766 282.007636297691
43.08777 279.023442716327
43.10789 259.999616532553
43.128 283
43.14812 297.011844875461
43.16823 302.981770115781
43.18834 273.935915265571
43.20846 262.958032944634
43.22857 291.001488960644
43.24868 264.013778349355
43.2688 268
43.28891 244.002352002778
43.30902 275.014818856504
43.32914 261.979239810049
43.34925 267.985503667426
43.36937 263.014657399009
43.38948 262.98162979377
43.40959 282.00353795032
43.42971 257.997556425429
43.44982 274.002832220154
43.46993 266.026056379898
43.49005 308.073434127843
43.51016 297.084547527802
43.53028 260.00351572561
43.55039 287.985356931127
43.5705 284
43.59062 247.016405464724
43.61073 298.027622595978
43.63084 268.950454110134
43.65096 275.970099147401
43.67107 278.012148387324
43.69119 271.997215376375
43.7113 287
43.73141 291.000255277196
43.75153 287.982403109004
43.77164 273.991256156619
43.79175 270.060771854374
43.81187 245.972692174013
43.83198 287.995082165582
43.85209 253.008378226389
43.87221 263.99518897592
43.89232 243.025322405858
43.91244 303.049843929829
43.93255 279.962183643549
43.95266 291.994462469964
43.97278 273.016755334312
43.99289 265.008172383826
44.013 255
44.03312 312.042887901812
44.05323 306.932461200335
44.07335 265.999614762588
44.09346 296.968426114736
44.11357 281.027516482379
44.13369 277.001072452205
44.1538 274
44.17391 287.00397695058
44.19403 277.961084184021
44.21414 260.030460445768
44.23426 292.980829433528
44.25437 271.031452068321
44.27448 277.970578135993
44.2946 295
44.31471 247.99091437724
44.33482 275.038313199292
44.35494 303.058148222077
44.37505 322.036090308813
44.39516 283.062172412384
44.41528 275.998701731926
44.43539 278.993053204316
44.45551 302.010350035185
44.47562 306.986831248
44.49573 285.97622806247
44.51585 282.005049326349
44.53596 283.996405926213
44.55607 288.982533818285
44.57619 295.007789613575
44.5963 263
44.61642 258.012682796718
44.63653 278.031455681221
44.65664 295.027724195384
44.67676 303.003793423372
44.69687 291.027439560908
44.71698 273.014446547541
44.7371 269
44.75721 277.993901450542
44.77732 259.008532007311
44.79744 287.010060378531
44.81755 268.004455132837
44.83767 290.979051060135
44.85778 281.015179882873
44.87789 276.997515407106
44.89801 285.003607252409
44.91812 291.007956763515
44.93823 288.959285809696
44.95835 259.012591423372
44.97846 294.950445328278
44.99858 291.008839106262
45.01869 300.985745386643
45.0388 324
45.05892 289.965654658388
45.07903 283.032831359835
45.09914 303.977332705485
45.11926 278.976875992913
45.13937 316.993971149554
45.15949 286.003197929724
45.1796 313
45.19971 304.010867725701
45.21983 346.002968210355
45.23994 313.999678852988
45.26005 338.062822521782
45.28017 278.009830519313
45.30028 338.946128969334
45.32039 343.007397708225
45.34051 321.977299520224
45.36062 285.023284368735
45.38074 345.042233886358
45.40085 322.005347691516
45.42096 366.928612841971
45.44108 368.007869462275
45.46119 368.000586428508
45.4813 355
45.50142 345.037565527922
45.52153 389.970851754547
45.54165 344.092309143612
45.56176 443.934825874812
45.58187 390.045868456554
45.60199 443.955333819721
45.6221 507
45.64221 511.010687795845
45.66233 554.048762136719
45.68244 562.001254426512
45.70256 585.879959951379
45.72267 654.94520257901
45.74278 646.026714388596
45.7629 628
45.78301 613.985987844858
45.80312 574.964057478147
45.82324 542.919733085418
45.84335 497.089466597697
45.86346 484.978763986136
45.88358 489.030735971425
45.90369 433.021357920228
45.92381 411.985845751205
45.94392 367.961848389358
45.96403 341.958034765042
45.98415 315.987151883945
46.00426 328.980492129198
46.02437 326.006095989472
46.04449 320.010182456985
46.0646 294
46.08472 303.009458128595
46.10483 297.975979485613
46.12494 295.061521556253
46.14506 333.005578192622
46.16517 296.025383185133
46.18528 305.013300597209
46.2054 273
46.22551 311.012349510384
46.24563 309.01045678315
46.26574 327.996583103451
46.28585 306.022431542623
46.30597 311.019619949647
46.32608 286.995306507896
46.34619 319.989499202281
46.36631 306.985518973217
46.38642 287.999380003257
46.40653 297.002492245964
46.42665 284.962298542355
46.44676 277.00187099309
46.46688 281.990020583172
46.48699 296.989656929914
46.5071 314
46.52722 308.001044191692
46.54733 314.994114459763
46.56744 298.975361435794
46.58756 289.048372001526
46.60767 272.952600404591
46.62779 318.008017989537
46.6479 249
46.66801 284.035222872644
46.68813 322.96689895751
46.70824 273.97526615638
46.72835 298.007654626156
46.74847 265.003148322252
46.76858 305.964929116138
46.78869 303.012334637819
46.80881 282.997513335129
46.82892 287.999818885197
46.84904 282.005381004728
46.86915 295.026099824125
46.88926 298.987628941592
46.90938 303.011402460997
46.92949 280.008605733383
46.9496 276
46.96972 281.021675654014
46.98983 312.031792048336
47.00995 303.904960288378
47.03006 263.030190500468
47.05017 278.963757678752
47.07029 297.988550139269
47.0904 311
47.11051 274.994720572338
47.13063 287.990791834633
47.15074 261.99220075173
47.17086 293.921374306109
47.19097 306.033349730468
47.21108 274.009848982022
47.2312 291
47.25131 288.99388345049
47.27142 278.996417309069
47.29154 270.945611304012
47.31165 248.942914721681
47.33176 297.967047324687
47.35188 271.022607189678
47.37199 285.98094933461
47.39211 310.994753558533
47.41222 281.991870586803
47.43233 300.015483535895
47.45245 295.013874602801
47.47256 309.011301138674
47.49267 290.992426029307
47.51279 314.998429790821
47.5329 286
47.55302 269.992574842177
47.57313 274.03965170575
47.59324 293.946714310428
47.61336 247.994463355012
47.63347 291.985110906318
47.65358 259.00930683592
47.6737 295
47.69381 301.996665398511
47.71393 291.972465485227
47.73404 276.004942397635
47.75415 297.934587393
47.77427 308.017659200517
47.79438 290.002801146008
47.81449 301.997511380404
47.83461 301.007884227615
47.85472 328.009608313688
47.87483 315.985678131832
47.89495 319.004480654308
47.91506 309.036786338521
47.93518 300.981866042135
47.95529 331.992809601679
47.9754 330
47.99552 349.995479003475
48.01563 318.961170247108
48.03574 303.941667870167
48.05586 273.983099800683
48.07597 313.961836370285
48.09609 310.999791957695
48.1162 322
48.13631 290.976344229392
48.15643 253.984279791035
48.17654 273.071514895146
48.19665 296.018309837508
48.21677 273.009945692133
48.23688 284.999119096386
48.257 270
48.27711 276.999148468859
48.29722 273.021518835695
48.31734 297.956639570095
48.33745 248.982808270051
48.35756 284.979217692621
48.37768 267.978056400258
48.39779 315.004389162192
48.4179 252
48.43802 271.01514428374
48.45813 270.041170178355
48.47825 308.97149752716
48.49836 259.029196066277
48.51847 291.971051747864
48.53859 274.008805217735
48.5587 269
48.57881 243.998988482848
48.59893 262.007066541808
48.61904 253.019794308891
48.63916 280.975632405504
48.65927 268.021084901115
48.67938 268.991816553554
48.6995 274
48.71961 277.00945238001
48.73972 294.987862867102
48.75984 258.951569425921
48.77995 269.914347917165
48.80006 295.010781081991
48.82018 271.009381381025
48.84029 285.992012686417
48.86041 283.992140515733
48.88052 267.99318032358
48.90063 275.024311015008
48.92075 294.049113109286
48.94086 298.052203769752
48.96097 268.984872500846
48.98109 297.008781413174
49.0012 240
49.02132 264.024281434426
49.04143 264.000995102774
49.06154 275.011928373643
49.08166 271.007217360316
49.10177 272.996258235856
49.12188 269.012323177538
49.142 261
49.16211 284.00649712641
49.18223 285.012926308232
49.20234 303.018691939617
49.22245 294.047589737875
49.24257 272.038463456101
49.26268 253.000779619997
49.28279 262.000592850951
49.30291 255.005772070603
49.32302 280.008795263552
49.34313 267.987945784151
49.36325 276.028779452816
49.38336 278.016340323627
49.40348 263.017658002816
49.42359 258.988958534878
49.4437 285
49.46382 264.01322638079
49.48393 298.991218835865
49.50404 250.942024766103
49.52416 275.894286378997
49.54427 312.99625801539
49.56439 289.011866305362
49.5845 272
49.60461 255.020992496035
49.62473 322.016870412899
49.64484 265.890491273858
49.66495 258.950490115258
49.68507 278.978140518433
49.70518 283.006393558084
49.7253 290
49.74541 348.012409620588
49.76552 339.002997077707
49.78564 366.034054070083
49.80575 361.993304968229
49.82586 368.000721293292
49.84598 367.977979316752
49.86609 424.958856373102
49.8862 503
49.90632 532.030176732618
49.92643 589.126622102405
49.94655 694.289875716674
49.96666 805.804023601047
49.98677 917.761432432432
50.00689 1090.9419038415
50.027 1168
50.04711 1343.07286586798
50.06723 1424.08773078992
50.08734 1482.07045565217
50.10746 1430.36096087952
50.12757 1197.24471551155
50.14768 1139.03632645606
50.1678 1062
50.18791 980.971519505475
50.20802 933.940353798085
50.22814 850.814730978714
50.24825 753.271616205397
50.26837 644.133799716102
50.28848 558.116760333445
50.30859 439.027778464735
50.32871 434.985793110511
50.34882 364.948129921374
50.36893 348.969048028231
50.38905 322.015086698808
50.40916 350.000978349017
50.42927 314.042056070362
50.44939 319.988530784403
50.4695 343
50.48962 352.984431399286
50.50973 325.982996816417
50.52984 325.960855063963
50.54996 294.011277031731
50.57007 323.945442851462
50.59018 338.008475878424
50.6103 317
50.63041 305.001481456788
50.65053 314.003663529919
50.67064 308.998270059261
50.69075 314.990102749732
50.71087 309.022443992462
50.73098 294.006735874305
50.75109 280.022343478409
50.77121 240.012221473006
50.79132 304.01870130492
50.81143 267.976033635193
50.83155 289.001685525651
50.85166 263.997372828443
50.87178 294.988004288179
50.89189 273.011167102478
50.912 263
50.93212 251.029442183686
50.95223 298.007564045447
50.97234 260.959726326091
50.99246 271.010094864413
51.01257 247.99759886825
51.03269 280.985882230112
51.0528 271
51.07291 237.012057669132
51.09303 293.02273180066
51.11314 257.954963775557
51.13325 269.984371200588
51.15337 246.057170313323
51.17348 223.991051547106
51.1936 256
51.21371 264.992717263019
51.23382 237.972506851155
51.25394 221.992474200606
51.27405 233.923943130906
51.29416 261.003324090362
51.31428 236.017468709032
51.33439 244.988135157358
51.3545 264
51.37462 251.972799993882
51.39473 225.983909110115
51.41485 232.026371990158
51.43496 246.938105249383
51.45507 273.018251260566
51.47519 230.016339891482
51.4953 230
51.51541 247.012636850692
51.53553 262.974234609121
51.55564 229.98497661485
51.57576 255.947757857736
51.59587 261.00689118885
51.61598 252.019614759917
51.6361 237
51.65621 259.99878854909
51.67632 232.98620217653
51.69644 239.996012228616
51.71655 222.027336790334
51.73667 236.944810696054
51.75678 264.010979313394
51.77689 223.017226308832
51.79701 220.008716086439
51.81712 233.997528189091
51.83723 221.997537435405
51.85735 232.007890075655
51.87746 223.015943895448
51.89757 228.970322381659
51.91769 239.011744353748
51.9378 207
51.95792 260.051793380843
51.97803 267.949124176717
51.99814 227.97638591018
52.01826 244.975127327978
52.03837 238.012195130042
52.05848 239.994864667988
52.0786 243
52.09871 250.00735459622
52.11883 260.988544417027
52.13894 240.977678348186
52.15905 245.981258683314
52.17917 251.978963855322
52.19928 266.003933806379
52.21939 250.002080539141
52.23951 266.010268793195
52.25962 269.981645136217
52.27974 239.950391570225
52.29985 229.995790451074
52.31996 229.996527755712
52.34008 231.002271096987
52.36019 233.990352766509
52.3803 256
52.40042 238.996975807882
52.42053 253.005385402571
52.44064 234.953127072947
52.46076 221.01040019223
52.48087 222.987082726363
52.50099 238.987785584221
52.5211 260
52.54121 249.996020597365
52.56133 255.019286067118
52.58144 260.978677116873
52.60155 241.029608621256
52.62167 241.002287883712
52.64178 236.99399182001
52.6619 247
52.68201 236.004832332653
52.70212 254.989913766263
52.72224 229.019427384599
52.74235 268.967924631376
52.76246 238.068491966547
52.78258 230.989371792094
52.80269 245.992244830288
52.8228 251
52.84292 239.015528494137
52.86303 266.998088948994
52.88315 236.958417658722
52.90326 249.965846609807
52.92337 253.005858940231
52.94349 250.000706696491
52.9636 250
52.98371 255.00697320692
53.00383 272.013929516198
53.02394 275.017084965251
53.04406 274.074643089346
53.06417 232.97684822739
53.08428 287.983078631305
53.1044 255
53.12451 267.996056594608
53.14462 237.997899655174
53.16474 268.032887423645
53.18485 259.995229306402
53.20497 276.996044791771
53.22508 264.997423153493
53.24519 278.005019833602
53.26531 254.002425038283
53.28542 286.014628627909
53.30553 265.95841388658
53.32565 258.03197750269
53.34576 277.975470637198
53.36587 287.958794114779
53.38599 315.005920176743
53.4061 286
53.42622 337.021384589004
53.44633 300.917303285443
53.46644 272.010418919726
53.48656 296.955630932589
53.50667 301.011379136603
53.52678 294.997746090243
53.5469 300
53.56701 280.986902608209
53.58713 273.04309510035
53.60724 307.984035178869
53.62735 273.984413191416
53.64747 314.994153897521
53.66758 279.006612351343
53.68769 317.984345768093
53.70781 309.986969904159
53.72792 297.01031493205
53.74804 319.023473886096
53.76815 318.013167126223
53.78826 339.940758377889
53.80838 348.034394954889
53.82849 298.008600512733
53.8486 332
53.86872 367.00172337172
53.88883 338.937725208835
53.90894 308.982474781361
53.92906 327.912997482148
53.94917 364.001873748396
53.96929 336.007148251069
53.9894 351
54.00951 358.000727626193
54.02963 357.99316693109
54.04974 345.961773759516
54.06985 330.998663206123
54.08997 336.01911106508
54.11008 314.000198183537
54.1302 341
54.15031 355.004649832965
54.17042 364.003147816857
54.19054 353.950096752173
54.21065 340.930099738787
54.23076 388.964876771778
54.25088 365.026135605578
54.27099 356.005751191897
54.29111 350.013703544011
54.31122 390.003414731315
54.33133 361.991840589305
54.35145 392.061422017684
54.37156 382.066153778874
54.39167 358.986170236827
54.41179 390.988608130719
54.4319 387
54.45201 370.992312638596
54.47213 370.041383852946
54.49224 400.989349333323
54.51236 359.07749466331
54.53247 352.973965816813
54.55258 374.983068760644
54.5727 377
54.59281 379.024336464144
54.61292 444.018758858615
54.63304 412.955052516137
54.65315 431.91213456864
54.67327 463.948984667971
54.69338 497.974180343431
54.71349 528.971615297066
54.73361 595.018272080857
54.75372 606.026804904859
54.77383 679.160817090758
54.79395 756.987388026395
54.81406 699.054666536284
54.83417 718.99811406982
54.85429 673.027520942112
54.8744 644
54.89452 636.967118731698
54.91463 581.926805821081
54.93474 576.092499231506
54.95486 628.992496973763
54.97497 579.079085936526
54.99508 544.046622713595
55.0152 481
55.03531 454.996955608969
55.05543 459.017916969169
55.07554 467.994232065685
55.09565 459.000964535484
55.11577 468.988881056449
55.13588 468.002370233456
55.15599 461.010899648274
55.17611 445.010494383666
55.19622 486.012542807712
55.21634 477.048534629654
55.23645 528.040363079524
55.25656 495.070032845833
55.27668 486.001322914082
55.29679 488.988832439295
55.3169 510
55.33702 471.992717686594
55.35713 495.00150589191
55.37724 464.964242859923
55.39736 470.008112799603
55.41747 440.060559809396
55.43759 404.015707177211
55.4577 378
55.47781 364.995616627899
55.49793 367.032004765243
55.51804 378.930424682481
55.53815 322.040334715593
55.55827 356.949153021664
55.57838 359.008960284868
55.5985 350
55.61861 324.991561017598
55.63872 336.044717175057
55.65884 374.97447787022
55.67895 331.021120582394
55.69906 366.954462064876
55.71918 349.028607253189
55.73929 336.998917156901
55.75941 339.996513220347
55.77952 333.013782472764
55.79963 352.986062100786
55.81975 314.923544402833
55.83986 315.957484638985
55.85997 335.987496290592
55.88009 340.989939127721
55.9002 362
55.92031 324.988553946863
55.94043 331.015528905242
55.96054 323.956759501152
55.98066 305.996735043609
56.00077 319.994993257411
56.02088 297.041707931287
56.041 273
56.06111 326.01754491514
56.08122 320.979513453034
56.10134 304.96832989191
56.12145 292.006489975837
56.14157 308.942668918291
56.16168 332.030974162182
56.18179 280.000309467018
56.20191 330.013639832055
56.22202 305.968898188321
56.24213 293.984610033318
56.26225 293.083563474417
56.28236 332.020221467491
56.30248 279.03497462229
56.32259 287.990714143143
56.3427 300
56.36282 323.99546352903
56.38293 300.996468957056
56.40304 329.05823936732
56.42316 332.043160707987
56.44327 307.012832035986
56.46338 311.007022308591
56.4835 291
56.50361 295.001710764614
56.52373 295.013932533795
56.54384 311.014523141342
56.56395 301.050764759789
56.58407 289.982988276336
56.60418 315.980457227702
56.62429 313.01039676811
56.64441 298.004987507553
56.66452 313.983902910086
56.68464 280.001195065336
56.70475 314.035359615263
56.72486 294.030718915925
56.74498 302.985540685871
56.76509 303.007818225823
56.7852 283
56.80532 285.008185604947
56.82543 293.013011708516
56.84554 302.015733114998
56.86566 302.026485971145
56.88577 283.017386197842
56.90589 290.986661373596
56.926 310
56.94611 282.002417970641
56.96623 314.010839954795
56.98634 282.937805328127
57.00645 279.960774416359
57.02657 294.993607885866
57.04668 289.005780573716
57.0668 287
57.08691 293.018930551381
57.10702 337.002858199229
57.12714 290.888942999446
57.14725 268.95877675113
57.16736 305.930865584906
57.18748 308.038201615317
57.20759 271.991532246315
57.22771 318.000046523199
57.24782 274.991468045163
57.26793 315.038020889949
57.28805 293.908868883021
57.30816 276.985629895534
57.32827 297.970179379171
57.34839 296.014967972127
57.3685 264
57.38861 290.00908642042
57.40873 283.982723612094
57.42884 283.014139086502
57.44896 286.021504927012
57.46907 263.035610727452
57.48918 257.977918573981
57.5093 288
57.52941 279.000524314865
57.54952 286.982955956113
57.56964 245.936994724979
57.58975 253.888962248925
57.60987 294.004431199636
57.62998 259.017339406701
57.65009 274.992266346833
57.67021 269.994155450244
57.69032 272.022391660427
57.71043 289.972751611608
57.73055 256.005879388996
57.75066 296.940993942755
57.77078 285.034001871731
57.79089 261.00042225916
57.811 273
57.83112 254.976964208613
57.85123 246.015192074336
57.87134 266.03094949376
57.89146 272.983151895295
57.91157 282.00232844166
57.93168 269.014058415066
57.9518 267
57.97191 273.988462411118
57.99203 229.953212122732
58.01214 234.05742868948
58.03225 261.97092228782
58.05237 252.032602360701
58.07248 240.987324327515
58.09259 270.98619140271
58.11271 286.005596595027
58.13282 289.984315705606
58.15294 265.983591951317
58.17305 277.02480864145
58.19316 274.015197793655
58.21328 272.991499660869
58.23339 289.989349084643
58.2535 297
58.27362 257.971528591624
58.29373 261.043019981585
58.31385 284.985924487905
58.33396 268.964866614694
58.35407 305.0073697136
58.37419 256.018155885073
58.3943 262
58.41441 280.010333300954
58.43453 295.99547176723
58.45464 271.934684679273
58.47475 256.95675352695
58.49487 281.014345777011
58.51498 250.99671642094
58.5351 286
58.55521 261.992505978187
58.57532 274.013091629181
58.59544 271.984816697962
58.61555 267.008899707288
58.63566 265.992026218413
58.65578 269.006459154577
58.67589 255.005468159379
58.69601 257.007190235323
58.71612 269.998179572491
58.73623 257.993728408119
58.75635 269.039175719398
58.77646 280.980021614865
58.79657 284.016516540044
58.81669 264.008286746537
58.8368 260
58.85691 262.995457571533
58.87703 255.023664898892
58.89714 283.011667246181
58.91726 257.065778061
58.93737 240.999179760369
58.95748 253.978388774163
58.9776 273
58.99771 260.982659836765
59.01782 233.010851823606
59.03794 266.012635215949
59.05805 241.030411817341
59.07817 263.945513386785
59.09828 281.013780172032
59.11839 259.996497957725
59.13851 284.998792398644
59.15862 260.002558269454
59.17873 289.006421883067
59.19885 260.957657768591
59.21896 264.021910194764
59.23908 252.962987134027
59.25919 313.994034582774
59.2793 266
59.29942 265.025006002088
59.31953 293.039566156665
59.33964 296.929737029458
59.35976 256.986181592263
59.37987 304.952488161539
59.39998 296.016972154959
59.4201 297
59.44021 294.982278611161
59.46033 252.997159947997
59.48044 285.027024491651
59.50055 275.95907080168
59.52067 317.971133335025
59.54078 299.024480417331
59.56089 301.984550028339
59.58101 334.002624015651
59.60112 315.989815654481
59.62124 341.113134760416
59.64135 392.027149236961
59.66146 376.985540330209
59.68158 417.962297027226
59.70169 435.99095679253
59.7218 474
59.74192 536.051927215324
59.76203 577.063847551404
59.78215 643.243447250526
59.80226 771.703395312467
59.82237 888.936885935128
59.84249 887.984856407837
59.8626 974
59.88271 1028.01283801284
59.90283 1036.99224295964
59.92294 1007.87026777974
59.94305 911.275544716001
59.96317 814.108143656434
59.98328 754.070239972747
60.0034 694
60.02351 721.997496337202
60.04362 674.968260805611
60.06374 673.977630603288
60.08385 610.291381154999
60.10396 494.118056267795
60.12408 492.000276522055
60.14419 452.032621568363
60.16431 388.976938747212
60.18442 361.981139648282
60.20453 340.967424725463
60.22465 315.92096988333
60.24476 287.025416946123
60.26487 290.98777817119
60.28499 293.999498224669
60.3051 293
60.32522 289.008821346892
60.34533 297.978768718981
60.36544 266.963910137454
60.38556 268.006244385501
60.40567 259.985407422899
60.42578 280.997124412986
60.4459 265
60.46601 277.004965090258
60.48612 272.990295850751
60.50624 266.998093921044
60.52635 267.010872590826
60.54647 267.96798727128
60.56658 296.991605180904
60.58669 284.003518188065
60.60681 282.988959017384
60.62692 246.98485893474
60.64703 262.030187873695
60.66715 274.03802726549
60.68726 283.036553056207
60.70738 254.001824063307
60.72749 275.997727698478
60.7476 259
60.76772 280.012895203107
60.78783 270.978221865232
60.80794 266.006858341662
60.82806 269.010287234551
60.84817 259.005638399257
60.86828 261.003755392828
60.8884 255
60.90851 273.006024767927
60.92863 274.002412268657
60.94874 277.992940870465
60.96885 269.005903953052
60.98897 281.962635179915
61.00908 295.019710969628
61.02919 259.00727620867
61.04931 265.995631819855
61.06942 251.02556951954
61.08954 299.010144979616
61.10965 265.995998284411
61.12976 302.9736466889
61.14988 276.021350368826
61.16999 277.002701472867
61.1901 272
61.21022 322.015498115728
61.23033 285.922661383345
61.25045 255.984546697204
61.27056 270.937162170309
61.29067 298.986917777202
61.31079 287.009181919862
61.3309 282
61.35101 301.00201878238
61.37113 291.999478839234
61.39124 303.006865354611
61.41135 290.048009297511
61.43147 275.015129319066
61.45158 275.982306232136
61.4717 296
61.49181 293.012729260664
61.51192 331.000779894936
61.53204 303.002263747087
61.55215 342.924409715876
61.57226 334.059338633763
61.59238 321.974141339016
61.61249 350.013087607707
61.63261 300.006703217755
61.65272 366.020521667913
61.67283 328.986124500511
61.69295 362.012061475969
61.71306 329.020085517441
61.73317 361.946898768751
61.75329 371.003062795324
61.7734 364
61.79352 361.998718804596
61.81363 370.041909612906
61.83374 399.000070233145
61.85386 375.0260366932
61.87397 386.975482260153
61.89408 397.983715719244
61.9142 413
61.93431 401.004160194197
61.95442 428.015460326986
61.97454 433.050643874818
61.99465 469.979105722121
62.01477 427.11511910593
62.03488 396.919187256735
62.05499 520.983233597081
62.07511 453.977772783337
62.09522 480.022217548676
62.11533 465.986856558462
62.13545 488.092275870987
62.15556 512.003558787241
62.17568 505.976368028203
62.19579 539.006139512853
62.2159 495
62.23602 522.99333151474
62.25613 468.93394669473
62.27624 469.043817142981
62.29636 483.997811410297
62.31647 473.02177119826
62.33659 464.999873747117
62.3567 462
62.37681 433.992328256607
62.39693 428.973357517958
62.41704 408.0174091726
62.43715 438.968469782919
62.45727 416.053000416861
62.47738 396.99659659059
62.49749 403.008594866892
62.51761 374.999892916405
62.53772 394.994250259208
62.55784 349.896771510165
62.57795 328.031083717726
62.59806 352.978423227467
62.61818 340.01992923335
62.63829 337.98791152218
62.6584 365
62.67852 334.975808792331
62.69863 342.045774364314
62.71875 365.986671463899
62.73886 331.083543350162
62.75897 312.97826210807
62.77909 329.011201388349
62.7992 294
62.81931 343.996579367676
62.83943 273.923543167781
62.85954 289.09413620129
62.87965 316.030103184589
62.89977 283.025515093487
62.91988 294.982757528054
62.94 304
62.96011 316.001283615608
62.98022 306.987930604874
63.00034 306.031831455564
63.02045 313.083838073196
63.04056 257.055799030995
63.06068 276.962757407172
63.08079 295.003862744475
63.10091 286.010315786362
63.12102 318.996893421363
63.14113 280.964990285585
63.16125 288.010337393518
63.18136 279.992441228694
63.20147 294.997565709485
63.22159 283.999097306182
63.2417 302
63.26182 292.976907070951
63.28193 278.01309118832
63.30204 298.006491697649
63.32216 289.97191007692
63.34227 315.013045414233
63.36238 272.032686215404
63.3825 285
63.40261 333.007765054875
63.42272 303.944673271451
63.44284 269.029646473683
63.46295 305.995227024468
63.48307 274.011391983627
63.50318 307.965783588855
63.52329 311.009389125257
63.54341 291.99660622558
63.56352 293.995214556374
63.58363 277.976117435711
63.60375 277.044565807775
63.62386 296.00344187151
63.64398 280.999146289831
63.66409 302.990439807257
63.6842 304
63.70432 303.01559902393
63.72443 322.000068547021
63.74454 309.003989516375
63.76466 323.010163074653
63.78477 302.003924216057
63.80489 316.002767790975
63.825 297
63.84511 341.020354573013
63.86523 357.009497109469
63.88534 371.047108245316
63.90545 394.9684275368
63.92557 406.950337455724
63.94568 444.99593803148
63.96579 412.017112278955
63.98591 406.008215335033
64.00602 409.962477664315
64.02614 355.968631940559
64.04625 375.998092182631
64.06636 346.022001150489
64.08648 367.979025584285
64.10659 360.015545832439
64.1267 325
64.14682 314.99635731899
64.16693 317.023414880398
64.18705 330.972427721917
64.20716 314.95519098039
64.22727 347.046127579588
64.24739 274.010607423281
64.2675 307
64.28761 258.995971146183
64.30773 295.000544154152
64.32784 250.964590554123
64.34796 282.931269231502
64.36807 282.041016199672
64.38818 251.020343492228
64.4083 247
64.42841 253.004807937519
64.44852 245.954332957483
64.46864 206.06558213468
64.48875 284.923858546183
64.50886 247.065153747917
64.52898 250.004850375309
64.54909 229.9993746099
64.56921 253.004357214361
64.58932 235.981696860371
64.60943 233.007294800258
64.62955 239.019592196104
64.64966 245.994958022241
64.66977 245.000137585238
64.68989 245.002575003445
64.71 243
64.73012 265.005880393581
64.75023 247.964792553601
64.77034 234.996994582424
64.79046 245.953248209212
64.81057 265.003850028908
64.83068 244.018896355582
64.8508 244
64.87091 262.005429979043
64.89102 256.979884532668
64.91114 240.00788206147
64.93125 259.967041682371
64.95137 252.031381270219
64.97148 245.97124374707
64.99159 280.005342609272
65.01171 234.990662323908
65.03182 253.00494576637
65.05193 232.989187162688
65.07205 256.082641083715
65.09216 274.999705899283
65.11228 264.010013324093
65.13239 260.00243579978
65.1525 253
65.17262 244.973400659907
65.19273 223.030250631304
65.21284 270.041684511764
65.23296 246.06937024214
65.25307 240.952903224206
65.27319 279.9948425262
65.2933 263
65.31341 279.007204321799
65.33353 270.95964089802
65.35364 244.983371150097
65.37375 250.998714633135
65.39387 247.977114557374
65.41398 277.981085056254
65.43409 275.005119004806
65.45421 268.997596043512
65.47432 258.981689466266
65.49444 245.012866701972
65.51455 266.034193736246
65.53466 266.991192753517
65.55478 271.016470855917
65.57489 250.993097162066
65.595 282
65.61512 242.986428034473
65.63523 270.037121517724
65.65535 266.96513507988
65.67546 268.944174077946
65.69557 299.998839130469
65.71569 274.007900441518
65.7358 285
65.75591 294.002430144213
65.77603 286.953231244397
65.79614 252.994759889695
65.81626 274.988471405264
65.83637 259.003940239238
65.85648 271.007320236369
65.8766 250
65.89671 284.012715464424
65.91682 280.985547337468
65.93694 264.951264062944
65.95705 243.003296696642
65.97716 249.03580946578
65.99728 218.001417417306
66.01739 257.97486297383
66.03751 269.977738401366
66.05762 210.987487843193
66.07773 255.075175277162
66.09785 264.932502958961
66.11796 232.021241417842
66.13807 258.922286940489
66.15819 292.008821400775
66.1783 243
66.19842 258.031597446446
66.21853 269.974444515422
66.23864 240.971294342309
66.25876 249.970597019344
66.27887 256.995064554177
66.29898 263.986060695887
66.3191 275
66.33921 255.99180487545
66.35933 255.016901478498
66.37944 266.002391624935
66.39955 254.047249309798
66.41967 242.991221908878
66.43978 255.998659354237
66.45989 245.002587100326
66.48001 250.000709936831
66.50012 234.969583318035
66.52023 212.010236878766
66.54035 236.015670566168
66.56046 234.927140464002
66.58058 292.982096723375
66.60069 262.013617737678
66.6208 260
66.64092 239.99148978385
66.66103 243.990775571074
66.68114 229.000380428876
66.70126 249.953824219458
66.72137 262.986855776437
66.74149 259.015615679193
66.7616 217
66.78171 235.021948992062
66.80183 269.000966489968
66.82194 247.984192968698
66.84205 255.026856441385
66.86217 233.986173284434
66.88228 264.99649745265
66.90239 236.008543494426
66.92251 251.011505642963
66.94262 258.993625843185
66.96274 260.058773925196
66.98285 290.961233434433
67.00296 238.06553687557
67.02308 247.981429952266
67.04319 255.993920540562
67.0633 277
67.08342 271.958148348761
67.10353 231.016049686986
67.12365 280.058175107646
67.14376 255.064248070959
67.16387 250.971975814126
67.18399 266.00495911049
67.2041 243
67.22421 255.995680361977
67.24433 236.024741646585
67.26444 284.053136523731
67.28456 266.066141864601
67.30467 257.957832642108
67.32478 300.975156930829
67.3449 296
67.36501 286.994546316872
67.38512 284.021752406741
67.40524 321.050951995628
67.42535 322.02578502
67.44546 315.998524946126
67.46558 332.959907650683
67.48569 381.982106649394
67.50581 391.99645745199
67.52592 395.031406905219
67.54603 447.068655200744
67.56615 481.105384960705
67.58626 539.875072573742
67.60637 598.910831812023
67.62649 649.985942010984
67.6466 657
67.66672 667.017495045359
67.68683 688.031933177763
67.70694 698.985623052147
67.72706 662.139217278878
67.74717 596.032043290717
67.76728 600.030357485443
67.7874 537
67.80751 547.002266929467
67.82763 542.04482051558
67.84774 599.062919515783
67.86785 598.964576925957
67.88797 629.993917525747
67.90808 599.030154618324
67.92819 594.993978174396
67.94831 614.013356333725
67.96842 644.027380786593
67.98853 685.113641243884
68.00865 774.144449227093
68.02876 804.899089351513
68.04888 878.946944703699
68.06899 896.993969021494
68.0891 908
68.10922 871.972210625342
68.12933 855.956113535766
68.14944 819.97903407109
68.16956 835.977131876205
68.18967 835.981346942565
68.20979 869.97991275154
68.2299 876
68.25001 797.980011524433
68.27013 813.038644340508
68.29024 789.825474785068
68.31035 688.122298030057
68.33047 669.115908321163
68.35058 530.113161428395
68.3707 491
68.39081 482.989669541677
68.41092 461.997724849431
68.43104 468.976032764579
68.45115 438.953290193799
68.47126 430.058718904308
68.49138 388.015797688104
68.51149 382.025419686205
68.5316 306
68.55172 342.033367684965
68.57183 333.963020827384
68.59195 315.969060082528
68.61206 295.08370199038
68.63217 261.971700881069
68.65229 303.005084288077
68.6724 252
68.69251 295.009024387761
68.71263 262.952680967984
68.73274 269.061596110675
68.75286 288.034141307333
68.77297 252.020153287349
68.79308 266.992092163249
68.8132 250
68.83331 247.014411434337
68.85342 287.019281345037
68.87354 275.960918652322
68.89365 262.038822611724
68.91376 247.009344796278
68.93388 253.989793151569
68.95399 266.98824099902
68.97411 281.989620215558
68.99422 250.008731655028
69.01433 298.050744364565
69.03445 283.892776957573
69.05456 245.040238894677
69.07467 251.957586954237
69.09479 273.004765901668
69.1149 241
69.13502 248.026544293931
69.15513 260.964560342896
69.17524 231.034137598271
69.19536 277.988336577668
69.21547 237.034162007511
69.23558 245.013439944374
69.2557 210
69.27581 244.013037352242
69.29593 238.979113129246
69.31604 235.005634165366
69.33615 238.000815097307
69.35627 240.975461731899
69.37638 252.023378686361
69.39649 209.009091862844
69.41661 232.018165769865
69.43672 252.001132588349
69.45683 242.987851064857
69.47695 238.981200720239
69.49706 235.965563678601
69.51718 262.989758479733
69.53729 252.005167359602
69.5574 251
69.57752 243.002383251018
69.59763 253.001830361634
69.61774 236.949393891909
69.63786 224.967080957468
69.65797 250.002387938655
69.67809 231.99447623938
69.6982 275
69.71831 270.98872098676
69.73843 248.970977464372
69.75854 243.032914815692
69.77865 262.019296366757
69.79877 234.018702091669
69.81888 244.993289779928
69.839 244
69.85911 260.989464684535
69.87922 221.000041063283
69.89934 257.018283594036
69.91945 228.967069754857
69.93956 250.948964151547
69.95968 262.987500247285
69.97979 275.001931593865
69.9999 258
70.02002 255.994846699956
70.04013 240.972598251357
70.06025 240.076447993865
70.08036 277.987585925454
70.10047 246.05666390455
70.12059 238.985778890428
70.1407 270
70.16081 231.984272240857
70.18093 230.016462739092
70.20104 241.028872369205
70.22116 258.964791204266
70.24127 260.042472813934
70.26138 231.984766843997
70.2815 270
70.30161 230.9969639103
70.32172 259.997587657402
70.34184 217.953460645116
70.36195 243.881275318434
70.38207 270.017386908004
70.40218 244.000855719041
70.42229 266.997044299334
70.44241 246.993117499944
70.46252 252.004457154981
70.48263 245.989355711238
70.50275 242.99270308137
70.52286 247.950804411005
70.54297 269.026890799121
70.56309 224.012092482332
70.5832 234
70.60332 240.031307926971
70.62343 274.980593085847
70.64354 224.950610510698
70.66366 243.961809500393
70.68377 244.98801961348
70.70388 262.99439800647
70.724 256
70.74411 260.989156165678
70.76423 221.974059348198
70.78434 237.039010600086
70.80445 242.002713202686
70.82457 242.996081366586
70.84468 245.00041819913
70.86479 242.00195504062
70.88491 238.999075751866
70.90502 226.966497503374
70.92513 206.056062775358
70.94525 264.994162798535
70.96536 205.061830578609
70.98548 235.960335421665
71.00559 243.00717873512
71.0257 231
71.04582 253.032601382037
71.06593 269.974561529265
71.08604 231.94464472664
71.10616 237.935866960923
71.12627 260.025451764191
71.14639 220.008796437637
71.1665 231
71.18661 217.002836592126
71.20673 246.032091445594
71.22684 242.972333811618
71.24695 230.034183039644
71.26707 222.986504459126
71.28718 237.001528175593
71.3073 226
71.32741 250.007824582909
71.34752 241.978918101965
71.36764 227.000082901472
71.38775 236.985112424108
71.40786 240.964284527047
71.42798 263.996937314162
71.44809 243.01201426933
71.4682 237
71.48832 247.989048068509
71.50843 220.975204111621
71.52855 229.051338225312
71.54866 243.994164141661
71.56877 238.0082829736
71.58889 238.997888755852
71.609 242
71.62911 234.990799113205
71.64923 227.042502522309
71.66934 264.989573092057
71.68946 223.038306929989
71.70957 239.988792213329
71.72968 224.007622581381
71.7498 242
71.76991 257.996706682198
71.79002 241.997407106144
71.81014 247.974285841022
71.83025 223.999010098822
71.85037 248.978557152543
71.87048 241.006730395882
71.89059 243.002651340195
71.91071 227.994582900276
71.93082 228.003907317572
71.95093 237.03314851999
71.97105 261.015589101889
71.99116 249.022467396435
72.01127 245.013512706996
72.03139 233.000220946709
72.0515 240
72.07162 237.029132188315
72.09173 275.992822712667
72.11184 233.961401690307
72.13196 253.96758817401
72.15207 250.992239361691
72.17218 267.995193769646
72.1923 247
72.21241 222.001466713036
72.23253 244.023401361614
72.25264 240.982455186875
72.27275 237.003436374504
72.29287 240.978521508794
72.31298 255.002230873223
72.33309 243.998177428885
72.35321 260.001256330398
72.37332 243.986230295576
72.39344 246.021699756313
72.41355 255.008050421729
72.43366 245.053142798046
72.45378 217.010219598183
72.47389 235.979764175982
72.494 254
72.51412 207.038262864023
72.53423 295.016523743864
72.55434 220.91746146929
72.57446 254.931110720013
72.59457 250.014960135645
72.61469 255.995794615214
72.6348 248
72.65491 217.998417484761
72.67503 247.059140306993
72.69514 262.959301019141
72.71525 237.962239127273
72.73537 276.001885274245
72.75548 233.024686781523
72.7756 250
72.79571 247.990223297522
72.81582 229.996283620942
72.83594 247.063103320588
72.85605 267.030391286974
72.87616 236.031755233565
72.89628 260.942525300407
72.91639 298.014542946653
72.9365 236
72.95662 278.031607220159
72.97673 272.999008241915
72.99685 297.069762665248
73.01696 296.084392540042
73.03707 248.008085864947
73.05719 283.986233522352
73.0773 279
73.09741 275.998753638353
73.11753 278.02885712328
73.13764 297.98254319418
73.15776 267.033855698004
73.17787 285.93879583009
73.19798 318.991166372681
73.2181 309
73.23821 319.010270320088
73.25832 338.011732849812
73.27844 354.074064760878
73.29855 398.945514550979
73.31867 391.021170069907
73.33878 389.992182387639
73.35889 410.978757265885
73.37901 456.009582183241
73.39912 439.967304448222
73.41923 409.961438231595
73.43935 404.070546055101
73.45946 439.001429105584
73.47957 394.083118056229
73.49969 364.000757578664
73.5198 373
73.53992 349.964944876977
73.56003 334.03779287059
73.58014 381.054125990865
73.60026 372.039992717047
73.62037 354.041507074326
73.64048 324.012536804038
73.6606 330
73.68071 317.985165511282
73.70083 294.007790831793
73.72094 313.994272825921
73.74105 280.087995643459
73.76117 268.985677596575
73.78128 278.009099346775
73.80139 267.98802690415
73.82151 303.995387301801
73.84162 249.959056920826
73.86174 256.059887747962
73.88185 284.056792507472
73.90196 294.015043850814
73.92208 280.004696896146
73.94219 281.0062676976
73.9623 258
73.98242 272.028862027158
74.00253 288.98175034222
74.02264 256.949646606948
74.04276 252.988992599496
74.06287 257.990589372597
74.08299 262.001870265972
74.1031 252
74.12321 254.008338883948
74.14333 264.971877744366
74.16344 235.00286903742
74.18355 271.915998641243
74.20367 277.015982621394
74.22378 259.029650728047
74.2439 230
74.26401 242.011403388138
74.28412 261.012270237135
74.30424 260.96950972957
74.32435 247.975185407915
74.34446 269.001058073639
74.36458 247.010517331154
74.38469 253.002605836747
74.40481 242.008251104084
74.42492 283.028846980225
74.44503 271.936199079769
74.46515 238.017385185495
74.48526 266.006235061837
74.50537 229.032150721948
74.52549 247.982547484342
74.5456 268
74.56571 256.999686051537
74.58583 264.993120248943
74.60594 245.972000747999
74.62606 254.938834992157
74.64617 276.028229631776
74.66628 237.008737974867
74.6864 274
74.70651 289.988248144142
74.72662 248.971749440612
74.74674 249.028526522686
74.76685 253.042002678685
74.78697 235.978792291538
74.80708 264.007127934984
74.82719 234.994211285649
74.84731 280.004202984938
74.86742 259.026301802504
74.88753 311.973147394149
74.90765 236.947912565761
74.92776 287.940731498212
74.94787 265.021351008598
74.96799 271.01179803
74.9881 223
75.00822 264.069544607843
