3.00117 19999.4458714719
3.02128 19636.4888959722
3.0414 19087
3.06151 18829.9791982216
3.08162 18637.2944634275
3.10174 17660.7513973582
3.12185 17397.2418936022
3.14197 16561.0038913297
3.16208 16331.0071813842
3.18219 16036.4333766234
3.20231 14998.7501987923
3.22242 15039.8940714867
3.24253 14476.0442798784
3.26265 14103.6548565358
3.28276 13886.1437331463
3.30288 13094.5844100249
3.32299 12815.1427879215
3.3431 12344
3.36322 11938.7192179148
3.38333 11636.2871933019
3.40344 11118.4661536924
3.42356 11074.2702564467
3.44367 10656.8575123462
3.46379 10191.1065971483
3.4839 10058
3.50401 9449.7233195594
3.52413 9116.64973510558
3.54424 8884.60193763631
3.56435 8673.73020772601
3.58447 8222.91122554577
3.60458 7651.32782126886
3.62469 7567.01894817723
3.64481 7377.83213650601
3.66492 7035.79579160619
3.68504 6892.41019709775
3.70515 6450.08910944738
3.72526 6260.2670748309
3.74538 6075.22011337656
3.76549 5843.11528797879
3.7856 5576
3.80572 5223.77159749459
3.82583 5166.0568127489
3.84595 5104.30302102253
3.86606 4780.14571024039
3.88617 4806.47818516905
3.90629 4214.16914380654
3.9264 4255
3.94651 4063.89149793648
3.96663 3952.9100483511
3.98674 3788.27086677599
4.00686 3414.17443398096
4.02697 3575.87781094356
4.04708 3361.39547150515
4.0672 3014
4.08731 2984.98915134691
4.10742 2874.84790609516
4.12754 2779.03083752259
4.14765 2806.2868170719
4.16776 2566.38275573511
4.18788 2496.0460703984
4.20799 2403.05552620581
4.22811 2358.03924223503
4.24822 2416.83884223353
4.26833 2120.78663681274
4.28845 2174.01557488048
4.30856 2055.15821708037
4.32867 2111.8116439504
4.34879 2158.05800290311
4.3689 1948
4.38902 1916.99913603543
4.40913 1873.89939643514
4.42924 1852.15061469727
4.44936 1918.20542498193
4.46947 1722.0791831601
4.48958 1818.98295010429
4.5097 1679
4.52981 1667.05099755606
4.54992 1749.94700754824
4.57004 1604.84880328166
4.59015 1602.21335487829
4.61027 1446.08457476815
4.63038 1545.85722737452
4.65049 1584.05140199279
4.67061 1438.9747870086
4.69072 1459.93465970803
4.71083 1304.86689015621
4.73095 1356.27717701339
4.75106 1401.13659040381
4.77118 1283.05601071571
4.79129 1303.00025428658
4.8114 1257
4.83152 1298.06364996876
4.85163 1295.82152320968
4.87174 1136.86221530305
4.89186 1182.88572153811
4.91197 1183.0335182556
4.93209 1168.00621171307
4.9522 1155
4.97231 1125.96662400529
4.99243 1077.06880036882
5.01254 1165.00052559205
5.03265 1065.20495167897
5.05277 1046.04058913382
5.07288 1018.94711299962
5.09299 1101.01035488414
5.11311 966.937549081615
5.13322 961.10287784572
5.15334 1059.98208240045
5.17345 947.732141188717
5.19356 911.013083382122
5.21368 922.940539369042
5.23379 988.999341040095
5.2539 936
5.27402 943.967242917685
5.29413 865.921237541288
5.31425 870.055743139316
5.33436 878.99592875045
5.35447 863.077155903462
5.37459 808.003978344194
5.3947 841
5.41481 832.004832728526
5.43493 858.996406429602
5.45504 815.903592069704
5.47516 796.979328146088
5.49527 816.984786559005
5.51538 814.997079312372
5.5355 810
5.55561 752.991543618247
5.57572 766.982149537797
5.59584 729.033199127813
5.61595 795.906038979502
5.63606 770.089603301226
5.65618 740.025470657162
5.67629 714.010255705987
5.69641 686.974635393107
5.71652 658.056323746781
5.73663 758.056542801295
5.75675 702.816286431152
5.77686 671.005976847946
5.79697 684.951638087647
5.81709 726.979477968507
5.8372 738
5.85732 677.965629082365
5.87743 670.963841723855
5.89754 644.058465335037
5.91766 701.007147042593
5.93777 627.098982438392
5.95788 638.917826232409
5.978 714
5.99811 658.995532885207
6.01823 706.023019601384
6.03834 665.935899947787
6.05845 673.956750606195
6.07857 667.050987607365
6.09868 638.985656787224
6.11879 684.984942878703
6.13891 678.992329111074
6.15902 670.989515088592
6.17913 667.032228728917
6.19925 686.930807969995
6.21936 623.083458816811
6.23948 630.97208108995
6.25959 648.996223972138
6.2797 651
6.29982 641.965095687996
6.31993 611.027878976744
6.34004 666.06513114005
6.36016 653.046859286241
6.38027 639.029180002046
6.40039 615.006064836061
6.4205 619
6.44061 622.000014245202
6.46073 616.97847277561
6.48084 593.947433494581
6.50095 576.006766955825
6.52107 605.890481813044
6.54118 665.023896050529
6.56129 582.024306014139
6.58141 596.006119854229
6.60152 583.002500053607
6.62164 602.997454161055
6.64175 577.968418868204
6.66186 598.920672818518
6.68198 630.987985088128
6.70209 620.012457862459
6.7222 612
6.74232 646.981512487396
6.76243 587.956567282263
6.78255 606.030650009326
6.80266 591.0222327676
6.82277 608.938336384689
6.84289 634.012546722073
6.863 591
6.88311 646.019109824209
6.90323 632.950009502441
6.92334 601.927479762014
6.94346 578.965286169881
6.96357 618.973310914895
6.98368 611.989815002307
7.0038 639
7.02391 596.970426073222
7.04402 565.01474439839
7.06414 615.108229729824
7.08425 633.070896536562
7.10436 592.019052583058
7.12448 621.966797775076
7.14459 624.01388294733
7.16471 603.010636123509
7.18482 640.993486766252
7.20493 586.935112637771
7.22505 586.039116010335
7.24516 607.913962392551
7.26527 643.026824068822
7.28539 594.006410476451
7.3055 617
7.32562 576.996143590287
7.34573 622.058763866657
7.36584 617.938532694397
7.38596 592.011197796722
7.40607 609.955738230164
7.42618 629.9990402656
7.4463 606
7.46641 575.00781224127
7.48653 615.014358189061
7.50664 600.040876404449
7.52675 649.967936887925
7.54687 617.031705541078
7.56698 618.023884630302
7.58709 573.007262492335
7.60721 584.991672572793
7.62732 550.012392820121
7.64743 596.000209329248
7.66755 557.019101803651
7.68766 609.977948698298
7.70778 586.962421540311
7.72789 664.998713839404
7.748 587
7.76812 612.029825061873
7.78823 594.927928315223
7.80834 560.014256531871
7.82846 597.943573543961
7.84857 595.023679673339
7.86869 582.006380986862
7.8888 580
7.90891 594.981650704125
7.92903 529.963183478932
7.94914 568.109637872214
7.96925 603.935724447812
7.98937 620.004468634552
8.00948 596.037498810183
8.0296 590
8.04971 674.00815314792
8.06982 590.873975095385
8.08994 523.074637042291
8.11005 616.130634103273
8.13016 596.057215581825
8.15028 594.003667640018
8.17039 580.002243504455
8.1905 587
8.21062 568.968861264328
8.23073 553.033646207357
8.25085 598.070507961033
8.27096 600.984513188486
8.29107 621.981662350251
8.31119 612.01184631504
8.3313 610
8.35141 667.000345503272
8.37153 614.947900191843
8.39164 602.894889405711
8.41176 534.986699885868
8.43187 619.884269224836
8.45198 632.025474202241
8.4721 610
8.49221 618.001702131879
8.51232 610.994267610681
8.53244 612.003288170523
8.55255 597.105803495443
8.57266 553.016441599378
8.59278 584.961073833695
8.61289 598.006592276703
8.63301 591.015917963685
8.65312 629.981397249665
8.67323 574.991849316006
8.69335 614.9897836098
8.71346 561.039803924015
8.73357 604.918955734623
8.75369 612.021962602408
8.7738 564
8.79392 607.03113476108
8.81403 606.001750960851
8.83414 628.054025520698
8.85426 632.063094914925
8.87437 594.999081052955
8.89448 621.004037820373
8.9146 583
8.93471 604.016810984961
8.95483 615.976001933117
8.97494 585.952966316861
8.99505 586.941346108915
9.01517 611.989089484177
9.03528 611.977812731402
9.05539 642.003290693448
9.07551 585.963321036024
9.09562 539.995657913809
9.11573 568.055801525225
9.13585 584.974391039297
9.15596 580.915441171002
9.17608 646.973978793011
9.19619 620.014866257133
9.2163 612
9.23642 589.986424769041
9.25653 595.022837254992
9.27664 599.964992145251
9.29676 584.950181613116
9.31687 609.082662700031
9.33699 523.992946151543
9.3571 627
9.37721 588.985546855894
9.39733 613.032656854098
9.41744 600.954762124814
9.43755 597.940398592968
9.45767 621.019553414342
9.47778 577.034095260437
9.4979 577
9.51801 595.007927394818
9.53812 601.993201171938
9.55824 583.956872631113
9.57835 577.046321270903
9.59846 594.045221080529
9.61858 552.002741536092
9.63869 587.992263990728
9.6588 569
9.67892 592.029848155229
9.69903 612.025864795928
9.71915 619.961698549451
9.73926 597.001353623205
9.75937 619.972743556413
9.77949 607.021024404304
9.7996 572
9.81971 611.013299337527
9.83983 597.946378343356
9.85994 584.071771074741
9.88006 632.0131031464
9.90017 563.108967541863
9.92028 540.974637787855
9.9404 591
9.96051 625.003616281995
9.98062 608.970209029549
10.00074 577.943220776304
10.02085 565.962277739537
10.04097 586.011987412509
10.06108 579.941189451491
10.08119 662.998862809317
10.10131 585.975154129133
10.12142 599.005726684771
10.14153 585.035551444273
10.16165 626.95801299832
10.18176 564.03813480693
10.20187 595.003124034337
10.22199 560.990598702602
10.2421 628
10.26222 582.945731668105
10.28233 580.073185300629
10.30244 624.969222569577
10.32256 569.039465401135
10.34267 609.925192627741
10.36278 617.036396117697
10.3829 566
10.40301 560.003929691484
10.42313 567.010406541233
10.44324 572.00039969704
10.46335 578.930320307788
10.48347 606.015567097733
10.50358 580.98014118478
10.52369 647.971977198323
10.54381 636.961561256703
10.56392 557.982836190134
10.58403 601.057645565955
10.60415 601.986402862823
10.62426 610.973851135766
10.64438 623.981252957116
10.66449 630.015675086212
10.6846 587
10.70472 623.025155621296
10.72483 626.028977208824
10.74494 644.926579713583
10.76506 576.042417671247
10.78517 605.991448069291
10.80529 569.011092485961
10.8254 588
10.84551 606.007674455323
10.86563 616.993749173863
10.88574 603.990498452974
10.90585 614.957294760544
10.92597 619.028273827541
10.94608 585.031054781302
10.9662 583
10.98631 627.007041438226
11.00642 607.982624044444
11.02654 610.00951378081
11.04665 610.981892267682
11.06676 597.144933858762
11.08688 534.943740178452
11.10699 656.987022892321
11.1271 581
11.14722 646.031096271149
11.16733 606.962857265619
11.18745 627.028782319841
11.20756 610.024632108259
11.22767 625.947890599277
11.24779 654.996213519747
11.2679 634
11.28801 594.988862106493
11.30813 596.02525402699
11.32824 627.101139231411
11.34836 651.109886419522
11.36847 557.059828186978
11.38858 589.968141975014
11.4087 591
11.42881 613.991857790676
11.44892 575.003284379225
11.46904 633.120290714214
11.48915 643.102356288049
11.50927 606.961232013496
11.52938 658.018079725709
11.54949 594.994486148182
11.56961 667.000256763258
11.58972 585.959714609336
11.60983 624.049019946696
11.62995 615.997216440339
11.65006 642.943444206029
11.67017 658.975774359474
11.69029 665.013603483941
11.7104 624
11.73052 649.026269847945
11.75063 660.020982602955
11.77074 671.972860231291
11.79086 633.079775685843
11.81097 620.968144222377
11.83108 666.943839714791
11.8512 688
11.87131 620.99514079929
11.89143 683.105083356968
11.91154 702.947861527208
11.93165 669.018553989347
11.95177 710.880423706359
11.97188 781.974364413465
11.99199 768.00592497075
12.01211 762.982504132593
12.03222 729.035380588162
12.05234 811.073992825749
12.07245 797.047427360213
12.09256 863.910344341657
12.11268 864.995778712832
12.13279 899.977132795021
12.1529 929
12.17302 906.959741281451
12.19313 900.106128674367
12.21324 994.034637171339
12.23336 956.940082084444
12.25347 1053.93721760114
12.27359 1006.02523708972
12.2937 1009
12.31381 1026.00344658093
12.33393 1001.88839461406
12.35404 914.918320088566
12.37415 931.927889665388
12.39427 923.075700020043
12.41438 848.077386983622
12.4345 802
12.45461 826.008209646621
12.47472 809.959292423919
12.49484 759.898644416889
12.51495 730.980241085732
12.53506 760.9553790448
12.55518 761.007433536526
12.57529 727.046988920949
12.5954 631
12.61552 717.082218250283
12.63563 716.897871039772
12.65575 655.012371531893
12.67586 704.974971531278
12.69597 667.029079926561
12.71609 680.00491996843
12.7362 640
12.75631 648.000819248795
12.77643 632.991516305608
12.79654 636.976510453425
12.81666 618.978172147853
12.83677 647.002925694719
12.85688 598.065480853153
12.877 554
12.89711 575.025764963815
12.91722 633.043396084823
12.93734 644.967332647583
12.95745 626.989817883183
12.97757 639.026664255072
12.99768 602.007383178528
13.01779 626.994346040896
13.03791 602.982591888801
13.05802 588.011627978954
13.07813 620.058771082631
13.09825 635.936966600378
13.11836 598.007791047358
13.13847 631.956344941163
13.15859 625.015895921863
13.1787 589
13.19882 580.01829008095
13.21893 622.083523195514
13.23904 654.965533963405
13.25916 598.11568996229
13.27927 573.988960016409
13.29938 588.001651869208
13.3195 574
13.33961 597.015565972959
13.35973 607.966289723991
13.37984 566.938008561924
13.39995 574.880567342563
13.42007 627.967229105783
13.44018 599.063204813728
13.46029 545.008324747184
13.48041 577.032014152603
13.50052 614.969381101505
13.52064 558.003164638528
13.54075 620.099948320816
13.56086 580.190808535122
13.58098 516.965556508202
13.60109 615.967710955571
13.6212 596
13.64132 571.028567539524
13.66143 630.066398136889
13.68154 625.916437281568
13.70166 588.9985760001
13.72177 615.9858109253
13.74189 584.026624243767
13.762 548
13.78211 584.025335935425
13.80223 615.99936260752
13.82234 594.967295604056
13.84245 590.029057222008
13.86257 585.945812331
13.88268 634.99881420698
13.9028 580
13.92291 554.996974920343
13.94302 555.008049917445
13.96314 576.073231472933
13.98325 605.013681282396
14.00336 577.023879912424
14.02348 589.991790940996
14.04359 577.010435215756
14.06371 575.015271577291
14.08382 600.970323140701
14.10393 537.96622845511
14.12405 568.054063754567
14.14416 557.01471894196
14.16427 567.988415024722
14.18439 572.987862261565
14.2045 587
14.22461 519.003605404366
14.24473 597.073963637385
14.26484 572.912282326402
14.28496 557.980399854348
14.30507 583.943434391371
14.32518 611.999489054991
14.3453 585
14.36541 550.981923902603
14.38552 523.999148768635
14.40564 557.115330115719
14.42575 589.08972876698
14.44587 524.019055744629
14.46598 577.946583461872
14.48609 589.003433775847
14.50621 572.979580578664
14.52632 529.994094282337
14.54643 567.070196511751
14.56655 576.896977674062
14.58666 532.966809304734
14.60677 604.912019440934
14.62689 615.003101506177
14.647 602
14.66712 562.018933624947
14.68723 607.977678088534
14.70734 527.877062704899
14.72746 533.920297847254
14.74757 562.989946326707
14.76768 567.965030971778
14.7878 618
14.80791 586.976037300166
14.82803 562.010833033595
14.84814 587.038463029788
14.86825 583.053496056893
14.88837 574.954241060555
14.90848 617.996408400486
14.92859 586.0059040099
14.94871 596.990426407163
14.96882 544.965873767472
14.98894 552.043056405891
15.00905 566.026686744285
15.02916 566.044773647161
15.04928 539.998692726121
15.06939 565.991491890859
15.0895 569
15.10962 584.970746823678
15.12973 537.00614583467
15.14984 587.038523966922
15.16996 564.00103042966
15.19007 592.998938174613
15.21019 554.015927197096
15.2303 560
15.25041 584.004235514911
15.27053 575.978408689409
15.29064 565.990789987906
15.31075 574.925873332094
15.33087 598.027931191119
15.35098 559.002634406864
15.3711 586
15.39121 540.988259159982
15.41132 563.032322373696
15.43144 575.997187875689
15.45155 573.984815106256
15.47166 583.998074617899
15.49178 570.021731652734
15.51189 563.986857644371
15.53201 606.011966860657
15.55212 598.982341448697
15.57223 587.989474906016
15.59235 586.017418811735
15.61246 585.059261583158
15.63257 548.00269871705
15.65269 567.008610566596
15.6728 517
15.69291 548.02383896047
15.71303 570.988261445657
15.73314 550.984851594847
15.75326 571.918342231746
15.77337 605.987652628468
15.79348 584.037691552041
15.8136 568
15.83371 600.985840181396
15.85382 521.946640754198
15.87394 536.096132586459
15.89405 565.026814753605
15.91417 525.057266750243
15.93428 520.967988199787
15.95439 551.006207703134
15.97451 516.001449653891
15.99462 559.02485896505
16.01473 556.025374341236
16.03485 592.015293189222
16.05496 571.987540066751
16.07508 594.025088449256
16.09519 533.011034566968
16.1153 562
16.13542 557.022823949843
16.15553 601.011350200256
16.17564 563.934862422687
16.19576 571.927979206905
16.21587 606.974683843274
16.23598 604.007831342632
16.2561 585
16.27621 523.986951439315
16.29633 539.027589245033
16.31644 546.036200900653
16.33655 584.884984464963
16.35667 599.066406684574
16.37678 540.999874397931
16.39689 573.017074858774
16.41701 524.043032693721
16.43712 683.018543586926
16.45724 562.910987741561
16.47735 632.021491449086
16.49746 544.092467342913
16.51758 580.97560009874
16.53769 549.018194522629
16.5578 559
16.57792 604.981419323239
16.59803 535.924737838635
16.61814 557.152951499139
16.63826 616.034563110812
16.65837 554.02535104276
16.67849 581.010029908582
16.6986 531
16.71871 611.999165155042
16.73883 537.998364703086
16.75894 620.061458157743
16.77905 563.117116624828
16.79917 568.993325213517
16.81928 560.976929491677
16.8394 601
16.85951 556.985321013153
16.87962 580.056324225396
16.89974 617.972151340158
16.91985 578.016179925707
16.93996 604.997717903861
16.96008 572.015624564177
16.98019 582.003686376372
17.00031 547.986773029551
17.02042 558.041685367376
17.04053 597.009023434974
17.06065 567.909517090167
17.08076 557.955163809641
17.10087 595.954651446211
17.12099 604.002962606732
17.1411 592
17.16121 570.990542245297
17.18133 574.060656177628
17.20144 610.953311401058
17.22156 547.054404566228
17.24167 576.953316841366
17.26178 575.013612730134
17.2819 570
17.30201 572.998862693455
17.32212 574.01857299326
17.34224 604.041163906193
17.36235 605.021092801507
17.38247 599.002767666696
17.40258 591.025980209102
17.42269 567.99334762223
17.44281 607.010191652557
17.46292 593.98263994806
17.48303 588.99306164132
17.50315 565.880392151219
17.52326 545.865056634489
17.54338 642.992205966606
17.56349 580.996870832718
17.5836 655
17.60372 557.913940541685
17.62383 555.065147524742
17.64394 592.027848607035
17.66406 596.948065615436
17.68417 635.979986803128
17.70428 621.007457426076
17.7244 638
17.74451 636.982814726951
17.76463 594.980128830525
17.78474 609.008094779394
17.80485 607.910898428008
17.82497 653.023310123964
17.84508 588.032713721582
17.86519 616.980651456011
17.88531 616.982223570489
17.90542 594.034916149151
17.92554 647.977044922951
17.94565 584.958507827886
17.96576 626.969615265954
17.98588 587.038195099457
18.00599 595.977485902377
18.0261 634
18.04622 610.003734548219
18.06633 634.984918224519
18.08645 589.941271565157
18.10656 609.941214322359
18.12667 616.024702027827
18.14679 593.007051006924
18.1669 588
18.18701 580.009097417018
18.20713 613.018878270949
18.22724 607.023728262915
18.24735 620.097498745022
18.26747 562.980512563322
18.28758 627.989605039554
18.3077 560
18.32781 549.003214685457
18.34792 554.019491320385
18.36804 593.094110657683
18.38815 614.071790561314
18.40826 558.073503933304
18.42838 565.967899235965
18.44849 575.020505316597
18.46861 532.015336154077
18.48872 606.011025399131
18.50883 549.967847301867
18.52895 602.158223259652
18.54906 614.081590233219
18.56917 551.07882777247
18.58929 531.996963153607
18.6094 552
18.62951 576.000327700339
18.64963 555.96717834145
18.66974 550.018731352263
18.68986 565.971758291251
18.70997 574.987109855022
18.73008 591.970905321352
18.7502 614
18.77031 567.966872441664
18.79042 532.02895997227
18.81054 599.086352545531
18.83065 599.004790385926
18.85077 597.06258994797
18.87088 543.995105658616
18.89099 605.975664045315
18.91111 600.985304316707
18.93122 574.976407947782
18.95133 568.037994869361
18.97145 589.917680206543
18.99156 536.972255809229
19.01168 608.965645223083
19.03179 593.990488430339
19.0519 643
19.07202 581.981457900099
19.09213 612.991043603373
19.11224 564.982639850364
19.13236 594.032057085754
19.15247 539.007256090867
19.17258 582.997900918252
19.1927 551
19.21281 639.017397499856
19.23293 593.934601116086
19.25304 609.100965068102
19.27315 641.045364219209
19.29327 594.034254948485
19.31338 611.977299303147
19.33349 614.004127565154
19.35361 604.994726812766
19.37372 591.984761768296
19.39384 583.011727770148
19.41395 593.99464554667
19.43406 583.988698781142
19.45418 614.957816981244
19.47429 639.005123169825
19.4944 619
19.51452 655.014587241932
19.53463 630.949581971457
19.55475 622.053723471161
19.57486 643.032962792537
19.59497 611.978358410458
19.61509 667.983519725414
19.6352 645
19.65531 632.025326089807
19.67543 699.009468185429
19.69554 654.984461598889
19.71565 705.88690700385
19.73577 713.995904450747
19.75588 752.915902499145
19.776 849
19.79611 878.017287925191
19.81622 917.001086994751
19.83634 894.017433408118
19.85645 929.993174095359
19.87656 910.938064189466
19.89668 992.939187007118
19.91679 973.044495989655
19.93691 885.988009594034
19.95702 926.044835906421
19.97713 917.909895998865
19.99725 873.093103912778
20.01736 945.016643524892
20.03747 856.082561658711
20.05759 872.993446854769
20.0777 857
20.09782 882.994544041703
20.11793 849.992775481427
20.13804 878.020149526701
20.15816 843.111888466126
20.17827 814.961151576488
20.19838 872.958515319935
20.2185 858
20.23861 803.001523956459
20.25872 850.027401083656
20.27884 834.965340403483
20.29895 843.940261920907
20.31907 863.987598174085
20.33918 853.029976163806
20.35929 834.987431570589
20.37941 892.022845711159
20.39952 877.920240814276
20.41963 790.957585975617
20.43975 838.185180612048
20.45986 888.952178192315
20.47998 885.030109652759
20.50009 856.999433141719
20.5202 875
20.54032 839.965573563652
20.56043 820.971462451511
20.58054 817.083918553282
20.60066 878.952403234963
20.62077 874.946989672081
20.64088 942.974445886211
20.661 921
20.68111 965.019980574936
20.70123 988.060102317731
20.72134 1080.28686751512
20.74145 1227.74776639715
20.76157 1327.71290081578
20.78168 1603.74485367311
20.80179 1771.94319645684
20.82191 1900.08710347316
20.84202 2047.01038696893
20.86214 1921.69830145931
20.88225 1800.64727878059
20.90236 1614.40330367862
20.92248 1409.21987175936
20.94259 1194.08626780412
20.9627 1080
20.98282 1023.95383336559
21.00293 982.951010028363
21.02305 969.031951894084
21.04316 1001.92405631607
21.06327 1010.06382194423
21.08339 965.98743408113
21.1035 1057
21.12361 1047.94546311157
21.14373 958.088229147201
21.16384 1115.14974966202
21.18395 1051.20095303772
21.20407 1059.87655523525
21.22418 1147.95975796626
21.2443 1123
21.26441 1074.98076301994
21.28452 1090.11044104514
21.30464 1205.97558174667
21.32475 1082.21188139693
21.34486 1097.94126586958
21.36498 1111.94314423891
21.38509 1166.02697819718
21.40521 1029.95730271104
21.42532 1046.0377340267
21.44543 1053.00451465505
21.46555 1024.71818957349
21.48566 890.075518345956
21.50577 949.938351109626
21.52589 903.043727692291
21.546 866
21.56612 950.997880591536
21.58623 853.870806293104
21.60634 850.091330202527
21.62646 887.990527708483
21.64657 866.025887168215
21.66668 871.9835618779
21.6868 852
21.70691 748.988902940283
21.72702 818.077885360783
21.74714 840.970073312972
21.76725 804.14837639266
21.78737 753.01470997258
21.80748 773.991299437162
21.82759 763.996038632862
21.84771 775.982738529154
21.86782 715.986783109663
21.88793 766.086836910066
21.90805 795.043316094028
21.92816 803.033655730277
21.94828 765.039568521652
21.96839 750.990066212865
21.9885 765
22.00862 696.979048469706
22.02873 734.04747614312
22.04884 727.973291275805
22.06896 726.998260378748
22.08907 723.007452805732
22.10919 717.005420944749
22.1293 703
22.14941 709.016196168924
22.16953 740.992767203821
22.18964 720.039015657345
22.20975 779.893290855875
22.22987 764.088780867953
22.24998 708.020575559226
22.27009 719.995029874943
22.29021 710.99489196706
22.31032 720.030999384075
22.33044 747.993311718194
22.35055 720.962586565455
22.37066 723.022495347297
22.39078 681.05922552096
22.41089 648.98634349496
22.431 718
22.45112 732.982390100142
22.47123 711.988375333017
22.49135 730.099637827811
22.51146 754.052703659679
22.53157 699.04075364194
22.55169 714.990850947677
22.5718 692
22.59191 637.008409815781
22.61203 708.071341938798
22.63214 692.91918454092
22.65225 670.990619112499
22.67237 680.019720104685
22.69248 660.980883079634
22.7126 698
22.73271 646.989213131701
22.75282 674.024639463035
22.77294 673.001047619391
22.79305 681.014595030336
22.81316 679.912665208957
22.83328 738.996160068258
22.85339 697.004004480201
22.87351 714.978189563993
22.89362 638.006218017582
22.91373 705.988423408134
22.93385 625.97070041014
22.95396 694.956406288026
22.97407 652.992642222495
22.99419 719.983659304053
23.0143 688
23.03442 690.00231665627
23.05453 679.99684251822
23.07464 685.988469268773
23.09476 659.074347039114
23.11487 645.947073137705
23.13498 699.981919785014
23.1551 658
23.17521 609.999764376708
23.19532 653.058624093539
23.21544 680.95553359074
23.23555 651.931898000421
23.25567 708.00930375953
23.27578 645.022846605441
23.29589 681.990145346004
23.31601 661.99742058663
23.33612 688.018975809079
23.35623 669.929441022995
23.37635 627.975125862481
23.39646 657.89834785042
23.41658 686.020453223639
23.43669 647.99931142323
23.4568 690
23.47692 667.951200347209
23.49703 641.033382772305
23.51714 682.003654755031
23.53726 646.028878223941
23.55737 669.969581646289
23.57749 667.001944132222
23.5976 677
23.61771 680.990436069813
23.63783 654.991972610586
23.65794 678.063651557315
23.67805 697.984527635872
23.69817 697.995707841659
23.71828 696.023599897608
23.73839 667.000447240445
23.75851 683.99561952074
23.77862 674.056799715242
23.79874 768.064988099401
23.81885 721.888958429907
23.83896 717.013639318126
23.85908 699.99362912706
23.87919 732.985512519698
23.8993 744
23.91942 735.943581428406
23.93953 681.042687636862
23.95965 766.081603946601
23.97976 734.996348345467
23.99987 785.970596832785
24.01999 755.010080197453
24.0401 774
24.06021 775.990917774864
24.08033 754.986056391188
24.10044 768.063285173461
24.12056 780.085129756185
24.14067 717.020520626147
24.16078 755.974804605879
24.1809 741
24.20101 737.991203695564
24.22112 730.052882164453
24.24124 817.084131649874
24.26135 776.208680184753
24.28146 716.018890936699
24.30158 747.962903141553
24.32169 760.003811471164
24.34181 745.993743846717
24.36192 752.033853709687
24.38203 793.026203072683
24.40215 776.926581192154
24.42226 752.044131984434
24.44237 738.99318479596
24.46249 749.002600708867
24.4826 734
24.50272 751.005674714097
24.52283 751.039922355221
24.54294 803.086638112043
24.56306 818.00029412738
24.58317 802.068925088901
24.60328 763.977091568008
24.6234 824
24.64351 790.989601139048
24.66362 831.084664488005
24.68374 905.044821145339
24.70385 867.166327136055
24.72397 850.875996876939
24.74408 961.98123491124
24.76419 886.026349902793
24.78431 916.027317855487
24.80442 946.013117703582
24.82453 942.960090115605
24.84465 907.949437176163
24.86476 929.863172698732
24.88488 985.023820753579
24.90499 904.025165676135
24.9251 922
24.94522 949.036646970153
24.96533 969.939488168941
24.98544 881.848506367639
25.00556 870.904167342987
25.02567 918.012220686342
25.04579 864.017859441467
25.0659 875
25.08601 878.994895464217
25.10613 861.969017882398
25.12624 853.030559109388
25.14635 862.100650566488
25.16647 806.987049478825
25.18658 862.99176275099
25.20669 826.990801282517
25.22681 905.021660306547
25.24692 884.981189694687
25.26704 878.908644589078
25.28715 804.905741118231
25.30726 832.881836225088
25.32738 863.025566528967
25.34749 784.051377823175
25.3676 728
25.38772 796.003709059158
25.40783 719.890635929407
25.42795 708.064052523896
25.44806 720.058840100326
25.46817 663.063436018409
25.48829 677.963508950273
25.5084 753
25.52851 711.976616875651
25.54863 686.956924623844
25.56874 652.970897779117
25.58886 678.874648202799
25.60897 732.000876765596
25.62908 694.015132190336
25.6492 719
25.66931 720.002091159961
25.68942 718.961131996288
25.70954 666.986034381724
25.72965 720.819343888549
25.74976 760.00965763444
25.76988 729.02860937807
25.78999 699.031402251529
25.81011 652.025081719501
25.83022 754.026515513157
25.85033 700.9843640024
25.87045 740.941784398846
25.89056 655.066860817969
25.91067 704.924984772581
25.93079 711.998157900475
25.9509 726
25.97102 694.953587987241
25.99113 677.062271584815
26.01124 739.023991299238
26.03136 696.06502886108
26.05147 702.983766043515
26.07158 696.010745958471
26.0917 706
26.11181 749.002206646532
26.13193 713.947509628477
26.15204 726.13444599473
26.17215 794.981438528423
26.19227 738.092197689475
26.21238 735.937771570478
26.23249 820.970004182649
26.25261 819.974302479546
26.27272 769.993390142657
26.29283 807.058931192818
26.31295 821.003887825821
26.33306 837.906727363896
26.35318 919.892975429943
26.37329 996.001590943559
26.3934 949
26.41352 1027.1257711213
26.43363 1156.18351484309
26.45374 1283.29808246775
26.47386 1474.53817192736
26.49397 1797.30781593927
26.51409 2395.66435510518
26.5342 3093
26.55431 3901.47320026944
26.57443 4904.34801637391
26.59454 5685.56031497828
26.61465 6296.66311780462
26.63477 5943.82671067758
26.65488 5404.59433546943
26.67499 4635.48773989675
26.69511 3579.52612239272
26.71522 2837.40307147423
26.73534 2232.63534703259
26.75545 1533.59046055641
26.77556 1196.31023095959
26.79568 1099.11182644729
26.81579 972.033105549166
26.8359 947
26.85602 835.969326251045
26.87613 877.991722386355
26.89625 795.832001888308
26.91636 795.94034932045
26.93647 802.050738413244
26.95659 749.017249933925
26.9767 748
26.99681 730.969146377696
27.01693 676.032087876778
27.03704 745.036941858913
27.05716 685.1357346393
27.07727 669.955785728977
27.09738 702.996581166501
27.1175 670
27.13761 668.032020794671
27.15772 744.007721585535
27.17784 686.922896541948
27.19795 693.013803623409
27.21806 657.057115266683
27.23818 664.964038090399
27.25829 710.977129124413
27.27841 727.984548837902
27.29852 678.982296678001
27.31863 705.049950652687
27.33875 699.86738325857
27.35886 647.982118714296
27.37897 710.924239795227
27.39909 720.99642313577
27.4192 733
27.43932 693.965878555691
27.45943 678.983223070178
27.47954 666.99653915952
27.49966 682.94032996526
27.51977 688.082509389372
27.53988 620.994491521384
27.56 689
27.58011 657.981448543255
27.60023 643.967983010435
27.62034 625.047879487216
27.64045 677.933288209598
27.66057 655.062047666804
27.68068 618.040192185077
27.70079 608.967605502244
27.72091 705.020223723261
27.74102 661.931323688646
27.76113 628.006786719829
27.78125 639.962588679689
27.80136 630.872190513116
27.82148 719.005059591221
27.84159 620.038008497841
27.8617 647
27.88182 701.944004232471
27.90193 596.970294072818
27.92204 662.03313213484
27.94216 610.014818133487
27.96227 665.962288754743
27.98239 621.029953661982
28.0025 589
28.02261 581.0007561633
28.04273 604.081099482425
28.06284 650.982442680939
28.08295 607.024618557019
28.10307 642.96350983478
28.12318 642.979906452634
28.1433 670
28.16341 605.983238798663
28.18352 623.018200167445
28.20364 617.992907093295
28.22375 615.937829859499
28.24386 580.020373759638
28.26398 611.946095718805
28.28409 652.99381484444
28.3042 634
28.32432 609.006874540323
28.34443 623.970550085664
28.36455 586.007098270311
28.38466 639.888583319621
28.40477 676.931748754815
28.42489 706.020380020444
28.445 618
28.46511 611.996879100286
28.48523 603.057932162251
28.50534 655.966704152151
28.52546 598.967607012381
28.54557 684.942008386516
28.56568 638.053887600654
28.5858 620
28.60591 594.997100023379
28.62602 616.028518873524
28.64614 623.956383439265
28.66625 602.950269632095
28.68636 641.0139317514
28.70648 586.042190754582
28.72659 599.973372852923
28.74671 651.011529892828
28.76682 627.93794022808
28.78693 590.064709634991
28.80705 667.015685638443
28.82716 608.029185427903
28.84727 648.006629365423
28.86739 584.019437771419
28.8875 619
28.90762 662.981141917489
28.92773 610.966936701718
28.94784 631.023687309653
28.96796 605.085801296991
28.98807 579.988436864083
29.00818 604.988180188091
29.0283 598
29.04841 598.987452935688
29.06853 564.000073900532
29.08864 607.098327795175
29.10875 613.125810387301
29.12887 560.977778823434
29.14898 633.94678139962
29.16909 635.003313980057
29.18921 637.992616900345
29.20932 610.993996429458
29.22943 630.022563941561
29.24955 620.938813852494
29.26966 604.983393770011
29.28978 616.023491024983
29.30989 579.994406431242
29.33 643
29.35012 648.957891386382
29.37023 605.998112829885
29.39034 649.095055995831
29.41046 650.114729565444
29.43057 587.004805858849
29.45069 643.97414940556
29.4708 646
29.49091 609.978475456861
29.51103 598.08487935321
29.53114 664.962302275879
29.55125 581.078731705721
29.57137 641.885545900059
29.59148 661.034917403714
29.6116 618
29.63171 642.005078160709
29.65182 611.94932845925
29.67194 591.080878283616
29.69205 647.991936171235
29.71216 595.031095192714
29.73228 618.023925490808
29.75239 554.005465247715
29.7725 617
29.79262 638.00359453803
29.81273 624.917399092555
29.83285 563.989195309229
29.85296 611.933034103317
29.87307 601.029072041302
29.89319 601.992907883229
29.9133 625
29.93341 650.997561026462
29.95353 630.000277291486
29.97364 654.026649153089
29.99376 644.023260681583
30.01387 637.026266524733
30.03398 616.00183453324
30.0541 627
30.07421 591.975332719017
30.09432 566.020447144893
30.11444 621.108636896545
30.13455 648.975963663623
30.15467 642.045720190499
30.17478 614.989052053758
30.19489 642.006752419268
30.21501 595.993261861895
30.23512 630.031778473241
30.25523 639.021922795802
30.27535 648.916064247268
30.29546 609.933918535619
30.31557 686.977463792241
30.33569 617.035790514346
30.3558 595
30.37592 593.012880755531
30.39603 618.03068115365
30.41614 620.977534772134
30.43626 607.016487163783
30.45637 610.978269566891
30.47648 628.984105572019
30.4966 637
30.51671 639.007860628499
30.53683 648.959982297332
30.55694 596.930696248056
30.57705 617.819010474011
30.59717 669.060294463627
30.61728 582.018415417529
30.63739 642.982088732664
30.65751 613.985376919642
30.67762 623.021638765347
30.69773 620.945249649888
30.71785 585.027190442952
30.73796 635.924921776352
30.75808 639.000195590908
30.77819 643.007910352872
30.7983 614
30.81842 632.027353713813
30.83853 649.009142782478
30.85864 637.932083973015
30.87876 610.967112976585
30.89887 642.029396068662
30.91899 589.001629883142
30.9391 631
30.95921 584.996236950753
30.97933 635.063705047533
30.99944 620.889379063229
31.01955 576.985283488352
31.03967 615.974323248436
31.05978 612.966749009841
31.0799 669
31.10001 619.978127926527
31.12012 629.047898542063
31.14024 657.931004956395
31.16035 585.101795547329
31.18046 598.956614533421
31.20058 610.968430693236
31.22069 648.999397122046
31.2408 616
31.26092 623.006623381584
31.28103 616.996645724652
31.30115 608.901197678937
31.32126 567.971631915586
31.34137 641.877762198381
31.36149 676.008847885123
31.3816 632
31.40171 611.994106344477
31.42183 603.001474517383
31.44194 608.997923284776
31.46206 607.963991597812
31.48217 634.990142720657
31.50228 610.038105045549
31.5224 589
31.54251 604.994392991313
31.56262 587.030276267843
31.58274 645.019291464066
31.60285 607.022799709429
31.62297 638.986722673122
31.64308 613.008186639062
31.66319 633.995576554782
31.68331 624.002847913076
31.70342 637.980361208411
31.72353 595.983691738306
31.74365 620.024162225522
31.76376 618.918978666062
31.78387 672.02501782768
31.80399 591.028358826884
31.8241 608
31.84422 653.031685951918
31.86433 667.999638654953
31.88444 657.968199467501
31.90456 637.056782416777
31.92467 621.966627919554
31.94478 653.013087530451
31.9649 602
31.98501 629.029385479364
32.00513 683.053975073973
32.02524 678.892507769167
32.04535 623.992038558982
32.06547 668.982843970629
32.08558 636.012839421753
32.10569 652.005479286033
32.12581 614.997055534886
32.14592 642.004802484949
32.16604 618.996994224763
32.18615 644.018775104478
32.20626 632.97375683263
32.22638 664.000401749855
32.24649 644.987779509994
32.2666 694
32.28672 635.98052417865
32.30683 671.026332433062
32.32694 660.041351854926
32.34706 714.938851814767
32.36717 700.035997034344
32.38729 681.018027601463
32.4074 655
32.42751 737.033744199598
32.44763 759.009655513913
32.46774 758.944776713258
32.48785 712.089544060328
32.50797 712.949116308752
32.52808 742.010521578311
32.5482 707
32.56831 719.991434494978
32.58842 685.012296126898
32.60854 745.08563178742
32.62865 737.070930869005
32.64876 713.049855131161
32.66888 705.964493772922
32.68899 753.997457302356
32.7091 716
32.72922 730.026785612802
32.74933 745.007840692112
32.76945 747.007516110478
32.78956 748.016529778944
32.80967 736.004152349029
32.82979 747.990380448697
32.8499 761
32.87001 745.986581385484
32.89013 745.088958625786
32.91024 813.985678766616
32.93036 737.107937903837
32.95047 754.928875417058
32.97058 787.983590388502
32.9907 802
33.01081 843.019218466174
33.03092 852.971070607973
33.05104 818.005218529019
33.07115 864.865294013674
33.09127 887.018754042719
33.11138 856.030462640549
33.13149 845.994033560668
33.15161 863.001772778246
33.17172 861.018632848549
33.19183 895.026316527374
33.21195 893.016412059673
33.23206 895.08710320257
33.25217 832.021453727514
33.27229 869.987173908278
33.2924 871
33.31252 904.966362150713
33.33263 819.930781001619
33.35274 845.079312463055
33.37286 838.116931368303
33.39297 798.914761752056
33.41308 899.984463216257
33.4332 818
33.45331 843.030584763287
33.47343 853.886354289756
33.49354 750.933694847104
33.51365 815.764043893456
33.53377 846.091598574048
33.55388 749.049452217108
33.57399 760.997579631856
33.59411 737.998654297316
33.61422 760.003050855295
33.63434 745.022619169183
33.65445 767.939565315757
33.67456 703.079176235783
33.69468 725.94242221361
33.71479 754.019319905533
33.7349 681
33.75502 699.023060907141
33.77513 694.979795078715
33.79524 684.978041047105
33.81536 665.063686300859
33.83547 650.944404479503
33.85559 712.986776680346
33.8757 681
33.89581 645.99327552282
33.91593 666.093568972664
33.93604 714.939870529225
33.95615 642.03357863952
33.97627 690.981476304273
33.99638 634.059501424211
34.0165 623
34.03661 648.005365890492
34.05672 635.973190533927
34.07684 623.043893584914
34.09695 670.892411563646
34.11706 673.090309888506
34.13718 629.984405375428
34.15729 684.990847996614
34.17741 653.991489070291
34.19752 667.999185345183
34.21763 636.954066513726
34.23775 642.114820044401
34.25786 686.014003233331
34.27797 635.058738075641
34.29809 653.966054241145
34.3182 702
34.33831 619.980504996164
34.35843 654.068184293321
34.37854 664.982510915845
34.39866 655.014890550491
34.41877 650.009184721689
34.43888 629.045623129991
34.459 594
34.47911 657.021406009382
34.49922 667.024967260131
34.51934 712.043152935767
34.53945 699.039410373602
34.55957 697.005029538315
34.57968 692.988738362789
34.59979 705.008941128284
34.61991 678.007813519929
34.64002 720.000258483228
34.66013 686.01050715633
34.68025 726.982194398167
34.70036 681.981097247525
34.72047 743.969736164746
34.74059 708.006038201321
34.7607 743
34.78082 744.018984000828
34.80093 803.117397984818
34.82104 850.974467774609
34.84116 802.05975317739
34.86127 829.895189477288
34.88138 882.011008952028
34.9015 842
34.92161 890.998212722235
34.94173 848.03270530495
34.96184 916.989032442921
34.98195 856.932521135794
35.00207 955.979496642307
35.02218 866.054099173526
35.04229 883.007723868743
35.06241 837.014754818575
35.08252 907.972226621577
35.10264 794.911587728093
35.12275 858.141414054355
35.14286 850.035999597637
35.16298 851.005739326906
35.18309 834.003389608522
35.2032 830
35.22332 778.962073391136
35.24343 783.062253849103
35.26354 824.012704951727
35.28366 798.043968279367
35.30377 807.949105125122
35.32389 831.007685428541
35.344 814
35.36411 882.994127628501
35.38423 806.970614296092
35.40434 860.044281063249
35.42445 819.082186228757
35.44457 825.988189114706
35.46468 818.001603180799
35.4848 848
35.50491 919.023213126386
35.52502 921.970907338604
35.54514 889.966667004567
35.56525 914.813930334399
35.58536 992.947923571324
35.60548 967.022710745567
35.62559 985.978057076369
35.64571 1040.03250478486
35.66582 1071.95268914027
35.68593 974.894798094556
35.70605 973.08203288851
35.72616 975.121603614805
35.74627 902.002281353376
35.76639 973.96839371865
35.7865 977
35.80661 943.978636636562
35.82673 918.033566003965
35.84684 956.98454536318
35.86696 901.083485763854
35.88707 917.912054395604
35.90718 948.052643429406
35.9273 856
35.94741 891.00653900885
35.96752 864.004074940931
35.98764 898.989263665278
36.00775 841.126983204613
36.02787 831.986706269803
36.04798 831.014616796235
36.06809 816.997555732366
36.08821 821.984052046702
36.10832 761.958414511882
36.12843 764.037988735363
36.14855 801.142130606814
36.16866 832.09959040761
36.18878 748.016034701692
36.20889 793.001405206813
36.229 748
36.24912 839.030344717921
36.26923 765.856435030078
36.28934 748.1624982336
36.30946 844.988139889108
36.32957 778.024435413501
36.34968 838.959210153486
36.3698 833
36.38991 892.023720305419
36.41003 884.921648236033
36.43014 879.245728312286
36.45025 1056.81799884321
36.47037 1017.00498166543
36.49048 1089.96132398174
36.51059 1069.99646708595
36.53071 1109.99630917383
36.55082 1042.94163070662
36.57094 1030.00452251757
36.59105 1004.83929804672
36.61116 935.056288116296
36.63128 939.019432683948
36.65139 878.032075655485
36.6715 849
36.69162 875.025594308735
36.71173 886.000891761018
36.73184 878.967783951274
36.75196 872.95004582666
36.77207 917.951104266011
36.79219 932.988059040994
36.8123 963
36.83241 927.968186039575
36.85253 895.068223157449
36.87264 981.080779799974
36.89275 958.047546067135
36.91287 958.049673546978
36.93298 891.048255831101
36.9531 897
36.97321 939.007928800848
36.99332 915.949273539023
37.01344 864.93225560832
37.03355 855.981727979848
37.05366 861.014193979525
37.07378 830.056350052354
37.09389 786.994146719543
37.11401 827.000176339415
37.13412 778.96281087228
37.15423 776.998985407592
37.17435 757.942770821212
37.19446 752.958776100039
37.21457 777.004131832525
37.23469 747.013624105279
37.2548 741
37.27491 732.984101695981
37.29503 701.005269913408
37.31514 735.048035640364
37.33526 726.049740294417
37.35537 706.016638752348
37.37548 702.002475414386
37.3956 694
37.41571 698.024946522463
37.43582 752.99139117239
37.45594 696.96262291911
37.47605 725.992966707945
37.49617 687.03333359627
37.51628 696.00361887762
37.53639 681.989077819027
37.55651 736.017751781848
37.57662 724.964320159597
37.59673 715.066911186193
37.61685 764.94193002141
37.63696 689.058187862347
37.65708 727.970438858687
37.67719 712.010228104678
37.6973 720
37.71742 748.014288199667
37.73753 739.961039061917
37.75764 719.006034029606
37.77776 735.996184956296
37.79787 722.002682455222
37.81798 731.009784313291
37.8381 701
37.85821 711.018328674196
37.87833 743.000494254681
37.89844 725.007203523186
37.91855 739.066405114333
37.93867 687.015869581184
37.95878 735.940452020209
37.97889 751.018274538394
37.99901 715.012087343099
38.01912 767.990711109157
38.03924 705.971721502846
38.05935 755.069494993292
38.07946 734.027025502585
38.09958 744.006664149975
38.11969 727.988842080637
38.1398 771
38.15992 730.995169344145
38.18003 777.059524884568
38.20015 767.89056626482
38.22026 739.949994186055
38.24037 796.954174206387
38.26049 800.982417847083
38.2806 857
38.30071 819.995087885447
38.32083 841.980079608837
38.34094 781.898162460924
38.36105 776.942466496194
38.38117 808.940594451133
38.40128 838.996375862406
38.4214 820
38.44151 812.000120126757
38.46162 806.981321779401
38.48174 791.023608025072
38.50185 830.893247411203
38.52196 820.19237376892
38.54208 712.012390320935
38.56219 793.966185842474
38.58231 795.996344265289
38.60242 802.988586507091
38.62253 773.980782204431
38.64265 762.858177745606
38.66276 703.938202896363
38.68287 785.996687760043
38.70299 711.009018869044
38.7231 755
38.74321 670.994640578099
38.76333 744.049301179514
38.78344 704.96018404913
38.80356 725.019934600791
38.82367 681.017690102348
38.84378 725.940234019173
38.8639 750
38.88401 721.005371078975
38.90412 761.011295063454
38.92424 719.881648589396
38.94435 692.943455841298
38.96447 732.988400570731
38.98458 702.026410069739
39.00469 707.988393906807
39.02481 732.011530486496
39.04492 756.027828851427
39.06503 766.955047345643
39.08515 720.968478404402
39.10526 745.964482580752
39.12538 737.010701187114
39.14549 736.002392951541
39.1656 715
39.18572 699.037695345191
39.20583 744.962064356721
39.22594 686.04849706502
39.24606 773.971309041489
39.26617 715.988997023614
39.28628 802.957744774506
39.3064 763
39.32651 802.048857443702
39.34663 905.103036721125
39.36674 923.982559719732
39.38685 912.032160709432
39.40697 943.820235379432
39.42708 1067.00435536761
39.44719 939.058297751385
39.46731 927.026403473713
39.48742 955.95597072165
39.50754 861.857993073069
39.52765 841.970718602424
39.54776 817.032300479281
39.56788 800.048803841046
39.58799 734.018121272175
39.6081 722
39.62822 665.989925832887
39.64833 686.962822461412
39.66845 633.026187958142
39.68856 694.986474485684
39.70867 644.007443984813
39.72879 697.989233410396
39.7489 659
39.76901 666.014246196698
39.78913 681.986504386473
39.80924 668.026724653395
39.82935 700.969879150811
39.84947 681.034285854411
39.86958 664.031037176513
39.8897 625
39.90981 634.010880281386
39.92992 651.010616057857
39.95004 669.080588888735
39.97015 685.1751714063
39.99026 592.973553101614
40.01038 702.930393957367
40.03049 675.023331154747
40.05061 673.013777056302
40.07072 705.025981208084
40.09083 724.031079105553
40.11095 749.05627573291
40.13106 764.977265086966
40.15117 760.052994406211
40.17129 749.957318669087
40.1914 877
40.21152 828.979038722831
40.23163 878.066623845618
40.25174 877.978576092819
40.27186 877.009106299323
40.29197 868.001269426623
40.31208 853.063709955438
40.3322 771
40.35231 791.006470955445
40.37242 773.990662592605
40.39254 789.037098178623
40.41265 781.109347879076
40.43277 719.078440716025
40.45288 687.027777320328
40.47299 672.986974581818
40.49311 720.010963521062
40.51322 714.008512763842
40.53333 739.001249962289
40.55345 713.969885067659
40.57356 718.030258497177
40.59368 701.963134340313
40.61379 753.014043061046
40.6339 663
40.65402 705.047631792236
40.67413 720.030162902281
40.69424 739.952851374733
40.71436 680.08930183451
40.73447 686.933318923694
40.75458 713.034826236618
40.7747 663
40.79481 751.026980936293
40.81493 720.900187203667
40.83504 681.006731553779
40.85515 716.897866677479
40.87527 728.04007681022
40.89538 691.011327842791
40.91549 712.986455322593
40.93561 717.991770823332
40.95572 704.011897222439
40.97584 734.033455491065
40.99595 718.914121514372
41.01606 703.937837507946
41.03618 754.982436537883
41.05629 719.028183266997
41.0764 682
41.09652 703.048409181147
41.11663 744.002061580594
41.13675 715.961584286777
41.15686 717.040483774188
41.17697 679.020875220838
41.19709 707.975614175805
41.2172 722
41.23731 655.002356293188
41.25743 722.051263043207
41.27754 688.919007070142
41.29765 684.956570264442
41.31777 716.917986309236
41.33788 766.991423770345
41.358 737
41.37811 727.995571523306
41.39822 709.983821239801
41.41834 705.009944720674
41.43845 717.94999935637
41.45856 725.050750593602
41.47868 684.019652464634
41.49879 691.99731625737
41.51891 675.987155292406
41.53902 661.004901279231
41.55913 670.986816805033
41.57925 658.053134291323
41.59936 696.99742525806
41.61947 658.039933350803
41.63959 660.00271298979
41.6597 643
41.67982 660.994210383315
41.69993 648.051675067246
41.72004 713.047070632048
41.74016 680.065749835528
41.76027 671.025875005351
41.78038 633.038312543958
41.8005 630
41.82061 683.999047225806
41.84072 632.968336628906
41.86084 646.030669571631
41.88095 639.029313500418
41.90107 630.024310746832
41.92118 612.004000811728
41.94129 624.99140128639
41.96141 632.998939767174
41.98152 633.015175496245
42.00163 641.95241851478
42.02175 583.91299683142
42.04186 594.938558156806
42.06198 622.971634925377
42.08209 644.997458549963
42.1022 636
42.12232 630.992491709796
42.14243 621.99709935301
42.16254 622.982802433813
42.18266 606.022524388329
42.20277 605.995412062538
42.22289 616.984080700617
42.243 665
42.26311 686.997249152768
42.28323 677.018288031961
42.30334 726.146902623551
42.32345 778.012343397744
42.34357 745.991666040991
42.36368 805.934044249763
42.38379 839.994380967851
42.40391 825.974418208029
42.42402 780.01433432054
42.44414 830.011908391919
42.46425 782.925393899796
42.48436 791.999706654544
42.50448 765.024258266974
42.52459 756.005291448742
42.5447 730
42.56482 690.968108346264
42.58493 677.01100343815
42.60505 689.999112457774
42.62516 657.130375025574
42.64527 603.99288906915
42.66539 641.001014859285
42.6855 590
42.70561 605.024009522778
42.72573 647.02457024257
42.74584 639.981432409309
42.76595 636.029948140141
42.78607 609.052697303492
42.80618 588.987778579655
42.8263 631
42.84641 643.972480952787
42.86652 577.00719880786
42.88664 640.029172890215
42.90675 590.066413527379
42.92686 627.888395835323
42.94698 647.026489648238
42.96709 603.01211364327
42.98721 609.004948222315
43.00732 610.005482364769
43.02743 609.9567121105
43.04755 584.080819139745
43.06766 644.992226084603
43.08777 588.054430931499
43.10789 608.983254542998
43.128 619
43.14812 618.014324642291
43.16823 638.007044100589
43.18834 621.95732572096
43.20846 607.023374360864
43.22857 602.982635930747
43.24868 621.989955699641
43.2688 626
43.28891 633.978941814557
43.30902 580.014149071394
43.32914 642.019280103871
43.34925 585.093760083778
43.36937 610.928161238696
43.38948 631.016852105258
43.40959 598.009550810098
43.42971 596.995854386358
43.44982 583.0074519218
43.46993 615.048534077995
43.49005 621.948442306236
43.51016 582.095933089446
43.53028 557.978112001842
43.55039 601.99006140361
43.5705 598
43.59062 635.006275112762
43.61073 604.966214236071
43.63084 607.000813029789
43.65096 601.976135806949
43.67107 620.014004175516
43.69119 584.014028149353
43.7113 595
43.73141 630.990259649045
43.75153 573.952340293936
43.77164 594.073115945061
43.79175 610.017738488353
43.81187 598.990185758584
43.83198 618.992342047795
43.85209 602.01406392831
43.87221 585.001704509817
43.89232 606.026483259768
43.91244 627.032024587799
43.93255 634.989889664097
43.95266 621.035261980062
43.97278 610.996931365679
43.99289 623.992881253362
44.013 626
44.03312 599.9751223279
44.05323 602.064872121798
44.07335 645.973177563574
44.09346 592.06004369238
44.11357 616.933201741695
44.13369 630.017364388658
44.1538 584
44.17391 624.016359753952
44.19403 608.921351423942
44.21414 568.019664382061
44.23426 618.914922872157
44.25437 623.02431807483
44.27448 611.998481071559
44.2946 630
44.31471 649.994021214153
44.33482 616.978005484434
44.35494 604.931282939635
44.37505 568.959261804917
44.39516 623.948028848661
44.41528 596.03916963017
44.43539 576.006260587765
44.45551 575.01328371733
44.47562 614.019723091553
44.49573 607.989356072462
44.51585 612.00686658423
44.53596 602.043327912463
44.55607 579.021718034722
44.57619 572.005026469798
44.5963 575
44.61642 634.024048100004
44.63653 623.006148657041
44.65664 637.94321091179
44.67676 582.024996428728
44.69687 628.92216081182
44.71698 638.02781119113
44.7371 596
44.75721 593.024694285607
44.77732 652.008598057802
44.79744 609.933396628594
44.81755 625.882949408876
44.83767 654.034019187013
44.85778 604.021397784048
44.87789 636.971341841652
44.89801 653.97062905119
44.91812 582.01343605632
44.93823 662.043952741298
44.95835 616.933240226127
44.97846 635.00576206069
44.99858 604.000403210854
45.01869 644.982905319282
45.0388 643
45.05892 636.018676078564
45.07903 649.94918702573
45.09914 591.970393689281
45.11926 636.892222769366
45.13937 656.014997899091
45.15949 641.000875564942
45.1796 648
45.19971 632.001257130057
45.21983 654.022200067523
45.23994 645.959793504584
45.26005 639.940639722074
45.28017 666.022776905914
45.30028 627.998536288079
45.32039 664.996942053803
45.34051 620.97664542194
45.36062 623.055541102832
45.38074 684.025314898921
45.40085 651.949550266531
45.42096 661.995064981232
45.44108 644.013445538456
45.46119 650.990774674045
45.4813 672
45.50142 691.008170992326
45.52153 685.978760535071
45.54165 673.994289069963
45.56176 683.965497846889
45.58187 687.041933484622
45.60199 646.009304863212
45.6221 665
45.64221 710.031459301998
45.66233 762.001679308645
45.68244 728.97790346814
45.70256 751.973829824644
45.72267 756.936791281074
45.74278 808.01472526904
45.7629 735
45.78301 759.031253219079
45.80312 797.986440334284
45.82324 741.881472695416
45.84335 718.962349696567
45.86346 746.971513405468
45.88358 720.068784056008
45.90369 660.997815428386
45.92381 704.00164979185
45.94392 658.976260945409
45.96403 684.048306530953
45.98415 688.960815206807
46.00426 653.123141802197
46.02437 597.018297855902
46.04449 630.97785810345
46.0646 650
46.08472 634.994893489494
46.10483 632.964781012177
46.12494 609.042690425319
46.14506 647.04041804152
46.16517 590.991697814941
46.18528 653.981571162846
46.2054 614
46.22551 640.991924038958
46.24563 585.986837093979
46.26574 632.049823010645
46.28585 616.003368826079
46.30597 646.962471596961
46.32608 643.018044423986
46.34619 618.019667631506
46.36631 577.990710072816
46.38642 589.027186692088
46.40653 612.016995894794
46.42665 610.982636774147
46.44676 609.979127954782
46.46688 624.99302184461
46.48699 619.005718212466
46.5071 613
46.52722 625.017496149227
46.54733 625.948680027663
46.56744 582.987655304537
46.58756 610.972005055317
46.60767 601.98987683352
46.62779 639.977309939167
46.6479 659
46.66801 627.995756859542
46.68813 638.988664992158
46.70824 605.945613195868
46.72835 598.014692437228
46.74847 607.914768176499
46.76858 665.021680065147
46.78869 595.004242022405
46.80881 659.018730554163
46.82892 627.956858320037
46.84904 614.001780020473
46.86915 624.069383776243
46.88926 647.026941639686
46.90938 615.997907009616
46.92949 644.002004457003
46.9496 609
46.96972 637.010519424911
46.98983 618.991651316616
47.00995 635.014795626846
47.03006 620.030134474061
47.05017 620.981089314525
47.07029 623.013233356102
47.0904 596
47.11051 641.002655962794
47.13063 601.966782557563
47.15074 610.988006779355
47.17086 586.996983507609
47.19097 632.901492011546
47.21108 664.034360378458
47.2312 599
47.25131 632.028133806031
47.27142 654.971329600397
47.29154 626.080988507255
47.31165 697.020439649819
47.33176 608.123270805855
47.35188 627.951830821825
47.37199 644.011861797041
47.39211 614.002545128546
47.41222 643.00047198364
47.43233 617.002724839473
47.45245 647.011033094165
47.47256 625.985447454809
47.49267 657.005484966596
47.51279 620.005106056168
47.5329 656
47.55302 662.972547263056
47.57313 627.977012749356
47.59324 643.058578851933
47.61336 657.030646409314
47.63347 622.046209735213
47.65358 625.954115945519
47.6737 666
47.69381 611.999418347017
47.71393 661.017157644635
47.73404 609.89777704751
47.75415 612.876049256666
47.77427 652.032682033316
47.79438 594.018694971841
47.81449 635.975729214491
47.83461 640.982394420952
47.85472 616.032655661857
47.87483 671.995972734626
47.89495 612.921685796252
47.91506 634.964646285121
47.93518 629.988558593859
47.95529 652.006377475324
47.9754 625
47.99552 673.979278331156
48.01563 600.979140338235
48.03574 664.094259026579
48.05586 654.032821424571
48.07597 664.968033417147
48.09609 647.044862884523
48.1162 564
48.13631 679.019959238416
48.15643 621.96540359616
48.17654 677.094092663319
48.19665 661.121235595607
48.21677 618.043736584192
48.23688 609.987257044687
48.257 617
48.27711 591.015112589757
48.29722 659.029496438447
48.31734 624.905918471116
48.33745 604.994181625237
48.35756 616.935296160457
48.37768 654.978026868611
48.39779 653.006344150097
48.4179 639
48.43802 613.972065763804
48.45813 601.025980439474
48.47825 643.113620362541
48.49836 671.975174488207
48.51847 666.040247193042
48.53859 633.010673923409
48.5587 620
48.57881 603.016139493259
48.59893 652.991740495088
48.61904 605.996490699656
48.63916 655.957689144784
48.65927 629.021713998979
48.67938 647.987305781495
48.6995 646
48.71961 669.997456860979
48.73972 635.97588953285
48.75984 639.018238778366
48.77995 640.00112727861
48.80006 639.014723521789
48.82018 625.01479881636
48.84029 615.002541022785
48.86041 601.983219581103
48.88052 582.040856197593
48.90063 656.047351533131
48.92075 632.961738593496
48.94086 644.012085721315
48.96097 622.985449136655
48.98109 651.00607487443
49.0012 608
49.02132 642.008427006129
49.04143 621.016008782552
49.06154 668.053609280626
49.08166 645.092008410871
49.10177 625.95213913244
49.12188 684.962605211074
49.142 671
49.16211 622.982793329384
49.18223 626.075687722157
49.20234 692.077536836043
49.22245 683.088391880521
49.24257 651.029607781679
49.26268 654.969411663735
49.28279 697.981226862369
49.30291 701.979756608661
49.32302 649.981094884208
49.34313 678.067085919289
49.36325 692.920521436454
49.38336 650.996120795097
49.40348 684.99957432319
49.42359 649.004728366375
49.4437 679
49.46382 674.006438315228
49.48393 695.004061651134
49.50404 695.090693142421
49.52416 752.028565626118
49.54427 664.121626519369
49.56439 650.981549340568
49.5845 690
49.60461 687.013492183308
49.62473 722.9694554622
49.64484 658.940845041507
49.66495 680.966760491755
49.68507 666.003830240335
49.70518 681.003174039878
49.7253 656
49.74541 665.006662323781
49.76552 661.979029595934
49.78564 645.021744441547
49.80575 671.011483071239
49.82586 646.052252775055
49.84598 650.959681086953
49.86609 694.994528660416
49.8862 684
49.90632 717.999597612884
49.92643 691.011674829431
49.94655 745.1255457587
49.96666 788.834117021009
49.98677 895.898185090488
50.00689 901.00984731547
50.027 923
50.04711 1055.05643043086
50.06723 1125.08970237275
50.08734 1190.10191129004
50.10746 1208.03224241961
50.12757 1148.16796890884
50.14768 1030.0669764116
50.1678 1014
50.18791 957.966870299644
50.20802 912.98405629111
50.22814 915.003580651339
50.24825 906.030024884501
50.26837 876.105001147044
50.28848 778.089756810948
50.30859 720.018363114837
50.32871 699.000395944124
50.34882 706.994769176045
50.36893 685.971853308771
50.38905 670.932103267047
50.40916 633.060815821561
50.42927 618.01349391549
50.44939 613.995182020202
50.4695 637
50.48962 640.962371953745
50.50973 615.086555475852
50.52984 697.954721798632
50.54996 583.123651863134
50.57007 625.916321158722
50.59018 636.003049345506
50.6103 637
50.63041 613.990112221605
50.65053 618.049782306818
50.67064 666.084823261353
50.69075 679.052167264733
50.71087 652.996842426608
50.73098 671.011629286336
50.75109 629.013526141054
50.77121 635.006160779079
50.79132 625.968717650628
50.81143 592.98109166799
50.83155 624.190193342579
50.85166 690.99924017082
50.87178 646.012544769509
50.89189 683.98562765633
50.912 670
50.93212 653.001835526593
50.95223 654.968006575772
50.97234 621.981609224637
50.99246 640.967580510894
51.01257 645.976174682454
51.03269 663.007086009842
51.0528 618
51.07291 619.026847628867
51.09303 674.997025935418
51.11314 621.925369541056
51.13325 624.994705032275
51.15337 616.97875535881
51.17348 645.996239011871
51.1936 628
51.21371 656.005450860089
51.23382 625.946495315836
51.25394 578.946555404356
51.27405 584.90516976029
51.29416 631.933806325314
51.31428 637.014873580382
51.33439 617.009132124269
51.3545 605
51.37462 601.000891794344
51.39473 607.015042777336
51.41485 622.05431574159
51.43496 638.009032737074
51.45507 610.059389047599
51.47519 593.984210584912
51.4953 641
51.51541 592.971362961331
51.53553 574.0353414856
51.55564 619.081756707328
51.57576 629.04598256065
51.59587 599.013184568976
51.61598 613.986822519571
51.6361 607
51.65621 601.01404451854
51.67632 640.00618802556
51.69644 606.929725796146
51.71655 606.910525989963
51.73667 643.000843648081
51.75678 599.057092310684
51.77689 572.990005277279
51.79701 619.018338622668
51.81712 629.000355779999
51.83723 627.983117432132
51.85735 608.962235460243
51.87746 609.964112000661
51.89757 619.040134046819
51.91769 582.995613844419
51.9378 628
51.95792 596.959277858778
51.97803 576.988513142088
51.99814 581.047397121191
52.01826 604.013352693751
52.03837 587.964513033507
52.05848 633.001687866031
52.0786 600
52.09871 656.998209607145
52.11883 600.996992588438
52.13894 657.024368553331
52.15905 612.03429644285
52.17917 637.025559000623
52.19928 577.022282716383
52.21939 610.985846632859
52.23951 606.999321628963
52.25962 617.998085909851
52.27974 605.005991116668
52.29985 623.012646927177
52.31996 615.980992961858
52.34008 637.001356949365
52.36019 623.990050197248
52.3803 669
52.40042 637.953137710565
52.42053 612.000340548306
52.44064 624.008622057544
52.46076 628.933885560876
52.48087 673.98119772897
52.50099 634.033962233183
52.5211 584
52.54121 606.010908082425
52.56133 616.026411352783
52.58144 639.012662012801
52.60155 625.039930970075
52.62167 628.958423078378
52.64178 657.996545041827
52.6619 625
52.68201 579.988514117256
52.70212 592.04679631018
52.72224 651.095630942521
52.74235 664.058244658841
52.76246 635.005148624943
52.78258 649.011484436101
52.80269 623.992109395384
52.8228 665
52.84292 620.991328420441
52.86303 661.040609981582
52.88315 649.966742350362
52.90326 666.912387614692
52.92337 698.028122825666
52.94349 656.000615536156
52.9636 681
52.98371 624.007174444637
53.00383 700.039865036143
53.02394 656.954411474146
53.04406 670.049670854662
53.06417 613.013562573469
53.08428 659.969299891043
53.1044 635
53.12451 633.040279483356
53.14462 723.991393152246
53.16474 631.90089271536
53.18485 669.886168660727
53.20497 691.930185115272
53.22508 739.025848047681
53.24519 650.034052597137
53.26531 662.034186606496
53.28542 727.024400589021
53.30553 704.94317276283
53.32565 699.109331883958
53.34576 759.946494562686
53.36587 732.079091763127
53.38599 717.970564295567
53.4061 787
53.42622 711.998559296016
53.44633 782.015233403015
53.46644 709.908363899289
53.48656 736.922799387837
53.50667 748.988272095744
53.52678 755.016113390151
53.5469 748
53.56701 814.990001573173
53.58713 736.989930560581
53.60724 797.993618537092
53.62735 718.09185419086
53.64747 766.913426032196
53.66758 780.009047321118
53.68769 775.997285118304
53.70781 782.998121997407
53.72792 768.988661483384
53.74804 761.972876647031
53.76815 750.02210953501
53.78826 780.930729329987
53.80838 816.947734315503
53.82849 846.024850021877
53.8486 751
53.86872 771.026813219796
53.88883 765.981355861576
53.90894 757.968206163177
53.92906 759.884288493776
53.94917 830.001083097876
53.96929 767.016703415187
53.9894 800
54.00951 797.973357265278
54.02963 750.028773939197
54.04974 819.079529009611
54.06985 788.161212912893
54.08997 747.990451834866
54.11008 788.958371384478
54.1302 805
54.15031 806.00998710778
54.17042 822.976527165394
54.19054 770.938574824697
54.21065 788.888290519331
54.23076 816.027439905105
54.25088 785.998344782213
54.27099 803.015919625595
54.29111 741.997286713195
54.31122 797.035870930914
54.33133 773.935760839857
54.35145 769.130138640633
54.37156 830.991027974287
54.39167 790.011760302398
54.41179 812.01509690241
54.4319 729
54.45201 745.021874255666
54.47213 758.951718037239
54.49224 712.978537894368
54.51236 729.028696311952
54.53247 694.978388894592
54.55258 758.954164500118
54.5727 736
54.59281 688.021585964844
54.61292 764.989176166764
54.63304 691.017558243003
54.65315 775.979199275565
54.67327 693.054062061424
54.69338 740.969047888536
54.71349 715.010967542032
54.73361 757.052284132469
54.75372 858.030483501391
54.77383 828.982079065747
54.79395 875.171102239055
54.81406 919.981341056605
54.83417 895.069901115587
54.85429 865.992003927766
54.8744 892
54.89452 827.976465129289
54.91463 841.95743437114
54.93474 767.915084299333
54.95486 787.926174041443
54.97497 797.027877146418
54.99508 770.016116163431
55.0152 766
55.03531 746.992850986415
55.05543 740.988224810376
55.07554 729.989837975219
55.09565 742.915203877004
55.11577 758.070704098261
55.13588 697.979306321099
55.15599 777.98819266518
55.17611 721.978354263794
55.19622 745.051326391361
55.21634 773.98625486232
55.23645 761.059311355804
55.25656 810.95572246227
55.27668 790.026047520653
55.29679 781.003731707276
55.3169 742
55.33702 662.0019479415
55.35713 730.066334648794
55.37724 721.999764794225
55.39736 744.004228371333
55.41747 711.036473400606
55.43759 723.98023952592
55.4577 751
55.47781 699.973358960523
55.49793 692.077473540194
55.51804 744.962366565041
55.53815 670.103910215789
55.55827 686.981607177124
55.57838 672.001464284347
55.5985 700
55.61861 718.004787611985
55.63872 696.920366096469
55.65884 621.03886069693
55.67895 711.884490775899
55.69906 677.074840359663
55.71918 669.025025317053
55.73929 628.004342309173
55.75941 655.008925084674
55.77952 647.996871480783
55.79963 644.947229447555
55.81975 602.016118352344
55.83986 641.004940508865
55.85997 594.030846872189
55.88009 634.966763236518
55.9002 669
55.92031 633.00695602671
55.94043 691.047520520064
55.96054 658.872929932084
55.98066 615.008029357291
56.00077 632.000668094904
56.02088 624.964229846946
56.041 688
56.06111 647.967909933189
56.08122 609.999717757567
56.10134 633.041358262619
56.12145 637.004855823996
56.14157 646.956943101029
56.16168 667.023412006237
56.18179 616.013679515668
56.20191 619.996226356525
56.22202 607.03062946064
56.24213 653.979989162552
56.26225 593.958840522282
56.28236 650.860111760949
56.30248 683.995013849573
56.32259 666.022465451911
56.3427 621
56.36282 639.017283354521
56.38293 643.014531837017
56.40304 658.001459647004
56.42316 641.036835692515
56.44327 623.047030131853
56.46338 607.954644609619
56.4835 672
56.50361 612.993116000471
56.52373 665.057750128714
56.54384 652.957516163325
56.56395 648.010524941186
56.58407 641.99186974682
56.60418 657.987712000614
56.62429 647.019797913707
56.64441 620.016400492716
56.66452 680.006996775767
56.68464 629.937552330998
56.70475 650.072191410659
56.72486 658.001608901162
56.74498 650.025841479571
56.76509 634.982212128666
56.7852 683
56.80532 614.977235763214
56.82543 652.025545156741
56.84554 624.968346602656
56.86566 647.931846037529
56.88577 648.077822203258
56.90589 603.978763470927
56.926 705
56.94611 665.967438150506
56.96623 629.977188022557
56.98634 621.989396577247
57.00645 627.924312241408
57.02657 652.039576231185
57.04668 598.013927450489
57.0668 630
57.08691 625.014957028802
57.10702 684.025486566161
57.12714 644.855004389571
57.14725 605.92030987882
57.16736 670.954248225313
57.18748 627.060065957601
57.20759 606.986793025139
57.22771 645.003983960759
57.24782 623.992348231877
57.26793 635.993821594013
57.28805 605.925518606526
57.30816 606.926643685156
57.32827 651.969389664768
57.34839 645.002314890316
57.3685 648
57.38861 628.004563352187
57.40873 664.037675620814
57.42884 654.941469345789
57.44896 628.030501567004
57.46907 628.980544572149
57.48918 636.012803379389
57.5093 625
57.52941 669.002798928354
57.54952 627.960000252335
57.56964 628.064410975701
57.58975 665.939377649616
57.60987 664.033106651987
57.62998 642.007470935424
57.65009 648.996453703525
57.67021 666.025385373526
57.69032 709.971900252798
57.71043 625.912804023648
57.73055 632.070589147864
57.75066 648.972711187011
57.77078 654.017420667388
57.79089 608.033104819705
57.811 561
57.83112 615.068258344625
57.85123 649.98164058395
57.87134 624.014687663179
57.89146 660.969113490324
57.91157 643.018960804201
57.93168 649.000789098258
57.9518 641
57.97191 666.005995245217
57.99203 652.966847969279
58.01214 648.045557276126
58.03225 655.156791130546
58.05237 570.006652536073
58.07248 658.908298072625
58.09259 675.02442034597
58.11271 612.983287596925
58.13282 631.05137674065
58.15294 672.008017264972
58.17305 637.882573638713
58.19316 609.007773453121
58.21328 620.987849453556
58.23339 614.014889038458
58.2535 588
58.27362 633.052397164528
58.29373 658.990534287257
58.31385 640.991450141057
58.33396 655.977981018861
58.35407 650.020697137857
58.37419 642.997293920113
58.3943 634
58.41441 560.986226672973
58.43453 597.08334838184
58.45464 632.034212746304
58.47475 636.019215704259
58.49487 621.028849135657
58.51498 607.001934884412
58.5351 619
58.55521 630.99491076337
58.57532 620.022766857429
58.59544 661.017507533218
58.61555 626.099034451786
58.63566 619.94513025163
58.65578 641.025612685453
58.67589 581.020579707632
58.69601 598.030926254507
58.71612 658.023558353689
58.73623 635.935634026685
58.75635 598.929860561961
58.77646 586.981893494837
58.79657 601.003004556955
58.81669 579.012380093702
58.8368 564
58.85691 580.032641659438
58.87703 651.011844985502
58.89714 604.954425178928
58.91726 630.953250485701
58.93737 621.034483469009
58.95748 619.964242509053
58.9776 666
58.99771 639.983810380475
59.01782 617.972193410964
59.03794 587.976765617569
59.05805 607.889554042569
59.07817 640.01510621101
59.09828 595.042355844747
59.11839 602.965519772165
59.13851 685.017467981195
59.15862 660.964218613302
59.17873 649.001223922305
59.19885 646.976855395927
59.21896 647.933893273049
59.23908 676.036469611417
59.25919 611.997167746778
59.2793 677
59.29942 632.990710121445
59.31953 686.071763419583
59.33964 683.939694671668
59.35976 666.967853616199
59.37987 697.988263811686
59.39998 675.023259942032
59.4201 674
59.44021 686.000937104125
59.46033 679.995276842474
59.48044 691.051495949759
59.50055 702.085204232631
59.52067 644.044396767402
59.54078 669.943345468002
59.56089 700.014976972745
59.58101 635.980944735746
59.60112 673.102068939623
59.62124 740.886209778716
59.64135 613.870721661412
59.66146 681.825137552542
59.68158 714.996744042387
59.70169 708.011328121171
59.7218 697
59.74192 766.061012966449
59.76203 775.93670868757
59.78215 723.955541296435
59.80226 767.821913563315
59.82237 854.9216879486
59.84249 876.986092842731
59.8626 939
59.88271 995.98907042732
59.90283 936.991196011077
59.92294 996.091885291191
59.94305 970.197448998919
59.96317 900.024538298286
59.98328 907.044015212895
60.0034 833
60.02351 880.997678053131
60.04362 811.96292460727
60.06374 841.067714651893
60.08385 847.977778461593
60.10396 838.156997608059
60.12408 725.06132611987
60.14419 720.014344870191
60.16431 657.988105034914
60.18442 691.03750304653
60.20453 692.967154776783
60.22465 650.826184419199
60.24476 598.960534037819
60.26487 661.964119534213
60.28499 623.021663535127
60.3051 617
60.32522 633.01261221286
60.34533 631.968689126726
60.36544 611.010304586848
60.38556 629.017420274154
60.40567 597.018244646156
60.42578 622.960779009536
60.4459 640
60.46601 619.007266020531
60.48612 656.006110842122
60.50624 634.011340899243
60.52635 661.034621545497
60.54647 608.041620291575
60.56658 598.063375292644
60.58669 532.97119557276
60.60681 673.028166069018
60.62692 603.928507152543
60.64703 613.076336406747
60.66715 644.975742427033
60.68726 618.988504765751
60.70738 653.986360115413
60.72749 624.022630576614
60.7476 605
60.76772 634.993281393852
60.78783 601.994808093129
60.80794 632.0237902356
60.82806 603.081635567389
60.84817 588.96521614556
60.86828 621.995473193534
60.8884 607
60.90851 643.003837507906
60.92863 606.934834364771
60.94874 590.016132503115
60.96885 607.964869213509
60.98897 603.03835506766
61.00908 575.010141156181
61.02919 593.980426867447
61.04931 635.016295586026
61.06942 640.970702374373
61.08954 604.989997794047
61.10965 627.019678723744
61.12976 615.987457657641
61.14988 628.030013617205
61.16999 577.001221015713
61.1901 623
61.21022 608.999122209328
61.23033 640.044627904626
61.25045 649.002870360921
61.27056 657.961592375494
61.29067 670.023046335397
61.31079 629.022032866553
61.3309 615
61.35101 657.008840944071
61.37113 635.946550430817
61.39124 612.987140563401
61.41135 626.91424560403
61.43147 664.963665187313
61.45158 659.035511191601
61.4717 634
61.49181 670.984753282328
61.51192 595.982963511383
61.53204 660.132427274008
61.55215 668.082548577037
61.57226 634.023975889408
61.59238 648.976032896042
61.61249 676.977795353765
61.63261 705.984221618517
61.65272 645.989181749372
61.67283 694.05901651246
61.69295 698.021125503886
61.71306 710.050600005781
61.73317 666.004137999187
61.75329 698.998449839349
61.7734 680
61.79352 747.011337211275
61.81363 689.92779800072
61.83374 697.06460501068
61.85386 730.918204541278
61.87397 756.03032035935
61.89408 707.031330697714
61.9142 722
61.93431 753.997963144863
61.95442 728.993225651159
61.97454 755.068643083193
61.99465 753.146599435989
62.01477 697.95466855522
62.03488 793.940520038828
62.05499 770.026464715516
62.07511 759.023942192903
62.09522 833.049516025863
62.11533 823.921675215636
62.13545 785.040162406514
62.15556 829.988306441105
62.17568 791.021731318201
62.19579 810.987862012404
62.2159 805
62.23602 771.993752558429
62.25613 776.96265710544
62.27624 753.098057767629
62.29636 853.884537195049
62.31647 831.071948888322
62.33659 800.013483877629
62.3567 766
62.37681 743.004862803784
62.39693 784.079706906054
62.41704 823.032910013434
62.43715 813.080742632969
62.45727 769.07242796974
62.47738 732.016350858464
62.49749 733.995453956629
62.51761 726.982508040352
62.53772 694.011448987508
62.55784 736.032430632689
62.57795 695.822711270096
62.59806 654.948266093321
62.61818 720.957554036971
62.63829 705.023128404928
62.6584 678
62.67852 697.967999555761
62.69863 626.941751137763
62.71875 657.16362238932
62.73886 701.998901780612
62.75897 669.048502786039
62.77909 666.987884221749
62.7992 680
62.81931 635.003847877744
62.83943 687.033065086734
62.85954 653.920744436301
62.87965 665.81651080006
62.89977 733.027510512219
62.91988 663.008364202648
62.94 716
62.96011 640.970080142826
62.98022 634.997125924389
63.00034 622.02922261084
63.02045 658.960429882591
63.04056 647.006973918561
63.06068 652.022908673762
63.08079 608.010581142756
63.10091 633.025388332024
63.12102 669.000067672876
63.14113 640.958982117297
63.16125 633.004920700334
63.18136 645.931624208656
63.20147 682.984502751103
63.22159 656.022696965735
63.2417 632
63.26182 669.007771063876
63.28193 653.018498437492
63.30204 690.01163396952
63.32216 666.987557564544
63.34227 701.992258554626
63.36238 667.02656845668
63.3825 668
63.40261 648.987337949644
63.42272 628.985367746471
63.44284 636.090357495632
63.46295 682.020296203209
63.48307 644.97910469222
63.50318 705.976349768661
63.52329 677.006382137742
63.54341 707.015161540342
63.56352 696.95101110757
63.58363 650.99763658047
63.60375 683.034493639094
63.62386 666.01779313881
63.64398 680.984218862557
63.66409 680.006219398187
63.6842 677
63.70432 700.98678137999
63.72443 662.98324451568
63.74454 673.955029222263
63.76466 627.012026582257
63.78477 668.952121256958
63.80489 665.004025299391
63.825 666
63.84511 658.010837967398
63.86523 710.080013567853
63.88534 732.977257801026
63.90545 707.041656603968
63.92557 713.967833340954
63.94568 749.940902438603
63.96579 810.984194572326
63.98591 810.998323907523
64.00602 796.940005072436
64.02614 720.949187554919
64.04625 751.062460179118
64.06636 740.035574780112
64.08648 731.013582608313
64.10659 723.987821731159
64.1267 767
64.14682 753.971069969768
64.16693 742.026472260072
64.18705 760.948222348146
64.20716 707.077883118746
64.22727 702.994320167427
64.24739 709.98364060146
64.2675 748
64.28761 711.987429234485
64.30773 710.985856378713
64.32784 680.940290389418
64.34796 666.010533710001
64.36807 666.985952012667
64.38818 677.996428295332
64.4083 669
64.42841 667.017083787687
64.44852 697.967519735173
64.46864 632.988192336394
64.48875 689.920071347906
64.50886 662.070991660425
64.52898 653.997520407684
64.54909 659.990233301499
64.56921 682.001454174493
64.58932 659.968747369165
64.60943 632.963758804819
64.62955 609.946647020122
64.64966 611.906621717041
64.66977 662.015344037392
64.68989 613.00112401259
64.71 656
64.73012 610.991396937578
64.75023 655.045819533882
64.77034 641.957311412813
64.79046 636.003641240852
64.81057 633.992667375401
64.83068 631.032676046209
64.8508 594
64.87091 639.015092800801
64.89102 633.991958315627
64.91114 637.99806897369
64.93125 620.074102086333
64.95137 606.959270841513
64.97148 630.049342860676
64.99159 555.990830122044
65.01171 649.016164401924
65.03182 599.983342411085
65.05193 651.060932443937
65.07205 630.865783355958
65.09216 595.979682743252
65.11228 628.992554860596
65.13239 614.991556062737
65.1525 650
65.17262 602.996979594179
65.19273 630.95204063354
65.21284 553.968396231675
65.23296 623.852655071828
65.25307 627.092051518135
65.27319 571.991496575239
65.2933 640
65.31341 608.982778185793
65.33353 612.033515651419
65.35364 612.913823107586
65.37375 555.049253786209
65.39387 576.977809482491
65.41398 569.994634323083
65.43409 602.979370387237
65.45421 633.00881276091
65.47432 628.965791403835
65.49444 591.993597053641
65.51455 624.081300961759
65.53466 632.015222842931
65.55478 614.032090138636
65.57489 588.996165128891
65.595 618
65.61512 606.993047720767
65.63523 609.986126231553
65.65535 584.945395806687
65.67546 588.932281411223
65.69557 628.973425665402
65.71569 624.000015402789
65.7358 624
65.75591 581.000869374363
65.77603 630.065363538695
65.79614 631.951768185854
65.81626 607.031107586066
65.83637 610.964141063861
65.85648 631.008535321659
65.8766 599
65.89671 597.00435806973
65.91682 606.011437095526
65.93694 616.004484015845
65.95705 599.102533736321
65.97716 560.010226256646
65.99728 585.977749078407
66.01739 593.991196448126
66.03751 622.007368181001
66.05762 612.980076397276
66.07773 588.949624818741
66.09785 568.050024937313
66.11796 611.955997897751
66.13807 610.970050324394
66.15819 641.007752237692
66.1783 587
66.19842 606.028997237489
66.21853 610.977506416075
66.23864 594.996169431538
66.25876 609.960945551416
66.27887 611.042771047463
66.29898 590.962036970636
66.3191 658
66.33921 612.980630627569
66.35933 603.965840856398
66.37944 572.014619565895
66.39955 608.979250156449
66.41967 600.931110947415
66.43978 670.010261603768
66.45989 588.021612721934
66.48001 617.012399936706
66.50012 598.976660569969
66.52023 602.035837291302
66.54035 618.968674747478
66.56046 583.060513052736
66.58058 583.970644248322
66.60069 612.00037048036
66.6208 595
66.64092 621.001449312963
66.66103 594.981224732002
66.68114 605.002061960932
66.70126 593.98911498885
66.72137 611.007287816651
66.74149 596.988427276599
66.7616 627
66.78171 543.989434135775
66.80183 609.106591683971
66.82194 628.980499706412
66.84205 619.998175208513
66.86217 620.029926745033
66.88228 596.989463198237
66.90239 627.999247764736
66.92251 598.994768249876
66.94262 622.022578006051
66.96274 627.007323317454
66.98285 640.041467040115
67.00296 637.079972452687
67.02308 576.047532011161
67.04319 572.980514470752
67.0633 616
67.08342 594.983018338986
67.10353 598.005098057677
67.12365 591.985954835365
67.14376 601.938329221575
67.16387 626.024483459584
67.18399 591.997528639121
67.2041 632
67.22421 601.983674794558
67.24433 603.044646238987
67.26444 631.00043238148
67.28456 594.114126207147
67.30467 564.952995642041
67.32478 631.955313951555
67.3449 629
67.36501 616.993021867333
67.38512 595.976155007722
67.40524 588.045716845722
67.42535 629.916233333085
67.44546 637.021908806503
67.46558 633.97762936998
67.48569 658.007976341717
67.50581 610.986468633128
67.52592 638.064703546288
67.54603 680.965743285574
67.56615 636.051064544464
67.58626 710.939099873639
67.60637 692.958891454995
67.62649 771.979234598812
67.6466 764
67.66672 817.018946128262
67.68683 790.979085827292
67.70694 814.056250586473
67.72706 806.107062055074
67.74717 732.087933164156
67.76728 712.989800601381
67.7874 725
67.80751 713.001340242937
67.82763 725.993237013298
67.84774 715.042429670187
67.86785 749.029491836114
67.88797 713.965602827915
67.90808 785.969920368307
67.92819 753.013275915117
67.94831 766.008195567352
67.96842 753.963850269576
67.98853 726.013208643035
68.00865 766.092560141686
68.02876 783.968296711345
68.04888 818.942649810985
68.06899 885.97044858934
68.0891 908
68.10922 850.948739937159
68.12933 844.063450629519
68.14944 894.02121619114
68.16956 851.126798160626
68.18967 809.015560661578
68.20979 832.974558543382
68.2299 874
68.25001 848.996908325356
68.27013 871.02260584541
68.29024 846.879293363023
68.31035 787.059634580408
68.33047 800.971548932164
68.35058 779.075839291417
68.3707 697
68.39081 720.001370000725
68.41092 679.963916007669
68.43104 692.116513015628
68.45115 748.015516255755
68.47126 709.064526573149
68.49138 713.978475764119
68.51149 721.009046854927
68.5316 672
68.55172 611.990614341636
68.57183 632.993690366932
68.59195 597.960491223186
68.61206 624.913240852416
68.63217 642.039723647672
68.65229 601.004375395565
68.6724 624
68.69251 601.990480001009
68.71263 612.049117881251
68.73274 638.99704426154
68.75286 614.041365624281
68.77297 609.00771598169
68.79308 601.994555635544
68.8132 606
68.83331 572.003852890093
68.85342 622.042734571483
68.87354 617.916871256942
68.89365 578.018809073473
68.91376 601.951630525056
68.93388 600.023437231475
68.95399 587.986066362997
68.97411 630.000677196478
68.99422 596.993444733922
69.01433 634.055560781877
69.03445 639.966406818024
69.05456 633.966758343541
69.07467 652.025741020958
69.09479 604.018601927233
69.1149 601
69.13502 608.997122677929
69.15513 587.938298378702
69.17524 559.03634828789
69.19536 607.944465419092
69.21547 602.001946292151
69.23558 607.025608961346
69.2557 568
69.27581 600.998967547359
69.29593 577.049022471682
69.31604 647.018182348883
69.33615 579.156385333376
69.35627 574.960309465295
69.37638 606.959945677873
69.39649 639.996336942794
69.41661 600.956390891298
69.43672 535.028199936483
69.45683 628.083165899139
69.47695 613.96338437111
69.49706 632.964028063549
69.51718 619.042354954856
69.53729 581.001826021743
69.5574 611
69.57752 612.967182349857
69.59763 567.954759904038
69.61774 586.14638296546
69.63786 646.060165096836
69.65797 563.033072795425
69.67809 629.965075869715
69.6982 637
69.71831 613.012833938657
69.73843 650.96344944957
69.75854 582.963521650619
69.77865 617.010337780507
69.79877 565.028062552441
69.81888 601.966107317202
69.839 589
69.85911 555.003244594908
69.87922 593.031223374525
69.89934 609.05950813248
69.91945 627.885602698429
69.93956 557.997499835867
69.95968 628.955883557918
69.97979 608.014163954633
69.9999 607
70.02002 608.014149130239
70.04013 620.972508336364
70.06025 583.968373714093
70.08036 605.951745598946
70.10047 610.009474858274
70.12059 597.012827382445
70.1407 587
70.16081 646.005303566565
70.18093 590.893523640659
70.20104 559.027741084347
70.22116 594.945617783511
70.24127 598.009807077903
70.26138 587.024849508177
70.2815 553
70.30161 560.02876745195
70.32172 634.040006148038
70.34184 617.910546669378
70.36195 585.017662884784
70.38207 602.957240004678
70.40218 629.972711015302
70.42229 637.018070831582
70.44241 570.970654308433
70.46252 548.005375297835
70.48263 571.055966159447
70.50275 596.978992332708
70.52286 586.91254091972
70.54297 646.03045772581
70.56309 555.028640887429
70.5832 577
70.60332 593.999829295849
70.62343 581.958148789577
70.64354 555.996611189555
70.66366 579.943013840788
70.68377 602.958326415142
70.70388 625.005306006083
70.724 590
70.74411 567.006510436091
70.76423 594.007595692735
70.78434 566.93288724748
70.80445 557.945722158505
70.82457 594.954514014666
70.84468 601.014555648849
70.86479 584.002420883397
70.88491 576.981107651749
70.90502 538.018650771328
70.92513 591.007816860048
70.94525 543.945031630353
70.96536 578.906449781984
70.98548 590.027926835418
71.00559 567.983861183935
71.0257 621
71.04582 562.988118316953
71.06593 608.02688400622
71.08604 585.011077227239
71.10616 617.026655698327
71.12627 571.986760411652
71.14639 634.984392698239
71.1665 604
71.18661 590.995019829888
71.20673 579.005042941675
71.22684 594.011184083964
71.24695 588.989794864788
71.26707 601.99718247016
71.28718 592.002553083951
71.3073 587
71.32741 541.999664093534
71.34752 594.060241170272
71.36764 615.960843016459
71.38775 575.09567243466
71.40786 568.934687856019
71.42798 603.009110158923
71.44809 569.996512518969
71.4682 611
71.48832 587.023955717002
71.50843 634.956616529641
71.52855 560.026853611686
71.54866 645.962520493251
71.56877 577.052953005599
71.58889 609.992724586926
71.609 580
71.62911 609.019187844814
71.64923 638.050370488039
71.66934 658.953013826941
71.68946 603.087132775338
71.70957 603.948912998164
71.72968 626.024170029789
71.7498 580
71.76991 617.016145541882
71.79002 607.963028141419
71.81014 582.022315537172
71.83025 623.900654037146
71.85037 629.045129221879
71.87048 597.99677711927
71.89059 623.998958588107
71.91071 599.997259119615
71.93082 610.98112230901
71.95093 566.973493373199
71.97105 585.030543344006
71.99116 577.002825949858
72.01127 597.951785231697
72.03139 619.999426814437
72.0515 609
72.07162 608.981316621739
72.09173 585.010287650615
72.11184 614.012796425755
72.13196 597.987281617688
72.15207 624.998478994644
72.17218 591.031052253641
72.1923 598
72.21241 632.993079869672
72.23253 585.96540451841
72.25264 616.111559697829
72.27275 648.037913295573
72.29287 596.082491537601
72.31298 588.941065935169
72.33309 648.012906438414
72.35321 560.980532659943
72.37332 608.062488608946
72.39344 620.935732368619
72.41355 578.948081780694
72.43366 587.966467903292
72.45378 603.971658870788
72.47389 618.02030277352
72.494 559
72.51412 616.0349204419
72.53423 604.99611600232
72.55434 622.992959668258
72.57446 591.049652933936
72.59457 592.979747214185
72.61469 592.013119625382
72.6348 564
72.65491 599.013634779492
72.67503 597.981050753627
72.69514 590.99880523316
72.71525 589.029350829649
72.73537 590.928635200217
72.75548 643.017647516495
72.7756 570
72.79571 592.011199633434
72.81582 592.015227139243
72.83594 617.9886762633
72.85605 585.033292996881
72.87616 591.043006938048
72.89628 552.995863345583
72.91639 592.994638662369
72.9365 567
72.95662 606.048703457512
72.97673 619.952547136014
72.99685 575.970285583873
73.01696 594.990640826045
73.03707 580.987876856152
73.05719 604.005179224718
73.0773 557
73.09741 568.027921956126
73.11753 609.959428171604
73.13764 547.984427075719
73.15776 602.926163597716
73.17787 589.026704462663
73.19798 598.977706428395
73.2181 618
73.23821 619.989902964044
73.25832 595.999949945955
73.27844 604.951313657627
73.29855 572.928132138334
73.31867 642.965987576034
73.33878 608.014580769162
73.35889 637.989717201657
73.37901 633.00349882782
73.39912 663.026170251858
73.41923 686.069764945099
73.43935 720.902144445396
73.45946 640.053897258594
73.47957 675.980214913354
73.49969 638.015731325276
73.5198 634
73.53992 627.049413440793
73.56003 693.991468896151
73.58014 616.885691659878
73.60026 631.901798352046
73.62037 653.047496621077
73.64048 615.969875145603
73.6606 693
73.68071 644.967904416533
73.70083 608.963957130612
73.72094 590.998321603458
73.74105 599.998678467292
73.76117 589.010829052019
73.78128 590.998553399368
73.80139 591.994804337545
73.82151 603.997874569888
73.84162 593.00956757472
73.86174 617.009710730129
73.88185 590.911756550553
73.90196 567.025261419962
73.92208 564.99144975742
73.94219 577.994396765819
73.9623 590
73.98242 606.990292402625
74.00253 586.008303053173
74.02264 621.059221944568
74.04276 617.062727451701
74.06287 574.066634930799
74.08299 561.977584481992
74.1031 631
74.12321 604.971593550186
74.14333 570.015279804368
74.16344 602.014751449798
74.18355 585.979941549804
74.20367 612.014612292334
74.22378 559.049348438729
74.2439 554
74.26401 592.006017180637
74.28412 583.004430856201
74.30424 615.078070312129
74.32435 621.11759495261
74.34446 561.024090331563
74.36458 601.962119024842
74.38469 605.004061980202
74.40481 602.998814813923
74.42492 590.975779553862
74.44503 559.956268946202
74.46515 551.053948686716
74.48526 590.929893948158
74.50537 599.028316096825
74.52549 575.0035551285
74.5456 588
74.56571 597.007494123664
74.58583 608.982385134882
74.60594 579.962113669742
74.62606 579.003876412435
74.64617 570.004553599547
74.66628 572.006864783748
74.6864 558
74.70651 559.996053876284
74.72662 563.051790418569
74.74674 624.989613314953
74.76685 560.09905544443
74.78697 578.96014664704
74.80708 585.989082628856
74.82719 597.008262444709
74.84731 557.985851838869
74.86742 552.998463909248
74.88753 534.948573711071
74.90765 519.093211378133
74.92776 584.931969542938
74.94787 568.041412161899
74.96799 567.98716790732
74.9881 593
75.00822 558.949510220439
