3.00117 19392
3.02128 19421
3.0414 18158
3.06151 18225
3.08162 17910
3.10174 17187
3.12185 16600
3.14197 15990
3.16208 15607
3.18219 15676
3.20231 14513
3.22242 14525
3.24253 13874
3.26265 13433
3.28276 13058
3.30288 12519
3.32299 12174
3.3431 11717
3.36322 11507
3.38333 11352
3.40344 10521
3.42356 10347
3.44367 9972
3.46379 9499
3.4839 9609
3.50401 8978
3.52413 8785
3.54424 8586
3.56435 8040
3.58447 7958
3.60458 7462
3.62469 7322
3.64481 6960
3.66492 7039
3.68504 6745
3.70515 6103
3.72526 6044
3.74538 5758
3.76549 5545
3.7856 5445
3.80572 5050
3.82583 4946
3.84595 4663
3.86606 4405
3.88617 4454
3.90629 3848
3.9264 3967
3.94651 3848
3.96663 3715
3.98674 3571
4.00686 3311
4.02697 3393
4.04708 3207
4.0672 3002
4.08731 2907
4.10742 2664
4.12754 2564
4.14765 2543
4.16776 2394
4.18788 2397
4.20799 2157
4.22811 2102
4.24822 2172
4.26833 2115
4.28845 2044
4.30856 1974
4.32867 1868
4.34879 1842
4.3689 1720
4.38902 1887
4.40913 1672
4.42924 1653
4.44936 1742
4.46947 1673
4.48958 1682
4.5097 1573
4.52981 1595
4.54992 1691
4.57004 1554
4.59015 1473
4.61027 1387
4.63038 1444
4.65049 1376
4.67061 1417
4.69072 1480
4.71083 1310
4.73095 1292
4.75106 1312
4.77118 1260
4.79129 1178
4.8114 1161
4.83152 1189
4.85163 1161
4.87174 1168
4.89186 1107
4.91197 1122
4.93209 1055
4.9522 1116
4.97231 1118
4.99243 1135
5.01254 1067
5.03265 1066
5.05277 976
5.07288 1058
5.09299 996
5.11311 993
5.13322 1010
5.15334 1001
5.17345 938
5.19356 919
5.21368 979
5.23379 900
5.2539 881
5.27402 879
5.29413 847
5.31425 902
5.33436 827
5.35447 933
5.37459 809
5.3947 902
5.41481 871
5.43493 865
5.45504 839
5.47516 844
5.49527 784
5.51538 778
5.5355 761
5.55561 781
5.57572 822
5.59584 806
5.61595 797
5.63606 742
5.65618 725
5.67629 770
5.69641 756
5.71652 809
5.73663 775
5.75675 808
5.77686 772
5.79697 777
5.81709 736
5.8372 794
5.85732 693
5.87743 745
5.89754 774
5.91766 779
5.93777 739
5.95788 797
5.978 761
5.99811 803
6.01823 790
6.03834 739
6.05845 816
6.07857 752
6.09868 797
6.11879 782
6.13891 705
6.15902 736
6.17913 697
6.19925 656
6.21936 689
6.23948 704
6.25959 665
6.2797 666
6.29982 684
6.31993 623
6.34004 694
6.36016 642
6.38027 666
6.40039 641
6.4205 678
6.44061 645
6.46073 634
6.48084 658
6.50095 694
6.52107 634
6.54118 603
6.56129 591
6.58141 616
6.60152 607
6.62164 637
6.64175 656
6.66186 648
6.68198 603
6.70209 635
6.7222 657
6.74232 600
6.76243 620
6.78255 605
6.80266 630
6.82277 605
6.84289 653
6.863 559
6.88311 609
6.90323 638
6.92334 649
6.94346 637
6.96357 595
6.98368 630
7.0038 643
7.02391 640
7.04402 615
7.06414 624
7.08425 626
7.10436 645
7.12448 606
7.14459 643
7.16471 608
7.18482 603
7.20493 642
7.22505 604
7.24516 634
7.26527 613
7.28539 578
7.3055 663
7.32562 566
7.34573 682
7.36584 614
7.38596 636
7.40607 616
7.42618 618
7.4463 615
7.46641 601
7.48653 606
7.50664 601
7.52675 586
7.54687 607
7.56698 570
7.58709 594
7.60721 580
7.62732 590
7.64743 649
7.66755 580
7.68766 606
7.70778 616
7.72789 598
7.748 600
7.76812 592
7.78823 600
7.80834 568
7.82846 623
7.84857 571
7.86869 586
7.8888 587
7.90891 540
7.92903 605
7.94914 591
7.96925 634
7.98937 607
8.00948 623
8.0296 588
8.04971 572
8.06982 575
8.08994 558
8.11005 584
8.13016 552
8.15028 618
8.17039 589
8.1905 567
8.21062 582
8.23073 573
8.25085 618
8.27096 581
8.29107 573
8.31119 609
8.3313 562
8.35141 584
8.37153 566
8.39164 599
8.41176 555
8.43187 532
8.45198 558
8.4721 573
8.49221 599
8.51232 567
8.53244 599
8.55255 578
8.57266 581
8.59278 651
8.61289 635
8.63301 570
8.65312 553
8.67323 646
8.69335 621
8.71346 601
8.73357 570
8.75369 660
8.7738 618
8.79392 634
8.81403 638
8.83414 653
8.85426 603
8.87437 638
8.89448 630
8.9146 611
8.93471 601
8.95483 577
8.97494 594
8.99505 612
9.01517 558
9.03528 612
9.05539 607
9.07551 544
9.09562 601
9.11573 585
9.13585 569
9.15596 608
9.17608 533
9.19619 578
9.2163 545
9.23642 588
9.25653 546
9.27664 564
9.29676 596
9.31687 560
9.33699 554
9.3571 559
9.37721 594
9.39733 560
9.41744 591
9.43755 575
9.45767 563
9.47778 580
9.4979 552
9.51801 554
9.53812 552
9.55824 571
9.57835 535
9.59846 567
9.61858 533
9.63869 606
9.6588 553
9.67892 501
9.69903 534
9.71915 513
9.73926 553
9.75937 535
9.77949 575
9.7996 543
9.81971 562
9.83983 556
9.85994 531
9.88006 572
9.90017 531
9.92028 558
9.9404 572
9.96051 577
9.98062 597
10.00074 517
10.02085 598
10.04097 577
10.06108 583
10.08119 551
10.10131 521
10.12142 529
10.14153 560
10.16165 516
10.18176 558
10.20187 561
10.22199 552
10.2421 590
10.26222 538
10.28233 519
10.30244 584
10.32256 541
10.34267 517
10.36278 586
10.3829 559
10.40301 564
10.42313 545
10.44324 556
10.46335 582
10.48347 548
10.50358 517
10.52369 524
10.54381 539
10.56392 537
10.58403 564
10.60415 565
10.62426 587
10.64438 511
10.66449 537
10.6846 528
10.70472 534
10.72483 550
10.74494 562
10.76506 565
10.78517 550
10.80529 534
10.8254 540
10.84551 541
10.86563 582
10.88574 564
10.90585 565
10.92597 539
10.94608 524
10.9662 535
10.98631 556
11.00642 486
11.02654 558
11.04665 531
11.06676 557
11.08688 577
11.10699 553
11.1271 535
11.14722 556
11.16733 466
11.18745 541
11.20756 531
11.22767 535
11.24779 547
11.2679 540
11.28801 543
11.30813 538
11.32824 502
11.34836 564
11.36847 558
11.38858 581
11.4087 578
11.42881 547
11.44892 542
11.46904 556
11.48915 590
11.50927 556
11.52938 515
11.54949 501
11.56961 551
11.58972 548
11.60983 576
11.62995 559
11.65006 537
11.67017 544
11.69029 601
11.7104 547
11.73052 524
11.75063 602
11.77074 585
11.79086 576
11.81097 515
11.83108 587
11.8512 576
11.87131 545
11.89143 570
11.91154 566
11.93165 618
11.95177 601
11.97188 536
11.99199 539
12.01211 608
12.03222 628
12.05234 564
12.07245 599
12.09256 635
12.11268 610
12.13279 639
12.1529 632
12.17302 593
12.19313 626
12.21324 606
12.23336 710
12.25347 665
12.27359 676
12.2937 665
12.31381 676
12.33393 661
12.35404 696
12.37415 652
12.39427 614
12.41438 622
12.4345 606
12.45461 597
12.47472 616
12.49484 620
12.51495 558
12.53506 608
12.55518 537
12.57529 620
12.5954 572
12.61552 591
12.63563 560
12.65575 551
12.67586 580
12.69597 585
12.71609 599
12.7362 561
12.75631 531
12.77643 588
12.79654 507
12.81666 584
12.83677 570
12.85688 549
12.877 519
12.89711 551
12.91722 533
12.93734 582
12.95745 560
12.97757 508
12.99768 565
13.01779 517
13.03791 553
13.05802 568
13.07813 525
13.09825 516
13.11836 577
13.13847 531
13.15859 528
13.1787 555
13.19882 531
13.21893 568
13.23904 523
13.25916 499
13.27927 492
13.29938 531
13.3195 503
13.33961 532
13.35973 497
13.37984 520
13.39995 476
13.42007 527
13.44018 519
13.46029 508
13.48041 485
13.50052 486
13.52064 516
13.54075 507
13.56086 556
13.58098 548
13.60109 542
13.6212 517
13.64132 546
13.66143 527
13.68154 543
13.70166 526
13.72177 494
13.74189 562
13.762 562
13.78211 526
13.80223 560
13.82234 496
13.84245 549
13.86257 532
13.88268 524
13.9028 522
13.92291 523
13.94302 534
13.96314 596
13.98325 541
14.00336 519
14.02348 539
14.04359 521
14.06371 526
14.08382 488
14.10393 521
14.12405 503
14.14416 493
14.16427 508
14.18439 521
14.2045 538
14.22461 537
14.24473 513
14.26484 528
14.28496 496
14.30507 516
14.32518 507
14.3453 525
14.36541 489
14.38552 559
14.40564 466
14.42575 492
14.44587 505
14.46598 520
14.48609 534
14.50621 525
14.52632 504
14.54643 563
14.56655 527
14.58666 553
14.60677 520
14.62689 548
14.647 523
14.66712 568
14.68723 513
14.70734 501
14.72746 505
14.74757 507
14.76768 511
14.7878 488
14.80791 511
14.82803 463
14.84814 540
14.86825 525
14.88837 517
14.90848 542
14.92859 502
14.94871 511
14.96882 558
14.98894 545
15.00905 550
15.02916 528
15.04928 509
15.06939 509
15.0895 530
15.10962 518
15.12973 535
15.14984 540
15.16996 554
15.19007 534
15.21019 505
15.2303 524
15.25041 507
15.27053 523
15.29064 537
15.31075 504
15.33087 472
15.35098 531
15.3711 501
15.39121 505
15.41132 528
15.43144 470
15.45155 529
15.47166 481
15.49178 499
15.51189 518
15.53201 551
15.55212 497
15.57223 487
15.59235 509
15.61246 509
15.63257 561
15.65269 525
15.6728 505
15.69291 515
15.71303 481
15.73314 503
15.75326 503
15.77337 503
15.79348 470
15.8136 528
15.83371 512
15.85382 476
15.87394 535
15.89405 509
15.91417 520
15.93428 534
15.95439 492
15.97451 525
15.99462 520
16.01473 533
16.03485 529
16.05496 511
16.07508 524
16.09519 511
16.1153 522
16.13542 496
16.15553 524
16.17564 480
16.19576 537
16.21587 534
16.23598 485
16.2561 562
16.27621 477
16.29633 518
16.31644 540
16.33655 510
16.35667 527
16.37678 505
16.39689 498
16.41701 500
16.43712 483
16.45724 530
16.47735 550
16.49746 553
16.51758 525
16.53769 514
16.5578 534
16.57792 542
16.59803 500
16.61814 544
16.63826 477
16.65837 505
16.67849 532
16.6986 519
16.71871 503
16.73883 537
16.75894 523
16.77905 550
16.79917 539
16.81928 527
16.8394 476
16.85951 527
16.87962 521
16.89974 529
16.91985 491
16.93996 494
16.96008 499
16.98019 496
17.00031 492
17.02042 550
17.04053 563
17.06065 514
17.08076 538
17.10087 529
17.12099 499
17.1411 540
17.16121 510
17.18133 527
17.20144 507
17.22156 534
17.24167 518
17.26178 535
17.2819 525
17.30201 530
17.32212 510
17.34224 542
17.36235 512
17.38247 528
17.40258 510
17.42269 538
17.44281 554
17.46292 515
17.48303 539
17.50315 533
17.52326 548
17.54338 527
17.56349 529
17.5836 540
17.60372 556
17.62383 516
17.64394 525
17.66406 586
17.68417 533
17.70428 536
17.7244 577
17.74451 599
17.76463 542
17.78474 588
17.80485 557
17.82497 544
17.84508 530
17.86519 530
17.88531 567
17.90542 519
17.92554 568
17.94565 523
17.96576 546
17.98588 572
18.00599 592
18.0261 533
18.04622 562
18.06633 520
18.08645 575
18.10656 551
18.12667 510
18.14679 535
18.1669 583
18.18701 523
18.20713 525
18.22724 525
18.24735 546
18.26747 525
18.28758 549
18.3077 511
18.32781 518
18.34792 540
18.36804 499
18.38815 538
18.40826 514
18.42838 547
18.44849 517
18.46861 538
18.48872 526
18.50883 496
18.52895 520
18.54906 534
18.56917 503
18.58929 536
18.6094 541
18.62951 538
18.64963 520
18.66974 535
18.68986 564
18.70997 502
18.73008 585
18.7502 500
18.77031 539
18.79042 583
18.81054 567
18.83065 504
18.85077 536
18.87088 550
18.89099 537
18.91111 534
18.93122 522
18.95133 607
18.97145 495
18.99156 518
19.01168 537
19.03179 559
19.0519 525
19.07202 556
19.09213 569
19.11224 562
19.13236 542
19.15247 507
19.17258 485
19.1927 522
19.21281 565
19.23293 549
19.25304 600
19.27315 512
19.29327 607
19.31338 597
19.33349 610
19.35361 631
19.37372 587
19.39384 617
19.41395 547
19.43406 658
19.45418 547
19.47429 594
19.4944 606
19.51452 633
19.53463 684
19.55475 610
19.57486 646
19.59497 611
19.61509 683
19.6352 710
19.65531 721
19.67543 763
19.69554 759
19.71565 675
19.73577 747
19.75588 732
19.776 802
19.79611 831
19.81622 858
19.83634 833
19.85645 752
19.87656 845
19.89668 773
19.91679 731
19.93691 760
19.95702 809
19.97713 723
19.99725 749
20.01736 713
20.03747 721
20.05759 698
20.0777 674
20.09782 659
20.11793 686
20.13804 730
20.15816 704
20.17827 696
20.19838 722
20.2185 703
20.23861 686
20.25872 673
20.27884 667
20.29895 652
20.31907 643
20.33918 706
20.35929 652
20.37941 716
20.39952 680
20.41963 692
20.43975 692
20.45986 661
20.47998 740
20.50009 695
20.5202 697
20.54032 694
20.56043 712
20.58054 741
20.60066 708
20.62077 744
20.64088 791
20.661 790
20.68111 893
20.70123 929
20.72134 1019
20.74145 1209
20.76157 1578
20.78168 1875
20.80179 2287
20.82191 2628
20.84202 2683
20.86214 2521
20.88225 2143
20.90236 1773
20.92248 1389
20.94259 1100
20.9627 940
20.98282 822
21.00293 811
21.02305 760
21.04316 785
21.06327 824
21.08339 785
21.1035 831
21.12361 747
21.14373 828
21.16384 745
21.18395 851
21.20407 821
21.22418 847
21.2443 806
21.26441 806
21.28452 798
21.30464 841
21.32475 807
21.34486 797
21.36498 783
21.38509 757
21.40521 817
21.42532 734
21.44543 740
21.46555 731
21.48566 752
21.50577 688
21.52589 739
21.546 762
21.56612 684
21.58623 676
21.60634 642
21.62646 678
21.64657 662
21.66668 667
21.6868 700
21.70691 649
21.72702 700
21.74714 616
21.76725 693
21.78737 655
21.80748 641
21.82759 692
21.84771 632
21.86782 620
21.88793 633
21.90805 652
21.92816 652
21.94828 656
21.96839 653
21.9885 713
22.00862 710
22.02873 646
22.04884 718
22.06896 686
22.08907 663
22.10919 666
22.1293 612
22.14941 682
22.16953 657
22.18964 632
22.20975 627
22.22987 628
22.24998 623
22.27009 590
22.29021 587
22.31032 595
22.33044 616
22.35055 631
22.37066 594
22.39078 594
22.41089 637
22.431 630
22.45112 585
22.47123 580
22.49135 618
22.51146 609
22.53157 587
22.55169 601
22.5718 631
22.59191 654
22.61203 619
22.63214 634
22.65225 622
22.67237 612
22.69248 599
22.7126 588
22.73271 612
22.75282 594
22.77294 667
22.79305 669
22.81316 662
22.83328 673
22.85339 614
22.87351 628
22.89362 635
22.91373 627
22.93385 608
22.95396 602
22.97407 590
22.99419 609
23.0143 597
23.03442 580
23.05453 620
23.07464 637
23.09476 628
23.11487 574
23.13498 610
23.1551 581
23.17521 595
23.19532 609
23.21544 591
23.23555 596
23.25567 631
23.27578 632
23.29589 632
23.31601 629
23.33612 580
23.35623 608
23.37635 557
23.39646 622
23.41658 599
23.43669 625
23.4568 600
23.47692 627
23.49703 670
23.51714 660
23.53726 621
23.55737 651
23.57749 638
23.5976 636
23.61771 642
23.63783 604
23.65794 644
23.67805 648
23.69817 644
23.71828 633
23.73839 621
23.75851 630
23.77862 650
23.79874 623
23.81885 648
23.83896 635
23.85908 639
23.87919 640
23.8993 659
23.91942 652
23.93953 679
23.95965 712
23.97976 700
23.99987 697
24.01999 706
24.0401 652
24.06021 693
24.08033 717
24.10044 731
24.12056 724
24.14067 793
24.16078 737
24.1809 722
24.20101 759
24.22112 741
24.24124 691
24.26135 688
24.28146 769
24.30158 692
24.32169 675
24.34181 655
24.36192 661
24.38203 657
24.40215 631
24.42226 682
24.44237 653
24.46249 675
24.4826 623
24.50272 646
24.52283 620
24.54294 631
24.56306 666
24.58317 651
24.60328 697
24.6234 634
24.64351 705
24.66362 685
24.68374 649
24.70385 694
24.72397 695
24.74408 678
24.76419 732
24.78431 727
24.80442 668
24.82453 712
24.84465 684
24.86476 668
24.88488 700
24.90499 610
24.9251 686
24.94522 663
24.96533 684
24.98544 641
25.00556 632
25.02567 614
25.04579 682
25.0659 652
25.08601 643
25.10613 633
25.12624 680
25.14635 622
25.16647 644
25.18658 685
25.20669 619
25.22681 647
25.24692 629
25.26704 610
25.28715 678
25.30726 653
25.32738 695
25.34749 676
25.3676 666
25.38772 650
25.40783 636
25.42795 668
25.44806 641
25.46817 637
25.48829 674
25.5084 624
25.52851 619
25.54863 626
25.56874 623
25.58886 627
25.60897 679
25.62908 641
25.6492 661
25.66931 655
25.68942 643
25.70954 600
25.72965 702
25.74976 651
25.76988 663
25.78999 698
25.81011 648
25.83022 658
25.85033 698
25.87045 674
25.89056 670
25.91067 649
25.93079 646
25.9509 647
25.97102 672
25.99113 686
26.01124 665
26.03136 660
26.05147 649
26.07158 669
26.0917 673
26.11181 717
26.13193 740
26.15204 724
26.17215 796
26.19227 717
26.21238 793
26.23249 795
26.25261 751
26.27272 833
26.29283 858
26.31295 865
26.33306 921
26.35318 919
26.37329 1029
26.3934 1013
26.41352 1083
26.43363 1182
26.45374 1496
26.47386 1921
26.49397 2585
26.51409 3650
26.5342 4954
26.55431 6465
26.57443 8237
26.59454 9050
26.61465 9540
26.63477 9092
26.65488 7733
26.67499 5858
26.69511 4409
26.71522 3247
26.73534 2294
26.75545 1489
26.77556 1197
26.79568 1031
26.81579 957
26.8359 910
26.85602 860
26.87613 811
26.89625 819
26.91636 790
26.93647 749
26.95659 719
26.9767 759
26.99681 701
27.01693 706
27.03704 662
27.05716 707
27.07727 728
27.09738 643
27.1175 649
27.13761 635
27.15772 687
27.17784 682
27.19795 625
27.21806 649
27.23818 671
27.25829 659
27.27841 653
27.29852 687
27.31863 652
27.33875 698
27.35886 719
27.37897 681
27.39909 649
27.4192 705
27.43932 677
27.45943 638
27.47954 707
27.49966 687
27.51977 676
27.53988 648
27.56 631
27.58011 621
27.60023 582
27.62034 637
27.64045 621
27.66057 628
27.68068 663
27.70079 644
27.72091 682
27.74102 661
27.76113 649
27.78125 660
27.80136 636
27.82148 676
27.84159 757
27.8617 723
27.88182 712
27.90193 733
27.92204 741
27.94216 745
27.96227 688
27.98239 683
28.0025 651
28.02261 650
28.04273 596
28.06284 635
28.08295 635
28.10307 615
28.12318 642
28.1433 608
28.16341 586
28.18352 621
28.20364 654
28.22375 632
28.24386 635
28.26398 609
28.28409 641
28.3042 634
28.32432 640
28.34443 630
28.36455 602
28.38466 612
28.40477 610
28.42489 591
28.445 585
28.46511 586
28.48523 631
28.50534 599
28.52546 615
28.54557 633
28.56568 592
28.5858 607
28.60591 594
28.62602 599
28.64614 611
28.66625 605
28.68636 602
28.70648 596
28.72659 586
28.74671 571
28.76682 547
28.78693 603
28.80705 547
28.82716 598
28.84727 574
28.86739 591
28.8875 592
28.90762 563
28.92773 636
28.94784 615
28.96796 589
28.98807 579
29.00818 568
29.0283 589
29.04841 552
29.06853 610
29.08864 613
29.10875 591
29.12887 582
29.14898 570
29.16909 557
29.18921 587
29.20932 546
29.22943 572
29.24955 579
29.26966 589
29.28978 561
29.30989 598
29.33 580
29.35012 599
29.37023 575
29.39034 604
29.41046 548
29.43057 572
29.45069 586
29.4708 596
29.49091 595
29.51103 563
29.53114 569
29.55125 608
29.57137 551
29.59148 619
29.6116 588
29.63171 584
29.65182 595
29.67194 579
29.69205 608
29.71216 527
29.73228 580
29.75239 608
29.7725 601
29.79262 576
29.81273 599
29.83285 577
29.85296 611
29.87307 602
29.89319 595
29.9133 611
29.93341 596
29.95353 607
29.97364 614
29.99376 601
30.01387 611
30.03398 589
30.0541 596
30.07421 580
30.09432 610
30.11444 626
30.13455 635
30.15467 619
30.17478 587
30.19489 634
30.21501 602
30.23512 650
30.25523 584
30.27535 653
30.29546 562
30.31557 596
30.33569 515
30.3558 608
30.37592 585
30.39603 627
30.41614 606
30.43626 626
30.45637 630
30.47648 629
30.4966 614
30.51671 654
30.53683 633
30.55694 573
30.57705 600
30.59717 627
30.61728 603
30.63739 593
30.65751 593
30.67762 595
30.69773 602
30.71785 550
30.73796 597
30.75808 568
30.77819 604
30.7983 558
30.81842 588
30.83853 590
30.85864 581
30.87876 581
30.89887 565
30.91899 573
30.9391 576
30.95921 595
30.97933 545
30.99944 580
31.01955 577
31.03967 593
31.05978 556
31.0799 570
31.10001 594
31.12012 583
31.14024 577
31.16035 566
31.18046 589
31.20058 568
31.22069 592
31.2408 581
31.26092 589
31.28103 608
31.30115 577
31.32126 571
31.34137 648
31.36149 618
31.3816 583
31.40171 591
31.42183 626
31.44194 615
31.46206 560
31.48217 591
31.50228 550
31.5224 620
31.54251 570
31.56262 584
31.58274 585
31.60285 586
31.62297 536
31.64308 602
31.66319 596
31.68331 577
31.70342 563
31.72353 543
31.74365 554
31.76376 609
31.78387 586
31.80399 559
31.8241 575
31.84422 586
31.86433 575
31.88444 636
31.90456 558
31.92467 558
31.94478 540
31.9649 611
31.98501 587
32.00513 602
32.02524 561
32.04535 578
32.06547 577
32.08558 615
32.10569 624
32.12581 602
32.14592 635
32.16604 612
32.18615 605
32.20626 584
32.22638 596
32.24649 537
32.2666 594
32.28672 543
32.30683 614
32.32694 603
32.34706 580
32.36717 646
32.38729 600
32.4074 652
32.42751 597
32.44763 660
32.46774 637
32.48785 657
32.50797 587
32.52808 654
32.5482 571
32.56831 622
32.58842 652
32.60854 665
32.62865 610
32.64876 612
32.66888 616
32.68899 616
32.7091 583
32.72922 609
32.74933 638
32.76945 618
32.78956 670
32.80967 710
32.82979 662
32.8499 700
32.87001 700
32.89013 685
32.91024 663
32.93036 688
32.95047 692
32.97058 690
32.9907 737
33.01081 771
33.03092 784
33.05104 818
33.07115 822
33.09127 848
33.11138 872
33.13149 807
33.15161 837
33.17172 840
33.19183 821
33.21195 861
33.23206 882
33.25217 766
33.27229 719
33.2924 745
33.31252 739
33.33263 674
33.35274 656
33.37286 671
33.39297 660
33.41308 700
33.4332 696
33.45331 720
33.47343 723
33.49354 677
33.51365 671
33.53377 717
33.55388 641
33.57399 678
33.59411 637
33.61422 668
33.63434 630
33.65445 607
33.67456 605
33.69468 605
33.71479 604
33.7349 572
33.75502 639
33.77513 621
33.79524 618
33.81536 572
33.83547 662
33.85559 628
33.8757 633
33.89581 626
33.91593 632
33.93604 635
33.95615 631
33.97627 624
33.99638 599
34.0165 656
34.03661 608
34.05672 642
34.07684 617
34.09695 620
34.11706 596
34.13718 630
34.15729 620
34.17741 691
34.19752 671
34.21763 701
34.23775 660
34.25786 698
34.27797 683
34.29809 729
34.3182 657
34.33831 687
34.35843 674
34.37854 725
34.39866 691
34.41877 655
34.43888 678
34.459 669
34.47911 692
34.49922 682
34.51934 684
34.53945 659
34.55957 719
34.57968 732
34.59979 695
34.61991 669
34.64002 729
34.66013 729
34.68025 701
34.70036 722
34.72047 733
34.74059 748
34.7607 779
34.78082 742
34.80093 743
34.82104 752
34.84116 826
34.86127 743
34.88138 758
34.9015 790
34.92161 792
34.94173 784
34.96184 770
34.98195 790
35.00207 800
35.02218 766
35.04229 722
35.06241 742
35.08252 723
35.10264 722
35.12275 753
35.14286 704
35.16298 711
35.18309 746
35.2032 705
35.22332 718
35.24343 662
35.26354 695
35.28366 760
35.30377 738
35.32389 697
35.344 823
35.36411 782
35.38423 767
35.40434 774
35.42445 804
35.44457 833
35.46468 836
35.4848 933
35.50491 818
35.52502 879
35.54514 935
35.56525 924
35.58536 947
35.60548 1003
35.62559 951
35.64571 1021
35.66582 914
35.68593 902
35.70605 889
35.72616 890
35.74627 861
35.76639 830
35.7865 829
35.80661 804
35.82673 832
35.84684 780
35.86696 772
35.88707 849
35.90718 841
35.9273 746
35.94741 786
35.96752 765
35.98764 695
36.00775 762
36.02787 742
36.04798 707
36.06809 719
36.08821 705
36.10832 665
36.12843 695
36.14855 680
36.16866 657
36.18878 699
36.20889 757
36.229 747
36.24912 718
36.26923 644
36.28934 722
36.30946 734
36.32957 710
36.34968 766
36.3698 740
36.38991 853
36.41003 848
36.43014 1027
36.45025 1095
36.47037 1174
36.49048 1246
36.51059 1376
36.53071 1241
36.55082 1159
36.57094 1145
36.59105 1061
36.61116 974
36.63128 876
36.65139 902
36.6715 801
36.69162 776
36.71173 768
36.73184 771
36.75196 744
36.77207 745
36.79219 745
36.8123 730
36.83241 817
36.85253 746
36.87264 769
36.89275 745
36.91287 779
36.93298 767
36.9531 739
36.97321 689
36.99332 742
37.01344 707
37.03355 643
37.05366 687
37.07378 720
37.09389 657
37.11401 693
37.13412 698
37.15423 679
37.17435 684
37.19446 615
37.21457 652
37.23469 633
37.2548 676
37.27491 681
37.29503 662
37.31514 650
37.33526 649
37.35537 577
37.37548 635
37.3956 623
37.41571 641
37.43582 622
37.45594 613
37.47605 685
37.49617 631
37.51628 652
37.53639 649
37.55651 643
37.57662 636
37.59673 597
37.61685 617
37.63696 662
37.65708 644
37.67719 617
37.6973 596
37.71742 618
37.73753 613
37.75764 643
37.77776 622
37.79787 618
37.81798 637
37.8381 662
37.85821 589
37.87833 604
37.89844 614
37.91855 622
37.93867 608
37.95878 609
37.97889 596
37.99901 637
38.01912 609
38.03924 614
38.05935 628
38.07946 610
38.09958 635
38.11969 583
38.1398 622
38.15992 641
38.18003 632
38.20015 653
38.22026 638
38.24037 625
38.26049 654
38.2806 619
38.30071 649
38.32083 655
38.34094 642
38.36105 688
38.38117 608
38.40128 620
38.4214 608
38.44151 667
38.46162 617
38.48174 619
38.50185 645
38.52196 589
38.54208 631
38.56219 610
38.58231 602
38.60242 601
38.62253 654
38.64265 603
38.66276 610
38.68287 609
38.70299 579
38.7231 605
38.74321 596
38.76333 641
38.78344 654
38.80356 545
38.82367 589
38.84378 584
38.8639 623
38.88401 577
38.90412 622
38.92424 607
38.94435 610
38.96447 595
38.98458 593
39.00469 604
39.02481 596
39.04492 629
39.06503 597
39.08515 572
39.10526 570
39.12538 644
39.14549 618
39.1656 656
39.18572 692
39.20583 664
39.22594 650
39.24606 613
39.26617 611
39.28628 624
39.3064 735
39.32651 865
39.34663 851
39.36674 940
39.38685 1065
39.40697 1090
39.42708 1065
39.44719 1095
39.46731 1016
39.48742 992
39.50754 919
39.52765 902
39.54776 853
39.56788 721
39.58799 739
39.6081 618
39.62822 648
39.64833 577
39.66845 557
39.68856 637
39.70867 613
39.72879 633
39.7489 589
39.76901 604
39.78913 622
39.80924 608
39.82935 613
39.84947 668
39.86958 647
39.8897 613
39.90981 581
39.92992 612
39.95004 623
39.97015 612
39.99026 630
40.01038 660
40.03049 661
40.05061 635
40.07072 651
40.09083 686
40.11095 669
40.13106 703
40.15117 703
40.17129 764
40.1914 803
40.21152 867
40.23163 835
40.25174 828
40.27186 842
40.29197 816
40.31208 769
40.3322 778
40.35231 705
40.37242 697
40.39254 663
40.41265 623
40.43277 642
40.45288 600
40.47299 612
40.49311 607
40.51322 592
40.53333 624
40.55345 662
40.57356 628
40.59368 636
40.61379 650
40.6339 643
40.65402 628
40.67413 630
40.69424 696
40.71436 688
40.73447 657
40.75458 649
40.7747 617
40.79481 686
40.81493 612
40.83504 632
40.85515 657
40.87527 704
40.89538 622
40.91549 653
40.93561 699
40.95572 666
40.97584 645
40.99595 582
41.01606 634
41.03618 635
41.05629 603
41.0764 641
41.09652 608
41.11663 625
41.13675 631
41.15686 633
41.17697 602
41.19709 660
41.2172 665
41.23731 644
41.25743 607
41.27754 654
41.29765 646
41.31777 616
41.33788 676
41.358 665
41.37811 660
41.39822 624
41.41834 588
41.43845 573
41.45856 619
41.47868 629
41.49879 602
41.51891 579
41.53902 606
41.55913 564
41.57925 628
41.59936 601
41.61947 589
41.63959 605
41.6597 597
41.67982 593
41.69993 646
41.72004 626
41.74016 619
41.76027 597
41.78038 582
41.8005 584
41.82061 586
41.84072 604
41.86084 589
41.88095 583
41.90107 595
41.92118 550
41.94129 630
41.96141 596
41.98152 619
42.00163 625
42.02175 593
42.04186 575
42.06198 578
42.08209 581
42.1022 609
42.12232 526
42.14243 592
42.16254 570
42.18266 608
42.20277 583
42.22289 631
42.243 602
42.26311 674
42.28323 662
42.30334 705
42.32345 736
42.34357 879
42.36368 947
42.38379 911
42.40391 987
42.42402 890
42.44414 876
42.46425 851
42.48436 823
42.50448 798
42.52459 795
42.5447 705
42.56482 675
42.58493 620
42.60505 614
42.62516 586
42.64527 571
42.66539 559
42.6855 574
42.70561 581
42.72573 594
42.74584 523
42.76595 544
42.78607 574
42.80618 570
42.8263 574
42.84641 583
42.86652 558
42.88664 585
42.90675 530
42.92686 546
42.94698 587
42.96709 565
42.98721 609
43.00732 536
43.02743 600
43.04755 535
43.06766 576
43.08777 625
43.10789 560
43.128 558
43.14812 585
43.16823 585
43.18834 577
43.20846 569
43.22857 564
43.24868 567
43.2688 561
43.28891 593
43.30902 563
43.32914 580
43.34925 574
43.36937 562
43.38948 521
43.40959 613
43.42971 583
43.44982 575
43.46993 586
43.49005 565
43.51016 543
43.53028 600
43.55039 580
43.5705 559
43.59062 505
43.61073 554
43.63084 496
43.65096 593
43.67107 529
43.69119 525
43.7113 526
43.73141 572
43.75153 582
43.77164 572
43.79175 536
43.81187 554
43.83198 515
43.85209 544
43.87221 568
43.89232 558
43.91244 551
43.93255 583
43.95266 557
43.97278 542
43.99289 553
44.013 563
44.03312 571
44.05323 505
44.07335 570
44.09346 528
44.11357 530
44.13369 542
44.1538 576
44.17391 555
44.19403 521
44.21414 585
44.23426 556
44.25437 552
44.27448 539
44.2946 549
44.31471 548
44.33482 560
44.35494 533
44.37505 559
44.39516 564
44.41528 527
44.43539 546
44.45551 573
44.47562 530
44.49573 562
44.51585 555
44.53596 560
44.55607 538
44.57619 549
44.5963 583
44.61642 554
44.63653 534
44.65664 556
44.67676 568
44.69687 573
44.71698 557
44.7371 555
44.75721 553
44.77732 545
44.79744 541
44.81755 555
44.83767 520
44.85778 580
44.87789 590
44.89801 576
44.91812 526
44.93823 605
44.95835 590
44.97846 531
44.99858 549
45.01869 550
45.0388 529
45.05892 550
45.07903 571
45.09914 597
45.11926 571
45.13937 563
45.15949 585
45.1796 610
45.19971 522
45.21983 585
45.23994 573
45.26005 578
45.28017 566
45.30028 597
45.32039 572
45.34051 569
45.36062 585
45.38074 609
45.40085 592
45.42096 584
45.44108 620
45.46119 608
45.4813 588
45.50142 591
45.52153 601
45.54165 593
45.56176 564
45.58187 608
45.60199 597
45.6221 650
45.64221 715
45.66233 686
45.68244 690
45.70256 765
45.72267 804
45.74278 834
45.7629 765
45.78301 796
45.80312 768
45.82324 699
45.84335 742
45.86346 723
45.88358 672
45.90369 663
45.92381 603
45.94392 590
45.96403 542
45.98415 565
46.00426 591
46.02437 555
46.04449 562
46.0646 578
46.08472 546
46.10483 583
46.12494 540
46.14506 506
46.16517 580
46.18528 538
46.2054 578
46.22551 563
46.24563 568
46.26574 556
46.28585 561
46.30597 539
46.32608 523
46.34619 520
46.36631 547
46.38642 578
46.40653 586
46.42665 578
46.44676 540
46.46688 579
46.48699 548
46.5071 539
46.52722 586
46.54733 555
46.56744 508
46.58756 512
46.60767 564
46.62779 554
46.6479 576
46.66801 527
46.68813 532
46.70824 570
46.72835 558
46.74847 551
46.76858 536
46.78869 523
46.80881 517
46.82892 563
46.84904 497
46.86915 557
46.88926 579
46.90938 566
46.92949 516
46.9496 543
46.96972 553
46.98983 582
47.00995 591
47.03006 542
47.05017 534
47.07029 525
47.0904 515
47.11051 541
47.13063 602
47.15074 598
47.17086 534
47.19097 546
47.21108 545
47.2312 500
47.25131 543
47.27142 553
47.29154 520
47.31165 494
47.33176 533
47.35188 525
47.37199 572
47.39211 538
47.41222 518
47.43233 555
47.45245 520
47.47256 571
47.49267 542
47.51279 548
47.5329 561
47.55302 535
47.57313 580
47.59324 574
47.61336 570
47.63347 569
47.65358 574
47.6737 564
47.69381 552
47.71393 531
47.73404 567
47.75415 501
47.77427 573
47.79438 553
47.81449 485
47.83461 547
47.85472 572
47.87483 562
47.89495 545
47.91506 546
47.93518 535
47.95529 591
47.9754 536
47.99552 554
48.01563 564
48.03574 569
48.05586 545
48.07597 587
48.09609 471
48.1162 578
48.13631 526
48.15643 538
48.17654 553
48.19665 551
48.21677 551
48.23688 561
48.257 533
48.27711 553
48.29722 499
48.31734 570
48.33745 547
48.35756 538
48.37768 492
48.39779 514
48.4179 559
48.43802 565
48.45813 553
48.47825 573
48.49836 572
48.51847 515
48.53859 532
48.5587 535
48.57881 575
48.59893 559
48.61904 562
48.63916 528
48.65927 521
48.67938 540
48.6995 531
48.71961 582
48.73972 596
48.75984 539
48.77995 567
48.80006 559
48.82018 565
48.84029 591
48.86041 544
48.88052 580
48.90063 548
48.92075 543
48.94086 596
48.96097 531
48.98109 594
49.0012 591
49.02132 608
49.04143 603
49.06154 559
49.08166 566
49.10177 557
49.12188 615
49.142 574
49.16211 593
49.18223 601
49.20234 576
49.22245 584
49.24257 586
49.26268 633
49.28279 609
49.30291 601
49.32302 599
49.34313 640
49.36325 627
49.38336 613
49.40348 609
49.42359 646
49.4437 621
49.46382 608
49.48393 613
49.50404 616
49.52416 654
49.54427 603
49.56439 601
49.5845 580
49.60461 612
49.62473 606
49.64484 585
49.66495 593
49.68507 594
49.70518 591
49.7253 625
49.74541 631
49.76552 610
49.78564 589
49.80575 592
49.82586 586
49.84598 644
49.86609 644
49.8862 654
49.90632 687
49.92643 712
49.94655 730
49.96666 808
49.98677 927
50.00689 1031
50.027 1174
50.04711 1338
50.06723 1381
50.08734 1453
50.10746 1429
50.12757 1262
50.14768 1242
50.1678 1101
50.18791 1031
50.20802 1046
50.22814 960
50.24825 885
50.26837 810
50.28848 680
50.30859 690
50.32871 607
50.34882 564
50.36893 611
50.38905 625
50.40916 587
50.42927 586
50.44939 595
50.4695 599
50.48962 606
50.50973 635
50.52984 611
50.54996 615
50.57007 616
50.59018 590
50.6103 593
50.63041 546
50.65053 615
50.67064 605
50.69075 570
50.71087 537
50.73098 552
50.75109 585
50.77121 544
50.79132 572
50.81143 543
50.83155 565
50.85166 550
50.87178 545
50.89189 582
50.912 548
50.93212 539
50.95223 530
50.97234 569
50.99246 547
51.01257 597
51.03269 563
51.0528 595
51.07291 571
51.09303 585
51.11314 618
51.13325 529
51.15337 542
51.17348 562
51.1936 569
51.21371 540
51.23382 564
51.25394 572
51.27405 559
51.29416 513
51.31428 540
51.33439 586
51.3545 529
51.37462 544
51.39473 535
51.41485 528
51.43496 563
51.45507 575
51.47519 486
51.4953 561
51.51541 546
51.53553 536
51.55564 533
51.57576 540
51.59587 561
51.61598 522
51.6361 532
51.65621 520
51.67632 545
51.69644 584
51.71655 497
51.73667 505
51.75678 567
51.77689 547
51.79701 523
51.81712 557
51.83723 560
51.85735 552
51.87746 570
51.89757 542
51.91769 554
51.9378 563
51.95792 563
51.97803 524
51.99814 517
52.01826 560
52.03837 549
52.05848 539
52.0786 531
52.09871 525
52.11883 570
52.13894 572
52.15905 535
52.17917 530
52.19928 536
52.21939 525
52.23951 528
52.25962 521
52.27974 574
52.29985 521
52.31996 548
52.34008 527
52.36019 580
52.3803 567
52.40042 544
52.42053 561
52.44064 562
52.46076 587
52.48087 534
52.50099 571
52.5211 560
52.54121 590
52.56133 520
52.58144 520
52.60155 536
52.62167 539
52.64178 590
52.6619 529
52.68201 581
52.70212 569
52.72224 559
52.74235 563
52.76246 559
52.78258 507
52.80269 556
52.8228 542
52.84292 579
52.86303 553
52.88315 590
52.90326 566
52.92337 587
52.94349 565
52.9636 541
52.98371 563
53.00383 587
53.02394 589
53.04406 562
53.06417 607
53.08428 553
53.1044 594
53.12451 585
53.14462 581
53.16474 631
53.18485 614
53.20497 602
53.22508 632
53.24519 573
53.26531 588
53.28542 596
53.30553 614
53.32565 597
53.34576 604
53.36587 592
53.38599 609
53.4061 560
53.42622 652
53.44633 607
53.46644 642
53.48656 647
53.50667 583
53.52678 650
53.5469 641
53.56701 641
53.58713 638
53.60724 605
53.62735 636
53.64747 655
53.66758 630
53.68769 595
53.70781 654
53.72792 679
53.74804 622
53.76815 640
53.78826 680
53.80838 630
53.82849 701
53.8486 637
53.86872 665
53.88883 700
53.90894 613
53.92906 674
53.94917 679
53.96929 681
53.9894 687
54.00951 729
54.02963 705
54.04974 672
54.06985 667
54.08997 715
54.11008 660
54.1302 692
54.15031 722
54.17042 722
54.19054 686
54.21065 688
54.23076 654
54.25088 643
54.27099 680
54.29111 679
54.31122 700
54.33133 628
54.35145 658
54.37156 671
54.39167 625
54.41179 653
54.4319 620
54.45201 671
54.47213 621
54.49224 639
54.51236 589
54.53247 604
54.55258 640
54.5727 664
54.59281 615
54.61292 665
54.63304 655
54.65315 652
54.67327 672
54.69338 712
54.71349 691
54.73361 789
54.75372 833
54.77383 845
54.79395 837
54.81406 916
54.83417 905
54.85429 830
54.8744 782
54.89452 753
54.91463 768
54.93474 816
54.95486 768
54.97497 708
54.99508 717
55.0152 740
55.03531 682
55.05543 669
55.07554 644
55.09565 634
55.11577 597
55.13588 665
55.15599 636
55.17611 720
55.19622 628
55.21634 682
55.23645 721
55.25656 748
55.27668 745
55.29679 709
55.3169 692
55.33702 680
55.35713 651
55.37724 638
55.39736 644
55.41747 667
55.43759 654
55.4577 680
55.47781 670
55.49793 593
55.51804 574
55.53815 598
55.55827 625
55.57838 612
55.5985 608
55.61861 608
55.63872 601
55.65884 572
55.67895 552
55.69906 614
55.71918 586
55.73929 614
55.75941 581
55.77952 623
55.79963 607
55.81975 595
55.83986 585
55.85997 570
55.88009 603
55.9002 547
55.92031 566
55.94043 561
55.96054 555
55.98066 555
56.00077 547
56.02088 563
56.041 611
56.06111 590
56.08122 557
56.10134 577
56.12145 579
56.14157 586
56.16168 572
56.18179 571
56.20191 610
56.22202 584
56.24213 566
56.26225 606
56.28236 532
56.30248 589
56.32259 587
56.3427 557
56.36282 610
56.38293 596
56.40304 576
56.42316 578
56.44327 582
56.46338 561
56.4835 552
56.50361 574
56.52373 597
56.54384 591
56.56395 562
56.58407 568
56.60418 572
56.62429 558
56.64441 546
56.66452 573
56.68464 563
56.70475 588
56.72486 584
56.74498 583
56.76509 528
56.7852 589
56.80532 551
56.82543 634
56.84554 574
56.86566 564
56.88577 597
56.90589 568
56.926 566
56.94611 534
56.96623 560
56.98634 583
57.00645 575
57.02657 588
57.04668 542
57.0668 579
57.08691 608
57.10702 590
57.12714 637
57.14725 566
57.16736 567
57.18748 615
57.20759 578
57.22771 598
57.24782 569
57.26793 580
57.28805 603
57.30816 535
57.32827 613
57.34839 587
57.3685 591
57.38861 607
57.40873 583
57.42884 600
57.44896 589
57.46907 573
57.48918 573
57.5093 544
57.52941 571
57.54952 567
57.56964 562
57.58975 593
57.60987 576
57.62998 598
57.65009 568
57.67021 567
57.69032 551
57.71043 574
57.73055 574
57.75066 602
57.77078 579
57.79089 558
57.811 606
57.83112 590
57.85123 576
57.87134 545
57.89146 577
57.91157 572
57.93168 555
57.9518 585
57.97191 574
57.99203 557
58.01214 515
58.03225 515
58.05237 598
58.07248 524
58.09259 569
58.11271 557
58.13282 573
58.15294 560
58.17305 570
58.19316 573
58.21328 538
58.23339 571
58.2535 537
58.27362 580
58.29373 545
58.31385 541
58.33396 593
58.35407 519
58.37419 555
58.3943 519
58.41441 576
58.43453 556
58.45464 562
58.47475 548
58.49487 583
58.51498 593
58.5351 597
58.55521 565
58.57532 561
58.59544 561
58.61555 547
58.63566 513
58.65578 567
58.67589 551
58.69601 580
58.71612 547
58.73623 565
58.75635 562
58.77646 531
58.79657 579
58.81669 531
58.8368 526
58.85691 566
58.87703 498
58.89714 566
58.91726 608
58.93737 622
58.95748 538
58.9776 574
58.99771 589
59.01782 552
59.03794 552
59.05805 583
59.07817 557
59.09828 594
59.11839 579
59.13851 574
59.15862 597
59.17873 561
59.19885 624
59.21896 565
59.23908 563
59.25919 576
59.2793 618
59.29942 536
59.31953 582
59.33964 580
59.35976 560
59.37987 573
59.39998 599
59.4201 604
59.44021 569
59.46033 601
59.48044 586
59.50055 640
59.52067 594
59.54078 553
59.56089 605
59.58101 589
59.60112 613
59.62124 574
59.64135 581
59.66146 650
59.68158 610
59.70169 628
59.7218 631
59.74192 670
59.76203 695
59.78215 798
59.80226 809
59.82237 933
59.84249 1023
59.8626 1134
59.88271 1127
59.90283 1150
59.92294 1083
59.94305 1013
59.96317 924
59.98328 862
60.0034 829
60.02351 890
60.04362 889
60.06374 872
60.08385 841
60.10396 758
60.12408 722
60.14419 664
60.16431 632
60.18442 587
60.20453 580
60.22465 601
60.24476 673
60.26487 646
60.28499 581
60.3051 611
60.32522 588
60.34533 604
60.36544 622
60.38556 583
60.40567 607
60.42578 601
60.4459 591
60.46601 563
60.48612 588
60.50624 593
60.52635 578
60.54647 566
60.56658 606
60.58669 594
60.60681 606
60.62692 598
60.64703 557
60.66715 529
60.68726 561
60.70738 563
60.72749 581
60.7476 562
60.76772 572
60.78783 558
60.80794 528
60.82806 558
60.84817 538
60.86828 588
60.8884 563
60.90851 539
60.92863 598
60.94874 581
60.96885 582
60.98897 543
61.00908 569
61.02919 545
61.04931 581
61.06942 567
61.08954 571
61.10965 570
61.12976 571
61.14988 619
61.16999 579
61.1901 632
61.21022 579
61.23033 597
61.25045 560
61.27056 589
61.29067 529
61.31079 574
61.3309 585
61.35101 630
61.37113 599
61.39124 580
61.41135 606
61.43147 616
61.45158 602
61.4717 617
61.49181 592
61.51192 642
61.53204 643
61.55215 635
61.57226 615
61.59238 630
61.61249 609
61.63261 611
61.65272 616
61.67283 637
61.69295 668
61.71306 663
61.73317 634
61.75329 610
61.7734 623
61.79352 620
61.81363 546
61.83374 596
61.85386 637
61.87397 630
61.89408 649
61.9142 587
61.93431 651
61.95442 630
61.97454 646
61.99465 675
62.01477 653
62.03488 634
62.05499 626
62.07511 635
62.09522 612
62.11533 676
62.13545 653
62.15556 644
62.17568 634
62.19579 673
62.2159 667
62.23602 648
62.25613 660
62.27624 632
62.29636 624
62.31647 664
62.33659 655
62.3567 643
62.37681 627
62.39693 639
62.41704 657
62.43715 648
62.45727 650
62.47738 642
62.49749 649
62.51761 632
62.53772 633
62.55784 618
62.57795 615
62.59806 633
62.61818 603
62.63829 635
62.6584 617
62.67852 631
62.69863 630
62.71875 633
62.73886 590
62.75897 555
62.77909 576
62.7992 576
62.81931 610
62.83943 601
62.85954 620
62.87965 580
62.89977 587
62.91988 646
62.94 564
62.96011 617
62.98022 574
63.00034 561
63.02045 620
63.04056 593
63.06068 597
63.08079 589
63.10091 556
63.12102 602
63.14113 627
63.16125 621
63.18136 629
63.20147 566
63.22159 541
63.2417 611
63.26182 580
63.28193 580
63.30204 578
63.32216 559
63.34227 576
63.36238 564
63.3825 535
63.40261 567
63.42272 593
63.44284 614
63.46295 620
63.48307 592
63.50318 543
63.52329 585
63.54341 607
63.56352 586
63.58363 605
63.60375 573
63.62386 606
63.64398 535
63.66409 592
63.6842 559
63.70432 581
63.72443 603
63.74454 580
63.76466 684
63.78477 620
63.80489 626
63.825 651
63.84511 624
63.86523 656
63.88534 728
63.90545 725
63.92557 693
63.94568 706
63.96579 741
63.98591 774
64.00602 762
64.02614 700
64.04625 750
64.06636 684
64.08648 671
64.10659 734
64.1267 685
64.14682 673
64.16693 676
64.18705 620
64.20716 691
64.22727 654
64.24739 641
64.2675 602
64.28761 568
64.30773 593
64.32784 615
64.34796 598
64.36807 591
64.38818 580
64.4083 573
64.42841 581
64.44852 566
64.46864 549
64.48875 585
64.50886 613
64.52898 545
64.54909 610
64.56921 553
64.58932 538
64.60943 553
64.62955 559
64.64966 612
64.66977 536
64.68989 576
64.71 556
64.73012 525
64.75023 534
64.77034 523
64.79046 554
64.81057 546
64.83068 549
64.8508 542
64.87091 566
64.89102 605
64.91114 565
64.93125 561
64.95137 546
64.97148 567
64.99159 544
65.01171 559
65.03182 548
65.05193 553
65.07205 553
65.09216 547
65.11228 536
65.13239 563
65.1525 534
65.17262 518
65.19273 529
65.21284 547
65.23296 548
65.25307 553
65.27319 541
65.2933 531
65.31341 577
65.33353 548
65.35364 581
65.37375 549
65.39387 500
65.41398 543
65.43409 523
65.45421 529
65.47432 543
65.49444 549
65.51455 506
65.53466 548
65.55478 556
65.57489 534
65.595 517
65.61512 547
65.63523 558
65.65535 607
65.67546 530
65.69557 571
65.71569 528
65.7358 602
65.75591 548
65.77603 520
65.79614 579
65.81626 541
65.83637 528
65.85648 526
65.8766 540
65.89671 582
65.91682 566
65.93694 549
65.95705 519
65.97716 550
65.99728 549
66.01739 527
66.03751 561
66.05762 544
66.07773 509
66.09785 542
66.11796 573
66.13807 546
66.15819 547
66.1783 505
66.19842 550
66.21853 513
66.23864 540
66.25876 535
66.27887 511
66.29898 537
66.3191 507
66.33921 550
66.35933 546
66.37944 533
66.39955 543
66.41967 555
66.43978 549
66.45989 540
66.48001 552
66.50012 547
66.52023 543
66.54035 528
66.56046 525
66.58058 529
66.60069 602
66.6208 526
66.64092 535
66.66103 542
66.68114 558
66.70126 524
66.72137 541
66.74149 562
66.7616 518
66.78171 513
66.80183 550
66.82194 513
66.84205 538
66.86217 535
66.88228 524
66.90239 576
66.92251 507
66.94262 592
66.96274 534
66.98285 502
67.00296 555
67.02308 558
67.04319 518
67.0633 567
67.08342 509
67.10353 561
67.12365 518
67.14376 562
67.16387 540
67.18399 567
67.2041 553
67.22421 583
67.24433 542
67.26444 574
67.28456 567
67.30467 562
67.32478 584
67.3449 611
67.36501 582
67.38512 560
67.40524 541
67.42535 563
67.44546 545
67.46558 599
67.48569 605
67.50581 549
67.52592 627
67.54603 631
67.56615 629
67.58626 735
67.60637 739
67.62649 774
67.6466 834
67.66672 880
67.68683 904
67.70694 849
67.72706 816
67.74717 747
67.76728 719
67.7874 708
67.80751 746
67.82763 701
67.84774 779
67.86785 747
67.88797 752
67.90808 772
67.92819 769
67.94831 750
67.96842 766
67.98853 814
68.00865 861
68.02876 917
68.04888 915
68.06899 1001
68.0891 958
68.10922 963
68.12933 866
68.14944 845
68.16956 886
68.18967 864
68.20979 1004
68.2299 997
68.25001 984
68.27013 969
68.29024 934
68.31035 862
68.33047 766
68.35058 782
68.3707 716
68.39081 691
68.41092 698
68.43104 635
68.45115 644
68.47126 635
68.49138 661
68.51149 635
68.5316 616
68.55172 592
68.57183 541
68.59195 602
68.61206 562
68.63217 510
68.65229 571
68.6724 568
68.69251 509
68.71263 575
68.73274 565
68.75286 570
68.77297 528
68.79308 545
68.8132 545
68.83331 548
68.85342 522
68.87354 551
68.89365 563
68.91376 543
68.93388 553
68.95399 536
68.97411 596
68.99422 565
69.01433 569
69.03445 521
69.05456 555
69.07467 636
69.09479 562
69.1149 555
69.13502 556
69.15513 525
69.17524 550
69.19536 559
69.21547 502
69.23558 543
69.2557 569
69.27581 554
69.29593 543
69.31604 596
69.33615 586
69.35627 563
69.37638 541
69.39649 557
69.41661 531
69.43672 547
69.45683 603
69.47695 569
69.49706 539
69.51718 502
69.53729 519
69.5574 562
69.57752 563
69.59763 595
69.61774 533
69.63786 576
69.65797 534
69.67809 540
69.6982 550
69.71831 564
69.73843 567
69.75854 562
69.77865 547
69.79877 545
69.81888 535
69.839 546
69.85911 564
69.87922 534
69.89934 525
69.91945 519
69.93956 551
69.95968 512
69.97979 603
69.9999 555
70.02002 531
70.04013 567
70.06025 564
70.08036 521
70.10047 529
70.12059 585
70.1407 538
70.16081 545
70.18093 553
70.20104 576
70.22116 510
70.24127 530
70.26138 544
70.2815 573
70.30161 514
70.32172 531
70.34184 551
70.36195 537
70.38207 540
70.40218 527
70.42229 524
70.44241 499
70.46252 519
70.48263 544
70.50275 497
70.52286 528
70.54297 543
70.56309 515
70.5832 489
70.60332 561
70.62343 505
70.64354 522
70.66366 527
70.68377 506
70.70388 536
70.724 523
70.74411 522
70.76423 546
70.78434 490
70.80445 544
70.82457 540
70.84468 548
70.86479 537
70.88491 571
70.90502 493
70.92513 485
70.94525 584
70.96536 555
70.98548 553
71.00559 535
71.0257 521
71.04582 553
71.06593 528
71.08604 514
71.10616 513
71.12627 543
71.14639 518
71.1665 553
71.18661 528
71.20673 516
71.22684 560
71.24695 556
71.26707 552
71.28718 559
71.3073 502
71.32741 558
71.34752 513
71.36764 549
71.38775 579
71.40786 522
71.42798 568
71.44809 543
71.4682 516
71.48832 549
71.50843 536
71.52855 517
71.54866 555
71.56877 525
71.58889 512
71.609 563
71.62911 514
71.64923 554
71.66934 549
71.68946 549
71.70957 541
71.72968 530
71.7498 597
71.76991 531
71.79002 568
71.81014 548
71.83025 577
71.85037 561
71.87048 575
71.89059 537
71.91071 577
71.93082 583
71.95093 574
71.97105 519
71.99116 577
72.01127 529
72.03139 545
72.0515 592
72.07162 581
72.09173 580
72.11184 608
72.13196 565
72.15207 521
72.17218 563
72.1923 553
72.21241 552
72.23253 550
72.25264 600
72.27275 513
72.29287 596
72.31298 562
72.33309 524
72.35321 561
72.37332 560
72.39344 553
72.41355 566
72.43366 544
72.45378 540
72.47389 584
72.494 556
72.51412 575
72.53423 526
72.55434 529
72.57446 592
72.59457 557
72.61469 576
72.6348 552
72.65491 564
72.67503 590
72.69514 616
72.71525 501
72.73537 586
72.75548 565
72.7756 525
72.79571 534
72.81582 503
72.83594 554
72.85605 528
72.87616 539
72.89628 509
72.91639 569
72.9365 530
72.95662 555
72.97673 512
72.99685 550
73.01696 572
73.03707 500
73.05719 567
73.0773 530
73.09741 536
73.11753 529
73.13764 542
73.15776 559
73.17787 560
73.19798 534
73.2181 560
73.23821 566
73.25832 554
73.27844 579
73.29855 625
73.31867 606
73.33878 564
73.35889 593
73.37901 632
73.39912 663
73.41923 621
73.43935 640
73.45946 631
73.47957 602
73.49969 632
73.5198 569
73.53992 605
73.56003 620
73.58014 606
73.60026 609
73.62037 602
73.64048 610
73.6606 607
73.68071 556
73.70083 577
73.72094 546
73.74105 547
73.76117 546
73.78128 542
73.80139 526
73.82151 522
73.84162 511
73.86174 500
73.88185 552
73.90196 551
73.92208 537
73.94219 539
73.9623 520
73.98242 532
74.00253 525
74.02264 535
74.04276 533
74.06287 505
74.08299 499
74.1031 521
74.12321 525
74.14333 493
74.16344 534
74.18355 529
74.20367 532
74.22378 491
74.2439 504
74.26401 523
74.28412 536
74.30424 504
74.32435 528
74.34446 515
74.36458 542
74.38469 531
74.40481 514
74.42492 501
74.44503 525
74.46515 543
74.48526 525
74.50537 483
74.52549 551
74.5456 557
74.56571 529
74.58583 568
74.60594 515
74.62606 490
74.64617 514
74.66628 546
74.6864 500
74.70651 561
74.72662 508
74.74674 527
74.76685 504
74.78697 555
74.80708 530
74.82719 517
74.84731 546
74.86742 589
74.88753 518
74.90765 531
74.92776 522
74.94787 503
74.96799 541
74.9881 542
75.00822 564
