3.00117 21506
3.02128 20679
3.0414 20317
3.06151 19652
3.08162 19264
3.10174 18471
3.12185 18092
3.14197 17469
3.16208 16773
3.18219 16750
3.20231 16443
3.22242 15507
3.24253 15238
3.26265 14632
3.28276 14328
3.30288 13918
3.32299 13285
3.3431 13004
3.36322 12307
3.38333 12102
3.40344 11972
3.42356 11275
3.44367 11181
3.46379 10446
3.4839 10393
3.50401 10025
3.52413 9537
3.54424 9375
3.56435 8744
3.58447 8529
3.60458 8394
3.62469 7991
3.64481 7829
3.66492 7434
3.68504 7303
3.70515 6853
3.72526 6526
3.74538 6391
3.76549 6068
3.7856 5755
3.80572 5843
3.82583 5437
3.84595 5170
3.86606 4808
3.88617 4672
3.90629 4629
3.9264 4318
3.94651 4290
3.96663 3900
3.98674 4032
4.00686 3833
4.02697 3439
4.04708 3320
4.0672 3149
4.08731 3088
4.10742 2954
4.12754 2818
4.14765 2565
4.16776 2549
4.18788 2531
4.20799 2490
4.22811 2211
4.24822 2290
4.26833 2060
4.28845 2148
4.30856 2082
4.32867 1820
4.34879 1897
4.3689 1776
4.38902 1777
4.40913 1662
4.42924 1586
4.44936 1622
4.46947 1518
4.48958 1528
4.5097 1595
4.52981 1352
4.54992 1369
4.57004 1422
4.59015 1309
4.61027 1405
4.63038 1204
4.65049 1256
4.67061 1161
4.69072 1142
4.71083 1220
4.73095 1069
4.75106 1075
4.77118 1050
4.79129 1112
4.8114 1049
4.83152 1038
4.85163 1017
4.87174 1032
4.89186 955
4.91197 965
4.93209 905
4.9522 898
4.97231 862
4.99243 890
5.01254 816
5.03265 803
5.05277 802
5.07288 829
5.09299 766
5.11311 781
5.13322 730
5.15334 705
5.17345 725
5.19356 730
5.21368 759
5.23379 652
5.2539 646
5.27402 698
5.29413 645
5.31425 615
5.33436 637
5.35447 576
5.37459 585
5.3947 596
5.41481 603
5.43493 582
5.45504 561
5.47516 549
5.49527 503
5.51538 514
5.5355 534
5.55561 481
5.57572 526
5.59584 550
5.61595 509
5.63606 499
5.65618 448
5.67629 489
5.69641 497
5.71652 426
5.73663 472
5.75675 446
5.77686 444
5.79697 384
5.81709 409
5.8372 399
5.85732 417
5.87743 437
5.89754 404
5.91766 423
5.93777 428
5.95788 407
5.978 395
5.99811 390
6.01823 375
6.03834 411
6.05845 395
6.07857 375
6.09868 378
6.11879 362
6.13891 387
6.15902 378
6.17913 366
6.19925 387
6.21936 350
6.23948 370
6.25959 347
6.2797 376
6.29982 426
6.31993 381
6.34004 387
6.36016 369
6.38027 387
6.40039 333
6.4205 354
6.44061 340
6.46073 354
6.48084 333
6.50095 370
6.52107 309
6.54118 353
6.56129 373
6.58141 344
6.60152 323
6.62164 366
6.64175 352
6.66186 336
6.68198 313
6.70209 373
6.7222 357
6.74232 333
6.76243 336
6.78255 341
6.80266 345
6.82277 328
6.84289 306
6.863 308
6.88311 339
6.90323 354
6.92334 325
6.94346 366
6.96357 353
6.98368 306
7.0038 306
7.02391 343
7.04402 301
7.06414 332
7.08425 356
7.10436 340
7.12448 339
7.14459 320
7.16471 350
7.18482 317
7.20493 370
7.22505 334
7.24516 360
7.26527 326
7.28539 359
7.3055 333
7.32562 324
7.34573 313
7.36584 355
7.38596 328
7.40607 332
7.42618 331
7.4463 353
7.46641 335
7.48653 368
7.50664 367
7.52675 318
7.54687 338
7.56698 333
7.58709 357
7.60721 329
7.62732 345
7.64743 360
7.66755 350
7.68766 339
7.70778 358
7.72789 350
7.748 319
7.76812 341
7.78823 323
7.80834 322
7.82846 351
7.84857 337
7.86869 321
7.8888 312
7.90891 333
7.92903 318
7.94914 376
7.96925 368
7.98937 363
8.00948 332
8.0296 325
8.04971 341
8.06982 329
8.08994 345
8.11005 344
8.13016 337
8.15028 349
8.17039 366
8.1905 371
8.21062 349
8.23073 376
8.25085 332
8.27096 343
8.29107 331
8.31119 321
8.3313 303
8.35141 326
8.37153 371
8.39164 334
8.41176 378
8.43187 357
8.45198 352
8.4721 356
8.49221 347
8.51232 344
8.53244 374
8.55255 345
8.57266 374
8.59278 395
8.61289 402
8.63301 378
8.65312 302
8.67323 335
8.69335 381
8.71346 346
8.73357 386
8.75369 322
8.7738 360
8.79392 375
8.81403 348
8.83414 421
8.85426 375
8.87437 327
8.89448 338
8.9146 321
8.93471 384
8.95483 386
8.97494 324
8.99505 324
9.01517 394
9.03528 341
9.05539 331
9.07551 366
9.09562 323
9.11573 390
9.13585 354
9.15596 366
9.17608 368
9.19619 349
9.2163 351
9.23642 344
9.25653 355
9.27664 363
9.29676 353
9.31687 343
9.33699 330
9.3571 333
9.37721 325
9.39733 380
9.41744 337
9.43755 333
9.45767 337
9.47778 356
9.4979 306
9.51801 322
9.53812 290
9.55824 373
9.57835 310
9.59846 355
9.61858 349
9.63869 330
9.6588 369
9.67892 328
9.69903 345
9.71915 356
9.73926 315
9.75937 352
9.77949 322
9.7996 326
9.81971 333
9.83983 355
9.85994 357
9.88006 339
9.90017 314
9.92028 336
9.9404 339
9.96051 333
9.98062 389
10.00074 323
10.02085 373
10.04097 350
10.06108 329
10.08119 341
10.10131 347
10.12142 314
10.14153 337
10.16165 357
10.18176 339
10.20187 344
10.22199 396
10.2421 366
10.26222 327
10.28233 331
10.30244 372
10.32256 341
10.34267 337
10.36278 362
10.3829 370
10.40301 378
10.42313 354
10.44324 375
10.46335 329
10.48347 347
10.50358 344
10.52369 328
10.54381 376
10.56392 306
10.58403 346
10.60415 339
10.62426 344
10.64438 333
10.66449 326
10.6846 366
10.70472 363
10.72483 335
10.74494 339
10.76506 319
10.78517 326
10.80529 352
10.8254 337
10.84551 373
10.86563 330
10.88574 351
10.90585 339
10.92597 349
10.94608 310
10.9662 333
10.98631 368
11.00642 311
11.02654 363
11.04665 353
11.06676 344
11.08688 346
11.10699 325
11.1271 368
11.14722 336
11.16733 381
11.18745 379
11.20756 310
11.22767 345
11.24779 329
11.2679 342
11.28801 344
11.30813 325
11.32824 339
11.34836 351
11.36847 313
11.38858 298
11.4087 337
11.42881 313
11.44892 349
11.46904 329
11.48915 348
11.50927 354
11.52938 365
11.54949 356
11.56961 372
11.58972 361
11.60983 344
11.62995 372
11.65006 342
11.67017 378
11.69029 357
11.7104 366
11.73052 358
11.75063 386
11.77074 356
11.79086 386
11.81097 378
11.83108 387
11.8512 408
11.87131 411
11.89143 406
11.91154 388
11.93165 403
11.95177 392
11.97188 375
11.99199 387
12.01211 340
12.03222 394
12.05234 357
12.07245 428
12.09256 365
12.11268 419
12.13279 407
12.1529 410
12.17302 455
12.19313 426
12.21324 442
12.23336 461
12.25347 416
12.27359 411
12.2937 447
12.31381 380
12.33393 431
12.35404 444
12.37415 416
12.39427 439
12.41438 401
12.4345 424
12.45461 395
12.47472 442
12.49484 385
12.51495 398
12.53506 386
12.55518 384
12.57529 350
12.5954 357
12.61552 400
12.63563 369
12.65575 358
12.67586 360
12.69597 369
12.71609 361
12.7362 348
12.75631 335
12.77643 365
12.79654 325
12.81666 339
12.83677 319
12.85688 315
12.877 353
12.89711 384
12.91722 343
12.93734 351
12.95745 356
12.97757 352
12.99768 354
13.01779 317
13.03791 338
13.05802 336
13.07813 305
13.09825 339
13.11836 322
13.13847 334
13.15859 354
13.1787 308
13.19882 290
13.21893 317
13.23904 339
13.25916 310
13.27927 343
13.29938 315
13.3195 298
13.33961 337
13.35973 347
13.37984 339
13.39995 348
13.42007 348
13.44018 325
13.46029 334
13.48041 323
13.50052 333
13.52064 337
13.54075 312
13.56086 329
13.58098 346
13.60109 320
13.6212 345
13.64132 313
13.66143 384
13.68154 343
13.70166 357
13.72177 353
13.74189 345
13.762 318
13.78211 332
13.80223 328
13.82234 336
13.84245 330
13.86257 311
13.88268 291
13.9028 324
13.92291 322
13.94302 316
13.96314 323
13.98325 332
14.00336 321
14.02348 313
14.04359 333
14.06371 346
14.08382 308
14.10393 349
14.12405 318
14.14416 371
14.16427 318
14.18439 324
14.2045 334
14.22461 345
14.24473 356
14.26484 314
14.28496 338
14.30507 315
14.32518 319
14.3453 313
14.36541 315
14.38552 301
14.40564 323
14.42575 326
14.44587 319
14.46598 323
14.48609 307
14.50621 324
14.52632 309
14.54643 298
14.56655 311
14.58666 307
14.60677 270
14.62689 318
14.647 314
14.66712 328
14.68723 308
14.70734 327
14.72746 322
14.74757 312
14.76768 298
14.7878 321
14.80791 327
14.82803 301
14.84814 348
14.86825 317
14.88837 302
14.90848 338
14.92859 360
14.94871 329
14.96882 295
14.98894 318
15.00905 354
15.02916 344
15.04928 331
15.06939 325
15.0895 313
15.10962 319
15.12973 366
15.14984 336
15.16996 321
15.19007 352
15.21019 323
15.2303 325
15.25041 348
15.27053 315
15.29064 298
15.31075 298
15.33087 306
15.35098 305
15.3711 320
15.39121 312
15.41132 336
15.43144 323
15.45155 309
15.47166 341
15.49178 341
15.51189 297
15.53201 307
15.55212 295
15.57223 310
15.59235 311
15.61246 335
15.63257 317
15.65269 312
15.6728 300
15.69291 305
15.71303 322
15.73314 322
15.75326 344
15.77337 288
15.79348 305
15.8136 320
15.83371 325
15.85382 320
15.87394 279
15.89405 300
15.91417 321
15.93428 338
15.95439 334
15.97451 331
15.99462 308
16.01473 321
16.03485 287
16.05496 311
16.07508 326
16.09519 316
16.1153 291
16.13542 310
16.15553 278
16.17564 339
16.19576 263
16.21587 326
16.23598 326
16.2561 320
16.27621 314
16.29633 298
16.31644 342
16.33655 299
16.35667 323
16.37678 299
16.39689 313
16.41701 262
16.43712 336
16.45724 321
16.47735 307
16.49746 319
16.51758 312
16.53769 298
16.5578 328
16.57792 304
16.59803 285
16.61814 334
16.63826 310
16.65837 293
16.67849 311
16.6986 354
16.71871 310
16.73883 323
16.75894 321
16.77905 309
16.79917 350
16.81928 307
16.8394 298
16.85951 287
16.87962 275
16.89974 290
16.91985 349
16.93996 297
16.96008 316
16.98019 299
17.00031 307
17.02042 313
17.04053 305
17.06065 342
17.08076 293
17.10087 350
17.12099 299
17.1411 309
17.16121 300
17.18133 326
17.20144 334
17.22156 298
17.24167 303
17.26178 346
17.2819 296
17.30201 307
17.32212 299
17.34224 317
17.36235 336
17.38247 324
17.40258 315
17.42269 343
17.44281 303
17.46292 298
17.48303 286
17.50315 294
17.52326 309
17.54338 283
17.56349 316
17.5836 313
17.60372 324
17.62383 347
17.64394 352
17.66406 327
17.68417 304
17.70428 353
17.7244 325
17.74451 322
17.76463 313
17.78474 311
17.80485 372
17.82497 351
17.84508 355
17.86519 298
17.88531 312
17.90542 367
17.92554 292
17.94565 342
17.96576 349
17.98588 339
18.00599 350
18.0261 317
18.04622 327
18.06633 346
18.08645 334
18.10656 279
18.12667 348
18.14679 307
18.1669 306
18.18701 336
18.20713 352
18.22724 307
18.24735 343
18.26747 336
18.28758 302
18.3077 349
18.32781 326
18.34792 304
18.36804 341
18.38815 329
18.40826 320
18.42838 346
18.44849 328
18.46861 297
18.48872 355
18.50883 310
18.52895 301
18.54906 292
18.56917 326
18.58929 287
18.6094 312
18.62951 295
18.64963 325
18.66974 342
18.68986 325
18.70997 312
18.73008 339
18.7502 326
18.77031 338
18.79042 350
18.81054 321
18.83065 350
18.85077 355
18.87088 328
18.89099 307
18.91111 343
18.93122 327
18.95133 356
18.97145 287
18.99156 359
19.01168 356
19.03179 329
19.0519 300
19.07202 285
19.09213 351
19.11224 346
19.13236 298
19.15247 344
19.17258 327
19.1927 328
19.21281 358
19.23293 331
19.25304 363
19.27315 327
19.29327 323
19.31338 359
19.33349 377
19.35361 361
19.37372 365
19.39384 325
19.41395 338
19.43406 374
19.45418 341
19.47429 355
19.4944 373
19.51452 352
19.53463 372
19.55475 353
19.57486 394
19.59497 354
19.61509 382
19.6352 393
19.65531 366
19.67543 356
19.69554 437
19.71565 425
19.73577 478
19.75588 447
19.776 435
19.79611 507
19.81622 450
19.83634 449
19.85645 429
19.87656 453
19.89668 446
19.91679 470
19.93691 471
19.95702 427
19.97713 485
19.99725 468
20.01736 451
20.03747 444
20.05759 429
20.0777 437
20.09782 414
20.11793 434
20.13804 394
20.15816 501
20.17827 446
20.19838 452
20.2185 418
20.23861 471
20.25872 495
20.27884 482
20.29895 483
20.31907 451
20.33918 459
20.35929 444
20.37941 496
20.39952 472
20.41963 470
20.43975 477
20.45986 488
20.47998 494
20.50009 528
20.5202 546
20.54032 549
20.56043 542
20.58054 550
20.60066 640
20.62077 593
20.64088 660
20.661 745
20.68111 842
20.70123 1137
20.72134 1429
20.74145 1850
20.76157 2421
20.78168 3161
20.80179 4071
20.82191 4460
20.84202 4788
20.86214 4387
20.88225 3686
20.90236 2794
20.92248 2095
20.94259 1466
20.9627 1016
20.98282 893
21.00293 791
21.02305 781
21.04316 720
21.06327 718
21.08339 575
21.1035 578
21.12361 541
21.14373 554
21.16384 532
21.18395 539
21.20407 503
21.22418 498
21.2443 485
21.26441 520
21.28452 519
21.30464 537
21.32475 505
21.34486 520
21.36498 509
21.38509 481
21.40521 473
21.42532 466
21.44543 434
21.46555 462
21.48566 455
21.50577 483
21.52589 453
21.546 446
21.56612 433
21.58623 428
21.60634 446
21.62646 437
21.64657 443
21.66668 454
21.6868 424
21.70691 405
21.72702 426
21.74714 456
21.76725 425
21.78737 432
21.80748 382
21.82759 388
21.84771 450
21.86782 389
21.88793 477
21.90805 492
21.92816 517
21.94828 512
21.96839 502
21.9885 508
22.00862 490
22.02873 488
22.04884 457
22.06896 425
22.08907 378
22.10919 389
22.1293 415
22.14941 416
22.16953 393
22.18964 395
22.20975 401
22.22987 377
22.24998 418
22.27009 402
22.29021 417
22.31032 386
22.33044 413
22.35055 413
22.37066 421
22.39078 433
22.41089 408
22.431 428
22.45112 419
22.47123 433
22.49135 436
22.51146 397
22.53157 443
22.55169 365
22.5718 397
22.59191 405
22.61203 358
22.63214 340
22.65225 402
22.67237 392
22.69248 421
22.7126 381
22.73271 373
22.75282 366
22.77294 369
22.79305 409
22.81316 420
22.83328 417
22.85339 431
22.87351 424
22.89362 444
22.91373 399
22.93385 372
22.95396 373
22.97407 446
22.99419 387
23.0143 376
23.03442 437
23.05453 396
23.07464 431
23.09476 410
23.11487 435
23.13498 407
23.1551 418
23.17521 433
23.19532 454
23.21544 401
23.23555 448
23.25567 399
23.27578 420
23.29589 402
23.31601 373
23.33612 398
23.35623 415
23.37635 390
23.39646 387
23.41658 447
23.43669 507
23.4568 390
23.47692 458
23.49703 509
23.51714 486
23.53726 546
23.55737 482
23.57749 483
23.5976 526
23.61771 456
23.63783 500
23.65794 465
23.67805 491
23.69817 468
23.71828 447
23.73839 419
23.75851 452
23.77862 452
23.79874 517
23.81885 518
23.83896 522
23.85908 456
23.87919 501
23.8993 479
23.91942 484
23.93953 494
23.95965 496
23.97976 521
23.99987 450
24.01999 480
24.0401 510
24.06021 462
24.08033 443
24.10044 447
24.12056 466
24.14067 441
24.16078 416
24.1809 438
24.20101 400
24.22112 442
24.24124 448
24.26135 448
24.28146 497
24.30158 520
24.32169 486
24.34181 509
24.36192 484
24.38203 476
24.40215 457
24.42226 454
24.44237 464
24.46249 467
24.4826 456
24.50272 429
24.52283 461
24.54294 414
24.56306 435
24.58317 430
24.60328 449
24.6234 451
24.64351 409
24.66362 452
24.68374 458
24.70385 481
24.72397 430
24.74408 437
24.76419 453
24.78431 457
24.80442 458
24.82453 445
24.84465 427
24.86476 456
24.88488 461
24.90499 477
24.9251 434
24.94522 456
24.96533 448
24.98544 453
25.00556 462
25.02567 424
25.04579 467
25.0659 475
25.08601 413
25.10613 486
25.12624 480
25.14635 473
25.16647 484
25.18658 464
25.20669 462
25.22681 491
25.24692 449
25.26704 489
25.28715 432
25.30726 480
25.32738 463
25.34749 441
25.3676 442
25.38772 401
25.40783 420
25.42795 461
25.44806 492
25.46817 486
25.48829 478
25.5084 470
25.52851 532
25.54863 497
25.56874 547
25.58886 541
25.60897 542
25.62908 552
25.6492 571
25.66931 563
25.68942 542
25.70954 513
25.72965 540
25.74976 533
25.76988 491
25.78999 519
25.81011 472
25.83022 503
25.85033 481
25.87045 486
25.89056 519
25.91067 535
25.93079 542
25.9509 493
25.97102 513
25.99113 502
26.01124 546
26.03136 516
26.05147 556
26.07158 542
26.0917 577
26.11181 606
26.13193 643
26.15204 636
26.17215 623
26.19227 729
26.21238 787
26.23249 829
26.25261 782
26.27272 880
26.29283 893
26.31295 972
26.33306 1164
26.35318 1146
26.37329 1343
26.3934 1625
26.41352 1908
26.43363 2323
26.45374 3112
26.47386 4098
26.49397 5567
26.51409 7785
26.5342 10396
26.55431 13685
26.57443 16811
26.59454 19536
26.61465 20347
26.63477 19511
26.65488 16228
26.67499 12339
26.69511 9293
26.71522 6708
26.73534 4028
26.75545 2424
26.77556 1743
26.79568 1373
26.81579 1321
26.8359 1236
26.85602 1158
26.87613 1123
26.89625 1042
26.91636 1033
26.93647 962
26.95659 996
26.9767 969
26.99681 846
27.01693 883
27.03704 780
27.05716 767
27.07727 766
27.09738 685
27.1175 642
27.13761 662
27.15772 570
27.17784 606
27.19795 530
27.21806 564
27.23818 576
27.25829 581
27.27841 579
27.29852 596
27.31863 603
27.33875 591
27.35886 677
27.37897 712
27.39909 684
27.4192 730
27.43932 767
27.45943 761
27.47954 759
27.49966 743
27.51977 720
27.53988 625
27.56 578
27.58011 578
27.60023 555
27.62034 535
27.64045 542
27.66057 533
27.68068 583
27.70079 631
27.72091 703
27.74102 727
27.76113 707
27.78125 714
27.80136 696
27.82148 647
27.84159 623
27.8617 630
27.88182 568
27.90193 555
27.92204 562
27.94216 570
27.96227 568
27.98239 576
28.0025 575
28.02261 553
28.04273 499
28.06284 507
28.08295 432
28.10307 443
28.12318 457
28.1433 424
28.16341 428
28.18352 450
28.20364 405
28.22375 425
28.24386 420
28.26398 458
28.28409 450
28.3042 459
28.32432 441
28.34443 495
28.36455 437
28.38466 446
28.40477 421
28.42489 424
28.445 413
28.46511 371
28.48523 392
28.50534 404
28.52546 406
28.54557 376
28.56568 355
28.5858 391
28.60591 378
28.62602 382
28.64614 394
28.66625 383
28.68636 346
28.70648 355
28.72659 361
28.74671 440
28.76682 356
28.78693 388
28.80705 392
28.82716 368
28.84727 396
28.86739 348
28.8875 356
28.90762 372
28.92773 377
28.94784 377
28.96796 389
28.98807 353
29.00818 414
29.0283 390
29.04841 334
29.06853 359
29.08864 347
29.10875 393
29.12887 392
29.14898 392
29.16909 370
29.18921 332
29.20932 346
29.22943 346
29.24955 381
29.26966 362
29.28978 377
29.30989 372
29.33 379
29.35012 408
29.37023 384
29.39034 410
29.41046 381
29.43057 384
29.45069 412
29.4708 389
29.49091 367
29.51103 391
29.53114 409
29.55125 393
29.57137 381
29.59148 413
29.6116 350
29.63171 417
29.65182 408
29.67194 409
29.69205 421
29.71216 460
29.73228 432
29.75239 422
29.7725 468
29.79262 450
29.81273 425
29.83285 415
29.85296 403
29.87307 451
29.89319 387
29.9133 355
29.93341 379
29.95353 395
29.97364 417
29.99376 358
30.01387 378
30.03398 357
30.0541 386
30.07421 360
30.09432 419
30.11444 425
30.13455 384
30.15467 410
30.17478 423
30.19489 406
30.21501 412
30.23512 420
30.25523 461
30.27535 424
30.29546 419
30.31557 463
30.33569 385
30.3558 465
30.37592 411
30.39603 393
30.41614 432
30.43626 428
30.45637 442
30.47648 416
30.4966 376
30.51671 415
30.53683 359
30.55694 376
30.57705 396
30.59717 352
30.61728 364
30.63739 406
30.65751 383
30.67762 414
30.69773 418
30.71785 459
30.73796 444
30.75808 423
30.77819 416
30.7983 446
30.81842 412
30.83853 419
30.85864 434
30.87876 394
30.89887 372
30.91899 401
30.9391 379
30.95921 368
30.97933 343
30.99944 368
31.01955 360
31.03967 360
31.05978 336
31.0799 335
31.10001 328
31.12012 347
31.14024 328
31.16035 359
31.18046 379
31.20058 339
31.22069 360
31.2408 356
31.26092 374
31.28103 342
31.30115 376
31.32126 366
31.34137 346
31.36149 369
31.3816 371
31.40171 338
31.42183 335
31.44194 345
31.46206 345
31.48217 370
31.50228 380
31.5224 330
31.54251 372
31.56262 296
31.58274 402
31.60285 328
31.62297 367
31.64308 369
31.66319 350
31.68331 363
31.70342 361
31.72353 360
31.74365 364
31.76376 385
31.78387 376
31.80399 349
31.8241 375
31.84422 327
31.86433 364
31.88444 371
31.90456 366
31.92467 365
31.94478 358
31.9649 369
31.98501 369
32.00513 372
32.02524 363
32.04535 343
32.06547 338
32.08558 360
32.10569 357
32.12581 392
32.14592 388
32.16604 371
32.18615 352
32.20626 392
32.22638 363
32.24649 365
32.2666 383
32.28672 407
32.30683 437
32.32694 432
32.34706 378
32.36717 421
32.38729 393
32.4074 380
32.42751 459
32.44763 376
32.46774 448
32.48785 437
32.50797 446
32.52808 420
32.5482 401
32.56831 413
32.58842 392
32.60854 405
32.62865 369
32.64876 424
32.66888 422
32.68899 382
32.7091 396
32.72922 377
32.74933 381
32.76945 383
32.78956 413
32.80967 385
32.82979 418
32.8499 414
32.87001 377
32.89013 427
32.91024 400
32.93036 416
32.95047 418
32.97058 435
32.9907 436
33.01081 407
33.03092 422
33.05104 421
33.07115 460
33.09127 422
33.11138 437
33.13149 419
33.15161 412
33.17172 511
33.19183 437
33.21195 489
33.23206 492
33.25217 462
33.27229 402
33.2924 444
33.31252 455
33.33263 429
33.35274 455
33.37286 433
33.39297 413
33.41308 459
33.4332 423
33.45331 433
33.47343 411
33.49354 442
33.51365 449
33.53377 425
33.55388 454
33.57399 401
33.59411 460
33.61422 396
33.63434 440
33.65445 455
33.67456 397
33.69468 418
33.71479 424
33.7349 386
33.75502 427
33.77513 411
33.79524 387
33.81536 410
33.83547 411
33.85559 404
33.8757 374
33.89581 383
33.91593 347
33.93604 369
33.95615 367
33.97627 397
33.99638 402
34.0165 363
34.03661 377
34.05672 363
34.07684 364
34.09695 402
34.11706 439
34.13718 378
34.15729 385
34.17741 403
34.19752 408
34.21763 391
34.23775 413
34.25786 397
34.27797 396
34.29809 417
34.3182 384
34.33831 383
34.35843 378
34.37854 420
34.39866 387
34.41877 412
34.43888 404
34.459 378
34.47911 394
34.49922 356
34.51934 371
34.53945 376
34.55957 425
34.57968 384
34.59979 410
34.61991 381
34.64002 435
34.66013 407
34.68025 381
34.70036 410
34.72047 424
34.74059 415
34.7607 451
34.78082 450
34.80093 466
34.82104 423
34.84116 451
34.86127 478
34.88138 496
34.9015 454
34.92161 466
34.94173 463
34.96184 462
34.98195 450
35.00207 453
35.02218 452
35.04229 441
35.06241 441
35.08252 455
35.10264 449
35.12275 491
35.14286 450
35.16298 508
35.18309 476
35.2032 503
35.22332 495
35.24343 500
35.26354 459
35.28366 505
35.30377 479
35.32389 523
35.344 490
35.36411 514
35.38423 480
35.40434 536
35.42445 514
35.44457 530
35.46468 528
35.4848 543
35.50491 528
35.52502 504
35.54514 544
35.56525 582
35.58536 580
35.60548 577
35.62559 585
35.64571 463
35.66582 502
35.68593 546
35.70605 551
35.72616 538
35.74627 523
35.76639 522
35.7865 465
35.80661 567
35.82673 477
35.84684 518
35.86696 546
35.88707 564
35.90718 472
35.9273 501
35.94741 467
35.96752 497
35.98764 486
36.00775 492
36.02787 477
36.04798 468
36.06809 453
36.08821 481
36.10832 432
36.12843 475
36.14855 462
36.16866 498
36.18878 426
36.20889 396
36.229 440
36.24912 486
36.26923 438
36.28934 444
36.30946 539
36.32957 578
36.34968 619
36.3698 727
36.38991 772
36.41003 959
36.43014 1111
36.45025 1324
36.47037 1459
36.49048 1624
36.51059 1684
36.53071 1569
36.55082 1342
36.57094 1204
36.59105 1068
36.61116 1005
36.63128 839
36.65139 743
36.6715 597
36.69162 527
36.71173 436
36.73184 515
36.75196 427
36.77207 456
36.79219 454
36.8123 489
36.83241 479
36.85253 501
36.87264 470
36.89275 428
36.91287 468
36.93298 455
36.9531 434
36.97321 453
36.99332 455
37.01344 485
37.03355 480
37.05366 436
37.07378 427
37.09389 415
37.11401 441
37.13412 407
37.15423 408
37.17435 445
37.19446 388
37.21457 403
37.23469 388
37.2548 404
37.27491 373
37.29503 380
37.31514 387
37.33526 350
37.35537 422
37.37548 380
37.3956 359
37.41571 387
37.43582 365
37.45594 370
37.47605 389
37.49617 361
37.51628 350
37.53639 383
37.55651 403
37.57662 392
37.59673 396
37.61685 365
37.63696 361
37.65708 376
37.67719 359
37.6973 406
37.71742 388
37.73753 377
37.75764 381
37.77776 370
37.79787 370
37.81798 349
37.8381 333
37.85821 393
37.87833 350
37.89844 387
37.91855 324
37.93867 367
37.95878 371
37.97889 351
37.99901 349
38.01912 354
38.03924 378
38.05935 358
38.07946 358
38.09958 382
38.11969 343
38.1398 364
38.15992 340
38.18003 352
38.20015 382
38.22026 354
38.24037 388
38.26049 384
38.2806 374
38.30071 402
38.32083 383
38.34094 415
38.36105 364
38.38117 402
38.40128 392
38.4214 414
38.44151 388
38.46162 403
38.48174 422
38.50185 407
38.52196 390
38.54208 405
38.56219 377
38.58231 415
38.60242 406
38.62253 376
38.64265 431
38.66276 344
38.68287 415
38.70299 362
38.7231 399
38.74321 342
38.76333 395
38.78344 378
38.80356 357
38.82367 373
38.84378 386
38.8639 387
38.88401 360
38.90412 356
38.92424 379
38.94435 347
38.96447 338
38.98458 378
39.00469 384
39.02481 398
39.04492 375
39.06503 356
39.08515 404
39.10526 373
39.12538 389
39.14549 383
39.1656 420
39.18572 442
39.20583 450
39.22594 514
39.24606 543
39.26617 566
39.28628 650
39.3064 749
39.32651 863
39.34663 955
39.36674 1190
39.38685 1381
39.40697 1435
39.42708 1540
39.44719 1495
39.46731 1372
39.48742 1174
39.50754 1009
39.52765 919
39.54776 899
39.56788 767
39.58799 606
39.6081 491
39.62822 426
39.64833 431
39.66845 394
39.68856 432
39.70867 374
39.72879 381
39.7489 369
39.76901 410
39.78913 377
39.80924 372
39.82935 377
39.84947 373
39.86958 376
39.8897 360
39.90981 361
39.92992 380
39.95004 370
39.97015 384
39.99026 398
40.01038 374
40.03049 401
40.05061 434
40.07072 444
40.09083 491
40.11095 507
40.13106 536
40.15117 567
40.17129 688
40.1914 767
40.21152 830
40.23163 921
40.25174 978
40.27186 925
40.29197 899
40.31208 793
40.3322 681
40.35231 659
40.37242 622
40.39254 555
40.41265 508
40.43277 433
40.45288 436
40.47299 379
40.49311 404
40.51322 379
40.53333 382
40.55345 369
40.57356 369
40.59368 372
40.61379 383
40.6339 379
40.65402 370
40.67413 352
40.69424 389
40.71436 386
40.73447 385
40.75458 380
40.7747 381
40.79481 358
40.81493 388
40.83504 370
40.85515 405
40.87527 358
40.89538 373
40.91549 377
40.93561 372
40.95572 400
40.97584 362
40.99595 366
41.01606 395
41.03618 387
41.05629 413
41.0764 392
41.09652 362
41.11663 415
41.13675 398
41.15686 398
41.17697 360
41.19709 417
41.2172 386
41.23731 389
41.25743 408
41.27754 372
41.29765 373
41.31777 391
41.33788 366
41.358 363
41.37811 378
41.39822 381
41.41834 364
41.43845 373
41.45856 357
41.47868 378
41.49879 336
41.51891 386
41.53902 371
41.55913 369
41.57925 395
41.59936 373
41.61947 376
41.63959 384
41.6597 395
41.67982 398
41.69993 365
41.72004 434
41.74016 396
41.76027 396
41.78038 407
41.8005 377
41.82061 413
41.84072 391
41.86084 373
41.88095 354
41.90107 375
41.92118 349
41.94129 315
41.96141 327
41.98152 363
42.00163 348
42.02175 357
42.04186 368
42.06198 342
42.08209 397
42.1022 361
42.12232 372
42.14243 381
42.16254 399
42.18266 407
42.20277 426
42.22289 442
42.243 493
42.26311 578
42.28323 624
42.30334 714
42.32345 847
42.34357 831
42.36368 1011
42.38379 1126
42.40391 1099
42.42402 1137
42.44414 1028
42.46425 913
42.48436 854
42.50448 785
42.52459 743
42.5447 698
42.56482 570
42.58493 497
42.60505 403
42.62516 403
42.64527 352
42.66539 398
42.6855 350
42.70561 354
42.72573 380
42.74584 384
42.76595 376
42.78607 370
42.80618 395
42.8263 322
42.84641 372
42.86652 378
42.88664 357
42.90675 317
42.92686 339
42.94698 327
42.96709 354
42.98721 333
43.00732 298
43.02743 331
43.04755 345
43.06766 346
43.08777 330
43.10789 312
43.128 300
43.14812 337
43.16823 325
43.18834 343
43.20846 313
43.22857 303
43.24868 320
43.2688 326
43.28891 347
43.30902 316
43.32914 314
43.34925 349
43.36937 320
43.38948 338
43.40959 335
43.42971 338
43.44982 281
43.46993 322
43.49005 307
43.51016 334
43.53028 350
43.55039 309
43.5705 319
43.59062 351
43.61073 308
43.63084 355
43.65096 379
43.67107 364
43.69119 333
43.7113 347
43.73141 337
43.75153 355
43.77164 337
43.79175 341
43.81187 322
43.83198 334
43.85209 331
43.87221 328
43.89232 339
43.91244 292
43.93255 327
43.95266 333
43.97278 302
43.99289 334
44.013 336
44.03312 369
44.05323 325
44.07335 320
44.09346 304
44.11357 311
44.13369 333
44.1538 305
44.17391 353
44.19403 337
44.21414 293
44.23426 304
44.25437 325
44.27448 289
44.2946 271
44.31471 313
44.33482 293
44.35494 316
44.37505 335
44.39516 332
44.41528 311
44.43539 305
44.45551 290
44.47562 319
44.49573 294
44.51585 299
44.53596 315
44.55607 336
44.57619 323
44.5963 295
44.61642 342
44.63653 323
44.65664 294
44.67676 324
44.69687 310
44.71698 319
44.7371 314
44.75721 328
44.77732 306
44.79744 333
44.81755 318
44.83767 286
44.85778 328
44.87789 350
44.89801 341
44.91812 310
44.93823 325
44.95835 333
44.97846 341
44.99858 328
45.01869 335
45.0388 332
45.05892 348
45.07903 310
45.09914 337
45.11926 355
45.13937 356
45.15949 384
45.1796 364
45.19971 312
45.21983 345
45.23994 325
45.26005 325
45.28017 366
45.30028 326
45.32039 337
45.34051 385
45.36062 354
45.38074 341
45.40085 376
45.42096 365
45.44108 367
45.46119 363
45.4813 368
45.50142 393
45.52153 390
45.54165 432
45.56176 421
45.58187 471
45.60199 505
45.6221 511
45.64221 525
45.66233 618
45.68244 752
45.70256 770
45.72267 844
45.74278 829
45.7629 865
45.78301 795
45.80312 755
45.82324 649
45.84335 633
45.86346 602
45.88358 609
45.90369 548
45.92381 470
45.94392 423
45.96403 396
45.98415 380
46.00426 348
46.02437 331
46.04449 376
46.0646 336
46.08472 346
46.10483 312
46.12494 361
46.14506 323
46.16517 321
46.18528 312
46.2054 307
46.22551 316
46.24563 329
46.26574 325
46.28585 319
46.30597 348
46.32608 337
46.34619 310
46.36631 281
46.38642 316
46.40653 329
46.42665 323
46.44676 315
46.46688 323
46.48699 334
46.5071 318
46.52722 319
46.54733 320
46.56744 324
46.58756 329
46.60767 313
46.62779 316
46.6479 320
46.66801 334
46.68813 322
46.70824 340
46.72835 303
46.74847 308
46.76858 318
46.78869 332
46.80881 315
46.82892 339
46.84904 341
46.86915 303
46.88926 328
46.90938 325
46.92949 314
46.9496 317
46.96972 335
46.98983 334
47.00995 305
47.03006 290
47.05017 339
47.07029 344
47.0904 362
47.11051 348
47.13063 334
47.15074 327
47.17086 328
47.19097 310
47.21108 332
47.2312 349
47.25131 327
47.27142 334
47.29154 318
47.31165 341
47.33176 329
47.35188 328
47.37199 371
47.39211 371
47.41222 347
47.43233 355
47.45245 346
47.47256 332
47.49267 349
47.51279 341
47.5329 309
47.55302 336
47.57313 319
47.59324 328
47.61336 371
47.63347 344
47.65358 334
47.6737 323
47.69381 350
47.71393 281
47.73404 291
47.75415 329
47.77427 327
47.79438 317
47.81449 322
47.83461 303
47.85472 346
47.87483 327
47.89495 328
47.91506 331
47.93518 303
47.95529 310
47.9754 301
47.99552 309
48.01563 335
48.03574 351
48.05586 332
48.07597 308
48.09609 312
48.1162 304
48.13631 323
48.15643 300
48.17654 319
48.19665 321
48.21677 330
48.23688 301
48.257 359
48.27711 338
48.29722 345
48.31734 347
48.33745 348
48.35756 314
48.37768 319
48.39779 350
48.4179 328
48.43802 317
48.45813 320
48.47825 320
48.49836 333
48.51847 351
48.53859 353
48.5587 339
48.57881 337
48.59893 356
48.61904 356
48.63916 284
48.65927 364
48.67938 358
48.6995 321
48.71961 341
48.73972 328
48.75984 333
48.77995 361
48.80006 359
48.82018 380
48.84029 352
48.86041 335
48.88052 339
48.90063 322
48.92075 341
48.94086 346
48.96097 372
48.98109 353
49.0012 328
49.02132 352
49.04143 332
49.06154 350
49.08166 368
49.10177 388
49.12188 335
49.142 351
49.16211 374
49.18223 351
49.20234 367
49.22245 369
49.24257 335
49.26268 366
49.28279 353
49.30291 357
49.32302 346
49.34313 380
49.36325 357
49.38336 356
49.40348 363
49.42359 348
49.4437 370
49.46382 362
49.48393 358
49.50404 381
49.52416 386
49.54427 366
49.56439 391
49.5845 392
49.60461 373
49.62473 388
49.64484 388
49.66495 385
49.68507 410
49.70518 399
49.7253 415
49.74541 467
49.76552 460
49.78564 485
49.80575 445
49.82586 516
49.84598 533
49.86609 605
49.8862 626
49.90632 678
49.92643 771
49.94655 846
49.96666 1025
49.98677 1142
50.00689 1430
50.027 1622
50.04711 1907
50.06723 2166
50.08734 2256
50.10746 2214
50.12757 2005
50.14768 1694
50.1678 1493
50.18791 1294
50.20802 1301
50.22814 1289
50.24825 1120
50.26837 996
50.28848 789
50.30859 593
50.32871 476
50.34882 496
50.36893 448
50.38905 414
50.40916 435
50.42927 418
50.44939 410
50.4695 389
50.48962 450
50.50973 440
50.52984 420
50.54996 418
50.57007 449
50.59018 449
50.6103 419
50.63041 415
50.65053 423
50.67064 445
50.69075 406
50.71087 407
50.73098 406
50.75109 373
50.77121 395
50.79132 373
50.81143 360
50.83155 353
50.85166 328
50.87178 346
50.89189 334
50.912 332
50.93212 324
50.95223 315
50.97234 350
50.99246 355
51.01257 330
51.03269 322
51.0528 354
51.07291 333
51.09303 356
51.11314 335
51.13325 336
51.15337 326
51.17348 347
51.1936 345
51.21371 345
51.23382 316
51.25394 319
51.27405 345
51.29416 347
51.31428 352
51.33439 315
51.3545 345
51.37462 350
51.39473 337
51.41485 338
51.43496 353
51.45507 340
51.47519 335
51.4953 294
51.51541 327
51.53553 336
51.55564 307
51.57576 311
51.59587 317
51.61598 341
51.6361 300
51.65621 334
51.67632 307
51.69644 320
51.71655 293
51.73667 303
51.75678 325
51.77689 315
51.79701 317
51.81712 281
51.83723 316
51.85735 288
51.87746 299
51.89757 315
51.91769 333
51.9378 325
51.95792 318
51.97803 299
51.99814 300
52.01826 314
52.03837 289
52.05848 327
52.0786 328
52.09871 324
52.11883 321
52.13894 318
52.15905 290
52.17917 322
52.19928 300
52.21939 359
52.23951 342
52.25962 334
52.27974 298
52.29985 303
52.31996 308
52.34008 303
52.36019 331
52.3803 305
52.40042 321
52.42053 321
52.44064 291
52.46076 325
52.48087 267
52.50099 330
52.5211 318
52.54121 320
52.56133 326
52.58144 322
52.60155 342
52.62167 351
52.64178 320
52.6619 334
52.68201 353
52.70212 303
52.72224 307
52.74235 323
52.76246 342
52.78258 298
52.80269 333
52.8228 337
52.84292 297
52.86303 370
52.88315 343
52.90326 336
52.92337 314
52.94349 344
52.9636 324
52.98371 316
53.00383 334
53.02394 341
53.04406 353
53.06417 353
53.08428 327
53.1044 355
53.12451 371
53.14462 361
53.16474 363
53.18485 363
53.20497 333
53.22508 359
53.24519 377
53.26531 368
53.28542 375
53.30553 366
53.32565 347
53.34576 385
53.36587 403
53.38599 398
53.4061 391
53.42622 360
53.44633 376
53.46644 383
53.48656 360
53.50667 352
53.52678 370
53.5469 345
53.56701 340
53.58713 345
53.60724 373
53.62735 355
53.64747 361
53.66758 380
53.68769 378
53.70781 371
53.72792 387
53.74804 352
53.76815 374
53.78826 370
53.80838 358
53.82849 385
53.8486 380
53.86872 411
53.88883 350
53.90894 388
53.92906 365
53.94917 409
53.96929 412
53.9894 389
54.00951 383
54.02963 411
54.04974 366
54.06985 416
54.08997 371
54.11008 416
54.1302 424
54.15031 397
54.17042 363
54.19054 395
54.21065 393
54.23076 404
54.25088 422
54.27099 416
54.29111 388
54.31122 376
54.33133 433
54.35145 417
54.37156 430
54.39167 401
54.41179 420
54.4319 404
54.45201 418
54.47213 382
54.49224 436
54.51236 400
54.53247 408
54.55258 464
54.5727 438
54.59281 456
54.61292 443
54.63304 446
54.65315 442
54.67327 521
54.69338 551
54.71349 613
54.73361 682
54.75372 731
54.77383 798
54.79395 874
54.81406 907
54.83417 909
54.85429 883
54.8744 773
54.89452 678
54.91463 625
54.93474 652
54.95486 622
54.97497 669
54.99508 610
55.0152 577
55.03531 462
55.05543 460
55.07554 439
55.09565 446
55.11577 419
55.13588 433
55.15599 420
55.17611 475
55.19622 507
55.21634 532
55.23645 524
55.25656 554
55.27668 618
55.29679 578
55.3169 571
55.33702 507
55.35713 446
55.37724 435
55.39736 429
55.41747 433
55.43759 462
55.4577 437
55.47781 408
55.49793 398
55.51804 351
55.53815 346
55.55827 331
55.57838 365
55.5985 344
55.61861 342
55.63872 326
55.65884 348
55.67895 354
55.69906 310
55.71918 347
55.73929 323
55.75941 311
55.77952 309
55.79963 293
55.81975 334
55.83986 311
55.85997 327
55.88009 315
55.9002 283
55.92031 338
55.94043 312
55.96054 320
55.98066 312
56.00077 323
56.02088 339
56.041 291
56.06111 317
56.08122 305
56.10134 351
56.12145 336
56.14157 311
56.16168 332
56.18179 317
56.20191 368
56.22202 283
56.24213 319
56.26225 310
56.28236 310
56.30248 311
56.32259 312
56.3427 306
56.36282 289
56.38293 317
56.40304 329
56.42316 339
56.44327 303
56.46338 330
56.4835 325
56.50361 306
56.52373 300
56.54384 363
56.56395 313
56.58407 320
56.60418 335
56.62429 332
56.64441 313
56.66452 342
56.68464 309
56.70475 328
56.72486 320
56.74498 306
56.76509 305
56.7852 332
56.80532 292
56.82543 297
56.84554 295
56.86566 340
56.88577 280
56.90589 318
56.926 320
56.94611 312
56.96623 301
56.98634 267
57.00645 317
57.02657 342
57.04668 310
57.0668 285
57.08691 318
57.10702 316
57.12714 343
57.14725 314
57.16736 332
57.18748 339
57.20759 325
57.22771 332
57.24782 309
57.26793 360
57.28805 352
57.30816 326
57.32827 322
57.34839 339
57.3685 305
57.38861 294
57.40873 345
57.42884 289
57.44896 313
57.46907 292
57.48918 332
57.5093 344
57.52941 317
57.54952 343
57.56964 326
57.58975 305
57.60987 315
57.62998 355
57.65009 289
57.67021 328
57.69032 295
57.71043 298
57.73055 282
57.75066 319
57.77078 339
57.79089 337
57.811 344
57.83112 321
57.85123 314
57.87134 301
57.89146 289
57.91157 305
57.93168 315
57.9518 299
57.97191 323
57.99203 338
58.01214 347
58.03225 288
58.05237 297
58.07248 314
58.09259 307
58.11271 296
58.13282 314
58.15294 314
58.17305 294
58.19316 314
58.21328 315
58.23339 333
58.2535 297
58.27362 299
58.29373 305
58.31385 312
58.33396 299
58.35407 286
58.37419 327
58.3943 308
58.41441 293
58.43453 310
58.45464 312
58.47475 294
58.49487 320
58.51498 320
58.5351 316
58.55521 288
58.57532 277
58.59544 333
58.61555 317
58.63566 327
58.65578 318
58.67589 324
58.69601 304
58.71612 340
58.73623 319
58.75635 333
58.77646 273
58.79657 347
58.81669 313
58.8368 305
58.85691 319
58.87703 297
58.89714 339
58.91726 294
58.93737 287
58.95748 350
58.9776 280
58.99771 314
59.01782 312
59.03794 306
59.05805 317
59.07817 315
59.09828 314
59.11839 290
59.13851 304
59.15862 339
59.17873 314
59.19885 301
59.21896 308
59.23908 303
59.25919 311
59.2793 312
59.29942 345
59.31953 321
59.33964 322
59.35976 330
59.37987 307
59.39998 292
59.4201 339
59.44021 363
59.46033 329
59.48044 350
59.50055 374
59.52067 348
59.54078 357
59.56089 397
59.58101 375
59.60112 377
59.62124 424
59.64135 434
59.66146 467
59.68158 444
59.70169 517
59.7218 525
59.74192 609
59.76203 713
59.78215 816
59.80226 963
59.82237 1048
59.84249 1242
59.8626 1412
59.88271 1472
59.90283 1580
59.92294 1471
59.94305 1308
59.96317 1185
59.98328 958
60.0034 907
60.02351 898
60.04362 979
60.06374 920
60.08385 869
60.10396 798
60.12408 626
60.14419 576
60.16431 488
60.18442 410
60.20453 416
60.22465 376
60.24476 360
60.26487 386
60.28499 331
60.3051 341
60.32522 368
60.34533 356
60.36544 333
60.38556 320
60.40567 367
60.42578 346
60.4459 344
60.46601 325
60.48612 339
60.50624 328
60.52635 322
60.54647 298
60.56658 296
60.58669 317
60.60681 322
60.62692 309
60.64703 293
60.66715 329
60.68726 284
60.70738 297
60.72749 284
60.7476 301
60.76772 292
60.78783 287
60.80794 304
60.82806 307
60.84817 294
60.86828 300
60.8884 315
60.90851 320
60.92863 301
60.94874 338
60.96885 310
60.98897 298
61.00908 326
61.02919 298
61.04931 325
61.06942 350
61.08954 327
61.10965 312
61.12976 309
61.14988 300
61.16999 322
61.1901 333
61.21022 340
61.23033 298
61.25045 325
61.27056 305
61.29067 294
61.31079 349
61.3309 310
61.35101 328
61.37113 310
61.39124 286
61.41135 318
61.43147 324
61.45158 325
61.4717 323
61.49181 336
61.51192 338
61.53204 279
61.55215 324
61.57226 308
61.59238 319
61.61249 356
61.63261 343
61.65272 331
61.67283 316
61.69295 306
61.71306 338
61.73317 358
61.75329 345
61.7734 355
61.79352 345
61.81363 374
61.83374 345
61.85386 341
61.87397 346
61.89408 338
61.9142 360
61.93431 332
61.95442 377
61.97454 348
61.99465 336
62.01477 356
62.03488 357
62.05499 364
62.07511 388
62.09522 359
62.11533 335
62.13545 328
62.15556 361
62.17568 331
62.19579 332
62.2159 378
62.23602 370
62.25613 339
62.27624 329
62.29636 343
62.31647 350
62.33659 334
62.3567 325
62.37681 376
62.39693 348
62.41704 346
62.43715 376
62.45727 335
62.47738 352
62.49749 338
62.51761 357
62.53772 315
62.55784 356
62.57795 328
62.59806 337
62.61818 338
62.63829 356
62.6584 352
62.67852 344
62.69863 353
62.71875 344
62.73886 341
62.75897 347
62.77909 366
62.7992 338
62.81931 358
62.83943 326
62.85954 323
62.87965 353
62.89977 342
62.91988 303
62.94 373
62.96011 332
62.98022 348
63.00034 298
63.02045 320
63.04056 334
63.06068 338
63.08079 341
63.10091 327
63.12102 332
63.14113 310
63.16125 320
63.18136 339
63.20147 335
63.22159 329
63.2417 330
63.26182 307
63.28193 334
63.30204 322
63.32216 331
63.34227 330
63.36238 321
63.3825 337
63.40261 312
63.42272 294
63.44284 338
63.46295 325
63.48307 314
63.50318 333
63.52329 333
63.54341 331
63.56352 358
63.58363 341
63.60375 322
63.62386 336
63.64398 304
63.66409 334
63.6842 361
63.70432 321
63.72443 357
63.74454 354
63.76466 371
63.78477 375
63.80489 402
63.825 393
63.84511 423
63.86523 427
63.88534 440
63.90545 474
63.92557 530
63.94568 559
63.96579 573
63.98591 500
64.00602 539
64.02614 488
64.04625 473
64.06636 431
64.08648 415
64.10659 496
64.1267 447
64.14682 419
64.16693 418
64.18705 395
64.20716 392
64.22727 400
64.24739 356
64.2675 337
64.28761 363
64.30773 359
64.32784 333
64.34796 313
64.36807 336
64.38818 333
64.4083 332
64.42841 328
64.44852 322
64.46864 319
64.48875 308
64.50886 333
64.52898 328
64.54909 336
64.56921 306
64.58932 309
64.60943 325
64.62955 296
64.64966 302
64.66977 314
64.68989 290
64.71 292
64.73012 313
64.75023 288
64.77034 317
64.79046 286
64.81057 314
64.83068 306
64.8508 299
64.87091 295
64.89102 289
64.91114 291
64.93125 300
64.95137 315
64.97148 300
64.99159 287
65.01171 299
65.03182 294
65.05193 292
65.07205 335
65.09216 328
65.11228 276
65.13239 289
65.1525 299
65.17262 298
65.19273 271
65.21284 313
65.23296 289
65.25307 275
65.27319 287
65.2933 315
65.31341 294
65.33353 323
65.35364 315
65.37375 318
65.39387 295
65.41398 278
65.43409 345
65.45421 290
65.47432 291
65.49444 311
65.51455 300
65.53466 289
65.55478 319
65.57489 307
65.595 322
65.61512 309
65.63523 315
65.65535 317
65.67546 334
65.69557 305
65.71569 364
65.7358 321
65.75591 310
65.77603 307
65.79614 300
65.81626 310
65.83637 301
65.85648 320
65.8766 328
65.89671 335
65.91682 276
65.93694 305
65.95705 321
65.97716 304
65.99728 298
66.01739 309
66.03751 329
66.05762 295
66.07773 293
66.09785 314
66.11796 292
66.13807 298
66.15819 292
66.1783 308
66.19842 307
66.21853 262
66.23864 317
66.25876 344
66.27887 306
66.29898 296
66.3191 305
66.33921 300
66.35933 308
66.37944 295
66.39955 286
66.41967 301
66.43978 295
66.45989 302
66.48001 289
66.50012 296
66.52023 290
66.54035 312
66.56046 293
66.58058 295
66.60069 276
66.6208 303
66.64092 301
66.66103 278
66.68114 292
66.70126 266
66.72137 321
66.74149 270
66.7616 275
66.78171 265
66.80183 319
66.82194 300
66.84205 271
66.86217 284
66.88228 303
66.90239 286
66.92251 271
66.94262 278
66.96274 313
66.98285 317
67.00296 323
67.02308 312
67.04319 265
67.0633 297
67.08342 282
67.10353 284
67.12365 312
67.14376 304
67.16387 296
67.18399 332
67.2041 276
67.22421 292
67.24433 312
67.26444 347
67.28456 331
67.30467 328
67.32478 321
67.3449 360
67.36501 321
67.38512 340
67.40524 348
67.42535 382
67.44546 399
67.46558 410
67.48569 419
67.50581 441
67.52592 477
67.54603 540
67.56615 579
67.58626 660
67.60637 752
67.62649 800
67.6466 866
67.66672 971
67.68683 1000
67.70694 958
67.72706 917
67.74717 808
67.76728 702
67.7874 677
67.80751 688
67.82763 695
67.84774 723
67.86785 752
67.88797 738
67.90808 764
67.92819 809
67.94831 833
67.96842 760
67.98853 863
68.00865 944
68.02876 1034
68.04888 1107
68.06899 1178
68.0891 1184
68.10922 1245
68.12933 1132
68.14944 1117
68.16956 1020
68.18967 1062
68.20979 1041
68.2299 1148
68.25001 1187
68.27013 1151
68.29024 1111
68.31035 992
68.33047 834
68.35058 709
68.3707 616
68.39081 614
68.41092 554
68.43104 556
68.45115 599
68.47126 539
68.49138 524
68.51149 450
68.5316 410
68.55172 370
68.57183 365
68.59195 340
68.61206 344
68.63217 336
68.65229 306
68.6724 314
68.69251 289
68.71263 283
68.73274 302
68.75286 293
68.77297 303
68.79308 305
68.8132 334
68.83331 310
68.85342 283
68.87354 332
68.89365 276
68.91376 313
68.93388 307
68.95399 291
68.97411 311
68.99422 281
69.01433 274
69.03445 300
69.05456 314
69.07467 288
69.09479 299
69.1149 286
69.13502 331
69.15513 295
69.17524 300
69.19536 269
69.21547 270
69.23558 267
69.2557 294
69.27581 295
69.29593 279
69.31604 287
69.33615 279
69.35627 303
69.37638 305
69.39649 309
69.41661 291
69.43672 287
69.45683 312
69.47695 265
69.49706 257
69.51718 273
69.53729 262
69.5574 269
69.57752 281
69.59763 288
69.61774 281
69.63786 258
69.65797 306
69.67809 296
69.6982 294
69.71831 302
69.73843 298
69.75854 280
69.77865 284
69.79877 295
69.81888 325
69.839 309
69.85911 313
69.87922 292
69.89934 302
69.91945 253
69.93956 307
69.95968 268
69.97979 259
69.9999 269
70.02002 298
70.04013 292
70.06025 282
70.08036 288
70.10047 284
70.12059 270
70.1407 269
70.16081 293
70.18093 285
70.20104 281
70.22116 278
70.24127 278
70.26138 284
70.2815 268
70.30161 254
70.32172 272
70.34184 286
70.36195 330
70.38207 304
70.40218 270
70.42229 252
70.44241 269
70.46252 284
70.48263 280
70.50275 274
70.52286 266
70.54297 272
70.56309 291
70.5832 274
70.60332 262
70.62343 250
70.64354 260
70.66366 289
70.68377 261
70.70388 263
70.724 260
70.74411 282
70.76423 277
70.78434 292
70.80445 243
70.82457 288
70.84468 275
70.86479 269
70.88491 296
70.90502 283
70.92513 289
70.94525 279
70.96536 252
70.98548 269
71.00559 259
71.0257 264
71.04582 268
71.06593 280
71.08604 292
71.10616 245
71.12627 288
71.14639 262
71.1665 252
71.18661 261
71.20673 248
71.22684 252
71.24695 278
71.26707 286
71.28718 263
71.3073 276
71.32741 258
71.34752 262
71.36764 274
71.38775 242
71.40786 280
71.42798 276
71.44809 270
71.4682 258
71.48832 280
71.50843 265
71.52855 297
71.54866 251
71.56877 276
71.58889 292
71.609 267
71.62911 302
71.64923 270
71.66934 259
71.68946 298
71.70957 298
71.72968 269
71.7498 282
71.76991 259
71.79002 306
71.81014 289
71.83025 288
71.85037 254
71.87048 282
71.89059 277
71.91071 294
71.93082 258
71.95093 305
71.97105 300
71.99116 274
72.01127 302
72.03139 290
72.0515 306
72.07162 283
72.09173 280
72.11184 270
72.13196 299
72.15207 300
72.17218 280
72.1923 301
72.21241 283
72.23253 270
72.25264 257
72.27275 290
72.29287 286
72.31298 275
72.33309 262
72.35321 288
72.37332 267
72.39344 285
72.41355 273
72.43366 278
72.45378 276
72.47389 272
72.494 302
72.51412 282
72.53423 291
72.55434 279
72.57446 258
72.59457 271
72.61469 287
72.6348 275
72.65491 288
72.67503 291
72.69514 289
72.71525 277
72.73537 267
72.75548 253
72.7756 276
72.79571 278
72.81582 289
72.83594 279
72.85605 270
72.87616 299
72.89628 279
72.91639 288
72.9365 261
72.95662 302
72.97673 281
72.99685 282
73.01696 291
73.03707 296
73.05719 295
73.0773 276
73.09741 294
73.11753 292
73.13764 296
73.15776 308
73.17787 313
73.19798 323
73.2181 314
73.23821 323
73.25832 349
73.27844 371
73.29855 406
73.31867 389
73.33878 424
73.35889 436
73.37901 484
73.39912 489
73.41923 494
73.43935 479
73.45946 479
73.47957 431
73.49969 372
73.5198 383
73.53992 361
73.56003 353
73.58014 394
73.60026 397
73.62037 375
73.64048 350
73.6606 373
73.68071 376
73.70083 348
73.72094 290
73.74105 287
73.76117 296
73.78128 317
73.80139 287
73.82151 283
73.84162 289
73.86174 260
73.88185 292
73.90196 250
73.92208 246
73.94219 228
73.9623 288
73.98242 273
74.00253 259
74.02264 275
74.04276 292
74.06287 234
74.08299 268
74.1031 276
74.12321 277
74.14333 254
74.16344 287
74.18355 270
74.20367 254
74.22378 274
74.2439 298
74.26401 277
74.28412 267
74.30424 280
74.32435 252
74.34446 267
74.36458 268
74.38469 272
74.40481 273
74.42492 285
74.44503 279
74.46515 254
74.48526 297
74.50537 270
74.52549 256
74.5456 278
74.56571 271
74.58583 272
74.60594 274
74.62606 244
74.64617 264
74.66628 286
74.6864 278
74.70651 285
74.72662 234
74.74674 283
74.76685 263
74.78697 284
74.80708 278
74.82719 272
74.84731 272
74.86742 274
74.88753 283
74.90765 291
74.92776 296
74.94787 255
74.96799 261
74.9881 292
75.00822 280
