3.00117 19932
3.02128 19722
3.0414 18914
3.06151 18641
3.08162 17974
3.10174 17572
3.12185 17337
3.14197 16319
3.16208 16312
3.18219 15241
3.20231 15098
3.22242 14679
3.24253 14118
3.26265 13769
3.28276 13062
3.30288 12888
3.32299 12492
3.3431 11982
3.36322 12098
3.38333 11287
3.40344 11169
3.42356 10504
3.44367 10142
3.46379 10116
3.4839 9501
3.50401 9120
3.52413 8961
3.54424 8632
3.56435 8393
3.58447 7929
3.60458 7737
3.62469 7521
3.64481 7002
3.66492 6984
3.68504 6390
3.70515 6248
3.72526 6085
3.74538 5768
3.76549 5839
3.7856 5480
3.80572 5192
3.82583 5054
3.84595 4846
3.86606 4684
3.88617 4329
3.90629 4068
3.9264 4102
3.94651 3917
3.96663 3793
3.98674 3421
4.00686 3439
4.02697 3294
4.04708 3164
4.0672 3181
4.08731 2798
4.10742 2782
4.12754 2649
4.14765 2548
4.16776 2658
4.18788 2384
4.20799 2333
4.22811 2337
4.24822 2204
4.26833 2211
4.28845 2076
4.30856 1894
4.32867 2027
4.34879 1905
4.3689 1812
4.38902 1718
4.40913 1728
4.42924 1705
4.44936 1742
4.46947 1702
4.48958 1617
4.5097 1514
4.52981 1619
4.54992 1507
4.57004 1525
4.59015 1344
4.61027 1381
4.63038 1364
4.65049 1311
4.67061 1303
4.69072 1265
4.71083 1268
4.73095 1322
4.75106 1261
4.77118 1177
4.79129 1161
4.8114 1152
4.83152 1106
4.85163 1100
4.87174 1102
4.89186 1037
4.91197 934
4.93209 1028
4.9522 1054
4.97231 971
4.99243 997
5.01254 933
5.03265 950
5.05277 918
5.07288 828
5.09299 897
5.11311 858
5.13322 899
5.15334 845
5.17345 837
5.19356 829
5.21368 744
5.23379 749
5.2539 777
5.27402 661
5.29413 732
5.31425 754
5.33436 690
5.35447 766
5.37459 608
5.3947 666
5.41481 696
5.43493 659
5.45504 636
5.47516 660
5.49527 591
5.51538 631
5.5355 611
5.55561 615
5.57572 618
5.59584 597
5.61595 632
5.63606 561
5.65618 593
5.67629 576
5.69641 589
5.71652 597
5.73663 539
5.75675 565
5.77686 536
5.79697 524
5.81709 536
5.8372 487
5.85732 516
5.87743 542
5.89754 516
5.91766 508
5.93777 502
5.95788 509
5.978 498
5.99811 445
6.01823 533
6.03834 501
6.05845 540
6.07857 469
6.09868 466
6.11879 510
6.13891 466
6.15902 492
6.17913 457
6.19925 480
6.21936 461
6.23948 491
6.25959 448
6.2797 481
6.29982 472
6.31993 497
6.34004 456
6.36016 465
6.38027 443
6.40039 471
6.4205 465
6.44061 424
6.46073 472
6.48084 459
6.50095 442
6.52107 414
6.54118 492
6.56129 447
6.58141 464
6.60152 423
6.62164 425
6.64175 417
6.66186 415
6.68198 437
6.70209 456
6.7222 433
6.74232 451
6.76243 456
6.78255 417
6.80266 434
6.82277 432
6.84289 410
6.863 446
6.88311 440
6.90323 401
6.92334 432
6.94346 443
6.96357 397
6.98368 414
7.0038 421
7.02391 362
7.04402 427
7.06414 409
7.08425 444
7.10436 417
7.12448 408
7.14459 426
7.16471 392
7.18482 455
7.20493 420
7.22505 429
7.24516 410
7.26527 381
7.28539 458
7.3055 425
7.32562 396
7.34573 478
7.36584 414
7.38596 409
7.40607 397
7.42618 430
7.4463 419
7.46641 445
7.48653 388
7.50664 397
7.52675 424
7.54687 447
7.56698 427
7.58709 396
7.60721 395
7.62732 411
7.64743 432
7.66755 385
7.68766 432
7.70778 383
7.72789 418
7.748 417
7.76812 414
7.78823 379
7.80834 443
7.82846 394
7.84857 384
7.86869 410
7.8888 392
7.90891 412
7.92903 403
7.94914 383
7.96925 425
7.98937 372
8.00948 421
8.0296 405
8.04971 404
8.06982 397
8.08994 442
8.11005 377
8.13016 409
8.15028 434
8.17039 417
8.1905 407
8.21062 412
8.23073 405
8.25085 424
8.27096 439
8.29107 401
8.31119 420
8.3313 394
8.35141 395
8.37153 436
8.39164 405
8.41176 380
8.43187 373
8.45198 414
8.4721 420
8.49221 391
8.51232 432
8.53244 363
8.55255 371
8.57266 425
8.59278 427
8.61289 401
8.63301 404
8.65312 418
8.67323 406
8.69335 446
8.71346 429
8.73357 439
8.75369 402
8.7738 485
8.79392 429
8.81403 404
8.83414 424
8.85426 448
8.87437 463
8.89448 411
8.9146 386
8.93471 385
8.95483 455
8.97494 402
8.99505 418
9.01517 400
9.03528 429
9.05539 408
9.07551 392
9.09562 442
9.11573 413
9.13585 413
9.15596 394
9.17608 412
9.19619 390
9.2163 394
9.23642 391
9.25653 393
9.27664 449
9.29676 375
9.31687 391
9.33699 425
9.3571 399
9.37721 393
9.39733 420
9.41744 417
9.43755 372
9.45767 421
9.47778 427
9.4979 411
9.51801 389
9.53812 420
9.55824 368
9.57835 385
9.59846 424
9.61858 434
9.63869 389
9.6588 402
9.67892 390
9.69903 406
9.71915 404
9.73926 439
9.75937 324
9.77949 384
9.7996 383
9.81971 376
9.83983 413
9.85994 414
9.88006 421
9.90017 406
9.92028 420
9.9404 388
9.96051 392
9.98062 425
10.00074 425
10.02085 420
10.04097 379
10.06108 405
10.08119 381
10.10131 428
10.12142 407
10.14153 420
10.16165 427
10.18176 377
10.20187 415
10.22199 350
10.2421 403
10.26222 384
10.28233 417
10.30244 391
10.32256 414
10.34267 430
10.36278 406
10.3829 346
10.40301 406
10.42313 424
10.44324 369
10.46335 407
10.48347 441
10.50358 391
10.52369 374
10.54381 392
10.56392 418
10.58403 348
10.60415 441
10.62426 425
10.64438 397
10.66449 355
10.6846 414
10.70472 421
10.72483 369
10.74494 394
10.76506 401
10.78517 418
10.80529 399
10.8254 400
10.84551 375
10.86563 423
10.88574 372
10.90585 346
10.92597 366
10.94608 389
10.9662 431
10.98631 399
11.00642 394
11.02654 398
11.04665 404
11.06676 416
11.08688 406
11.10699 406
11.1271 395
11.14722 411
11.16733 409
11.18745 359
11.20756 400
11.22767 392
11.24779 432
11.2679 346
11.28801 423
11.30813 423
11.32824 452
11.34836 442
11.36847 381
11.38858 417
11.4087 380
11.42881 382
11.44892 394
11.46904 419
11.48915 395
11.50927 411
11.52938 394
11.54949 417
11.56961 403
11.58972 422
11.60983 410
11.62995 458
11.65006 419
11.67017 402
11.69029 411
11.7104 436
11.73052 435
11.75063 453
11.77074 447
11.79086 429
11.81097 379
11.83108 436
11.8512 422
11.87131 523
11.89143 441
11.91154 463
11.93165 491
11.95177 511
11.97188 480
11.99199 452
12.01211 489
12.03222 498
12.05234 462
12.07245 531
12.09256 496
12.11268 500
12.13279 529
12.1529 569
12.17302 544
12.19313 554
12.21324 620
12.23336 563
12.25347 609
12.27359 615
12.2937 577
12.31381 588
12.33393 605
12.35404 622
12.37415 593
12.39427 558
12.41438 521
12.4345 510
12.45461 506
12.47472 431
12.49484 488
12.51495 474
12.53506 439
12.55518 456
12.57529 476
12.5954 390
12.61552 428
12.63563 422
12.65575 410
12.67586 400
12.69597 445
12.71609 417
12.7362 403
12.75631 402
12.77643 402
12.79654 394
12.81666 399
12.83677 401
12.85688 369
12.877 395
12.89711 383
12.91722 352
12.93734 392
12.95745 371
12.97757 391
12.99768 375
13.01779 398
13.03791 341
13.05802 394
13.07813 373
13.09825 391
13.11836 393
13.13847 370
13.15859 382
13.1787 369
13.19882 376
13.21893 391
13.23904 386
13.25916 351
13.27927 396
13.29938 407
13.3195 379
13.33961 371
13.35973 385
13.37984 367
13.39995 358
13.42007 319
13.44018 383
13.46029 336
13.48041 390
13.50052 335
13.52064 363
13.54075 351
13.56086 330
13.58098 338
13.60109 329
13.6212 343
13.64132 369
13.66143 407
13.68154 360
13.70166 365
13.72177 383
13.74189 358
13.762 407
13.78211 365
13.80223 325
13.82234 365
13.84245 385
13.86257 380
13.88268 374
13.9028 383
13.92291 350
13.94302 355
13.96314 324
13.98325 335
14.00336 345
14.02348 351
14.04359 322
14.06371 371
14.08382 358
14.10393 360
14.12405 372
14.14416 365
14.16427 364
14.18439 383
14.2045 376
14.22461 373
14.24473 345
14.26484 331
14.28496 375
14.30507 332
14.32518 349
14.3453 333
14.36541 352
14.38552 366
14.40564 377
14.42575 366
14.44587 333
14.46598 312
14.48609 352
14.50621 354
14.52632 361
14.54643 353
14.56655 355
14.58666 356
14.60677 351
14.62689 328
14.647 338
14.66712 343
14.68723 330
14.70734 337
14.72746 370
14.74757 351
14.76768 331
14.7878 350
14.80791 302
14.82803 339
14.84814 323
14.86825 379
14.88837 334
14.90848 331
14.92859 368
14.94871 348
14.96882 380
14.98894 397
15.00905 364
15.02916 338
15.04928 333
15.06939 348
15.0895 352
15.10962 362
15.12973 352
15.14984 355
15.16996 366
15.19007 341
15.21019 352
15.2303 344
15.25041 336
15.27053 364
15.29064 389
15.31075 310
15.33087 376
15.35098 338
15.3711 335
15.39121 316
15.41132 377
15.43144 321
15.45155 367
15.47166 393
15.49178 324
15.51189 365
15.53201 339
15.55212 397
15.57223 384
15.59235 320
15.61246 332
15.63257 347
15.65269 345
15.6728 328
15.69291 377
15.71303 369
15.73314 348
15.75326 348
15.77337 355
15.79348 328
15.8136 376
15.83371 373
15.85382 378
15.87394 347
15.89405 345
15.91417 341
15.93428 334
15.95439 337
15.97451 324
15.99462 368
16.01473 338
16.03485 357
16.05496 352
16.07508 374
16.09519 333
16.1153 369
16.13542 369
16.15553 344
16.17564 374
16.19576 370
16.21587 374
16.23598 364
16.2561 326
16.27621 379
16.29633 348
16.31644 330
16.33655 335
16.35667 349
16.37678 356
16.39689 327
16.41701 338
16.43712 374
16.45724 353
16.47735 349
16.49746 321
16.51758 367
16.53769 320
16.5578 323
16.57792 358
16.59803 338
16.61814 367
16.63826 351
16.65837 357
16.67849 354
16.6986 360
16.71871 385
16.73883 364
16.75894 346
16.77905 353
16.79917 338
16.81928 319
16.8394 343
16.85951 350
16.87962 390
16.89974 345
16.91985 350
16.93996 327
16.96008 338
16.98019 308
17.00031 364
17.02042 367
17.04053 341
17.06065 351
17.08076 391
17.10087 344
17.12099 380
17.1411 373
17.16121 346
17.18133 349
17.20144 316
17.22156 332
17.24167 379
17.26178 353
17.2819 357
17.30201 378
17.32212 314
17.34224 366
17.36235 365
17.38247 325
17.40258 342
17.42269 355
17.44281 352
17.46292 383
17.48303 387
17.50315 330
17.52326 377
17.54338 366
17.56349 371
17.5836 357
17.60372 352
17.62383 361
17.64394 351
17.66406 371
17.68417 386
17.70428 379
17.7244 357
17.74451 347
17.76463 380
17.78474 362
17.80485 382
17.82497 386
17.84508 368
17.86519 345
17.88531 341
17.90542 425
17.92554 327
17.94565 366
17.96576 369
17.98588 365
18.00599 350
18.0261 380
18.04622 386
18.06633 375
18.08645 370
18.10656 349
18.12667 354
18.14679 374
18.1669 392
18.18701 383
18.20713 413
18.22724 392
18.24735 425
18.26747 415
18.28758 385
18.3077 372
18.32781 375
18.34792 395
18.36804 389
18.38815 350
18.40826 374
18.42838 395
18.44849 379
18.46861 400
18.48872 348
18.50883 349
18.52895 364
18.54906 355
18.56917 375
18.58929 366
18.6094 381
18.62951 340
18.64963 339
18.66974 335
18.68986 343
18.70997 351
18.73008 361
18.7502 441
18.77031 354
18.79042 419
18.81054 393
18.83065 345
18.85077 372
18.87088 359
18.89099 372
18.91111 432
18.93122 341
18.95133 358
18.97145 325
18.99156 334
19.01168 361
19.03179 373
19.0519 368
19.07202 393
19.09213 386
19.11224 376
19.13236 396
19.15247 378
19.17258 417
19.1927 397
19.21281 413
19.23293 382
19.25304 385
19.27315 347
19.29327 389
19.31338 446
19.33349 411
19.35361 386
19.37372 366
19.39384 402
19.41395 415
19.43406 417
19.45418 408
19.47429 391
19.4944 420
19.51452 441
19.53463 474
19.55475 498
19.57486 469
19.59497 478
19.61509 549
19.6352 520
19.65531 555
19.67543 557
19.69554 571
19.71565 677
19.73577 667
19.75588 657
19.776 641
19.79611 677
19.81622 683
19.83634 663
19.85645 655
19.87656 660
19.89668 725
19.91679 725
19.93691 649
19.95702 705
19.97713 643
19.99725 656
20.01736 666
20.03747 659
20.05759 634
20.0777 647
20.09782 631
20.11793 681
20.13804 630
20.15816 647
20.17827 638
20.19838 673
20.2185 695
20.23861 649
20.25872 664
20.27884 666
20.29895 679
20.31907 686
20.33918 612
20.35929 655
20.37941 675
20.39952 603
20.41963 664
20.43975 648
20.45986 648
20.47998 678
20.50009 681
20.5202 667
20.54032 707
20.56043 685
20.58054 723
20.60066 812
20.62077 898
20.64088 1028
20.661 1151
20.68111 1379
20.70123 1641
20.72134 2093
20.74145 2583
20.76157 3165
20.78168 3652
20.80179 3863
20.82191 3859
20.84202 3351
20.86214 2909
20.88225 2363
20.90236 1672
20.92248 1282
20.94259 1003
20.9627 858
20.98282 737
21.00293 739
21.02305 712
21.04316 642
21.06327 658
21.08339 646
21.1035 625
21.12361 661
21.14373 654
21.16384 678
21.18395 716
21.20407 654
21.22418 667
21.2443 639
21.26441 649
21.28452 663
21.30464 651
21.32475 648
21.34486 665
21.36498 660
21.38509 669
21.40521 634
21.42532 630
21.44543 676
21.46555 604
21.48566 671
21.50577 620
21.52589 590
21.546 647
21.56612 620
21.58623 619
21.60634 617
21.62646 583
21.64657 611
21.66668 585
21.6868 528
21.70691 573
21.72702 554
21.74714 542
21.76725 552
21.78737 544
21.80748 554
21.82759 543
21.84771 547
21.86782 546
21.88793 543
21.90805 500
21.92816 521
21.94828 518
21.96839 513
21.9885 496
22.00862 439
22.02873 503
22.04884 456
22.06896 495
22.08907 499
22.10919 527
22.1293 533
22.14941 504
22.16953 473
22.18964 486
22.20975 495
22.22987 521
22.24998 487
22.27009 472
22.29021 503
22.31032 521
22.33044 482
22.35055 509
22.37066 515
22.39078 520
22.41089 448
22.431 501
22.45112 460
22.47123 480
22.49135 457
22.51146 492
22.53157 469
22.55169 445
22.5718 504
22.59191 489
22.61203 468
22.63214 465
22.65225 480
22.67237 421
22.69248 520
22.7126 467
22.73271 482
22.75282 476
22.77294 458
22.79305 476
22.81316 457
22.83328 491
22.85339 438
22.87351 444
22.89362 470
22.91373 489
22.93385 459
22.95396 469
22.97407 455
22.99419 463
23.0143 443
23.03442 484
23.05453 474
23.07464 474
23.09476 443
23.11487 456
23.13498 430
23.1551 447
23.17521 485
23.19532 470
23.21544 449
23.23555 471
23.25567 468
23.27578 432
23.29589 437
23.31601 431
23.33612 445
23.35623 491
23.37635 431
23.39646 482
23.41658 484
23.43669 478
23.4568 471
23.47692 480
23.49703 525
23.51714 471
23.53726 497
23.55737 509
23.57749 437
23.5976 512
23.61771 454
23.63783 471
23.65794 444
23.67805 497
23.69817 459
23.71828 478
23.73839 476
23.75851 472
23.77862 495
23.79874 483
23.81885 500
23.83896 473
23.85908 486
23.87919 493
23.8993 519
23.91942 501
23.93953 529
23.95965 490
23.97976 534
23.99987 534
24.01999 533
24.0401 503
24.06021 510
24.08033 542
24.10044 557
24.12056 516
24.14067 505
24.16078 537
24.1809 457
24.20101 503
24.22112 534
24.24124 508
24.26135 538
24.28146 470
24.30158 508
24.32169 510
24.34181 515
24.36192 518
24.38203 507
24.40215 471
24.42226 494
24.44237 491
24.46249 516
24.4826 509
24.50272 480
24.52283 551
24.54294 478
24.56306 495
24.58317 534
24.60328 524
24.6234 548
24.64351 524
24.66362 574
24.68374 552
24.70385 584
24.72397 590
24.74408 618
24.76419 596
24.78431 585
24.80442 625
24.82453 628
24.84465 662
24.86476 660
24.88488 635
24.90499 597
24.9251 552
24.94522 590
24.96533 557
24.98544 577
25.00556 550
25.02567 563
25.04579 569
25.0659 604
25.08601 541
25.10613 605
25.12624 529
25.14635 554
25.16647 578
25.18658 561
25.20669 594
25.22681 619
25.24692 555
25.26704 591
25.28715 574
25.30726 537
25.32738 558
25.34749 573
25.3676 487
25.38772 478
25.40783 485
25.42795 505
25.44806 519
25.46817 497
25.48829 509
25.5084 513
25.52851 489
25.54863 504
25.56874 486
25.58886 513
25.60897 596
25.62908 522
25.6492 569
25.66931 548
25.68942 525
25.70954 559
25.72965 549
25.74976 573
25.76988 545
25.78999 521
25.81011 560
25.83022 587
25.85033 594
25.87045 632
25.89056 583
25.91067 603
25.93079 611
25.9509 627
25.97102 634
25.99113 568
26.01124 628
26.03136 646
26.05147 657
26.07158 665
26.0917 640
26.11181 706
26.13193 751
26.15204 762
26.17215 793
26.19227 841
26.21238 924
26.23249 911
26.25261 941
26.27272 1003
26.29283 1071
26.31295 1252
26.33306 1314
26.35318 1573
26.37329 1797
26.3934 2231
26.41352 2887
26.43363 3736
26.45374 4830
26.47386 6394
26.49397 8328
26.51409 10613
26.5342 12972
26.55431 14515
26.57443 16044
26.59454 15921
26.61465 14678
26.63477 12316
26.65488 9787
26.67499 7217
26.69511 5219
26.71522 3449
26.73534 2412
26.75545 1689
26.77556 1357
26.79568 1210
26.81579 1084
26.8359 957
26.85602 923
26.87613 857
26.89625 853
26.91636 838
26.93647 701
26.95659 752
26.9767 662
26.99681 630
27.01693 654
27.03704 645
27.05716 599
27.07727 624
27.09738 513
27.1175 619
27.13761 551
27.15772 589
27.17784 555
27.19795 547
27.21806 551
27.23818 542
27.25829 551
27.27841 611
27.29852 615
27.31863 602
27.33875 627
27.35886 547
27.37897 580
27.39909 604
27.4192 587
27.43932 599
27.45943 581
27.47954 575
27.49966 516
27.51977 537
27.53988 498
27.56 501
27.58011 505
27.60023 479
27.62034 471
27.64045 473
27.66057 480
27.68068 499
27.70079 456
27.72091 473
27.74102 487
27.76113 491
27.78125 446
27.80136 500
27.82148 470
27.84159 471
27.8617 527
27.88182 471
27.90193 469
27.92204 434
27.94216 473
27.96227 446
27.98239 490
28.0025 436
28.02261 473
28.04273 464
28.06284 443
28.08295 452
28.10307 450
28.12318 415
28.1433 461
28.16341 415
28.18352 443
28.20364 415
28.22375 406
28.24386 443
28.26398 442
28.28409 413
28.3042 454
28.32432 446
28.34443 459
28.36455 441
28.38466 440
28.40477 433
28.42489 412
28.445 456
28.46511 503
28.48523 402
28.50534 410
28.52546 444
28.54557 438
28.56568 413
28.5858 446
28.60591 420
28.62602 424
28.64614 420
28.66625 399
28.68636 431
28.70648 412
28.72659 458
28.74671 387
28.76682 428
28.78693 418
28.80705 391
28.82716 434
28.84727 397
28.86739 420
28.8875 453
28.90762 399
28.92773 412
28.94784 415
28.96796 369
28.98807 408
29.00818 459
29.0283 391
29.04841 408
29.06853 446
29.08864 373
29.10875 396
29.12887 411
29.14898 408
29.16909 412
29.18921 456
29.20932 415
29.22943 395
29.24955 407
29.26966 419
29.28978 378
29.30989 390
29.33 434
29.35012 389
29.37023 407
29.39034 373
29.41046 384
29.43057 395
29.45069 372
29.4708 390
29.49091 399
29.51103 386
29.53114 428
29.55125 403
29.57137 363
29.59148 405
29.6116 401
29.63171 411
29.65182 424
29.67194 368
29.69205 437
29.71216 419
29.73228 409
29.75239 400
29.7725 380
29.79262 406
29.81273 409
29.83285 407
29.85296 430
29.87307 386
29.89319 447
29.9133 385
29.93341 397
29.95353 417
29.97364 366
29.99376 402
30.01387 399
30.03398 407
30.0541 360
30.07421 425
30.09432 418
30.11444 424
30.13455 393
30.15467 415
30.17478 397
30.19489 403
30.21501 395
30.23512 439
30.25523 431
30.27535 419
30.29546 415
30.31557 389
30.33569 400
30.3558 440
30.37592 434
30.39603 415
30.41614 385
30.43626 389
30.45637 389
30.47648 362
30.4966 377
30.51671 414
30.53683 402
30.55694 398
30.57705 396
30.59717 370
30.61728 397
30.63739 410
30.65751 408
30.67762 416
30.69773 411
30.71785 410
30.73796 385
30.75808 384
30.77819 361
30.7983 396
30.81842 414
30.83853 381
30.85864 410
30.87876 386
30.89887 424
30.91899 370
30.9391 387
30.95921 381
30.97933 409
30.99944 407
31.01955 381
31.03967 432
31.05978 396
31.0799 372
31.10001 415
31.12012 419
31.14024 414
31.16035 365
31.18046 364
31.20058 372
31.22069 383
31.2408 353
31.26092 399
31.28103 384
31.30115 404
31.32126 410
31.34137 392
31.36149 363
31.3816 352
31.40171 389
31.42183 391
31.44194 352
31.46206 369
31.48217 377
31.50228 386
31.5224 382
31.54251 416
31.56262 376
31.58274 387
31.60285 362
31.62297 358
31.64308 388
31.66319 397
31.68331 416
31.70342 399
31.72353 359
31.74365 408
31.76376 400
31.78387 385
31.80399 374
31.8241 359
31.84422 388
31.86433 371
31.88444 392
31.90456 369
31.92467 376
31.94478 385
31.9649 359
31.98501 403
32.00513 384
32.02524 391
32.04535 357
32.06547 395
32.08558 357
32.10569 386
32.12581 367
32.14592 352
32.16604 367
32.18615 431
32.20626 381
32.22638 380
32.24649 382
32.2666 385
32.28672 403
32.30683 415
32.32694 369
32.34706 393
32.36717 387
32.38729 382
32.4074 411
32.42751 401
32.44763 396
32.46774 408
32.48785 436
32.50797 373
32.52808 418
32.5482 412
32.56831 407
32.58842 415
32.60854 401
32.62865 448
32.64876 388
32.66888 438
32.68899 459
32.7091 376
32.72922 415
32.74933 403
32.76945 434
32.78956 442
32.80967 400
32.82979 443
32.8499 435
32.87001 400
32.89013 445
32.91024 478
32.93036 451
32.95047 443
32.97058 458
32.9907 498
33.01081 465
33.03092 430
33.05104 483
33.07115 487
33.09127 461
33.11138 492
33.13149 506
33.15161 475
33.17172 480
33.19183 496
33.21195 451
33.23206 507
33.25217 503
33.27229 494
33.2924 459
33.31252 457
33.33263 476
33.35274 480
33.37286 485
33.39297 452
33.41308 467
33.4332 441
33.45331 417
33.47343 435
33.49354 483
33.51365 452
33.53377 445
33.55388 432
33.57399 385
33.59411 387
33.61422 414
33.63434 423
33.65445 430
33.67456 391
33.69468 411
33.71479 435
33.7349 405
33.75502 425
33.77513 414
33.79524 412
33.81536 432
33.83547 390
33.85559 395
33.8757 400
33.89581 373
33.91593 430
33.93604 397
33.95615 412
33.97627 422
33.99638 416
34.0165 411
34.03661 442
34.05672 391
34.07684 375
34.09695 422
34.11706 381
34.13718 422
34.15729 422
34.17741 397
34.19752 395
34.21763 390
34.23775 404
34.25786 404
34.27797 419
34.29809 416
34.3182 407
34.33831 395
34.35843 407
34.37854 398
34.39866 429
34.41877 398
34.43888 457
34.459 413
34.47911 427
34.49922 460
34.51934 426
34.53945 465
34.55957 453
34.57968 486
34.59979 455
34.61991 494
34.64002 445
34.66013 482
34.68025 495
34.70036 487
34.72047 530
34.74059 526
34.7607 552
34.78082 534
34.80093 506
34.82104 540
34.84116 529
34.86127 555
34.88138 551
34.9015 553
34.92161 554
34.94173 533
34.96184 513
34.98195 487
35.00207 490
35.02218 534
35.04229 571
35.06241 499
35.08252 525
35.10264 494
35.12275 543
35.14286 504
35.16298 507
35.18309 507
35.2032 501
35.22332 507
35.24343 530
35.26354 540
35.28366 545
35.30377 547
35.32389 535
35.344 515
35.36411 525
35.38423 535
35.40434 538
35.42445 586
35.44457 571
35.46468 572
35.4848 549
35.50491 597
35.52502 567
35.54514 596
35.56525 565
35.58536 601
35.60548 567
35.62559 600
35.64571 617
35.66582 652
35.68593 578
35.70605 627
35.72616 600
35.74627 614
35.76639 612
35.7865 597
35.80661 599
35.82673 596
35.84684 583
35.86696 568
35.88707 567
35.90718 571
35.9273 581
35.94741 613
35.96752 523
35.98764 596
36.00775 555
36.02787 537
36.04798 589
36.06809 515
36.08821 549
36.10832 580
36.12843 518
36.14855 557
36.16866 497
36.18878 480
36.20889 584
36.229 546
36.24912 601
36.26923 602
36.28934 609
36.30946 595
36.32957 782
36.34968 809
36.3698 873
36.38991 1034
36.41003 1145
36.43014 1290
36.45025 1450
36.47037 1507
36.49048 1414
36.51059 1416
36.53071 1217
36.55082 1105
36.57094 1015
36.59105 864
36.61116 845
36.63128 724
36.65139 627
36.6715 577
36.69162 535
36.71173 503
36.73184 478
36.75196 527
36.77207 450
36.79219 494
36.8123 479
36.83241 502
36.85253 511
36.87264 529
36.89275 525
36.91287 505
36.93298 486
36.9531 503
36.97321 542
36.99332 488
37.01344 474
37.03355 512
37.05366 460
37.07378 508
37.09389 487
37.11401 499
37.13412 452
37.15423 489
37.17435 535
37.19446 479
37.21457 439
37.23469 521
37.2548 490
37.27491 470
37.29503 463
37.31514 473
37.33526 486
37.35537 472
37.37548 491
37.3956 472
37.41571 452
37.43582 448
37.45594 498
37.47605 480
37.49617 490
37.51628 461
37.53639 487
37.55651 464
37.57662 470
37.59673 464
37.61685 489
37.63696 440
37.65708 481
37.67719 456
37.6973 493
37.71742 484
37.73753 493
37.75764 452
37.77776 470
37.79787 435
37.81798 440
37.8381 429
37.85821 448
37.87833 436
37.89844 447
37.91855 438
37.93867 439
37.95878 441
37.97889 429
37.99901 421
38.01912 478
38.03924 434
38.05935 470
38.07946 439
38.09958 486
38.11969 432
38.1398 409
38.15992 483
38.18003 441
38.20015 479
38.22026 473
38.24037 472
38.26049 458
38.2806 463
38.30071 470
38.32083 497
38.34094 469
38.36105 461
38.38117 473
38.40128 482
38.4214 485
38.44151 447
38.46162 474
38.48174 524
38.50185 455
38.52196 437
38.54208 471
38.56219 440
38.58231 415
38.60242 421
38.62253 448
38.64265 425
38.66276 439
38.68287 434
38.70299 439
38.7231 480
38.74321 451
38.76333 436
38.78344 414
38.80356 388
38.82367 406
38.84378 417
38.8639 401
38.88401 428
38.90412 434
38.92424 396
38.94435 440
38.96447 471
38.98458 432
39.00469 420
39.02481 401
39.04492 454
39.06503 479
39.08515 489
39.10526 488
39.12538 453
39.14549 495
39.1656 502
39.18572 543
39.20583 571
39.22594 568
39.24606 637
39.26617 760
39.28628 832
39.3064 852
39.32651 1017
39.34663 1140
39.36674 1307
39.38685 1247
39.40697 1332
39.42708 1312
39.44719 1182
39.46731 1084
39.48742 965
39.50754 859
39.52765 777
39.54776 703
39.56788 612
39.58799 521
39.6081 442
39.62822 406
39.64833 451
39.66845 412
39.68856 421
39.70867 412
39.72879 465
39.7489 400
39.76901 359
39.78913 387
39.80924 399
39.82935 418
39.84947 450
39.86958 431
39.8897 415
39.90981 426
39.92992 418
39.95004 428
39.97015 433
39.99026 415
40.01038 436
40.03049 474
40.05061 501
40.07072 509
40.09083 563
40.11095 622
40.13106 650
40.15117 674
40.17129 754
40.1914 815
40.21152 848
40.23163 906
40.25174 801
40.27186 812
40.29197 700
40.31208 639
40.3322 602
40.35231 543
40.37242 537
40.39254 544
40.41265 447
40.43277 420
40.45288 451
40.47299 445
40.49311 478
40.51322 459
40.53333 390
40.55345 425
40.57356 421
40.59368 437
40.61379 446
40.6339 423
40.65402 408
40.67413 432
40.69424 444
40.71436 430
40.73447 451
40.75458 418
40.7747 444
40.79481 423
40.81493 455
40.83504 408
40.85515 436
40.87527 471
40.89538 459
40.91549 418
40.93561 441
40.95572 425
40.97584 431
40.99595 415
41.01606 417
41.03618 439
41.05629 425
41.0764 448
41.09652 449
41.11663 442
41.13675 418
41.15686 433
41.17697 454
41.19709 423
41.2172 436
41.23731 423
41.25743 414
41.27754 422
41.29765 398
41.31777 414
41.33788 444
41.358 379
41.37811 397
41.39822 400
41.41834 449
41.43845 425
41.45856 389
41.47868 418
41.49879 406
41.51891 420
41.53902 364
41.55913 407
41.57925 377
41.59936 390
41.61947 415
41.63959 422
41.6597 386
41.67982 388
41.69993 407
41.72004 391
41.74016 396
41.76027 383
41.78038 383
41.8005 378
41.82061 389
41.84072 366
41.86084 365
41.88095 375
41.90107 364
41.92118 398
41.94129 384
41.96141 401
41.98152 403
42.00163 367
42.02175 404
42.04186 395
42.06198 407
42.08209 397
42.1022 423
42.12232 432
42.14243 450
42.16254 477
42.18266 446
42.20277 476
42.22289 533
42.243 615
42.26311 664
42.28323 694
42.30334 791
42.32345 891
42.34357 923
42.36368 1039
42.38379 1017
42.40391 1003
42.42402 913
42.44414 825
42.46425 770
42.48436 727
42.50448 614
42.52459 584
42.5447 549
42.56482 476
42.58493 418
42.60505 406
42.62516 370
42.64527 373
42.66539 395
42.6855 363
42.70561 369
42.72573 340
42.74584 358
42.76595 387
42.78607 370
42.80618 375
42.8263 328
42.84641 382
42.86652 353
42.88664 353
42.90675 348
42.92686 361
42.94698 345
42.96709 362
42.98721 390
43.00732 389
43.02743 387
43.04755 383
43.06766 373
43.08777 367
43.10789 356
43.128 332
43.14812 363
43.16823 355
43.18834 356
43.20846 369
43.22857 322
43.24868 326
43.2688 349
43.28891 361
43.30902 363
43.32914 353
43.34925 394
43.36937 372
43.38948 363
43.40959 362
43.42971 370
43.44982 342
43.46993 351
43.49005 336
43.51016 362
43.53028 332
43.55039 352
43.5705 315
43.59062 321
43.61073 356
43.63084 377
43.65096 347
43.67107 334
43.69119 363
43.7113 328
43.73141 348
43.75153 349
43.77164 345
43.79175 353
43.81187 366
43.83198 380
43.85209 341
43.87221 330
43.89232 358
43.91244 363
43.93255 364
43.95266 350
43.97278 383
43.99289 319
44.013 359
44.03312 359
44.05323 340
44.07335 346
44.09346 353
44.11357 361
44.13369 357
44.1538 362
44.17391 340
44.19403 361
44.21414 310
44.23426 352
44.25437 359
44.27448 356
44.2946 352
44.31471 336
44.33482 336
44.35494 325
44.37505 337
44.39516 327
44.41528 331
44.43539 320
44.45551 353
44.47562 346
44.49573 352
44.51585 356
44.53596 317
44.55607 331
44.57619 367
44.5963 359
44.61642 333
44.63653 331
44.65664 341
44.67676 337
44.69687 347
44.71698 341
44.7371 365
44.75721 369
44.77732 368
44.79744 384
44.81755 355
44.83767 335
44.85778 358
44.87789 367
44.89801 355
44.91812 303
44.93823 342
44.95835 381
44.97846 378
44.99858 381
45.01869 361
45.0388 350
45.05892 383
45.07903 350
45.09914 328
45.11926 330
45.13937 349
45.15949 373
45.1796 367
45.19971 364
45.21983 389
45.23994 364
45.26005 377
45.28017 362
45.30028 376
45.32039 395
45.34051 394
45.36062 412
45.38074 370
45.40085 365
45.42096 365
45.44108 403
45.46119 401
45.4813 382
45.50142 439
45.52153 449
45.54165 449
45.56176 459
45.58187 507
45.60199 550
45.6221 590
45.64221 609
45.66233 724
45.68244 732
45.70256 765
45.72267 792
45.74278 744
45.7629 748
45.78301 650
45.80312 617
45.82324 587
45.84335 540
45.86346 531
45.88358 515
45.90369 419
45.92381 417
45.94392 403
45.96403 371
45.98415 372
46.00426 357
46.02437 343
46.04449 339
46.0646 362
46.08472 368
46.10483 338
46.12494 347
46.14506 388
46.16517 310
46.18528 348
46.2054 373
46.22551 382
46.24563 380
46.26574 355
46.28585 361
46.30597 351
46.32608 352
46.34619 316
46.36631 348
46.38642 338
46.40653 344
46.42665 347
46.44676 352
46.46688 324
46.48699 330
46.5071 351
46.52722 339
46.54733 346
46.56744 337
46.58756 357
46.60767 344
46.62779 345
46.6479 348
46.66801 327
46.68813 361
46.70824 326
46.72835 330
46.74847 356
46.76858 331
46.78869 356
46.80881 345
46.82892 317
46.84904 373
46.86915 372
46.88926 373
46.90938 337
46.92949 342
46.9496 365
46.96972 322
46.98983 330
47.00995 356
47.03006 336
47.05017 374
47.07029 376
47.0904 314
47.11051 324
47.13063 347
47.15074 355
47.17086 346
47.19097 332
47.21108 312
47.2312 337
47.25131 376
47.27142 354
47.29154 332
47.31165 348
47.33176 340
47.35188 314
47.37199 372
47.39211 365
47.41222 345
47.43233 331
47.45245 373
47.47256 371
47.49267 308
47.51279 322
47.5329 330
47.55302 323
47.57313 342
47.59324 377
47.61336 365
47.63347 336
47.65358 356
47.6737 339
47.69381 347
47.71393 348
47.73404 364
47.75415 384
47.77427 309
47.79438 324
47.81449 318
47.83461 353
47.85472 333
47.87483 378
47.89495 341
47.91506 379
47.93518 366
47.95529 355
47.9754 350
47.99552 355
48.01563 362
48.03574 394
48.05586 393
48.07597 355
48.09609 345
48.1162 335
48.13631 352
48.15643 345
48.17654 323
48.19665 366
48.21677 349
48.23688 372
48.257 325
48.27711 358
48.29722 320
48.31734 357
48.33745 331
48.35756 358
48.37768 361
48.39779 362
48.4179 344
48.43802 336
48.45813 365
48.47825 363
48.49836 356
48.51847 292
48.53859 318
48.5587 353
48.57881 317
48.59893 343
48.61904 356
48.63916 388
48.65927 335
48.67938 365
48.6995 348
48.71961 329
48.73972 323
48.75984 382
48.77995 350
48.80006 361
48.82018 319
48.84029 348
48.86041 360
48.88052 342
48.90063 327
48.92075 343
48.94086 371
48.96097 388
48.98109 336
49.0012 332
49.02132 353
49.04143 327
49.06154 354
49.08166 372
49.10177 365
49.12188 319
49.142 350
49.16211 375
49.18223 366
49.20234 340
49.22245 356
49.24257 371
49.26268 380
49.28279 364
49.30291 356
49.32302 358
49.34313 373
49.36325 420
49.38336 396
49.40348 361
49.42359 410
49.4437 393
49.46382 404
49.48393 379
49.50404 388
49.52416 383
49.54427 394
49.56439 401
49.5845 401
49.60461 376
49.62473 447
49.64484 393
49.66495 380
49.68507 386
49.70518 445
49.7253 451
49.74541 476
49.76552 517
49.78564 511
49.80575 491
49.82586 548
49.84598 595
49.86609 663
49.8862 700
49.90632 801
49.92643 892
49.94655 999
49.96666 1196
49.98677 1344
50.00689 1513
50.027 1655
50.04711 1922
50.06723 1888
50.08734 1713
50.10746 1655
50.12757 1436
50.14768 1306
50.1678 1259
50.18791 1160
50.20802 1039
50.22814 964
50.24825 834
50.26837 648
50.28848 544
50.30859 504
50.32871 459
50.34882 432
50.36893 431
50.38905 403
50.40916 403
50.42927 396
50.44939 399
50.4695 384
50.48962 377
50.50973 427
50.52984 407
50.54996 383
50.57007 405
50.59018 429
50.6103 359
50.63041 359
50.65053 373
50.67064 370
50.69075 344
50.71087 359
50.73098 347
50.75109 360
50.77121 336
50.79132 337
50.81143 353
50.83155 336
50.85166 373
50.87178 310
50.89189 341
50.912 335
50.93212 362
50.95223 366
50.97234 323
50.99246 337
51.01257 345
51.03269 315
51.0528 361
51.07291 337
51.09303 340
51.11314 326
51.13325 348
51.15337 352
51.17348 348
51.1936 337
51.21371 322
51.23382 310
51.25394 319
51.27405 356
51.29416 310
51.31428 331
51.33439 347
51.3545 325
51.37462 346
51.39473 315
51.41485 325
51.43496 354
51.45507 335
51.47519 344
51.4953 336
51.51541 306
51.53553 356
51.55564 333
51.57576 354
51.59587 356
51.61598 325
51.6361 288
51.65621 326
51.67632 302
51.69644 340
51.71655 341
51.73667 350
51.75678 336
51.77689 304
51.79701 307
51.81712 294
51.83723 332
51.85735 309
51.87746 302
51.89757 299
51.91769 298
51.9378 328
51.95792 316
51.97803 320
51.99814 324
52.01826 348
52.03837 315
52.05848 327
52.0786 310
52.09871 283
52.11883 303
52.13894 290
52.15905 311
52.17917 324
52.19928 319
52.21939 302
52.23951 333
52.25962 317
52.27974 315
52.29985 304
52.31996 330
52.34008 307
52.36019 340
52.3803 326
52.40042 329
52.42053 314
52.44064 362
52.46076 319
52.48087 312
52.50099 327
52.5211 279
52.54121 337
52.56133 341
52.58144 322
52.60155 334
52.62167 309
52.64178 301
52.6619 312
52.68201 298
52.70212 350
52.72224 337
52.74235 327
52.76246 307
52.78258 328
52.80269 293
52.8228 356
52.84292 340
52.86303 335
52.88315 313
52.90326 326
52.92337 340
52.94349 357
52.9636 323
52.98371 333
53.00383 367
53.02394 368
53.04406 343
53.06417 315
53.08428 337
53.1044 348
53.12451 318
53.14462 325
53.16474 391
53.18485 370
53.20497 364
53.22508 357
53.24519 339
53.26531 369
53.28542 338
53.30553 359
53.32565 364
53.34576 366
53.36587 349
53.38599 374
53.4061 375
53.42622 358
53.44633 381
53.46644 361
53.48656 349
53.50667 433
53.52678 352
53.5469 375
53.56701 369
53.58713 416
53.60724 347
53.62735 400
53.64747 381
53.66758 355
53.68769 373
53.70781 414
53.72792 378
53.74804 415
53.76815 380
53.78826 422
53.80838 402
53.82849 408
53.8486 418
53.86872 421
53.88883 420
53.90894 445
53.92906 418
53.94917 446
53.96929 437
53.9894 415
54.00951 464
54.02963 444
54.04974 466
54.06985 455
54.08997 431
54.11008 476
54.1302 463
54.15031 481
54.17042 466
54.19054 437
54.21065 476
54.23076 458
54.25088 435
54.27099 482
54.29111 468
54.31122 507
54.33133 445
54.35145 454
54.37156 480
54.39167 416
54.41179 486
54.4319 450
54.45201 449
54.47213 443
54.49224 484
54.51236 460
54.53247 462
54.55258 484
54.5727 487
54.59281 482
54.61292 525
54.63304 554
54.65315 524
54.67327 598
54.69338 615
54.71349 708
54.73361 768
54.75372 750
54.77383 873
54.79395 851
54.81406 847
54.83417 734
54.85429 740
54.8744 665
54.89452 675
54.91463 642
54.93474 593
54.95486 636
54.97497 558
54.99508 587
55.0152 545
55.03531 497
55.05543 482
55.07554 506
55.09565 496
55.11577 496
55.13588 512
55.15599 528
55.17611 543
55.19622 553
55.21634 559
55.23645 583
55.25656 580
55.27668 576
55.29679 530
55.3169 520
55.33702 492
55.35713 462
55.37724 494
55.39736 482
55.41747 449
55.43759 406
55.4577 432
55.47781 394
55.49793 400
55.51804 381
55.53815 358
55.55827 421
55.57838 347
55.5985 385
55.61861 376
55.63872 392
55.65884 404
55.67895 396
55.69906 352
55.71918 372
55.73929 358
55.75941 340
55.77952 372
55.79963 351
55.81975 359
55.83986 351
55.85997 349
55.88009 327
55.9002 360
55.92031 358
55.94043 343
55.96054 341
55.98066 341
56.00077 367
56.02088 340
56.041 345
56.06111 333
56.08122 328
56.10134 342
56.12145 348
56.14157 381
56.16168 349
56.18179 341
56.20191 360
56.22202 335
56.24213 336
56.26225 342
56.28236 382
56.30248 373
56.32259 342
56.3427 335
56.36282 361
56.38293 358
56.40304 314
56.42316 333
56.44327 334
56.46338 326
56.4835 352
56.50361 316
56.52373 365
56.54384 407
56.56395 340
56.58407 336
56.60418 378
56.62429 363
56.64441 350
56.66452 355
56.68464 316
56.70475 333
56.72486 348
56.74498 357
56.76509 381
56.7852 385
56.80532 322
56.82543 343
56.84554 330
56.86566 327
56.88577 367
56.90589 331
56.926 364
56.94611 324
56.96623 343
56.98634 331
57.00645 369
57.02657 354
57.04668 323
57.0668 374
57.08691 368
57.10702 372
57.12714 362
57.14725 354
57.16736 346
57.18748 374
57.20759 342
57.22771 348
57.24782 363
57.26793 374
57.28805 358
57.30816 332
57.32827 318
57.34839 330
57.3685 337
57.38861 348
57.40873 347
57.42884 323
57.44896 327
57.46907 340
57.48918 337
57.5093 349
57.52941 321
57.54952 336
57.56964 327
57.58975 289
57.60987 337
57.62998 368
57.65009 289
57.67021 348
57.69032 344
57.71043 346
57.73055 322
57.75066 354
57.77078 324
57.79089 300
57.811 370
57.83112 348
57.85123 344
57.87134 331
57.89146 339
57.91157 325
57.93168 333
57.9518 351
57.97191 345
57.99203 333
58.01214 322
58.03225 342
58.05237 342
58.07248 352
58.09259 320
58.11271 342
58.13282 317
58.15294 363
58.17305 322
58.19316 334
58.21328 321
58.23339 333
58.2535 335
58.27362 352
58.29373 320
58.31385 360
58.33396 356
58.35407 305
58.37419 298
58.3943 346
58.41441 288
58.43453 302
58.45464 310
58.47475 351
58.49487 318
58.51498 300
58.5351 351
58.55521 338
58.57532 317
58.59544 319
58.61555 326
58.63566 300
58.65578 310
58.67589 322
58.69601 306
58.71612 321
58.73623 311
58.75635 315
58.77646 325
58.79657 337
58.81669 311
58.8368 342
58.85691 311
58.87703 320
58.89714 348
58.91726 369
58.93737 335
58.95748 328
58.9776 321
58.99771 374
59.01782 335
59.03794 336
59.05805 290
59.07817 342
59.09828 339
59.11839 358
59.13851 356
59.15862 349
59.17873 300
59.19885 320
59.21896 342
59.23908 364
59.25919 320
59.2793 345
59.29942 329
59.31953 353
59.33964 354
59.35976 351
59.37987 371
59.39998 373
59.4201 385
59.44021 355
59.46033 337
59.48044 383
59.50055 393
59.52067 416
59.54078 395
59.56089 431
59.58101 463
59.60112 424
59.62124 478
59.64135 495
59.66146 505
59.68158 534
59.70169 624
59.7218 692
59.74192 690
59.76203 851
59.78215 963
59.80226 1010
59.82237 1134
59.84249 1190
59.8626 1294
59.88271 1209
59.90283 1152
59.92294 1116
59.94305 1009
59.96317 934
59.98328 854
60.0034 831
60.02351 803
60.04362 785
60.06374 751
60.08385 657
60.10396 618
60.12408 476
60.14419 434
60.16431 435
60.18442 419
60.20453 399
60.22465 367
60.24476 346
60.26487 358
60.28499 335
60.3051 328
60.32522 349
60.34533 351
60.36544 384
60.38556 348
60.40567 311
60.42578 355
60.4459 355
60.46601 312
60.48612 317
60.50624 346
60.52635 342
60.54647 346
60.56658 333
60.58669 327
60.60681 348
60.62692 349
60.64703 321
60.66715 322
60.68726 375
60.70738 333
60.72749 317
60.7476 295
60.76772 292
60.78783 313
60.80794 330
60.82806 320
60.84817 289
60.86828 300
60.8884 334
60.90851 311
60.92863 336
60.94874 330
60.96885 296
60.98897 314
61.00908 335
61.02919 322
61.04931 297
61.06942 306
61.08954 326
61.10965 349
61.12976 304
61.14988 313
61.16999 333
61.1901 334
61.21022 348
61.23033 322
61.25045 360
61.27056 316
61.29067 333
61.31079 341
61.3309 325
61.35101 327
61.37113 331
61.39124 322
61.41135 377
61.43147 318
61.45158 348
61.4717 373
61.49181 332
61.51192 333
61.53204 371
61.55215 349
61.57226 348
61.59238 348
61.61249 322
61.63261 379
61.65272 356
61.67283 336
61.69295 360
61.71306 361
61.73317 366
61.75329 410
61.7734 364
61.79352 357
61.81363 385
61.83374 361
61.85386 374
61.87397 354
61.89408 413
61.9142 383
61.93431 378
61.95442 381
61.97454 430
61.99465 386
62.01477 438
62.03488 421
62.05499 432
62.07511 424
62.09522 393
62.11533 426
62.13545 435
62.15556 419
62.17568 425
62.19579 453
62.2159 413
62.23602 418
62.25613 449
62.27624 401
62.29636 434
62.31647 451
62.33659 426
62.3567 449
62.37681 424
62.39693 394
62.41704 399
62.43715 409
62.45727 398
62.47738 420
62.49749 394
62.51761 390
62.53772 383
62.55784 370
62.57795 387
62.59806 344
62.61818 368
62.63829 356
62.6584 352
62.67852 368
62.69863 365
62.71875 375
62.73886 375
62.75897 368
62.77909 340
62.7992 369
62.81931 367
62.83943 361
62.85954 347
62.87965 358
62.89977 371
62.91988 351
62.94 336
62.96011 332
62.98022 334
63.00034 355
63.02045 328
63.04056 374
63.06068 347
63.08079 337
63.10091 354
63.12102 353
63.14113 327
63.16125 319
63.18136 326
63.20147 325
63.22159 356
63.2417 312
63.26182 333
63.28193 355
63.30204 330
63.32216 365
63.34227 363
63.36238 346
63.3825 314
63.40261 314
63.42272 348
63.44284 365
63.46295 331
63.48307 340
63.50318 325
63.52329 345
63.54341 329
63.56352 351
63.58363 335
63.60375 365
63.62386 364
63.64398 346
63.66409 361
63.6842 374
63.70432 380
63.72443 390
63.74454 344
63.76466 365
63.78477 373
63.80489 390
63.825 412
63.84511 434
63.86523 455
63.88534 504
63.90545 486
63.92557 479
63.94568 519
63.96579 507
63.98591 500
64.00602 437
64.02614 458
64.04625 465
64.06636 419
64.08648 438
64.10659 430
64.1267 413
64.14682 461
64.16693 410
64.18705 365
64.20716 347
64.22727 413
64.24739 347
64.2675 368
64.28761 324
64.30773 382
64.32784 353
64.34796 325
64.36807 354
64.38818 343
64.4083 336
64.42841 310
64.44852 360
64.46864 341
64.48875 300
64.50886 308
64.52898 312
64.54909 320
64.56921 322
64.58932 314
64.60943 310
64.62955 333
64.64966 303
64.66977 322
64.68989 312
64.71 298
64.73012 346
64.75023 315
64.77034 304
64.79046 311
64.81057 304
64.83068 306
64.8508 305
64.87091 296
64.89102 312
64.91114 344
64.93125 316
64.95137 349
64.97148 308
64.99159 323
65.01171 312
65.03182 276
65.05193 340
65.07205 295
65.09216 279
65.11228 306
65.13239 330
65.1525 341
65.17262 316
65.19273 285
65.21284 314
65.23296 298
65.25307 291
65.27319 327
65.2933 320
65.31341 297
65.33353 329
65.35364 291
65.37375 299
65.39387 320
65.41398 309
65.43409 314
65.45421 342
65.47432 327
65.49444 306
65.51455 306
65.53466 316
65.55478 350
65.57489 345
65.595 317
65.61512 323
65.63523 331
65.65535 358
65.67546 307
65.69557 361
65.71569 348
65.7358 316
65.75591 334
65.77603 315
65.79614 305
65.81626 360
65.83637 298
65.85648 290
65.8766 325
65.89671 300
65.91682 335
65.93694 321
65.95705 303
65.97716 321
65.99728 314
66.01739 284
66.03751 311
66.05762 287
66.07773 268
66.09785 302
66.11796 284
66.13807 317
66.15819 295
66.1783 317
66.19842 311
66.21853 306
66.23864 294
66.25876 313
66.27887 313
66.29898 306
66.3191 305
66.33921 310
66.35933 288
66.37944 295
66.39955 310
66.41967 287
66.43978 274
66.45989 288
66.48001 315
66.50012 304
66.52023 288
66.54035 311
66.56046 274
66.58058 288
66.60069 299
66.6208 309
66.64092 304
66.66103 325
66.68114 301
66.70126 276
66.72137 298
66.74149 285
66.7616 310
66.78171 315
66.80183 318
66.82194 278
66.84205 331
66.86217 288
66.88228 309
66.90239 305
66.92251 296
66.94262 326
66.96274 296
66.98285 299
67.00296 317
67.02308 290
67.04319 332
67.0633 300
67.08342 309
67.10353 314
67.12365 315
67.14376 298
67.16387 330
67.18399 313
67.2041 314
67.22421 353
67.24433 334
67.26444 323
67.28456 293
67.30467 373
67.32478 340
67.3449 349
67.36501 352
67.38512 350
67.40524 377
67.42535 398
67.44546 443
67.46558 476
67.48569 471
67.50581 537
67.52592 584
67.54603 591
67.56615 592
67.58626 701
67.60637 739
67.62649 779
67.6466 842
67.66672 857
67.68683 806
67.70694 777
67.72706 706
67.74717 673
67.76728 662
67.7874 655
67.80751 667
67.82763 665
67.84774 734
67.86785 715
67.88797 691
67.90808 716
67.92819 747
67.94831 744
67.96842 838
67.98853 917
68.00865 942
68.02876 1027
68.04888 1043
68.06899 1086
68.0891 1058
68.10922 1048
68.12933 901
68.14944 949
68.16956 917
68.18967 976
68.20979 1042
68.2299 1010
68.25001 972
68.27013 927
68.29024 820
68.31035 702
68.33047 699
68.35058 542
68.3707 537
68.39081 535
68.41092 501
68.43104 499
68.45115 479
68.47126 460
68.49138 407
68.51149 387
68.5316 365
68.55172 363
68.57183 356
68.59195 335
68.61206 293
68.63217 334
68.65229 324
68.6724 308
68.69251 328
68.71263 334
68.73274 326
68.75286 317
68.77297 331
68.79308 322
68.8132 306
68.83331 324
68.85342 312
68.87354 361
68.89365 309
68.91376 294
68.93388 305
68.95399 292
68.97411 287
68.99422 295
69.01433 298
69.03445 294
69.05456 293
69.07467 324
69.09479 322
69.1149 326
69.13502 324
69.15513 312
69.17524 312
69.19536 287
69.21547 308
69.23558 295
69.2557 293
69.27581 303
69.29593 290
69.31604 316
69.33615 300
69.35627 284
69.37638 284
69.39649 282
69.41661 287
69.43672 273
69.45683 295
69.47695 285
69.49706 312
69.51718 298
69.53729 293
69.5574 321
69.57752 295
69.59763 300
69.61774 309
69.63786 285
69.65797 293
69.67809 300
69.6982 290
69.71831 292
69.73843 277
69.75854 292
69.77865 310
69.79877 297
69.81888 292
69.839 315
69.85911 304
69.87922 302
69.89934 289
69.91945 299
69.93956 296
69.95968 295
69.97979 299
69.9999 303
70.02002 278
70.04013 290
70.06025 279
70.08036 283
70.10047 311
70.12059 271
70.1407 277
70.16081 263
70.18093 283
70.20104 286
70.22116 317
70.24127 271
70.26138 296
70.2815 292
70.30161 290
70.32172 291
70.34184 275
70.36195 258
70.38207 297
70.40218 274
70.42229 282
70.44241 288
70.46252 305
70.48263 289
70.50275 292
70.52286 284
70.54297 299
70.56309 296
70.5832 298
70.60332 293
70.62343 277
70.64354 298
70.66366 260
70.68377 275
70.70388 288
70.724 275
70.74411 270
70.76423 272
70.78434 285
70.80445 278
70.82457 273
70.84468 276
70.86479 278
70.88491 287
70.90502 301
70.92513 274
70.94525 274
70.96536 295
70.98548 283
71.00559 291
71.0257 287
71.04582 250
71.06593 259
71.08604 278
71.10616 258
71.12627 270
71.14639 291
71.1665 303
71.18661 282
71.20673 294
71.22684 289
71.24695 259
71.26707 264
71.28718 271
71.3073 302
71.32741 281
71.34752 313
71.36764 314
71.38775 278
71.40786 274
71.42798 278
71.44809 287
71.4682 287
71.48832 289
71.50843 256
71.52855 281
71.54866 285
71.56877 238
71.58889 297
71.609 306
71.62911 287
71.64923 303
71.66934 270
71.68946 287
71.70957 299
71.72968 317
71.7498 295
71.76991 277
71.79002 285
71.81014 307
71.83025 323
71.85037 282
71.87048 299
71.89059 303
71.91071 281
71.93082 272
71.95093 290
71.97105 290
71.99116 308
72.01127 307
72.03139 302
72.0515 285
72.07162 293
72.09173 299
72.11184 305
72.13196 265
72.15207 282
72.17218 283
72.1923 284
72.21241 290
72.23253 300
72.25264 293
72.27275 326
72.29287 270
72.31298 276
72.33309 302
72.35321 300
72.37332 281
72.39344 284
72.41355 302
72.43366 278
72.45378 298
72.47389 287
72.494 316
72.51412 288
72.53423 293
72.55434 289
72.57446 300
72.59457 304
72.61469 291
72.6348 316
72.65491 315
72.67503 294
72.69514 330
72.71525 310
72.73537 310
72.75548 296
72.7756 322
72.79571 267
72.81582 287
72.83594 315
72.85605 275
72.87616 288
72.89628 259
72.91639 283
72.9365 310
72.95662 288
72.97673 270
72.99685 300
73.01696 324
73.03707 289
73.05719 335
73.0773 301
73.09741 311
73.11753 312
73.13764 331
73.15776 331
73.17787 365
73.19798 351
73.2181 331
73.23821 338
73.25832 369
73.27844 407
73.29855 441
73.31867 435
73.33878 456
73.35889 447
73.37901 447
73.39912 497
73.41923 454
73.43935 412
73.45946 396
73.47957 374
73.49969 404
73.5198 369
73.53992 360
73.56003 389
73.58014 362
73.60026 363
73.62037 346
73.64048 348
73.6606 353
73.68071 332
73.70083 357
73.72094 287
73.74105 303
73.76117 285
73.78128 289
73.80139 284
73.82151 283
73.84162 291
73.86174 307
73.88185 270
73.90196 285
73.92208 289
73.94219 282
73.9623 272
73.98242 321
74.00253 274
74.02264 303
74.04276 289
74.06287 293
74.08299 257
74.1031 289
74.12321 278
74.14333 290
74.16344 293
74.18355 297
74.20367 264
74.22378 271
74.2439 287
74.26401 284
74.28412 291
74.30424 291
74.32435 304
74.34446 314
74.36458 263
74.38469 257
74.40481 295
74.42492 295
74.44503 299
74.46515 301
74.48526 289
74.50537 283
74.52549 265
74.5456 283
74.56571 252
74.58583 272
74.60594 286
74.62606 288
74.64617 255
74.66628 301
74.6864 293
74.70651 300
74.72662 265
74.74674 284
74.76685 278
74.78697 271
74.80708 274
74.82719 271
74.84731 261
74.86742 260
74.88753 286
74.90765 280
74.92776 294
74.94787 289
74.96799 273
74.9881 281
75.00822 287
