3.00117 20587
3.02128 20209
3.0414 19322
3.06151 18929
3.08162 18689
3.10174 17594
3.12185 17480
3.14197 16935
3.16208 16471
3.18219 16471
3.20231 15393
3.22242 15295
3.24253 14631
3.26265 14219
3.28276 13961
3.30288 13554
3.32299 13063
3.3431 12349
3.36322 12106
3.38333 11723
3.40344 11183
3.42356 11161
3.44367 10457
3.46379 9962
3.4839 9726
3.50401 9512
3.52413 9253
3.54424 8778
3.56435 8531
3.58447 8311
3.60458 7897
3.62469 7867
3.64481 7294
3.66492 7103
3.68504 6891
3.70515 6477
3.72526 6476
3.74538 6027
3.76549 5912
3.7856 5626
3.80572 5264
3.82583 5174
3.84595 4734
3.86606 4696
3.88617 4440
3.90629 4257
3.9264 4215
3.94651 3862
3.96663 3653
3.98674 3615
4.00686 3429
4.02697 3588
4.04708 3105
4.0672 2867
4.08731 2981
4.10742 2748
4.12754 2766
4.14765 2442
4.16776 2487
4.18788 2393
4.20799 2166
4.22811 2190
4.24822 1974
4.26833 1935
4.28845 1997
4.30856 1927
4.32867 1857
4.34879 1723
4.3689 1742
4.38902 1755
4.40913 1618
4.42924 1639
4.44936 1507
4.46947 1578
4.48958 1519
4.5097 1459
4.52981 1482
4.54992 1385
4.57004 1290
4.59015 1345
4.61027 1304
4.63038 1285
4.65049 1204
4.67061 1162
4.69072 1167
4.71083 1190
4.73095 1107
4.75106 1001
4.77118 1020
4.79129 1071
4.8114 1058
4.83152 955
4.85163 929
4.87174 914
4.89186 890
4.91197 930
4.93209 891
4.9522 898
4.97231 807
4.99243 878
5.01254 878
5.03265 779
5.05277 828
5.07288 725
5.09299 794
5.11311 769
5.13322 687
5.15334 689
5.17345 710
5.19356 705
5.21368 657
5.23379 640
5.2539 575
5.27402 614
5.29413 599
5.31425 619
5.33436 528
5.35447 574
5.37459 544
5.3947 513
5.41481 571
5.43493 570
5.45504 494
5.47516 519
5.49527 488
5.51538 517
5.5355 469
5.55561 470
5.57572 496
5.59584 430
5.61595 499
5.63606 439
5.65618 437
5.67629 410
5.69641 416
5.71652 439
5.73663 358
5.75675 374
5.77686 374
5.79697 377
5.81709 362
5.8372 389
5.85732 421
5.87743 382
5.89754 386
5.91766 382
5.93777 377
5.95788 375
5.978 369
5.99811 365
6.01823 365
6.03834 380
6.05845 316
6.07857 386
6.09868 355
6.11879 338
6.13891 308
6.15902 326
6.17913 321
6.19925 314
6.21936 320
6.23948 324
6.25959 318
6.2797 317
6.29982 312
6.31993 260
6.34004 345
6.36016 294
6.38027 272
6.40039 274
6.4205 305
6.44061 320
6.46073 317
6.48084 293
6.50095 315
6.52107 310
6.54118 350
6.56129 277
6.58141 327
6.60152 315
6.62164 289
6.64175 284
6.66186 293
6.68198 292
6.70209 290
6.7222 275
6.74232 270
6.76243 332
6.78255 282
6.80266 290
6.82277 305
6.84289 307
6.863 288
6.88311 297
6.90323 280
6.92334 292
6.94346 283
6.96357 277
6.98368 296
7.0038 311
7.02391 280
7.04402 303
7.06414 270
7.08425 286
7.10436 262
7.12448 308
7.14459 254
7.16471 275
7.18482 283
7.20493 261
7.22505 304
7.24516 293
7.26527 300
7.28539 285
7.3055 301
7.32562 303
7.34573 284
7.36584 281
7.38596 289
7.40607 304
7.42618 327
7.4463 291
7.46641 310
7.48653 307
7.50664 334
7.52675 296
7.54687 303
7.56698 325
7.58709 332
7.60721 313
7.62732 271
7.64743 255
7.66755 313
7.68766 282
7.70778 304
7.72789 268
7.748 290
7.76812 312
7.78823 294
7.80834 291
7.82846 298
7.84857 320
7.86869 304
7.8888 289
7.90891 296
7.92903 296
7.94914 293
7.96925 303
7.98937 320
8.00948 298
8.0296 296
8.04971 273
8.06982 290
8.08994 257
8.11005 278
8.13016 348
8.15028 337
8.17039 298
8.1905 301
8.21062 293
8.23073 300
8.25085 274
8.27096 285
8.29107 321
8.31119 297
8.3313 369
8.35141 312
8.37153 263
8.39164 308
8.41176 333
8.43187 277
8.45198 360
8.4721 312
8.49221 323
8.51232 324
8.53244 336
8.55255 323
8.57266 319
8.59278 321
8.61289 332
8.63301 322
8.65312 387
8.67323 415
8.69335 433
8.71346 405
8.73357 514
8.75369 509
8.7738 563
8.79392 602
8.81403 719
8.83414 802
8.85426 813
8.87437 801
8.89448 765
8.9146 647
8.93471 547
8.95483 484
8.97494 417
8.99505 356
9.01517 355
9.03528 323
9.05539 317
9.07551 297
9.09562 314
9.11573 344
9.13585 309
9.15596 308
9.17608 313
9.19619 279
9.2163 278
9.23642 304
9.25653 314
9.27664 296
9.29676 324
9.31687 280
9.33699 321
9.3571 298
9.37721 297
9.39733 273
9.41744 263
9.43755 275
9.45767 315
9.47778 298
9.4979 312
9.51801 284
9.53812 307
9.55824 302
9.57835 284
9.59846 262
9.61858 292
9.63869 269
9.6588 287
9.67892 278
9.69903 297
9.71915 306
9.73926 301
9.75937 290
9.77949 273
9.7996 276
9.81971 304
9.83983 237
9.85994 290
9.88006 275
9.90017 316
9.92028 303
9.9404 276
9.96051 274
9.98062 267
10.00074 323
10.02085 255
10.04097 281
10.06108 256
10.08119 256
10.10131 284
10.12142 295
10.14153 275
10.16165 287
10.18176 267
10.20187 285
10.22199 248
10.2421 297
10.26222 306
10.28233 277
10.30244 278
10.32256 261
10.34267 322
10.36278 302
10.3829 262
10.40301 315
10.42313 280
10.44324 254
10.46335 284
10.48347 281
10.50358 282
10.52369 270
10.54381 266
10.56392 273
10.58403 296
10.60415 291
10.62426 280
10.64438 279
10.66449 275
10.6846 284
10.70472 282
10.72483 265
10.74494 269
10.76506 304
10.78517 293
10.80529 284
10.8254 295
10.84551 291
10.86563 282
10.88574 280
10.90585 300
10.92597 335
10.94608 272
10.9662 293
10.98631 283
11.00642 319
11.02654 310
11.04665 301
11.06676 291
11.08688 289
11.10699 338
11.1271 296
11.14722 311
11.16733 279
11.18745 275
11.20756 318
11.22767 278
11.24779 298
11.2679 278
11.28801 289
11.30813 260
11.32824 300
11.34836 307
11.36847 290
11.38858 319
11.4087 294
11.42881 321
11.44892 289
11.46904 313
11.48915 317
11.50927 331
11.52938 321
11.54949 275
11.56961 324
11.58972 327
11.60983 307
11.62995 293
11.65006 332
11.67017 294
11.69029 371
11.7104 350
11.73052 313
11.75063 313
11.77074 344
11.79086 339
11.81097 360
11.83108 365
11.8512 353
11.87131 382
11.89143 388
11.91154 355
11.93165 386
11.95177 400
11.97188 377
11.99199 437
12.01211 430
12.03222 431
12.05234 437
12.07245 465
12.09256 491
12.11268 478
12.13279 592
12.1529 552
12.17302 605
12.19313 649
12.21324 656
12.23336 660
12.25347 660
12.27359 745
12.2937 749
12.31381 743
12.33393 800
12.35404 792
12.37415 745
12.39427 721
12.41438 656
12.4345 630
12.45461 557
12.47472 530
12.49484 516
12.51495 442
12.53506 434
12.55518 420
12.57529 419
12.5954 382
12.61552 376
12.63563 410
12.65575 379
12.67586 388
12.69597 364
12.71609 330
12.7362 287
12.75631 345
12.77643 292
12.79654 295
12.81666 294
12.83677 312
12.85688 284
12.877 262
12.89711 289
12.91722 302
12.93734 285
12.95745 270
12.97757 244
12.99768 294
13.01779 310
13.03791 284
13.05802 291
13.07813 327
13.09825 290
13.11836 305
13.13847 290
13.15859 276
13.1787 254
13.19882 298
13.21893 278
13.23904 289
13.25916 269
13.27927 263
13.29938 245
13.3195 296
13.33961 249
13.35973 256
13.37984 236
13.39995 279
13.42007 292
13.44018 244
13.46029 223
13.48041 256
13.50052 281
13.52064 250
13.54075 238
13.56086 287
13.58098 301
13.60109 310
13.6212 282
13.64132 274
13.66143 293
13.68154 271
13.70166 266
13.72177 291
13.74189 241
13.762 266
13.78211 238
13.80223 247
13.82234 273
13.84245 271
13.86257 297
13.88268 244
13.9028 268
13.92291 234
13.94302 209
13.96314 241
13.98325 240
14.00336 227
14.02348 228
14.04359 266
14.06371 256
14.08382 239
14.10393 276
14.12405 253
14.14416 275
14.16427 234
14.18439 240
14.2045 227
14.22461 268
14.24473 241
14.26484 239
14.28496 218
14.30507 248
14.32518 245
14.3453 263
14.36541 269
14.38552 250
14.40564 231
14.42575 260
14.44587 240
14.46598 234
14.48609 233
14.50621 228
14.52632 240
14.54643 259
14.56655 242
14.58666 245
14.60677 217
14.62689 260
14.647 238
14.66712 260
14.68723 243
14.70734 211
14.72746 228
14.74757 227
14.76768 248
14.7878 227
14.80791 253
14.82803 221
14.84814 221
14.86825 262
14.88837 279
14.90848 254
14.92859 261
14.94871 244
14.96882 255
14.98894 239
15.00905 266
15.02916 271
15.04928 260
15.06939 218
15.0895 240
15.10962 203
15.12973 248
15.14984 243
15.16996 246
15.19007 255
15.21019 241
15.2303 249
15.25041 237
15.27053 239
15.29064 269
15.31075 226
15.33087 242
15.35098 225
15.3711 264
15.39121 230
15.41132 262
15.43144 251
15.45155 244
15.47166 248
15.49178 230
15.51189 245
15.53201 245
15.55212 235
15.57223 228
15.59235 246
15.61246 236
15.63257 246
15.65269 221
15.6728 221
15.69291 232
15.71303 222
15.73314 232
15.75326 199
15.77337 222
15.79348 240
15.8136 229
15.83371 233
15.85382 240
15.87394 215
15.89405 250
15.91417 227
15.93428 205
15.95439 239
15.97451 228
15.99462 228
16.01473 230
16.03485 222
16.05496 229
16.07508 235
16.09519 244
16.1153 207
16.13542 225
16.15553 206
16.17564 227
16.19576 222
16.21587 247
16.23598 216
16.2561 195
16.27621 210
16.29633 235
16.31644 218
16.33655 218
16.35667 240
16.37678 239
16.39689 244
16.41701 220
16.43712 212
16.45724 239
16.47735 282
16.49746 221
16.51758 261
16.53769 214
16.5578 244
16.57792 205
16.59803 212
16.61814 205
16.63826 214
16.65837 241
16.67849 208
16.6986 206
16.71871 235
16.73883 237
16.75894 231
16.77905 226
16.79917 238
16.81928 229
16.8394 235
16.85951 261
16.87962 228
16.89974 191
16.91985 249
16.93996 226
16.96008 242
16.98019 228
17.00031 237
17.02042 220
17.04053 214
17.06065 252
17.08076 220
17.10087 248
17.12099 242
17.1411 250
17.16121 245
17.18133 204
17.20144 214
17.22156 241
17.24167 216
17.26178 243
17.2819 229
17.30201 260
17.32212 258
17.34224 237
17.36235 230
17.38247 222
17.40258 237
17.42269 224
17.44281 244
17.46292 237
17.48303 227
17.50315 238
17.52326 259
17.54338 267
17.56349 246
17.5836 262
17.60372 264
17.62383 247
17.64394 272
17.66406 284
17.68417 278
17.70428 305
17.7244 288
17.74451 292
17.76463 339
17.78474 337
17.80485 318
17.82497 295
17.84508 292
17.86519 231
17.88531 297
17.90542 252
17.92554 269
17.94565 243
17.96576 249
17.98588 240
18.00599 250
18.0261 248
18.04622 252
18.06633 277
18.08645 256
18.10656 251
18.12667 232
18.14679 283
18.1669 286
18.18701 281
18.20713 300
18.22724 291
18.24735 266
18.26747 300
18.28758 275
18.3077 322
18.32781 292
18.34792 268
18.36804 271
18.38815 264
18.40826 250
18.42838 229
18.44849 241
18.46861 271
18.48872 232
18.50883 220
18.52895 253
18.54906 246
18.56917 229
18.58929 240
18.6094 236
18.62951 234
18.64963 202
18.66974 264
18.68986 231
18.70997 235
18.73008 227
18.7502 263
18.77031 252
18.79042 249
18.81054 223
18.83065 229
18.85077 232
18.87088 265
18.89099 243
18.91111 229
18.93122 192
18.95133 252
18.97145 217
18.99156 236
19.01168 232
19.03179 197
19.0519 237
19.07202 238
19.09213 252
19.11224 235
19.13236 257
19.15247 254
19.17258 255
19.1927 272
19.21281 280
19.23293 285
19.25304 279
19.27315 306
19.29327 262
19.31338 273
19.33349 305
19.35361 271
19.37372 265
19.39384 283
19.41395 300
19.43406 279
19.45418 281
19.47429 307
19.4944 290
19.51452 326
19.53463 327
19.55475 351
19.57486 358
19.59497 376
19.61509 464
19.6352 458
19.65531 496
19.67543 571
19.69554 547
19.71565 639
19.73577 700
19.75588 749
19.776 809
19.79611 873
19.81622 891
19.83634 811
19.85645 795
19.87656 742
19.89668 650
19.91679 641
19.93691 629
19.95702 584
19.97713 528
19.99725 517
20.01736 516
20.03747 513
20.05759 549
20.0777 517
20.09782 473
20.11793 508
20.13804 492
20.15816 501
20.17827 592
20.19838 533
20.2185 497
20.23861 556
20.25872 526
20.27884 587
20.29895 537
20.31907 554
20.33918 551
20.35929 592
20.37941 601
20.39952 569
20.41963 552
20.43975 573
20.45986 587
20.47998 634
20.50009 615
20.5202 630
20.54032 653
20.56043 662
20.58054 712
20.60066 696
20.62077 825
20.64088 749
20.661 868
20.68111 977
20.70123 1238
20.72134 1537
20.74145 1886
20.76157 2484
20.78168 3094
20.80179 3711
20.82191 4187
20.84202 4257
20.86214 4163
20.88225 3594
20.90236 2738
20.92248 2014
20.94259 1428
20.9627 1028
20.98282 952
21.00293 857
21.02305 743
21.04316 777
21.06327 676
21.08339 595
21.1035 550
21.12361 559
21.14373 557
21.16384 512
21.18395 476
21.20407 548
21.22418 504
21.2443 503
21.26441 518
21.28452 446
21.30464 463
21.32475 446
21.34486 489
21.36498 461
21.38509 443
21.40521 457
21.42532 514
21.44543 466
21.46555 485
21.48566 492
21.50577 470
21.52589 501
21.546 453
21.56612 469
21.58623 448
21.60634 453
21.62646 465
21.64657 454
21.66668 439
21.6868 413
21.70691 414
21.72702 386
21.74714 392
21.76725 395
21.78737 409
21.80748 410
21.82759 360
21.84771 371
21.86782 388
21.88793 378
21.90805 382
21.92816 391
21.94828 335
21.96839 386
21.9885 374
22.00862 374
22.02873 406
22.04884 357
22.06896 393
22.08907 393
22.10919 366
22.1293 384
22.14941 415
22.16953 385
22.18964 356
22.20975 405
22.22987 391
22.24998 408
22.27009 428
22.29021 465
22.31032 409
22.33044 430
22.35055 435
22.37066 389
22.39078 389
22.41089 384
22.431 341
22.45112 404
22.47123 370
22.49135 338
22.51146 397
22.53157 371
22.55169 362
22.5718 422
22.59191 388
22.61203 406
22.63214 417
22.65225 370
22.67237 364
22.69248 419
22.7126 400
22.73271 458
22.75282 407
22.77294 485
22.79305 498
22.81316 521
22.83328 514
22.85339 533
22.87351 527
22.89362 495
22.91373 468
22.93385 432
22.95396 399
22.97407 430
22.99419 410
23.0143 426
23.03442 395
23.05453 375
23.07464 375
23.09476 406
23.11487 412
23.13498 472
23.1551 524
23.17521 511
23.19532 486
23.21544 470
23.23555 420
23.25567 386
23.27578 345
23.29589 359
23.31601 341
23.33612 341
23.35623 328
23.37635 347
23.39646 326
23.41658 341
23.43669 312
23.4568 353
23.47692 312
23.49703 350
23.51714 335
23.53726 358
23.55737 377
23.57749 372
23.5976 408
23.61771 376
23.63783 406
23.65794 442
23.67805 448
23.69817 485
23.71828 477
23.73839 540
23.75851 508
23.77862 528
23.79874 531
23.81885 448
23.83896 450
23.85908 480
23.87919 448
23.8993 451
23.91942 468
23.93953 509
23.95965 486
23.97976 485
23.99987 518
24.01999 496
24.0401 458
24.06021 426
24.08033 391
24.10044 420
24.12056 363
24.14067 399
24.16078 395
24.1809 398
24.20101 379
24.22112 402
24.24124 408
24.26135 373
24.28146 411
24.30158 446
24.32169 418
24.34181 413
24.36192 431
24.38203 386
24.40215 429
24.42226 387
24.44237 383
24.46249 391
24.4826 434
24.50272 399
24.52283 411
24.54294 444
24.56306 444
24.58317 474
24.60328 506
24.6234 467
24.64351 508
24.66362 544
24.68374 564
24.70385 599
24.72397 587
24.74408 575
24.76419 597
24.78431 637
24.80442 589
24.82453 644
24.84465 640
24.86476 643
24.88488 644
24.90499 614
24.9251 560
24.94522 586
24.96533 528
24.98544 494
25.00556 540
25.02567 499
25.04579 498
25.0659 485
25.08601 415
25.10613 441
25.12624 465
25.14635 454
25.16647 423
25.18658 435
25.20669 473
25.22681 429
25.24692 488
25.26704 462
25.28715 469
25.30726 518
25.32738 553
25.34749 567
25.3676 538
25.38772 599
25.40783 670
25.42795 708
25.44806 651
25.46817 711
25.48829 674
25.5084 664
25.52851 622
25.54863 590
25.56874 648
25.58886 504
25.60897 523
25.62908 522
25.6492 539
25.66931 545
25.68942 512
25.70954 468
25.72965 470
25.74976 485
25.76988 504
25.78999 480
25.81011 453
25.83022 446
25.85033 504
25.87045 479
25.89056 476
25.91067 457
25.93079 514
25.9509 512
25.97102 491
25.99113 508
26.01124 474
26.03136 505
26.05147 493
26.07158 541
26.0917 567
26.11181 578
26.13193 618
26.15204 655
26.17215 652
26.19227 702
26.21238 728
26.23249 793
26.25261 868
26.27272 921
26.29283 1033
26.31295 1143
26.33306 1311
26.35318 1433
26.37329 1666
26.3934 1962
26.41352 2340
26.43363 2957
26.45374 3653
26.47386 4666
26.49397 6086
26.51409 7903
26.5342 10287
26.55431 12980
26.57443 15649
26.59454 17958
26.61465 19191
26.63477 18756
26.65488 15683
26.67499 12313
26.69511 9212
26.71522 6864
26.73534 4464
26.75545 2850
26.77556 1873
26.79568 1589
26.81579 1469
26.8359 1299
26.85602 1118
26.87613 1018
26.89625 981
26.91636 867
26.93647 838
26.95659 817
26.9767 762
26.99681 767
27.01693 734
27.03704 752
27.05716 675
27.07727 692
27.09738 676
27.1175 613
27.13761 582
27.15772 573
27.17784 521
27.19795 540
27.21806 555
27.23818 564
27.25829 620
27.27841 670
27.29852 625
27.31863 703
27.33875 793
27.35886 841
27.37897 849
27.39909 880
27.4192 876
27.43932 807
27.45943 852
27.47954 722
27.49966 674
27.51977 615
27.53988 597
27.56 509
27.58011 469
27.60023 459
27.62034 438
27.64045 454
27.66057 489
27.68068 480
27.70079 508
27.72091 591
27.74102 557
27.76113 523
27.78125 635
27.80136 582
27.82148 515
27.84159 522
27.8617 549
27.88182 467
27.90193 437
27.92204 426
27.94216 422
27.96227 395
27.98239 393
28.0025 372
28.02261 370
28.04273 373
28.06284 322
28.08295 334
28.10307 338
28.12318 308
28.1433 313
28.16341 299
28.18352 309
28.20364 343
28.22375 322
28.24386 308
28.26398 325
28.28409 336
28.3042 368
28.32432 321
28.34443 331
28.36455 302
28.38466 308
28.40477 338
28.42489 309
28.445 306
28.46511 365
28.48523 318
28.50534 344
28.52546 342
28.54557 332
28.56568 349
28.5858 338
28.60591 317
28.62602 318
28.64614 289
28.66625 279
28.68636 295
28.70648 318
28.72659 278
28.74671 312
28.76682 263
28.78693 315
28.80705 293
28.82716 278
28.84727 311
28.86739 306
28.8875 327
28.90762 281
28.92773 289
28.94784 313
28.96796 300
28.98807 264
29.00818 297
29.0283 280
29.04841 302
29.06853 327
29.08864 299
29.10875 291
29.12887 306
29.14898 297
29.16909 299
29.18921 325
29.20932 264
29.22943 274
29.24955 294
29.26966 319
29.28978 309
29.30989 302
29.33 319
29.35012 345
29.37023 400
29.39034 388
29.41046 401
29.43057 394
29.45069 353
29.4708 352
29.49091 354
29.51103 348
29.53114 333
29.55125 307
29.57137 356
29.59148 315
29.6116 339
29.63171 357
29.65182 362
29.67194 380
29.69205 407
29.71216 424
29.73228 460
29.75239 458
29.7725 493
29.79262 516
29.81273 502
29.83285 560
29.85296 508
29.87307 439
29.89319 392
29.9133 407
29.93341 449
29.95353 360
29.97364 360
29.99376 352
30.01387 346
30.03398 392
30.0541 348
30.07421 328
30.09432 342
30.11444 373
30.13455 335
30.15467 404
30.17478 363
30.19489 412
30.21501 391
30.23512 403
30.25523 384
30.27535 329
30.29546 323
30.31557 309
30.33569 321
30.3558 313
30.37592 296
30.39603 268
30.41614 283
30.43626 263
30.45637 266
30.47648 271
30.4966 248
30.51671 245
30.53683 294
30.55694 303
30.57705 287
30.59717 306
30.61728 344
30.63739 338
30.65751 331
30.67762 333
30.69773 361
30.71785 371
30.73796 356
30.75808 374
30.77819 316
30.7983 309
30.81842 337
30.83853 336
30.85864 329
30.87876 308
30.89887 335
30.91899 333
30.9391 331
30.95921 325
30.97933 316
30.99944 312
31.01955 303
31.03967 335
31.05978 322
31.0799 315
31.10001 364
31.12012 391
31.14024 412
31.16035 395
31.18046 424
31.20058 379
31.22069 355
31.2408 373
31.26092 383
31.28103 340
31.30115 323
31.32126 302
31.34137 273
31.36149 312
31.3816 287
31.40171 267
31.42183 279
31.44194 267
31.46206 248
31.48217 279
31.50228 236
31.5224 266
31.54251 269
31.56262 265
31.58274 282
31.60285 274
31.62297 262
31.64308 256
31.66319 280
31.68331 245
31.70342 264
31.72353 252
31.74365 275
31.76376 277
31.78387 291
31.80399 288
31.8241 296
31.84422 317
31.86433 355
31.88444 349
31.90456 329
31.92467 332
31.94478 355
31.9649 382
31.98501 375
32.00513 352
32.02524 383
32.04535 359
32.06547 365
32.08558 397
32.10569 365
32.12581 338
32.14592 285
32.16604 283
32.18615 294
32.20626 284
32.22638 269
32.24649 284
32.2666 319
32.28672 295
32.30683 270
32.32694 263
32.34706 305
32.36717 294
32.38729 310
32.4074 310
32.42751 296
32.44763 320
32.46774 285
32.48785 291
32.50797 284
32.52808 267
32.5482 261
32.56831 280
32.58842 292
32.60854 266
32.62865 251
32.64876 240
32.66888 243
32.68899 275
32.7091 245
32.72922 235
32.74933 254
32.76945 258
32.78956 243
32.80967 258
32.82979 254
32.8499 258
32.87001 266
32.89013 265
32.91024 262
32.93036 270
32.95047 285
32.97058 270
32.9907 285
33.01081 314
33.03092 312
33.05104 277
33.07115 308
33.09127 308
33.11138 335
33.13149 317
33.15161 352
33.17172 300
33.19183 334
33.21195 336
33.23206 278
33.25217 261
33.27229 256
33.2924 299
33.31252 280
33.33263 256
33.35274 248
33.37286 273
33.39297 250
33.41308 269
33.4332 246
33.45331 237
33.47343 257
33.49354 250
33.51365 232
33.53377 215
33.55388 249
33.57399 234
33.59411 257
33.61422 255
33.63434 271
33.65445 246
33.67456 277
33.69468 247
33.71479 263
33.7349 239
33.75502 256
33.77513 252
33.79524 258
33.81536 275
33.83547 232
33.85559 254
33.8757 260
33.89581 263
33.91593 262
33.93604 256
33.95615 278
33.97627 283
33.99638 320
34.0165 298
34.03661 336
34.05672 323
34.07684 323
34.09695 338
34.11706 327
34.13718 375
34.15729 373
34.17741 350
34.19752 354
34.21763 373
34.23775 378
34.25786 369
34.27797 380
34.29809 412
34.3182 383
34.33831 400
34.35843 388
34.37854 411
34.39866 397
34.41877 442
34.43888 457
34.459 436
34.47911 442
34.49922 450
34.51934 405
34.53945 409
34.55957 462
34.57968 431
34.59979 407
34.61991 439
34.64002 463
34.66013 441
34.68025 481
34.70036 503
34.72047 581
34.74059 603
34.7607 664
34.78082 704
34.80093 752
34.82104 784
34.84116 806
34.86127 847
34.88138 847
34.9015 791
34.92161 741
34.94173 696
34.96184 640
34.98195 609
35.00207 572
35.02218 508
35.04229 475
35.06241 485
35.08252 439
35.10264 435
35.12275 411
35.14286 412
35.16298 423
35.18309 449
35.2032 412
35.22332 400
35.24343 363
35.26354 351
35.28366 406
35.30377 418
35.32389 378
35.344 417
35.36411 438
35.38423 431
35.40434 423
35.42445 446
35.44457 453
35.46468 467
35.4848 477
35.50491 481
35.52502 517
35.54514 486
35.56525 502
35.58536 466
35.60548 417
35.62559 403
35.64571 429
35.66582 408
35.68593 421
35.70605 393
35.72616 384
35.74627 410
35.76639 417
35.7865 427
35.80661 431
35.82673 428
35.84684 397
35.86696 429
35.88707 443
35.90718 379
35.9273 424
35.94741 412
35.96752 417
35.98764 394
36.00775 379
36.02787 353
36.04798 374
36.06809 384
36.08821 351
36.10832 351
36.12843 353
36.14855 380
36.16866 370
36.18878 340
36.20889 390
36.229 401
36.24912 410
36.26923 431
36.28934 438
36.30946 504
36.32957 571
36.34968 596
36.3698 707
36.38991 798
36.41003 876
36.43014 1051
36.45025 1177
36.47037 1368
36.49048 1489
36.51059 1509
36.53071 1417
36.55082 1340
36.57094 1061
36.59105 973
36.61116 873
36.63128 758
36.65139 655
36.6715 492
36.69162 437
36.71173 394
36.73184 366
36.75196 338
36.77207 349
36.79219 350
36.8123 368
36.83241 330
36.85253 319
36.87264 341
36.89275 325
36.91287 351
36.93298 355
36.9531 365
36.97321 322
36.99332 334
37.01344 335
37.03355 317
37.05366 328
37.07378 345
37.09389 324
37.11401 291
37.13412 330
37.15423 311
37.17435 326
37.19446 346
37.21457 345
37.23469 329
37.2548 352
37.27491 357
37.29503 345
37.31514 363
37.33526 369
37.35537 329
37.37548 396
37.3956 394
37.41571 382
37.43582 407
37.45594 395
37.47605 385
37.49617 376
37.51628 407
37.53639 406
37.55651 472
37.57662 430
37.59673 436
37.61685 475
37.63696 516
37.65708 461
37.67719 440
37.6973 432
37.71742 415
37.73753 370
37.75764 370
37.77776 365
37.79787 360
37.81798 351
37.8381 377
37.85821 349
37.87833 323
37.89844 327
37.91855 354
37.93867 324
37.95878 342
37.97889 331
37.99901 340
38.01912 311
38.03924 334
38.05935 320
38.07946 355
38.09958 347
38.11969 345
38.1398 351
38.15992 358
38.18003 392
38.20015 351
38.22026 422
38.24037 382
38.26049 436
38.2806 394
38.30071 386
38.32083 397
38.34094 424
38.36105 421
38.38117 436
38.40128 414
38.4214 402
38.44151 451
38.46162 440
38.48174 438
38.50185 401
38.52196 432
38.54208 425
38.56219 398
38.58231 405
38.60242 367
38.62253 338
38.64265 377
38.66276 342
38.68287 377
38.70299 330
38.7231 336
38.74321 290
38.76333 311
38.78344 335
38.80356 330
38.82367 335
38.84378 318
38.8639 365
38.88401 343
38.90412 297
38.92424 317
38.94435 371
38.96447 312
38.98458 372
39.00469 362
39.02481 339
39.04492 371
39.06503 370
39.08515 364
39.10526 381
39.12538 400
39.14549 402
39.1656 405
39.18572 400
39.20583 452
39.22594 488
39.24606 519
39.26617 570
39.28628 661
39.3064 703
39.32651 807
39.34663 906
39.36674 943
39.38685 1201
39.40697 1374
39.42708 1354
39.44719 1284
39.46731 1260
39.48742 1057
39.50754 934
39.52765 837
39.54776 772
39.56788 665
39.58799 518
39.6081 434
39.62822 400
39.64833 378
39.66845 356
39.68856 326
39.70867 336
39.72879 309
39.7489 301
39.76901 333
39.78913 333
39.80924 337
39.82935 340
39.84947 352
39.86958 346
39.8897 315
39.90981 322
39.92992 313
39.95004 378
39.97015 351
39.99026 348
40.01038 369
40.03049 374
40.05061 376
40.07072 403
40.09083 433
40.11095 449
40.13106 468
40.15117 575
40.17129 587
40.1914 663
40.21152 704
40.23163 772
40.25174 854
40.27186 861
40.29197 783
40.31208 601
40.3322 563
40.35231 536
40.37242 528
40.39254 488
40.41265 377
40.43277 356
40.45288 364
40.47299 317
40.49311 340
40.51322 317
40.53333 300
40.55345 334
40.57356 307
40.59368 329
40.61379 343
40.6339 313
40.65402 327
40.67413 289
40.69424 328
40.71436 341
40.73447 282
40.75458 341
40.7747 310
40.79481 341
40.81493 302
40.83504 305
40.85515 323
40.87527 307
40.89538 316
40.91549 331
40.93561 278
40.95572 280
40.97584 279
40.99595 280
41.01606 305
41.03618 343
41.05629 293
41.0764 309
41.09652 287
41.11663 271
41.13675 290
41.15686 299
41.17697 272
41.19709 316
41.2172 295
41.23731 310
41.25743 268
41.27754 293
41.29765 307
41.31777 265
41.33788 265
41.358 278
41.37811 286
41.39822 303
41.41834 266
41.43845 254
41.45856 254
41.47868 302
41.49879 300
41.51891 305
41.53902 296
41.55913 308
41.57925 342
41.59936 295
41.61947 296
41.63959 342
41.6597 345
41.67982 374
41.69993 362
41.72004 374
41.74016 351
41.76027 379
41.78038 381
41.8005 411
41.82061 397
41.84072 379
41.86084 383
41.88095 379
41.90107 350
41.92118 374
41.94129 360
41.96141 345
41.98152 340
42.00163 326
42.02175 343
42.04186 337
42.06198 352
42.08209 332
42.1022 339
42.12232 379
42.14243 339
42.16254 389
42.18266 447
42.20277 435
42.22289 471
42.243 515
42.26311 596
42.28323 628
42.30334 714
42.32345 761
42.34357 876
42.36368 998
42.38379 1055
42.40391 1070
42.42402 1050
42.44414 952
42.46425 841
42.48436 719
42.50448 675
42.52459 673
42.5447 607
42.56482 505
42.58493 451
42.60505 348
42.62516 331
42.64527 310
42.66539 309
42.6855 262
42.70561 274
42.72573 281
42.74584 281
42.76595 275
42.78607 280
42.80618 276
42.8263 255
42.84641 244
42.86652 265
42.88664 260
42.90675 250
42.92686 247
42.94698 228
42.96709 238
42.98721 246
43.00732 249
43.02743 232
43.04755 255
43.06766 254
43.08777 245
43.10789 239
43.128 228
43.14812 266
43.16823 260
43.18834 246
43.20846 246
43.22857 220
43.24868 250
43.2688 236
43.28891 233
43.30902 234
43.32914 232
43.34925 232
43.36937 230
43.38948 256
43.40959 233
43.42971 258
43.44982 256
43.46993 245
43.49005 228
43.51016 248
43.53028 263
43.55039 235
43.5705 279
43.59062 247
43.61073 229
43.63084 249
43.65096 245
43.67107 260
43.69119 262
43.7113 249
43.73141 258
43.75153 243
43.77164 256
43.79175 252
43.81187 256
43.83198 232
43.85209 267
43.87221 264
43.89232 266
43.91244 260
43.93255 284
43.95266 248
43.97278 248
43.99289 254
44.013 233
44.03312 237
44.05323 265
44.07335 241
44.09346 268
44.11357 246
44.13369 255
44.1538 276
44.17391 251
44.19403 251
44.21414 243
44.23426 269
44.25437 226
44.27448 247
44.2946 239
44.31471 255
44.33482 245
44.35494 229
44.37505 225
44.39516 242
44.41528 229
44.43539 207
44.45551 223
44.47562 246
44.49573 259
44.51585 249
44.53596 248
44.55607 229
44.57619 251
44.5963 227
44.61642 214
44.63653 231
44.65664 261
44.67676 226
44.69687 248
44.71698 222
44.7371 244
44.75721 238
44.77732 232
44.79744 235
44.81755 243
44.83767 217
44.85778 244
44.87789 255
44.89801 245
44.91812 280
44.93823 291
44.95835 244
44.97846 263
44.99858 257
45.01869 268
45.0388 264
45.05892 255
45.07903 266
45.09914 257
45.11926 274
45.13937 290
45.15949 281
45.1796 305
45.19971 278
45.21983 276
45.23994 319
45.26005 331
45.28017 352
45.30028 334
45.32039 374
45.34051 413
45.36062 404
45.38074 418
45.40085 461
45.42096 447
45.44108 426
45.46119 418
45.4813 430
45.50142 406
45.52153 449
45.54165 438
45.56176 425
45.58187 462
45.60199 453
45.6221 519
45.64221 583
45.66233 612
45.68244 661
45.70256 707
45.72267 765
45.74278 841
45.7629 781
45.78301 741
45.80312 714
45.82324 590
45.84335 561
45.86346 523
45.88358 471
45.90369 508
45.92381 431
45.94392 348
45.96403 336
45.98415 322
46.00426 334
46.02437 340
46.04449 306
46.0646 272
46.08472 271
46.10483 283
46.12494 246
46.14506 267
46.16517 252
46.18528 245
46.2054 266
46.22551 266
46.24563 270
46.26574 248
46.28585 269
46.30597 254
46.32608 273
46.34619 286
46.36631 275
46.38642 243
46.40653 253
46.42665 254
46.44676 264
46.46688 253
46.48699 267
46.5071 282
46.52722 267
46.54733 255
46.56744 268
46.58756 290
46.60767 256
46.62779 239
46.6479 248
46.66801 246
46.68813 244
46.70824 244
46.72835 239
46.74847 236
46.76858 230
46.78869 262
46.80881 255
46.82892 234
46.84904 243
46.86915 251
46.88926 237
46.90938 244
46.92949 259
46.9496 239
46.96972 276
46.98983 283
47.00995 265
47.03006 261
47.05017 266
47.07029 267
47.0904 250
47.11051 279
47.13063 237
47.15074 242
47.17086 240
47.19097 238
47.21108 246
47.2312 222
47.25131 235
47.27142 256
47.29154 255
47.31165 239
47.33176 266
47.35188 251
47.37199 243
47.39211 256
47.41222 258
47.43233 261
47.45245 252
47.47256 247
47.49267 261
47.51279 230
47.5329 219
47.55302 233
47.57313 246
47.59324 237
47.61336 231
47.63347 223
47.65358 220
47.6737 210
47.69381 202
47.71393 265
47.73404 242
47.75415 254
47.77427 242
47.79438 242
47.81449 234
47.83461 255
47.85472 263
47.87483 228
47.89495 241
47.91506 262
47.93518 249
47.95529 233
47.9754 244
47.99552 246
48.01563 223
48.03574 247
48.05586 224
48.07597 218
48.09609 245
48.1162 217
48.13631 242
48.15643 255
48.17654 248
48.19665 200
48.21677 231
48.23688 263
48.257 235
48.27711 251
48.29722 232
48.31734 204
48.33745 228
48.35756 252
48.37768 250
48.39779 253
48.4179 237
48.43802 253
48.45813 259
48.47825 221
48.49836 256
48.51847 269
48.53859 218
48.5587 267
48.57881 246
48.59893 237
48.61904 270
48.63916 249
48.65927 271
48.67938 269
48.6995 237
48.71961 254
48.73972 250
48.75984 272
48.77995 254
48.80006 236
48.82018 280
48.84029 240
48.86041 257
48.88052 268
48.90063 239
48.92075 307
48.94086 257
48.96097 251
48.98109 221
49.0012 250
49.02132 232
49.04143 246
49.06154 249
49.08166 269
49.10177 223
49.12188 236
49.142 235
49.16211 240
49.18223 277
49.20234 231
49.22245 245
49.24257 244
49.26268 235
49.28279 282
49.30291 265
49.32302 240
49.34313 264
49.36325 265
49.38336 261
49.40348 255
49.42359 277
49.4437 263
49.46382 271
49.48393 262
49.50404 269
49.52416 280
49.54427 261
49.56439 270
49.5845 281
49.60461 268
49.62473 282
49.64484 267
49.66495 306
49.68507 269
49.70518 277
49.7253 336
49.74541 338
49.76552 378
49.78564 353
49.80575 395
49.82586 391
49.84598 444
49.86609 506
49.8862 516
49.90632 585
49.92643 714
49.94655 846
49.96666 901
49.98677 1093
50.00689 1251
50.027 1440
50.04711 1729
50.06723 1939
50.08734 2084
50.10746 2095
50.12757 1968
50.14768 1666
50.1678 1315
50.18791 1220
50.20802 1231
50.22814 1117
50.24825 1053
50.26837 893
50.28848 718
50.30859 521
50.32871 403
50.34882 380
50.36893 379
50.38905 377
50.40916 374
50.42927 346
50.44939 378
50.4695 346
50.48962 397
50.50973 367
50.52984 338
50.54996 356
50.57007 318
50.59018 348
50.6103 328
50.63041 312
50.65053 324
50.67064 294
50.69075 284
50.71087 291
50.73098 266
50.75109 263
50.77121 269
50.79132 252
50.81143 277
50.83155 259
50.85166 290
50.87178 244
50.89189 262
50.912 259
50.93212 261
50.95223 248
50.97234 242
50.99246 248
51.01257 261
51.03269 254
51.0528 249
51.07291 219
51.09303 243
51.11314 212
51.13325 239
51.15337 202
51.17348 232
51.1936 240
51.21371 241
51.23382 239
51.25394 239
51.27405 226
51.29416 202
51.31428 222
51.33439 234
51.3545 222
51.37462 201
51.39473 220
51.41485 190
51.43496 240
51.45507 251
51.47519 187
51.4953 212
51.51541 196
51.53553 217
51.55564 209
51.57576 206
51.59587 235
51.61598 230
51.6361 212
51.65621 207
51.67632 226
51.69644 228
51.71655 223
51.73667 195
51.75678 233
51.77689 199
51.79701 186
51.81712 219
51.83723 217
51.85735 189
51.87746 232
51.89757 202
51.91769 223
51.9378 210
51.95792 229
51.97803 208
51.99814 212
52.01826 215
52.03837 237
52.05848 229
52.0786 198
52.09871 233
52.11883 213
52.13894 224
52.15905 242
52.17917 213
52.19928 218
52.21939 236
52.23951 198
52.25962 205
52.27974 216
52.29985 216
52.31996 221
52.34008 225
52.36019 244
52.3803 210
52.40042 230
52.42053 248
52.44064 213
52.46076 244
52.48087 236
52.50099 225
52.5211 252
52.54121 245
52.56133 255
52.58144 249
52.60155 237
52.62167 237
52.64178 250
52.6619 251
52.68201 266
52.70212 226
52.72224 253
52.74235 256
52.76246 276
52.78258 239
52.80269 220
52.8228 252
52.84292 237
52.86303 244
52.88315 219
52.90326 230
52.92337 219
52.94349 240
52.9636 235
52.98371 228
53.00383 245
53.02394 215
53.04406 252
53.06417 239
53.08428 249
53.1044 228
53.12451 236
53.14462 213
53.16474 256
53.18485 249
53.20497 226
53.22508 230
53.24519 238
53.26531 239
53.28542 244
53.30553 239
53.32565 220
53.34576 213
53.36587 247
53.38599 255
53.4061 243
53.42622 253
53.44633 239
53.46644 255
53.48656 248
53.50667 227
53.52678 252
53.5469 240
53.56701 250
53.58713 243
53.60724 259
53.62735 254
53.64747 278
53.66758 272
53.68769 253
53.70781 234
53.72792 278
53.74804 260
53.76815 255
53.78826 268
53.80838 258
53.82849 228
53.8486 275
53.86872 303
53.88883 277
53.90894 281
53.92906 309
53.94917 272
53.96929 274
53.9894 290
54.00951 291
54.02963 286
54.04974 323
54.06985 275
54.08997 254
54.11008 279
54.1302 280
54.15031 281
54.17042 287
54.19054 295
54.21065 296
54.23076 311
54.25088 325
54.27099 297
54.29111 289
54.31122 291
54.33133 315
54.35145 292
54.37156 315
54.39167 294
54.41179 302
54.4319 338
54.45201 314
54.47213 283
54.49224 329
54.51236 302
54.53247 330
54.55258 379
54.5727 390
54.59281 365
54.61292 419
54.63304 405
54.65315 434
54.67327 452
54.69338 487
54.71349 579
54.73361 599
54.75372 639
54.77383 701
54.79395 779
54.81406 815
54.83417 784
54.85429 818
54.8744 696
54.89452 672
54.91463 556
54.93474 578
54.95486 583
54.97497 566
54.99508 588
55.0152 530
55.03531 472
55.05543 427
55.07554 431
55.09565 445
55.11577 422
55.13588 440
55.15599 433
55.17611 472
55.19622 516
55.21634 513
55.23645 526
55.25656 560
55.27668 530
55.29679 532
55.3169 490
55.33702 521
55.35713 445
55.37724 464
55.39736 412
55.41747 407
55.43759 438
55.4577 401
55.47781 408
55.49793 352
55.51804 379
55.53815 359
55.55827 298
55.57838 343
55.5985 326
55.61861 374
55.63872 389
55.65884 383
55.67895 376
55.69906 411
55.71918 373
55.73929 367
55.75941 342
55.77952 333
55.79963 361
55.81975 302
55.83986 356
55.85997 319
55.88009 329
55.9002 317
55.92031 308
55.94043 287
55.96054 297
55.98066 288
56.00077 273
56.02088 241
56.041 252
56.06111 257
56.08122 264
56.10134 275
56.12145 265
56.14157 263
56.16168 264
56.18179 254
56.20191 262
56.22202 240
56.24213 258
56.26225 272
56.28236 250
56.30248 250
56.32259 262
56.3427 268
56.36282 288
56.38293 260
56.40304 269
56.42316 265
56.44327 257
56.46338 259
56.4835 268
56.50361 240
56.52373 264
56.54384 290
56.56395 244
56.58407 261
56.60418 251
56.62429 269
56.64441 292
56.66452 288
56.68464 251
56.70475 266
56.72486 287
56.74498 282
56.76509 266
56.7852 251
56.80532 287
56.82543 269
56.84554 257
56.86566 257
56.88577 279
56.90589 237
56.926 266
56.94611 245
56.96623 275
56.98634 258
57.00645 246
57.02657 262
57.04668 283
57.0668 248
57.08691 257
57.10702 287
57.12714 262
57.14725 245
57.16736 297
57.18748 299
57.20759 281
57.22771 290
57.24782 285
57.26793 264
57.28805 251
57.30816 289
57.32827 277
57.34839 301
57.3685 257
57.38861 269
57.40873 250
57.42884 259
57.44896 268
57.46907 257
57.48918 241
57.5093 262
57.52941 276
57.54952 235
57.56964 264
57.58975 282
57.60987 222
57.62998 224
57.65009 219
57.67021 219
57.69032 217
57.71043 249
57.73055 229
57.75066 243
57.77078 262
57.79089 244
57.811 245
57.83112 248
57.85123 234
57.87134 227
57.89146 241
57.91157 203
57.93168 240
57.9518 216
57.97191 212
57.99203 233
58.01214 228
58.03225 212
58.05237 206
58.07248 265
58.09259 242
58.11271 242
58.13282 248
58.15294 242
58.17305 208
58.19316 252
58.21328 215
58.23339 265
58.2535 226
58.27362 232
58.29373 224
58.31385 228
58.33396 215
58.35407 240
58.37419 228
58.3943 249
58.41441 238
58.43453 232
58.45464 209
58.47475 226
58.49487 263
58.51498 244
58.5351 230
58.55521 248
58.57532 252
58.59544 231
58.61555 246
58.63566 262
58.65578 217
58.67589 251
58.69601 224
58.71612 230
58.73623 252
58.75635 214
58.77646 259
58.79657 239
58.81669 239
58.8368 241
58.85691 226
58.87703 248
58.89714 254
58.91726 245
58.93737 236
58.95748 226
58.9776 252
58.99771 270
59.01782 233
59.03794 246
59.05805 254
59.07817 241
59.09828 243
59.11839 240
59.13851 278
59.15862 247
59.17873 255
59.19885 251
59.21896 260
59.23908 241
59.25919 225
59.2793 257
59.29942 249
59.31953 271
59.33964 248
59.35976 238
59.37987 251
59.39998 273
59.4201 273
59.44021 279
59.46033 277
59.48044 296
59.50055 278
59.52067 319
59.54078 307
59.56089 332
59.58101 341
59.60112 332
59.62124 351
59.64135 395
59.66146 395
59.68158 439
59.70169 482
59.7218 519
59.74192 622
59.76203 701
59.78215 769
59.80226 852
59.82237 998
59.84249 1063
59.8626 1197
59.88271 1266
59.90283 1336
59.92294 1296
59.94305 1242
59.96317 1070
59.98328 927
60.0034 858
60.02351 836
60.04362 838
60.06374 795
60.08385 804
60.10396 701
60.12408 586
60.14419 468
60.16431 395
60.18442 335
60.20453 322
60.22465 317
60.24476 297
60.26487 284
60.28499 301
60.3051 286
60.32522 284
60.34533 276
60.36544 317
60.38556 255
60.40567 261
60.42578 279
60.4459 249
60.46601 245
60.48612 263
60.50624 279
60.52635 263
60.54647 233
60.56658 259
60.58669 248
60.60681 298
60.62692 264
60.64703 278
60.66715 260
60.68726 286
60.70738 278
60.72749 260
60.7476 246
60.76772 265
60.78783 238
60.80794 243
60.82806 264
60.84817 252
60.86828 243
60.8884 278
60.90851 235
60.92863 252
60.94874 259
60.96885 274
60.98897 266
61.00908 264
61.02919 252
61.04931 256
61.06942 264
61.08954 282
61.10965 272
61.12976 282
61.14988 258
61.16999 307
61.1901 300
61.21022 259
61.23033 320
61.25045 316
61.27056 291
61.29067 326
61.31079 347
61.3309 324
61.35101 325
61.37113 334
61.39124 367
61.41135 358
61.43147 355
61.45158 352
61.4717 362
61.49181 365
61.51192 359
61.53204 361
61.55215 359
61.57226 297
61.59238 332
61.61249 319
61.63261 342
61.65272 301
61.67283 310
61.69295 296
61.71306 307
61.73317 273
61.75329 263
61.7734 271
61.79352 259
61.81363 285
61.83374 258
61.85386 251
61.87397 241
61.89408 253
61.9142 300
61.93431 285
61.95442 270
61.97454 309
61.99465 267
62.01477 282
62.03488 296
62.05499 279
62.07511 286
62.09522 295
62.11533 319
62.13545 331
62.15556 347
62.17568 360
62.19579 345
62.2159 350
62.23602 335
62.25613 366
62.27624 344
62.29636 331
62.31647 337
62.33659 347
62.3567 349
62.37681 348
62.39693 319
62.41704 331
62.43715 315
62.45727 317
62.47738 315
62.49749 310
62.51761 270
62.53772 277
62.55784 288
62.57795 298
62.59806 304
62.61818 288
62.63829 279
62.6584 276
62.67852 274
62.69863 289
62.71875 258
62.73886 263
62.75897 263
62.77909 260
62.7992 256
62.81931 262
62.83943 260
62.85954 277
62.87965 278
62.89977 268
62.91988 285
62.94 218
62.96011 242
62.98022 248
63.00034 245
63.02045 246
63.04056 253
63.06068 267
63.08079 276
63.10091 269
63.12102 267
63.14113 269
63.16125 234
63.18136 253
63.20147 230
63.22159 222
63.2417 270
63.26182 256
63.28193 231
63.30204 238
63.32216 241
63.34227 224
63.36238 252
63.3825 244
63.40261 250
63.42272 256
63.44284 240
63.46295 265
63.48307 254
63.50318 221
63.52329 228
63.54341 234
63.56352 247
63.58363 237
63.60375 244
63.62386 246
63.64398 251
63.66409 277
63.6842 272
63.70432 271
63.72443 240
63.74454 265
63.76466 286
63.78477 275
63.80489 319
63.825 347
63.84511 357
63.86523 394
63.88534 407
63.90545 442
63.92557 424
63.94568 454
63.96579 455
63.98591 448
64.00602 450
64.02614 405
64.04625 394
64.06636 360
64.08648 362
64.10659 342
64.1267 320
64.14682 316
64.16693 349
64.18705 342
64.20716 293
64.22727 274
64.24739 274
64.2675 279
64.28761 234
64.30773 220
64.32784 246
64.34796 215
64.36807 200
64.38818 211
64.4083 227
64.42841 220
64.44852 225
64.46864 209
64.48875 235
64.50886 212
64.52898 205
64.54909 212
64.56921 223
64.58932 221
64.60943 225
64.62955 224
64.64966 207
64.66977 210
64.68989 231
64.71 198
64.73012 219
64.75023 247
64.77034 214
64.79046 231
64.81057 179
64.83068 206
64.8508 237
64.87091 221
64.89102 204
64.91114 229
64.93125 204
64.95137 239
64.97148 206
64.99159 212
65.01171 223
65.03182 192
65.05193 251
65.07205 230
65.09216 213
65.11228 228
65.13239 217
65.1525 230
65.17262 245
65.19273 247
65.21284 253
65.23296 224
65.25307 212
65.27319 239
65.2933 240
65.31341 215
65.33353 244
65.35364 243
65.37375 236
65.39387 223
65.41398 217
65.43409 247
65.45421 221
65.47432 244
65.49444 242
65.51455 232
65.53466 221
65.55478 238
65.57489 245
65.595 244
65.61512 224
65.63523 261
65.65535 267
65.67546 248
65.69557 258
65.71569 260
65.7358 236
65.75591 278
65.77603 220
65.79614 253
65.81626 237
65.83637 277
65.85648 244
65.8766 218
65.89671 250
65.91682 248
65.93694 252
65.95705 230
65.97716 222
65.99728 200
66.01739 233
66.03751 218
66.05762 245
66.07773 219
66.09785 230
66.11796 253
66.13807 261
66.15819 233
66.1783 233
66.19842 244
66.21853 234
66.23864 228
66.25876 239
66.27887 226
66.29898 220
66.3191 196
66.33921 215
66.35933 204
66.37944 241
66.39955 252
66.41967 216
66.43978 225
66.45989 198
66.48001 201
66.50012 227
66.52023 232
66.54035 200
66.56046 207
66.58058 230
66.60069 198
66.6208 213
66.64092 202
66.66103 215
66.68114 237
66.70126 191
66.72137 203
66.74149 225
66.7616 219
66.78171 229
66.80183 224
66.82194 226
66.84205 231
66.86217 250
66.88228 210
66.90239 243
66.92251 206
66.94262 204
66.96274 231
66.98285 221
67.00296 236
67.02308 212
67.04319 213
67.0633 240
67.08342 223
67.10353 241
67.12365 240
67.14376 224
67.16387 221
67.18399 254
67.2041 264
67.22421 234
67.24433 211
67.26444 275
67.28456 263
67.30467 272
67.32478 242
67.3449 259
67.36501 293
67.38512 315
67.40524 274
67.42535 326
67.44546 318
67.46558 329
67.48569 377
67.50581 376
67.52592 415
67.54603 504
67.56615 554
67.58626 574
67.60637 634
67.62649 738
67.6466 802
67.66672 815
67.68683 928
67.70694 901
67.72706 831
67.74717 695
67.76728 648
67.7874 606
67.80751 600
67.82763 648
67.84774 698
67.86785 703
67.88797 734
67.90808 754
67.92819 756
67.94831 747
67.96842 767
67.98853 807
68.00865 902
68.02876 935
68.04888 935
68.06899 1095
68.0891 1115
68.10922 1148
68.12933 1062
68.14944 1017
68.16956 995
68.18967 952
68.20979 1026
68.2299 997
68.25001 980
68.27013 1073
68.29024 994
68.31035 877
68.33047 813
68.35058 666
68.3707 560
68.39081 541
68.41092 502
68.43104 464
68.45115 461
68.47126 454
68.49138 382
68.51149 345
68.5316 342
68.55172 294
68.57183 274
68.59195 266
68.61206 240
68.63217 270
68.65229 257
68.6724 203
68.69251 226
68.71263 250
68.73274 222
68.75286 251
68.77297 251
68.79308 229
68.8132 234
68.83331 230
68.85342 227
68.87354 220
68.89365 232
68.91376 242
68.93388 244
68.95399 218
68.97411 234
68.99422 210
69.01433 241
69.03445 227
69.05456 230
69.07467 238
69.09479 211
69.1149 246
69.13502 255
69.15513 225
69.17524 231
69.19536 213
69.21547 259
69.23558 226
69.2557 235
69.27581 249
69.29593 228
69.31604 247
69.33615 267
69.35627 241
69.37638 230
69.39649 230
69.41661 232
69.43672 236
69.45683 233
69.47695 239
69.49706 259
69.51718 234
69.53729 241
69.5574 240
69.57752 245
69.59763 231
69.61774 243
69.63786 256
69.65797 199
69.67809 230
69.6982 212
69.71831 203
69.73843 219
69.75854 236
69.77865 200
69.79877 216
69.81888 202
69.839 221
69.85911 232
69.87922 214
69.89934 229
69.91945 241
69.93956 255
69.95968 209
69.97979 215
69.9999 211
70.02002 225
70.04013 236
70.06025 221
70.08036 264
70.10047 228
70.12059 239
70.1407 249
70.16081 233
70.18093 228
70.20104 233
70.22116 260
70.24127 217
70.26138 245
70.2815 269
70.30161 267
70.32172 225
70.34184 200
70.36195 197
70.38207 211
70.40218 248
70.42229 211
70.44241 224
70.46252 231
70.48263 210
70.50275 207
70.52286 201
70.54297 229
70.56309 219
70.5832 215
70.60332 196
70.62343 231
70.64354 218
70.66366 210
70.68377 191
70.70388 206
70.724 238
70.74411 221
70.76423 220
70.78434 200
70.80445 209
70.82457 210
70.84468 208
70.86479 204
70.88491 205
70.90502 206
70.92513 197
70.94525 205
70.96536 179
70.98548 225
71.00559 222
71.0257 193
71.04582 194
71.06593 211
71.08604 181
71.10616 224
71.12627 204
71.14639 228
71.1665 230
71.18661 203
71.20673 226
71.22684 201
71.24695 209
71.26707 202
71.28718 239
71.3073 203
71.32741 214
71.34752 218
71.36764 188
71.38775 221
71.40786 211
71.42798 220
71.44809 217
71.4682 203
71.48832 213
71.50843 218
71.52855 226
71.54866 185
71.56877 218
71.58889 209
71.609 210
71.62911 208
71.64923 217
71.66934 221
71.68946 201
71.70957 192
71.72968 214
71.7498 185
71.76991 191
71.79002 217
71.81014 231
71.83025 223
71.85037 238
71.87048 208
71.89059 212
71.91071 226
71.93082 205
71.95093 227
71.97105 221
71.99116 226
72.01127 184
72.03139 233
72.0515 225
72.07162 221
72.09173 222
72.11184 221
72.13196 230
72.15207 240
72.17218 218
72.1923 223
72.21241 254
72.23253 224
72.25264 230
72.27275 248
72.29287 227
72.31298 280
72.33309 267
72.35321 230
72.37332 242
72.39344 270
72.41355 249
72.43366 232
72.45378 267
72.47389 256
72.494 258
72.51412 234
72.53423 249
72.55434 266
72.57446 265
72.59457 252
72.61469 253
72.6348 303
72.65491 248
72.67503 248
72.69514 220
72.71525 216
72.73537 246
72.75548 254
72.7756 259
72.79571 234
72.81582 226
72.83594 258
72.85605 254
72.87616 235
72.89628 259
72.91639 242
72.9365 233
72.95662 262
72.97673 237
72.99685 241
73.01696 274
73.03707 255
73.05719 259
73.0773 258
73.09741 267
73.11753 263
73.13764 288
73.15776 278
73.17787 273
73.19798 278
73.2181 291
73.23821 287
73.25832 319
73.27844 348
73.29855 352
73.31867 326
73.33878 415
73.35889 403
73.37901 438
73.39912 461
73.41923 430
73.43935 447
73.45946 398
73.47957 367
73.49969 348
73.5198 368
73.53992 295
73.56003 334
73.58014 323
73.60026 335
73.62037 327
73.64048 361
73.6606 354
73.68071 326
73.70083 278
73.72094 251
73.74105 259
73.76117 260
73.78128 238
73.80139 239
73.82151 222
73.84162 240
73.86174 226
73.88185 225
73.90196 228
73.92208 207
73.94219 242
73.9623 223
73.98242 237
74.00253 220
74.02264 218
74.04276 229
74.06287 221
74.08299 200
74.1031 220
74.12321 246
74.14333 209
74.16344 235
74.18355 210
74.20367 212
74.22378 214
74.2439 211
74.26401 209
74.28412 226
74.30424 226
74.32435 212
74.34446 195
74.36458 209
74.38469 218
74.40481 216
74.42492 206
74.44503 224
74.46515 213
74.48526 199
74.50537 211
74.52549 228
74.5456 211
74.56571 207
74.58583 236
74.60594 198
74.62606 219
74.64617 234
74.66628 218
74.6864 235
74.70651 220
74.72662 231
74.74674 234
74.76685 217
74.78697 217
74.80708 197
74.82719 223
74.84731 181
74.86742 228
74.88753 223
74.90765 227
74.92776 205
74.94787 233
74.96799 203
74.9881 209
75.00822 205
