3.00117 19016
3.02128 18482
3.0414 18412
3.06151 17751
3.08162 16976
3.10174 16620
3.12185 16653
3.14197 15754
3.16208 15295
3.18219 14884
3.20231 14390
3.22242 14090
3.24253 13767
3.26265 13252
3.28276 12837
3.30288 12350
3.32299 12142
3.3431 11619
3.36322 11449
3.38333 10832
3.40344 10497
3.42356 10204
3.44367 9658
3.46379 9538
3.4839 9243
3.50401 8885
3.52413 8604
3.54424 8317
3.56435 8036
3.58447 7673
3.60458 7418
3.62469 7135
3.64481 6628
3.66492 6481
3.68504 6267
3.70515 5943
3.72526 5876
3.74538 5475
3.76549 5352
3.7856 5222
3.80572 4810
3.82583 4887
3.84595 4587
3.86606 4340
3.88617 4073
3.90629 3883
3.9264 3851
3.94651 3616
3.96663 3556
3.98674 3185
4.00686 3126
4.02697 3072
4.04708 2884
4.0672 2760
4.08731 2710
4.10742 2461
4.12754 2355
4.14765 2279
4.16776 2160
4.18788 2193
4.20799 2016
4.22811 1952
4.24822 2010
4.26833 1724
4.28845 1705
4.30856 1652
4.32867 1736
4.34879 1597
4.3689 1438
4.38902 1500
4.40913 1433
4.42924 1500
4.44936 1360
4.46947 1253
4.48958 1361
4.5097 1202
4.52981 1253
4.54992 1233
4.57004 1183
4.59015 1121
4.61027 1126
4.63038 1088
4.65049 1076
4.67061 986
4.69072 912
4.71083 973
4.73095 941
4.75106 1003
4.77118 864
4.79129 859
4.8114 852
4.83152 836
4.85163 794
4.87174 772
4.89186 764
4.91197 784
4.93209 783
4.9522 799
4.97231 698
4.99243 654
5.01254 625
5.03265 668
5.05277 604
5.07288 577
5.09299 582
5.11311 582
5.13322 549
5.15334 575
5.17345 516
5.19356 539
5.21368 545
5.23379 526
5.2539 486
5.27402 462
5.29413 467
5.31425 470
5.33436 434
5.35447 459
5.37459 423
5.3947 424
5.41481 442
5.43493 390
5.45504 408
5.47516 406
5.49527 354
5.51538 364
5.5355 328
5.55561 378
5.57572 309
5.59584 330
5.61595 306
5.63606 321
5.65618 325
5.67629 321
5.69641 310
5.71652 331
5.73663 314
5.75675 283
5.77686 274
5.79697 238
5.81709 279
5.8372 291
5.85732 251
5.87743 230
5.89754 257
5.91766 266
5.93777 273
5.95788 274
5.978 237
5.99811 248
6.01823 257
6.03834 237
6.05845 269
6.07857 256
6.09868 224
6.11879 245
6.13891 236
6.15902 253
6.17913 197
6.19925 218
6.21936 196
6.23948 224
6.25959 217
6.2797 232
6.29982 202
6.31993 226
6.34004 219
6.36016 221
6.38027 212
6.40039 205
6.4205 188
6.44061 223
6.46073 197
6.48084 223
6.50095 199
6.52107 186
6.54118 226
6.56129 181
6.58141 184
6.60152 212
6.62164 194
6.64175 198
6.66186 196
6.68198 181
6.70209 232
6.7222 196
6.74232 221
6.76243 197
6.78255 182
6.80266 184
6.82277 178
6.84289 211
6.863 167
6.88311 191
6.90323 204
6.92334 199
6.94346 185
6.96357 173
6.98368 183
7.0038 216
7.02391 206
7.04402 210
7.06414 197
7.08425 211
7.10436 159
7.12448 189
7.14459 190
7.16471 186
7.18482 198
7.20493 199
7.22505 210
7.24516 185
7.26527 182
7.28539 218
7.3055 182
7.32562 190
7.34573 202
7.36584 215
7.38596 214
7.40607 184
7.42618 190
7.4463 201
7.46641 184
7.48653 198
7.50664 197
7.52675 193
7.54687 177
7.56698 200
7.58709 209
7.60721 177
7.62732 188
7.64743 189
7.66755 197
7.68766 171
7.70778 192
7.72789 202
7.748 200
7.76812 191
7.78823 202
7.80834 208
7.82846 198
7.84857 207
7.86869 180
7.8888 189
7.90891 190
7.92903 207
7.94914 229
7.96925 204
7.98937 209
8.00948 221
8.0296 199
8.04971 225
8.06982 225
8.08994 221
8.11005 203
8.13016 190
8.15028 189
8.17039 225
8.1905 207
8.21062 212
8.23073 200
8.25085 208
8.27096 191
8.29107 176
8.31119 190
8.3313 231
8.35141 215
8.37153 206
8.39164 182
8.41176 222
8.43187 205
8.45198 205
8.4721 254
8.49221 212
8.51232 237
8.53244 229
8.55255 197
8.57266 212
8.59278 200
8.61289 219
8.63301 204
8.65312 249
8.67323 225
8.69335 236
8.71346 240
8.73357 223
8.75369 221
8.7738 237
8.79392 220
8.81403 226
8.83414 245
8.85426 253
8.87437 224
8.89448 249
8.9146 226
8.93471 214
8.95483 235
8.97494 218
8.99505 240
9.01517 226
9.03528 242
9.05539 206
9.07551 205
9.09562 211
9.11573 183
9.13585 221
9.15596 206
9.17608 201
9.19619 187
9.2163 216
9.23642 216
9.25653 194
9.27664 224
9.29676 205
9.31687 252
9.33699 207
9.3571 223
9.37721 216
9.39733 209
9.41744 213
9.43755 213
9.45767 218
9.47778 216
9.4979 214
9.51801 190
9.53812 220
9.55824 200
9.57835 231
9.59846 223
9.61858 228
9.63869 189
9.6588 211
9.67892 206
9.69903 199
9.71915 197
9.73926 192
9.75937 252
9.77949 210
9.7996 238
9.81971 211
9.83983 227
9.85994 211
9.88006 224
9.90017 220
9.92028 214
9.9404 210
9.96051 214
9.98062 226
10.00074 228
10.02085 241
10.04097 219
10.06108 209
10.08119 196
10.10131 217
10.12142 231
10.14153 223
10.16165 197
10.18176 203
10.20187 210
10.22199 205
10.2421 219
10.26222 209
10.28233 190
10.30244 194
10.32256 210
10.34267 218
10.36278 238
10.3829 213
10.40301 224
10.42313 225
10.44324 223
10.46335 227
10.48347 235
10.50358 216
10.52369 234
10.54381 216
10.56392 198
10.58403 219
10.60415 200
10.62426 202
10.64438 180
10.66449 228
10.6846 207
10.70472 215
10.72483 211
10.74494 227
10.76506 244
10.78517 198
10.80529 218
10.8254 202
10.84551 204
10.86563 217
10.88574 212
10.90585 236
10.92597 214
10.94608 235
10.9662 229
10.98631 213
11.00642 226
11.02654 260
11.04665 218
11.06676 216
11.08688 223
11.10699 220
11.1271 214
11.14722 232
11.16733 228
11.18745 233
11.20756 223
11.22767 232
11.24779 209
11.2679 224
11.28801 190
11.30813 218
11.32824 213
11.34836 191
11.36847 196
11.38858 232
11.4087 208
11.42881 235
11.44892 185
11.46904 228
11.48915 234
11.50927 239
11.52938 199
11.54949 210
11.56961 214
11.58972 228
11.60983 238
11.62995 246
11.65006 224
11.67017 239
11.69029 221
11.7104 217
11.73052 220
11.75063 233
11.77074 245
11.79086 222
11.81097 220
11.83108 181
11.8512 231
11.87131 195
11.89143 189
11.91154 213
11.93165 204
11.95177 239
11.97188 232
11.99199 233
12.01211 230
12.03222 237
12.05234 247
12.07245 222
12.09256 224
12.11268 225
12.13279 239
12.1529 235
12.17302 202
12.19313 202
12.21324 227
12.23336 221
12.25347 207
12.27359 211
12.2937 199
12.31381 226
12.33393 248
12.35404 239
12.37415 228
12.39427 202
12.41438 214
12.4345 238
12.45461 225
12.47472 225
12.49484 205
12.51495 241
12.53506 214
12.55518 198
12.57529 200
12.5954 212
12.61552 216
12.63563 176
12.65575 218
12.67586 211
12.69597 215
12.71609 200
12.7362 171
12.75631 211
12.77643 198
12.79654 214
12.81666 191
12.83677 211
12.85688 197
12.877 195
12.89711 199
12.91722 224
12.93734 194
12.95745 190
12.97757 213
12.99768 201
13.01779 218
13.03791 223
13.05802 240
13.07813 206
13.09825 240
13.11836 220
13.13847 185
13.15859 201
13.1787 205
13.19882 212
13.21893 209
13.23904 203
13.25916 161
13.27927 229
13.29938 189
13.3195 179
13.33961 221
13.35973 229
13.37984 194
13.39995 199
13.42007 216
13.44018 220
13.46029 203
13.48041 175
13.50052 182
13.52064 181
13.54075 234
13.56086 204
13.58098 230
13.60109 220
13.6212 246
13.64132 232
13.66143 228
13.68154 232
13.70166 250
13.72177 180
13.74189 213
13.762 213
13.78211 225
13.80223 210
13.82234 220
13.84245 209
13.86257 229
13.88268 215
13.9028 215
13.92291 185
13.94302 175
13.96314 181
13.98325 193
14.00336 179
14.02348 184
14.04359 168
14.06371 190
14.08382 176
14.10393 172
14.12405 189
14.14416 175
14.16427 159
14.18439 195
14.2045 157
14.22461 197
14.24473 176
14.26484 229
14.28496 216
14.30507 168
14.32518 178
14.3453 173
14.36541 180
14.38552 144
14.40564 184
14.42575 191
14.44587 183
14.46598 201
14.48609 181
14.50621 184
14.52632 176
14.54643 190
14.56655 161
14.58666 195
14.60677 161
14.62689 189
14.647 203
14.66712 184
14.68723 184
14.70734 180
14.72746 190
14.74757 157
14.76768 205
14.7878 195
14.80791 195
14.82803 179
14.84814 217
14.86825 223
14.88837 213
14.90848 188
14.92859 217
14.94871 200
14.96882 204
14.98894 189
15.00905 171
15.02916 191
15.04928 186
15.06939 185
15.0895 191
15.10962 205
15.12973 181
15.14984 194
15.16996 199
15.19007 178
15.21019 191
15.2303 165
15.25041 199
15.27053 177
15.29064 187
15.31075 178
15.33087 191
15.35098 177
15.3711 157
15.39121 174
15.41132 201
15.43144 203
15.45155 145
15.47166 200
15.49178 158
15.51189 191
15.53201 201
15.55212 187
15.57223 189
15.59235 190
15.61246 174
15.63257 175
15.65269 169
15.6728 177
15.69291 196
15.71303 189
15.73314 193
15.75326 173
15.77337 184
15.79348 178
15.8136 176
15.83371 175
15.85382 146
15.87394 164
15.89405 181
15.91417 171
15.93428 177
15.95439 180
15.97451 161
15.99462 169
16.01473 165
16.03485 212
16.05496 176
16.07508 188
16.09519 154
16.1153 155
16.13542 172
16.15553 169
16.17564 159
16.19576 181
16.21587 160
16.23598 166
16.2561 174
16.27621 159
16.29633 157
16.31644 170
16.33655 175
16.35667 173
16.37678 174
16.39689 168
16.41701 160
16.43712 157
16.45724 147
16.47735 159
16.49746 159
16.51758 150
16.53769 175
16.5578 178
16.57792 160
16.59803 156
16.61814 163
16.63826 167
16.65837 169
16.67849 162
16.6986 189
16.71871 158
16.73883 176
16.75894 139
16.77905 173
16.79917 164
16.81928 146
16.8394 182
16.85951 147
16.87962 174
16.89974 157
16.91985 156
16.93996 177
16.96008 165
16.98019 171
17.00031 170
17.02042 166
17.04053 170
17.06065 157
17.08076 153
17.10087 172
17.12099 168
17.1411 139
17.16121 179
17.18133 155
17.20144 170
17.22156 166
17.24167 178
17.26178 172
17.2819 178
17.30201 172
17.32212 159
17.34224 148
17.36235 163
17.38247 134
17.40258 158
17.42269 179
17.44281 169
17.46292 171
17.48303 154
17.50315 160
17.52326 150
17.54338 177
17.56349 179
17.5836 151
17.60372 178
17.62383 168
17.64394 169
17.66406 191
17.68417 156
17.70428 181
17.7244 151
17.74451 175
17.76463 166
17.78474 154
17.80485 179
17.82497 167
17.84508 178
17.86519 161
17.88531 158
17.90542 146
17.92554 157
17.94565 172
17.96576 174
17.98588 182
18.00599 146
18.0261 172
18.04622 157
18.06633 175
18.08645 174
18.10656 160
18.12667 177
18.14679 204
18.1669 146
18.18701 191
18.20713 172
18.22724 150
18.24735 188
18.26747 180
18.28758 152
18.3077 156
18.32781 162
18.34792 150
18.36804 162
18.38815 174
18.40826 156
18.42838 159
18.44849 179
18.46861 183
18.48872 180
18.50883 164
18.52895 160
18.54906 175
18.56917 152
18.58929 150
18.6094 157
18.62951 181
18.64963 156
18.66974 182
18.68986 166
18.70997 148
18.73008 183
18.7502 168
18.77031 193
18.79042 142
18.81054 168
18.83065 174
18.85077 183
18.87088 174
18.89099 160
18.91111 184
18.93122 179
18.95133 142
18.97145 164
18.99156 172
19.01168 179
19.03179 163
19.0519 159
19.07202 166
19.09213 171
19.11224 164
19.13236 189
19.15247 162
19.17258 165
19.1927 191
19.21281 183
19.23293 192
19.25304 222
19.27315 193
19.29327 197
19.31338 202
19.33349 148
19.35361 171
19.37372 173
19.39384 187
19.41395 198
19.43406 193
19.45418 192
19.47429 215
19.4944 217
19.51452 190
19.53463 199
19.55475 212
19.57486 182
19.59497 185
19.61509 188
19.6352 196
19.65531 192
19.67543 196
19.69554 231
19.71565 203
19.73577 213
19.75588 221
19.776 239
19.79611 244
19.81622 256
19.83634 270
19.85645 240
19.87656 234
19.89668 246
19.91679 209
19.93691 268
19.95702 227
19.97713 218
19.99725 246
20.01736 245
20.03747 219
20.05759 218
20.0777 230
20.09782 212
20.11793 255
20.13804 255
20.15816 245
20.17827 268
20.19838 268
20.2185 281
20.23861 263
20.25872 268
20.27884 276
20.29895 286
20.31907 315
20.33918 278
20.35929 345
20.37941 321
20.39952 323
20.41963 364
20.43975 342
20.45986 388
20.47998 432
20.50009 404
20.5202 452
20.54032 578
20.56043 686
20.58054 766
20.60066 994
20.62077 1192
20.64088 1452
20.661 1822
20.68111 2203
20.70123 2695
20.72134 3359
20.74145 3851
20.76157 4425
20.78168 4838
20.80179 5109
20.82191 5116
20.84202 4789
20.86214 4151
20.88225 3505
20.90236 2706
20.92248 2018
20.94259 1503
20.9627 1132
20.98282 911
21.00293 687
21.02305 585
21.04316 545
21.06327 455
21.08339 432
21.1035 377
21.12361 360
21.14373 343
21.16384 272
21.18395 277
21.20407 277
21.22418 290
21.2443 265
21.26441 256
21.28452 230
21.30464 270
21.32475 257
21.34486 234
21.36498 279
21.38509 239
21.40521 234
21.42532 208
21.44543 239
21.46555 267
21.48566 230
21.50577 223
21.52589 237
21.546 211
21.56612 207
21.58623 219
21.60634 231
21.62646 228
21.64657 226
21.66668 225
21.6868 238
21.70691 239
21.72702 208
21.74714 254
21.76725 248
21.78737 246
21.80748 281
21.82759 265
21.84771 297
21.86782 323
21.88793 299
21.90805 329
21.92816 342
21.94828 330
21.96839 341
21.9885 355
22.00862 322
22.02873 289
22.04884 272
22.06896 297
22.08907 264
22.10919 240
22.1293 246
22.14941 249
22.16953 221
22.18964 247
22.20975 251
22.22987 282
22.24998 238
22.27009 259
22.29021 260
22.31032 270
22.33044 223
22.35055 230
22.37066 213
22.39078 218
22.41089 202
22.431 224
22.45112 204
22.47123 213
22.49135 248
22.51146 227
22.53157 224
22.55169 220
22.5718 211
22.59191 198
22.61203 220
22.63214 220
22.65225 212
22.67237 249
22.69248 206
22.7126 213
22.73271 224
22.75282 203
22.77294 212
22.79305 237
22.81316 240
22.83328 248
22.85339 262
22.87351 267
22.89362 227
22.91373 243
22.93385 247
22.95396 256
22.97407 234
22.99419 265
23.0143 282
23.03442 286
23.05453 296
23.07464 309
23.09476 326
23.11487 304
23.13498 262
23.1551 295
23.17521 298
23.19532 309
23.21544 313
23.23555 281
23.25567 250
23.27578 229
23.29589 238
23.31601 236
23.33612 232
23.35623 232
23.37635 208
23.39646 256
23.41658 246
23.43669 243
23.4568 242
23.47692 245
23.49703 216
23.51714 269
23.53726 262
23.55737 260
23.57749 267
23.5976 269
23.61771 234
23.63783 276
23.65794 296
23.67805 272
23.69817 235
23.71828 252
23.73839 261
23.75851 284
23.77862 274
23.79874 295
23.81885 317
23.83896 322
23.85908 337
23.87919 371
23.8993 379
23.91942 428
23.93953 353
23.95965 382
23.97976 411
23.99987 395
24.01999 339
24.0401 329
24.06021 291
24.08033 258
24.10044 287
24.12056 253
24.14067 275
24.16078 304
24.1809 252
24.20101 310
24.22112 299
24.24124 269
24.26135 265
24.28146 283
24.30158 276
24.32169 280
24.34181 264
24.36192 307
24.38203 264
24.40215 212
24.42226 241
24.44237 218
24.46249 261
24.4826 232
24.50272 229
24.52283 222
24.54294 208
24.56306 230
24.58317 243
24.60328 223
24.6234 262
24.64351 266
24.66362 262
24.68374 250
24.70385 233
24.72397 230
24.74408 244
24.76419 237
24.78431 233
24.80442 231
24.82453 227
24.84465 219
24.86476 199
24.88488 217
24.90499 237
24.9251 270
24.94522 213
24.96533 240
24.98544 199
25.00556 206
25.02567 205
25.04579 224
25.0659 246
25.08601 257
25.10613 215
25.12624 214
25.14635 236
25.16647 225
25.18658 216
25.20669 219
25.22681 267
25.24692 232
25.26704 226
25.28715 258
25.30726 269
25.32738 280
25.34749 294
25.3676 304
25.38772 306
25.40783 343
25.42795 372
25.44806 355
25.46817 379
25.48829 413
25.5084 438
25.52851 465
25.54863 429
25.56874 427
25.58886 430
25.60897 432
25.62908 430
25.6492 450
25.66931 376
25.68942 416
25.70954 429
25.72965 449
25.74976 447
25.76988 444
25.78999 434
25.81011 448
25.83022 474
25.85033 446
25.87045 438
25.89056 430
25.91067 491
25.93079 471
25.9509 512
25.97102 541
25.99113 504
26.01124 567
26.03136 609
26.05147 646
26.07158 666
26.0917 696
26.11181 753
26.13193 774
26.15204 849
26.17215 982
26.19227 1079
26.21238 1233
26.23249 1371
26.25261 1548
26.27272 1932
26.29283 2187
26.31295 2693
26.33306 3308
26.35318 3860
26.37329 4870
26.3934 6119
26.41352 7582
26.43363 9347
26.45374 11091
26.47386 13577
26.49397 15990
26.51409 18075
26.5342 20436
26.55431 21399
26.57443 22409
26.59454 22158
26.61465 21008
26.63477 18930
26.65488 16059
26.67499 12582
26.69511 9447
26.71522 6837
26.73534 4973
26.75545 3270
26.77556 2378
26.79568 1776
26.81579 1432
26.8359 1334
26.85602 1151
26.87613 1097
26.89625 956
26.91636 924
26.93647 866
26.95659 872
26.9767 767
26.99681 740
27.01693 773
27.03704 673
27.05716 706
27.07727 725
27.09738 595
27.1175 608
27.13761 610
27.15772 593
27.17784 596
27.19795 582
27.21806 581
27.23818 619
27.25829 673
27.27841 623
27.29852 712
27.31863 714
27.33875 747
27.35886 763
27.37897 731
27.39909 796
27.4192 755
27.43932 728
27.45943 719
27.47954 700
27.49966 638
27.51977 607
27.53988 533
27.56 537
27.58011 433
27.60023 459
27.62034 460
27.64045 509
27.66057 503
27.68068 489
27.70079 496
27.72091 575
27.74102 521
27.76113 595
27.78125 563
27.80136 579
27.82148 530
27.84159 520
27.8617 500
27.88182 512
27.90193 493
27.92204 467
27.94216 512
27.96227 453
27.98239 453
28.0025 401
28.02261 369
28.04273 355
28.06284 339
28.08295 316
28.10307 325
28.12318 316
28.1433 325
28.16341 311
28.18352 316
28.20364 322
28.22375 290
28.24386 296
28.26398 300
28.28409 276
28.3042 281
28.32432 265
28.34443 282
28.36455 243
28.38466 277
28.40477 267
28.42489 226
28.445 254
28.46511 250
28.48523 243
28.50534 210
28.52546 224
28.54557 243
28.56568 226
28.5858 255
28.60591 258
28.62602 237
28.64614 241
28.66625 229
28.68636 263
28.70648 225
28.72659 249
28.74671 230
28.76682 242
28.78693 245
28.80705 240
28.82716 221
28.84727 241
28.86739 230
28.8875 232
28.90762 251
28.92773 227
28.94784 227
28.96796 202
28.98807 217
29.00818 229
29.0283 219
29.04841 225
29.06853 240
29.08864 221
29.10875 209
29.12887 232
29.14898 222
29.16909 241
29.18921 222
29.20932 232
29.22943 229
29.24955 247
29.26966 249
29.28978 273
29.30989 261
29.33 247
29.35012 279
29.37023 265
29.39034 275
29.41046 294
29.43057 274
29.45069 278
29.4708 267
29.49091 269
29.51103 224
29.53114 272
29.55125 229
29.57137 252
29.59148 232
29.6116 226
29.63171 230
29.65182 233
29.67194 222
29.69205 240
29.71216 248
29.73228 251
29.75239 258
29.7725 246
29.79262 237
29.81273 232
29.83285 248
29.85296 279
29.87307 254
29.89319 245
29.9133 263
29.93341 268
29.95353 251
29.97364 231
29.99376 239
30.01387 255
30.03398 270
30.0541 267
30.07421 268
30.09432 291
30.11444 300
30.13455 325
30.15467 296
30.17478 300
30.19489 328
30.21501 293
30.23512 291
30.25523 277
30.27535 305
30.29546 304
30.31557 277
30.33569 290
30.3558 265
30.37592 279
30.39603 252
30.41614 232
30.43626 218
30.45637 248
30.47648 262
30.4966 259
30.51671 257
30.53683 243
30.55694 251
30.57705 239
30.59717 225
30.61728 247
30.63739 282
30.65751 276
30.67762 316
30.69773 304
30.71785 300
30.73796 265
30.75808 288
30.77819 266
30.7983 253
30.81842 278
30.83853 234
30.85864 227
30.87876 221
30.89887 241
30.91899 212
30.9391 238
30.95921 203
30.97933 208
30.99944 194
31.01955 198
31.03967 199
31.05978 214
31.0799 187
31.10001 194
31.12012 211
31.14024 188
31.16035 193
31.18046 224
31.20058 200
31.22069 193
31.2408 188
31.26092 193
31.28103 192
31.30115 198
31.32126 233
31.34137 177
31.36149 201
31.3816 203
31.40171 183
31.42183 169
31.44194 210
31.46206 217
31.48217 169
31.50228 174
31.5224 160
31.54251 194
31.56262 191
31.58274 190
31.60285 170
31.62297 192
31.64308 196
31.66319 169
31.68331 202
31.70342 172
31.72353 163
31.74365 163
31.76376 172
31.78387 175
31.80399 174
31.8241 175
31.84422 197
31.86433 189
31.88444 162
31.90456 157
31.92467 166
31.94478 152
31.9649 192
31.98501 214
32.00513 209
32.02524 211
32.04535 205
32.06547 190
32.08558 164
32.10569 204
32.12581 181
32.14592 164
32.16604 165
32.18615 191
32.20626 187
32.22638 185
32.24649 194
32.2666 200
32.28672 180
32.30683 183
32.32694 186
32.34706 185
32.36717 203
32.38729 190
32.4074 169
32.42751 190
32.44763 187
32.46774 169
32.48785 183
32.50797 212
32.52808 155
32.5482 179
32.56831 180
32.58842 159
32.60854 157
32.62865 163
32.64876 153
32.66888 151
32.68899 162
32.7091 167
32.72922 176
32.74933 161
32.76945 147
32.78956 170
32.80967 164
32.82979 168
32.8499 160
32.87001 166
32.89013 147
32.91024 151
32.93036 160
32.95047 179
32.97058 143
32.9907 166
33.01081 158
33.03092 150
33.05104 160
33.07115 149
33.09127 141
33.11138 137
33.13149 160
33.15161 138
33.17172 156
33.19183 164
33.21195 142
33.23206 143
33.25217 171
33.27229 167
33.2924 175
33.31252 155
33.33263 154
33.35274 153
33.37286 151
33.39297 166
33.41308 144
33.4332 127
33.45331 164
33.47343 156
33.49354 146
33.51365 172
33.53377 155
33.55388 165
33.57399 183
33.59411 163
33.61422 143
33.63434 195
33.65445 169
33.67456 160
33.69468 167
33.71479 149
33.7349 172
33.75502 174
33.77513 173
33.79524 181
33.81536 174
33.83547 162
33.85559 174
33.8757 179
33.89581 190
33.91593 192
33.93604 185
33.95615 195
33.97627 213
33.99638 176
34.0165 178
34.03661 179
34.05672 200
34.07684 205
34.09695 228
34.11706 193
34.13718 249
34.15729 215
34.17741 198
34.19752 206
34.21763 206
34.23775 236
34.25786 220
34.27797 200
34.29809 193
34.3182 204
34.33831 220
34.35843 178
34.37854 195
34.39866 208
34.41877 190
34.43888 210
34.459 187
34.47911 188
34.49922 220
34.51934 231
34.53945 205
34.55957 220
34.57968 186
34.59979 203
34.61991 190
34.64002 195
34.66013 200
34.68025 209
34.70036 235
34.72047 217
34.74059 207
34.7607 205
34.78082 200
34.80093 206
34.82104 223
34.84116 210
34.86127 219
34.88138 201
34.9015 204
34.92161 182
34.94173 258
34.96184 227
34.98195 214
35.00207 208
35.02218 211
35.04229 211
35.06241 196
35.08252 216
35.10264 232
35.12275 202
35.14286 214
35.16298 218
35.18309 203
35.2032 222
35.22332 211
35.24343 187
35.26354 224
35.28366 210
35.30377 258
35.32389 248
35.344 204
35.36411 244
35.38423 229
35.40434 218
35.42445 231
35.44457 258
35.46468 238
35.4848 270
35.50491 225
35.52502 232
35.54514 230
35.56525 228
35.58536 242
35.60548 227
35.62559 221
35.64571 228
35.66582 232
35.68593 195
35.70605 195
35.72616 187
35.74627 186
35.76639 201
35.7865 184
35.80661 191
35.82673 200
35.84684 202
35.86696 196
35.88707 206
35.90718 213
35.9273 235
35.94741 227
35.96752 196
35.98764 233
36.00775 232
36.02787 217
36.04798 230
36.06809 238
36.08821 271
36.10832 278
36.12843 280
36.14855 308
36.16866 346
36.18878 352
36.20889 408
36.229 437
36.24912 511
36.26923 567
36.28934 635
36.30946 703
36.32957 842
36.34968 1004
36.3698 1107
36.38991 1297
36.41003 1449
36.43014 1478
36.45025 1562
36.47037 1607
36.49048 1612
36.51059 1481
36.53071 1407
36.55082 1247
36.57094 1078
36.59105 928
36.61116 738
36.63128 597
36.65139 484
36.6715 440
36.69162 307
36.71173 288
36.73184 261
36.75196 261
36.77207 284
36.79219 245
36.8123 266
36.83241 222
36.85253 218
36.87264 235
36.89275 234
36.91287 219
36.93298 228
36.9531 222
36.97321 238
36.99332 204
37.01344 204
37.03355 214
37.05366 183
37.07378 183
37.09389 187
37.11401 172
37.13412 165
37.15423 172
37.17435 177
37.19446 185
37.21457 180
37.23469 169
37.2548 189
37.27491 175
37.29503 178
37.31514 186
37.33526 153
37.35537 196
37.37548 186
37.3956 190
37.41571 172
37.43582 195
37.45594 167
37.47605 177
37.49617 174
37.51628 184
37.53639 186
37.55651 176
37.57662 185
37.59673 175
37.61685 177
37.63696 165
37.65708 190
37.67719 157
37.6973 191
37.71742 186
37.73753 173
37.75764 177
37.77776 191
37.79787 176
37.81798 156
37.8381 178
37.85821 167
37.87833 176
37.89844 192
37.91855 170
37.93867 146
37.95878 156
37.97889 179
37.99901 156
38.01912 143
38.03924 182
38.05935 167
38.07946 163
38.09958 171
38.11969 175
38.1398 176
38.15992 151
38.18003 159
38.20015 154
38.22026 188
38.24037 197
38.26049 162
38.2806 188
38.30071 180
38.32083 173
38.34094 191
38.36105 171
38.38117 190
38.40128 172
38.4214 188
38.44151 186
38.46162 221
38.48174 181
38.50185 188
38.52196 184
38.54208 194
38.56219 183
38.58231 155
38.60242 178
38.62253 197
38.64265 173
38.66276 184
38.68287 185
38.70299 186
38.7231 171
38.74321 188
38.76333 181
38.78344 202
38.80356 175
38.82367 197
38.84378 213
38.8639 190
38.88401 210
38.90412 189
38.92424 208
38.94435 221
38.96447 215
38.98458 225
39.00469 242
39.02481 285
39.04492 281
39.06503 319
39.08515 317
39.10526 402
39.12538 388
39.14549 448
39.1656 494
39.18572 514
39.20583 680
39.22594 711
39.24606 862
39.26617 941
39.28628 1021
39.3064 1247
39.32651 1270
39.34663 1412
39.36674 1518
39.38685 1435
39.40697 1570
39.42708 1504
39.44719 1397
39.46731 1274
39.48742 1113
39.50754 861
39.52765 791
39.54776 659
39.56788 551
39.58799 486
39.6081 363
39.62822 335
39.64833 288
39.66845 218
39.68856 248
39.70867 226
39.72879 251
39.7489 204
39.76901 202
39.78913 218
39.80924 239
39.82935 221
39.84947 237
39.86958 257
39.8897 253
39.90981 254
39.92992 286
39.95004 275
39.97015 294
39.99026 331
40.01038 356
40.03049 410
40.05061 408
40.07072 516
40.09083 562
40.11095 573
40.13106 654
40.15117 719
40.17129 794
40.1914 777
40.21152 863
40.23163 805
40.25174 794
40.27186 775
40.29197 645
40.31208 618
40.3322 551
40.35231 448
40.37242 390
40.39254 385
40.41265 289
40.43277 250
40.45288 244
40.47299 189
40.49311 196
40.51322 186
40.53333 216
40.55345 189
40.57356 173
40.59368 217
40.61379 197
40.6339 185
40.65402 178
40.67413 167
40.69424 170
40.71436 183
40.73447 178
40.75458 159
40.7747 187
40.79481 166
40.81493 170
40.83504 173
40.85515 156
40.87527 176
40.89538 185
40.91549 175
40.93561 168
40.95572 152
40.97584 169
40.99595 164
41.01606 188
41.03618 170
41.05629 166
41.0764 170
41.09652 149
41.11663 192
41.13675 155
41.15686 170
41.17697 178
41.19709 175
41.2172 184
41.23731 164
41.25743 195
41.27754 165
41.29765 174
41.31777 180
41.33788 174
41.358 207
41.37811 177
41.39822 185
41.41834 162
41.43845 168
41.45856 209
41.47868 168
41.49879 194
41.51891 209
41.53902 202
41.55913 224
41.57925 223
41.59936 244
41.61947 229
41.63959 224
41.6597 244
41.67982 267
41.69993 282
41.72004 281
41.74016 277
41.76027 259
41.78038 272
41.8005 236
41.82061 241
41.84072 233
41.86084 235
41.88095 229
41.90107 243
41.92118 247
41.94129 225
41.96141 207
41.98152 227
42.00163 267
42.02175 229
42.04186 260
42.06198 296
42.08209 313
42.1022 301
42.12232 382
42.14243 392
42.16254 426
42.18266 510
42.20277 578
42.22289 629
42.243 692
42.26311 812
42.28323 878
42.30334 936
42.32345 1061
42.34357 1055
42.36368 1088
42.38379 1184
42.40391 1133
42.42402 1017
42.44414 966
42.46425 836
42.48436 714
42.50448 677
42.52459 540
42.5447 542
42.56482 404
42.58493 352
42.60505 287
42.62516 269
42.64527 251
42.66539 213
42.6855 234
42.70561 214
42.72573 202
42.74584 218
42.76595 188
42.78607 209
42.80618 175
42.8263 172
42.84641 180
42.86652 181
42.88664 190
42.90675 190
42.92686 161
42.94698 184
42.96709 189
42.98721 171
43.00732 182
43.02743 162
43.04755 158
43.06766 175
43.08777 165
43.10789 160
43.128 162
43.14812 146
43.16823 170
43.18834 144
43.20846 160
43.22857 169
43.24868 159
43.2688 156
43.28891 149
43.30902 144
43.32914 166
43.34925 142
43.36937 168
43.38948 158
43.40959 171
43.42971 139
43.44982 152
43.46993 159
43.49005 150
43.51016 154
43.53028 146
43.55039 168
43.5705 155
43.59062 136
43.61073 168
43.63084 161
43.65096 174
43.67107 151
43.69119 150
43.7113 158
43.73141 165
43.75153 166
43.77164 182
43.79175 150
43.81187 161
43.83198 146
43.85209 135
43.87221 146
43.89232 164
43.91244 159
43.93255 160
43.95266 149
43.97278 139
43.99289 148
44.013 139
44.03312 141
44.05323 160
44.07335 157
44.09346 158
44.11357 142
44.13369 164
44.1538 155
44.17391 146
44.19403 169
44.21414 158
44.23426 158
44.25437 144
44.27448 157
44.2946 134
44.31471 141
44.33482 171
44.35494 165
44.37505 149
44.39516 167
44.41528 168
44.43539 139
44.45551 152
44.47562 144
44.49573 168
44.51585 170
44.53596 130
44.55607 176
44.57619 156
44.5963 175
44.61642 143
44.63653 168
44.65664 162
44.67676 164
44.69687 161
44.71698 162
44.7371 140
44.75721 151
44.77732 161
44.79744 166
44.81755 177
44.83767 160
44.85778 169
44.87789 159
44.89801 161
44.91812 163
44.93823 150
44.95835 172
44.97846 160
44.99858 174
45.01869 158
45.0388 168
45.05892 180
45.07903 180
45.09914 170
45.11926 182
45.13937 172
45.15949 166
45.1796 185
45.19971 183
45.21983 181
45.23994 178
45.26005 194
45.28017 200
45.30028 203
45.32039 209
45.34051 191
45.36062 240
45.38074 248
45.40085 243
45.42096 276
45.44108 312
45.46119 333
45.4813 353
45.50142 353
45.52153 387
45.54165 396
45.56176 470
45.58187 532
45.60199 558
45.6221 565
45.64221 703
45.66233 745
45.68244 776
45.70256 731
45.72267 806
45.74278 772
45.7629 673
45.78301 705
45.80312 634
45.82324 557
45.84335 496
45.86346 425
45.88358 395
45.90369 358
45.92381 329
45.94392 227
45.96403 215
45.98415 201
46.00426 177
46.02437 166
46.04449 168
46.0646 159
46.08472 159
46.10483 166
46.12494 167
46.14506 158
46.16517 195
46.18528 163
46.2054 134
46.22551 130
46.24563 173
46.26574 160
46.28585 150
46.30597 161
46.32608 147
46.34619 179
46.36631 144
46.38642 159
46.40653 148
46.42665 143
46.44676 158
46.46688 148
46.48699 145
46.5071 155
46.52722 147
46.54733 155
46.56744 146
46.58756 138
46.60767 152
46.62779 155
46.6479 147
46.66801 146
46.68813 150
46.70824 164
46.72835 139
46.74847 151
46.76858 153
46.78869 172
46.80881 152
46.82892 128
46.84904 168
46.86915 166
46.88926 162
46.90938 170
46.92949 183
46.9496 154
46.96972 159
46.98983 151
47.00995 158
47.03006 168
47.05017 168
47.07029 166
47.0904 171
47.11051 156
47.13063 141
47.15074 142
47.17086 167
47.19097 149
47.21108 167
47.2312 170
47.25131 159
47.27142 155
47.29154 158
47.31165 141
47.33176 151
47.35188 145
47.37199 160
47.39211 167
47.41222 172
47.43233 177
47.45245 178
47.47256 169
47.49267 148
47.51279 164
47.5329 151
47.55302 168
47.57313 141
47.59324 155
47.61336 147
47.63347 150
47.65358 139
47.6737 147
47.69381 154
47.71393 138
47.73404 148
47.75415 134
47.77427 145
47.79438 130
47.81449 141
47.83461 142
47.85472 136
47.87483 171
47.89495 137
47.91506 158
47.93518 142
47.95529 140
47.9754 138
47.99552 129
48.01563 155
48.03574 162
48.05586 145
48.07597 144
48.09609 156
48.1162 151
48.13631 142
48.15643 154
48.17654 149
48.19665 148
48.21677 140
48.23688 147
48.257 134
48.27711 155
48.29722 155
48.31734 167
48.33745 159
48.35756 149
48.37768 136
48.39779 150
48.4179 136
48.43802 154
48.45813 162
48.47825 152
48.49836 142
48.51847 153
48.53859 137
48.5587 160
48.57881 149
48.59893 163
48.61904 151
48.63916 177
48.65927 146
48.67938 157
48.6995 195
48.71961 156
48.73972 173
48.75984 162
48.77995 173
48.80006 163
48.82018 160
48.84029 194
48.86041 175
48.88052 188
48.90063 183
48.92075 200
48.94086 158
48.96097 180
48.98109 196
49.0012 196
49.02132 194
49.04143 191
49.06154 187
49.08166 200
49.10177 174
49.12188 205
49.142 214
49.16211 189
49.18223 194
49.20234 164
49.22245 177
49.24257 176
49.26268 195
49.28279 185
49.30291 183
49.32302 175
49.34313 149
49.36325 189
49.38336 185
49.40348 199
49.42359 206
49.4437 199
49.46382 198
49.48393 181
49.50404 228
49.52416 242
49.54427 212
49.56439 247
49.5845 267
49.60461 280
49.62473 296
49.64484 331
49.66495 379
49.68507 419
49.70518 418
49.7253 473
49.74541 515
49.76552 567
49.78564 613
49.80575 711
49.82586 817
49.84598 928
49.86609 1061
49.8862 1161
49.90632 1271
49.92643 1446
49.94655 1648
49.96666 1897
49.98677 2026
50.00689 2272
50.027 2446
50.04711 2472
50.06723 2509
50.08734 2411
50.10746 2213
50.12757 2065
50.14768 1894
50.1678 1598
50.18791 1401
50.20802 1350
50.22814 1111
50.24825 969
50.26837 829
50.28848 679
50.30859 542
50.32871 459
50.34882 389
50.36893 356
50.38905 353
50.40916 367
50.42927 363
50.44939 348
50.4695 339
50.48962 355
50.50973 317
50.52984 317
50.54996 309
50.57007 315
50.59018 319
50.6103 278
50.63041 267
50.65053 236
50.67064 238
50.69075 252
50.71087 251
50.73098 244
50.75109 222
50.77121 223
50.79132 213
50.81143 201
50.83155 178
50.85166 202
50.87178 189
50.89189 188
50.912 170
50.93212 183
50.95223 166
50.97234 188
50.99246 154
51.01257 163
51.03269 145
51.0528 159
51.07291 169
51.09303 157
51.11314 182
51.13325 153
51.15337 158
51.17348 147
51.1936 144
51.21371 171
51.23382 155
51.25394 161
51.27405 175
51.29416 161
51.31428 152
51.33439 166
51.3545 166
51.37462 160
51.39473 154
51.41485 164
51.43496 151
51.45507 163
51.47519 148
51.4953 137
51.51541 160
51.53553 158
51.55564 141
51.57576 117
51.59587 141
51.61598 139
51.6361 145
51.65621 138
51.67632 148
51.69644 152
51.71655 156
51.73667 148
51.75678 123
51.77689 143
51.79701 159
51.81712 132
51.83723 157
51.85735 132
51.87746 152
51.89757 141
51.91769 139
51.9378 139
51.95792 149
51.97803 172
51.99814 112
52.01826 149
52.03837 131
52.05848 132
52.0786 135
52.09871 144
52.11883 144
52.13894 136
52.15905 124
52.17917 127
52.19928 142
52.21939 147
52.23951 150
52.25962 140
52.27974 117
52.29985 139
52.31996 132
52.34008 135
52.36019 147
52.3803 158
52.40042 133
52.42053 145
52.44064 180
52.46076 152
52.48087 142
52.50099 164
52.5211 123
52.54121 184
52.56133 155
52.58144 141
52.60155 174
52.62167 164
52.64178 150
52.6619 138
52.68201 153
52.70212 164
52.72224 159
52.74235 165
52.76246 159
52.78258 148
52.80269 140
52.8228 143
52.84292 148
52.86303 146
52.88315 162
52.90326 135
52.92337 153
52.94349 170
52.9636 142
52.98371 153
53.00383 153
53.02394 148
53.04406 163
53.06417 152
53.08428 148
53.1044 140
53.12451 141
53.14462 138
53.16474 159
53.18485 141
53.20497 143
53.22508 147
53.24519 166
53.26531 116
53.28542 155
53.30553 140
53.32565 146
53.34576 151
53.36587 156
53.38599 155
53.4061 138
53.42622 159
53.44633 165
53.46644 135
53.48656 140
53.50667 143
53.52678 133
53.5469 141
53.56701 145
53.58713 147
53.60724 159
53.62735 146
53.64747 140
53.66758 167
53.68769 147
53.70781 143
53.72792 136
53.74804 142
53.76815 138
53.78826 151
53.80838 179
53.82849 149
53.8486 152
53.86872 139
53.88883 186
53.90894 148
53.92906 155
53.94917 164
53.96929 151
53.9894 154
54.00951 157
54.02963 152
54.04974 143
54.06985 164
54.08997 164
54.11008 150
54.1302 148
54.15031 200
54.17042 164
54.19054 172
54.21065 158
54.23076 156
54.25088 194
54.27099 139
54.29111 183
54.31122 177
54.33133 208
54.35145 189
54.37156 218
54.39167 230
54.41179 222
54.4319 257
54.45201 246
54.47213 272
54.49224 260
54.51236 316
54.53247 282
54.55258 341
54.5727 363
54.59281 356
54.61292 431
54.63304 493
54.65315 513
54.67327 592
54.69338 668
54.71349 726
54.73361 784
54.75372 762
54.77383 826
54.79395 846
54.81406 848
54.83417 785
54.85429 711
54.8744 671
54.89452 617
54.91463 559
54.93474 515
54.95486 498
54.97497 461
54.99508 448
55.0152 384
55.03531 382
55.05543 356
55.07554 347
55.09565 325
55.11577 350
55.13588 394
55.15599 402
55.17611 423
55.19622 433
55.21634 466
55.23645 475
55.25656 482
55.27668 464
55.29679 429
55.3169 385
55.33702 352
55.35713 366
55.37724 331
55.39736 320
55.41747 282
55.43759 253
55.4577 235
55.47781 243
55.49793 214
55.51804 201
55.53815 210
55.55827 177
55.57838 172
55.5985 164
55.61861 152
55.63872 156
55.65884 157
55.67895 126
55.69906 140
55.71918 153
55.73929 147
55.75941 152
55.77952 142
55.79963 128
55.81975 146
55.83986 155
55.85997 128
55.88009 138
55.9002 138
55.92031 155
55.94043 140
55.96054 128
55.98066 138
56.00077 126
56.02088 124
56.041 164
56.06111 142
56.08122 131
56.10134 148
56.12145 126
56.14157 123
56.16168 151
56.18179 136
56.20191 129
56.22202 124
56.24213 122
56.26225 138
56.28236 131
56.30248 130
56.32259 143
56.3427 144
56.36282 122
56.38293 129
56.40304 145
56.42316 127
56.44327 135
56.46338 139
56.4835 161
56.50361 146
56.52373 163
56.54384 138
56.56395 126
56.58407 126
56.60418 158
56.62429 143
56.64441 154
56.66452 142
56.68464 159
56.70475 146
56.72486 164
56.74498 132
56.76509 156
56.7852 149
56.80532 150
56.82543 166
56.84554 142
56.86566 149
56.88577 159
56.90589 164
56.926 147
56.94611 168
56.96623 146
56.98634 176
57.00645 159
57.02657 149
57.04668 177
57.0668 164
57.08691 154
57.10702 172
57.12714 185
57.14725 178
57.16736 165
57.18748 160
57.20759 202
57.22771 172
57.24782 151
57.26793 159
57.28805 164
57.30816 137
57.32827 140
57.34839 146
57.3685 153
57.38861 157
57.40873 169
57.42884 169
57.44896 130
57.46907 148
57.48918 129
57.5093 127
57.52941 136
57.54952 171
57.56964 144
57.58975 150
57.60987 139
57.62998 136
57.65009 117
57.67021 138
57.69032 119
57.71043 150
57.73055 148
57.75066 145
57.77078 119
57.79089 143
57.811 117
57.83112 124
57.85123 140
57.87134 131
57.89146 123
57.91157 137
57.93168 140
57.9518 148
57.97191 129
57.99203 155
58.01214 138
58.03225 159
58.05237 147
58.07248 122
58.09259 144
58.11271 120
58.13282 141
58.15294 129
58.17305 144
58.19316 145
58.21328 148
58.23339 134
58.2535 136
58.27362 146
58.29373 153
58.31385 160
58.33396 170
58.35407 153
58.37419 165
58.3943 139
58.41441 173
58.43453 178
58.45464 154
58.47475 155
58.49487 156
58.51498 164
58.5351 140
58.55521 160
58.57532 162
58.59544 160
58.61555 146
58.63566 176
58.65578 154
58.67589 170
58.69601 135
58.71612 135
58.73623 141
58.75635 154
58.77646 148
58.79657 131
58.81669 132
58.8368 168
58.85691 160
58.87703 139
58.89714 144
58.91726 150
58.93737 150
58.95748 163
58.9776 166
58.99771 139
59.01782 127
59.03794 156
59.05805 152
59.07817 156
59.09828 154
59.11839 154
59.13851 169
59.15862 159
59.17873 173
59.19885 182
59.21896 180
59.23908 175
59.25919 174
59.2793 203
59.29942 197
59.31953 199
59.33964 215
59.35976 205
59.37987 210
59.39998 214
59.4201 250
59.44021 271
59.46033 266
59.48044 303
59.50055 291
59.52067 365
59.54078 377
59.56089 418
59.58101 494
59.60112 524
59.62124 568
59.64135 623
59.66146 678
59.68158 783
59.70169 888
59.7218 998
59.74192 1097
59.76203 1235
59.78215 1295
59.80226 1422
59.82237 1435
59.84249 1602
59.8626 1623
59.88271 1646
59.90283 1621
59.92294 1487
59.94305 1326
59.96317 1234
59.98328 1090
60.0034 1011
60.02351 925
60.04362 818
60.06374 791
60.08385 728
60.10396 576
60.12408 470
60.14419 397
60.16431 340
60.18442 262
60.20453 247
60.22465 224
60.24476 229
60.26487 200
60.28499 198
60.3051 216
60.32522 180
60.34533 180
60.36544 190
60.38556 186
60.40567 170
60.42578 168
60.4459 186
60.46601 154
60.48612 166
60.50624 182
60.52635 189
60.54647 123
60.56658 153
60.58669 155
60.60681 166
60.62692 161
60.64703 144
60.66715 149
60.68726 142
60.70738 162
60.72749 152
60.7476 147
60.76772 160
60.78783 168
60.80794 154
60.82806 153
60.84817 183
60.86828 160
60.8884 135
60.90851 144
60.92863 153
60.94874 169
60.96885 163
60.98897 169
61.00908 170
61.02919 172
61.04931 170
61.06942 183
61.08954 176
61.10965 180
61.12976 174
61.14988 153
61.16999 155
61.1901 152
61.21022 160
61.23033 138
61.25045 145
61.27056 138
61.29067 164
61.31079 127
61.3309 145
61.35101 153
61.37113 149
61.39124 154
61.41135 140
61.43147 139
61.45158 127
61.4717 155
61.49181 142
61.51192 132
61.53204 148
61.55215 160
61.57226 144
61.59238 142
61.61249 146
61.63261 135
61.65272 155
61.67283 159
61.69295 161
61.71306 153
61.73317 146
61.75329 145
61.7734 160
61.79352 169
61.81363 132
61.83374 139
61.85386 158
61.87397 161
61.89408 139
61.9142 153
61.93431 165
61.95442 134
61.97454 150
61.99465 152
62.01477 150
62.03488 168
62.05499 147
62.07511 132
62.09522 140
62.11533 154
62.13545 143
62.15556 170
62.17568 136
62.19579 125
62.2159 143
62.23602 133
62.25613 149
62.27624 160
62.29636 150
62.31647 148
62.33659 164
62.3567 153
62.37681 134
62.39693 133
62.41704 149
62.43715 155
62.45727 145
62.47738 142
62.49749 114
62.51761 127
62.53772 151
62.55784 156
62.57795 138
62.59806 143
62.61818 164
62.63829 141
62.6584 137
62.67852 132
62.69863 156
62.71875 159
62.73886 144
62.75897 153
62.77909 159
62.7992 140
62.81931 153
62.83943 144
62.85954 174
62.87965 166
62.89977 146
62.91988 144
62.94 139
62.96011 148
62.98022 158
63.00034 151
63.02045 180
63.04056 175
63.06068 142
63.08079 156
63.10091 159
63.12102 159
63.14113 153
63.16125 149
63.18136 154
63.20147 135
63.22159 169
63.2417 148
63.26182 147
63.28193 138
63.30204 138
63.32216 146
63.34227 167
63.36238 153
63.3825 158
63.40261 150
63.42272 175
63.44284 134
63.46295 140
63.48307 148
63.50318 151
63.52329 156
63.54341 159
63.56352 176
63.58363 194
63.60375 172
63.62386 196
63.64398 218
63.66409 212
63.6842 244
63.70432 242
63.72443 218
63.74454 276
63.76466 245
63.78477 288
63.80489 347
63.825 343
63.84511 366
63.86523 396
63.88534 391
63.90545 408
63.92557 418
63.94568 418
63.96579 409
63.98591 411
64.00602 354
64.02614 340
64.04625 336
64.06636 306
64.08648 304
64.10659 277
64.1267 261
64.14682 254
64.16693 248
64.18705 236
64.20716 201
64.22727 209
64.24739 174
64.2675 159
64.28761 180
64.30773 153
64.32784 149
64.34796 150
64.36807 118
64.38818 139
64.4083 145
64.42841 150
64.44852 144
64.46864 118
64.48875 116
64.50886 121
64.52898 113
64.54909 124
64.56921 135
64.58932 155
64.60943 140
64.62955 141
64.64966 145
64.66977 136
64.68989 136
64.71 143
64.73012 142
64.75023 142
64.77034 129
64.79046 152
64.81057 147
64.83068 145
64.8508 135
64.87091 126
64.89102 156
64.91114 131
64.93125 148
64.95137 151
64.97148 139
64.99159 165
65.01171 155
65.03182 150
65.05193 154
65.07205 137
65.09216 139
65.11228 145
65.13239 161
65.1525 145
65.17262 179
65.19273 177
65.21284 149
65.23296 150
65.25307 154
65.27319 158
65.2933 171
65.31341 167
65.33353 182
65.35364 174
65.37375 172
65.39387 181
65.41398 174
65.43409 163
65.45421 175
65.47432 148
65.49444 178
65.51455 160
65.53466 151
65.55478 189
65.57489 188
65.595 203
65.61512 186
65.63523 182
65.65535 196
65.67546 197
65.69557 195
65.71569 184
65.7358 199
65.75591 184
65.77603 199
65.79614 208
65.81626 163
65.83637 167
65.85648 187
65.8766 175
65.89671 152
65.91682 152
65.93694 150
65.95705 180
65.97716 151
65.99728 161
66.01739 152
66.03751 169
66.05762 145
66.07773 164
66.09785 150
66.11796 149
66.13807 168
66.15819 172
66.1783 153
66.19842 183
66.21853 176
66.23864 140
66.25876 164
66.27887 172
66.29898 148
66.3191 160
66.33921 133
66.35933 129
66.37944 152
66.39955 138
66.41967 144
66.43978 158
66.45989 152
66.48001 139
66.50012 150
66.52023 139
66.54035 154
66.56046 158
66.58058 130
66.60069 165
66.6208 170
66.64092 139
66.66103 148
66.68114 150
66.70126 152
66.72137 161
66.74149 129
66.7616 162
66.78171 176
66.80183 153
66.82194 156
66.84205 172
66.86217 159
66.88228 168
66.90239 169
66.92251 179
66.94262 170
66.96274 163
66.98285 161
67.00296 171
67.02308 189
67.04319 172
67.0633 171
67.08342 195
67.10353 187
67.12365 198
67.14376 187
67.16387 214
67.18399 201
67.2041 227
67.22421 235
67.24433 261
67.26444 265
67.28456 289
67.30467 298
67.32478 314
67.3449 319
67.36501 350
67.38512 394
67.40524 431
67.42535 437
67.44546 512
67.46558 553
67.48569 640
67.50581 675
67.52592 750
67.54603 761
67.56615 871
67.58626 962
67.60637 1028
67.62649 1010
67.6466 1103
67.66672 1148
67.68683 1107
67.70694 1107
67.72706 996
67.74717 1014
67.76728 952
67.7874 975
67.80751 1022
67.82763 971
67.84774 1048
67.86785 1102
67.88797 1084
67.90808 1127
67.92819 1146
67.94831 1225
67.96842 1260
67.98853 1284
68.00865 1442
68.02876 1454
68.04888 1517
68.06899 1601
68.0891 1561
68.10922 1550
68.12933 1452
68.14944 1457
68.16956 1377
68.18967 1381
68.20979 1254
68.2299 1360
68.25001 1215
68.27013 1199
68.29024 1089
68.31035 955
68.33047 790
68.35058 754
68.3707 668
68.39081 600
68.41092 579
68.43104 501
68.45115 502
68.47126 433
68.49138 382
68.51149 305
68.5316 274
68.55172 245
68.57183 234
68.59195 215
68.61206 193
68.63217 201
68.65229 174
68.6724 184
68.69251 175
68.71263 187
68.73274 187
68.75286 196
68.77297 171
68.79308 151
68.8132 163
68.83331 145
68.85342 151
68.87354 142
68.89365 159
68.91376 154
68.93388 152
68.95399 168
68.97411 163
68.99422 149
69.01433 161
69.03445 153
69.05456 167
69.07467 152
69.09479 158
69.1149 139
69.13502 160
69.15513 153
69.17524 146
69.19536 156
69.21547 147
69.23558 150
69.2557 149
69.27581 140
69.29593 145
69.31604 144
69.33615 155
69.35627 144
69.37638 157
69.39649 140
69.41661 155
69.43672 143
69.45683 165
69.47695 152
69.49706 149
69.51718 156
69.53729 166
69.5574 138
69.57752 156
69.59763 148
69.61774 149
69.63786 163
69.65797 138
69.67809 146
69.6982 140
69.71831 134
69.73843 159
69.75854 132
69.77865 173
69.79877 125
69.81888 136
69.839 135
69.85911 155
69.87922 153
69.89934 154
69.91945 143
69.93956 126
69.95968 135
69.97979 157
69.9999 134
70.02002 122
70.04013 133
70.06025 141
70.08036 133
70.10047 149
70.12059 136
70.1407 136
70.16081 131
70.18093 137
70.20104 125
70.22116 120
70.24127 115
70.26138 152
70.2815 118
70.30161 128
70.32172 122
70.34184 130
70.36195 120
70.38207 144
70.40218 112
70.42229 99
70.44241 125
70.46252 127
70.48263 120
70.50275 138
70.52286 157
70.54297 133
70.56309 143
70.5832 149
70.60332 130
70.62343 133
70.64354 125
70.66366 150
70.68377 137
70.70388 146
70.724 115
70.74411 144
70.76423 141
70.78434 161
70.80445 123
70.82457 144
70.84468 120
70.86479 146
70.88491 127
70.90502 133
70.92513 121
70.94525 139
70.96536 144
70.98548 153
71.00559 141
71.0257 131
71.04582 156
71.06593 134
71.08604 134
71.10616 120
71.12627 128
71.14639 128
71.1665 143
71.18661 129
71.20673 145
71.22684 146
71.24695 141
71.26707 151
71.28718 148
71.3073 126
71.32741 112
71.34752 145
71.36764 157
71.38775 143
71.40786 137
71.42798 124
71.44809 124
71.4682 140
71.48832 160
71.50843 142
71.52855 152
71.54866 146
71.56877 143
71.58889 137
71.609 146
71.62911 149
71.64923 122
71.66934 139
71.68946 143
71.70957 124
71.72968 150
71.7498 145
71.76991 126
71.79002 127
71.81014 149
71.83025 118
71.85037 132
71.87048 125
71.89059 133
71.91071 138
71.93082 132
71.95093 131
71.97105 151
71.99116 149
72.01127 140
72.03139 145
72.0515 143
72.07162 152
72.09173 163
72.11184 142
72.13196 157
72.15207 142
72.17218 128
72.1923 133
72.21241 145
72.23253 134
72.25264 122
72.27275 136
72.29287 132
72.31298 119
72.33309 119
72.35321 156
72.37332 136
72.39344 150
72.41355 131
72.43366 124
72.45378 135
72.47389 145
72.494 130
72.51412 133
72.53423 144
72.55434 138
72.57446 136
72.59457 126
72.61469 133
72.6348 128
72.65491 155
72.67503 128
72.69514 144
72.71525 146
72.73537 137
72.75548 124
72.7756 141
72.79571 141
72.81582 141
72.83594 137
72.85605 162
72.87616 149
72.89628 179
72.91639 185
72.9365 153
72.95662 167
72.97673 171
72.99685 184
73.01696 160
73.03707 178
73.05719 188
73.0773 224
73.09741 207
73.11753 248
73.13764 217
73.15776 251
73.17787 248
73.19798 307
73.2181 304
73.23821 344
73.25832 347
73.27844 400
73.29855 376
73.31867 425
73.33878 469
73.35889 412
73.37901 493
73.39912 425
73.41923 437
73.43935 368
73.45946 373
73.47957 356
73.49969 301
73.5198 305
73.53992 308
73.56003 330
73.58014 318
73.60026 313
73.62037 259
73.64048 275
73.6606 258
73.68071 191
73.70083 203
73.72094 189
73.74105 171
73.76117 162
73.78128 169
73.80139 143
73.82151 140
73.84162 161
73.86174 145
73.88185 153
73.90196 174
73.92208 145
73.94219 146
73.9623 123
73.98242 142
74.00253 145
74.02264 141
74.04276 150
74.06287 158
74.08299 130
74.1031 125
74.12321 146
74.14333 137
74.16344 128
74.18355 121
74.20367 140
74.22378 141
74.2439 148
74.26401 137
74.28412 143
74.30424 145
74.32435 151
74.34446 130
74.36458 126
74.38469 124
74.40481 139
74.42492 129
74.44503 160
74.46515 155
74.48526 145
74.50537 153
74.52549 168
74.5456 152
74.56571 142
74.58583 140
74.60594 145
74.62606 158
74.64617 155
74.66628 138
74.6864 164
74.70651 151
74.72662 117
74.74674 154
74.76685 147
74.78697 140
74.80708 149
74.82719 125
74.84731 140
74.86742 164
74.88753 156
74.90765 161
74.92776 149
74.94787 150
74.96799 157
74.9881 156
75.00822 156
