3.00117 20758
3.02128 20363
3.0414 19360
3.06151 18968
3.08162 18564
3.10174 17956
3.12185 17664
3.14197 17053
3.16208 16587
3.18219 16219
3.20231 15548
3.22242 15053
3.24253 14726
3.26265 14180
3.28276 13677
3.30288 13171
3.32299 13021
3.3431 12578
3.36322 12066
3.38333 11631
3.40344 11154
3.42356 10945
3.44367 10707
3.46379 10332
3.4839 10112
3.50401 9513
3.52413 9439
3.54424 8906
3.56435 8642
3.58447 8309
3.60458 7716
3.62469 7880
3.64481 7378
3.66492 7107
3.68504 7060
3.70515 6452
3.72526 6563
3.74538 6203
3.76549 5857
3.7856 5766
3.80572 5172
3.82583 5237
3.84595 5064
3.86606 4736
3.88617 4566
3.90629 4155
3.9264 4194
3.94651 4155
3.96663 3770
3.98674 3703
4.00686 3384
4.02697 3386
4.04708 3345
4.0672 2931
4.08731 3016
4.10742 2775
4.12754 2658
4.14765 2635
4.16776 2462
4.18788 2407
4.20799 2251
4.22811 2285
4.24822 2124
4.26833 2003
4.28845 1897
4.30856 1954
4.32867 1929
4.34879 1914
4.3689 1665
4.38902 1697
4.40913 1717
4.42924 1539
4.44936 1689
4.46947 1484
4.48958 1499
4.5097 1479
4.52981 1412
4.54992 1508
4.57004 1296
4.59015 1289
4.61027 1319
4.63038 1236
4.65049 1294
4.67061 1159
4.69072 1204
4.71083 1163
4.73095 1140
4.75106 1125
4.77118 1034
4.79129 1082
4.8114 1023
4.83152 1060
4.85163 1027
4.87174 907
4.89186 922
4.91197 925
4.93209 914
4.9522 887
4.97231 868
4.99243 801
5.01254 843
5.03265 818
5.05277 831
5.07288 701
5.09299 712
5.11311 755
5.13322 746
5.15334 745
5.17345 673
5.19356 688
5.21368 636
5.23379 619
5.2539 655
5.27402 593
5.29413 604
5.31425 604
5.33436 558
5.35447 582
5.37459 579
5.3947 571
5.41481 563
5.43493 593
5.45504 564
5.47516 495
5.49527 484
5.51538 526
5.5355 554
5.55561 491
5.57572 499
5.59584 470
5.61595 438
5.63606 435
5.65618 448
5.67629 431
5.69641 401
5.71652 426
5.73663 435
5.75675 372
5.77686 423
5.79697 397
5.81709 400
5.8372 395
5.85732 361
5.87743 394
5.89754 366
5.91766 404
5.93777 395
5.95788 376
5.978 359
5.99811 350
6.01823 369
6.03834 352
6.05845 362
6.07857 363
6.09868 398
6.11879 341
6.13891 381
6.15902 361
6.17913 346
6.19925 352
6.21936 306
6.23948 346
6.25959 348
6.2797 322
6.29982 333
6.31993 367
6.34004 349
6.36016 347
6.38027 300
6.40039 340
6.4205 306
6.44061 354
6.46073 345
6.48084 330
6.50095 308
6.52107 286
6.54118 264
6.56129 260
6.58141 317
6.60152 314
6.62164 313
6.64175 300
6.66186 303
6.68198 307
6.70209 312
6.7222 299
6.74232 311
6.76243 353
6.78255 328
6.80266 281
6.82277 301
6.84289 339
6.863 312
6.88311 306
6.90323 316
6.92334 268
6.94346 312
6.96357 327
6.98368 273
7.0038 292
7.02391 310
7.04402 298
7.06414 278
7.08425 298
7.10436 339
7.12448 321
7.14459 308
7.16471 323
7.18482 293
7.20493 341
7.22505 299
7.24516 281
7.26527 285
7.28539 303
7.3055 322
7.32562 309
7.34573 296
7.36584 263
7.38596 304
7.40607 261
7.42618 291
7.4463 320
7.46641 261
7.48653 303
7.50664 348
7.52675 315
7.54687 297
7.56698 294
7.58709 306
7.60721 286
7.62732 315
7.64743 269
7.66755 333
7.68766 309
7.70778 317
7.72789 274
7.748 296
7.76812 305
7.78823 286
7.80834 294
7.82846 298
7.84857 287
7.86869 279
7.8888 288
7.90891 282
7.92903 243
7.94914 309
7.96925 304
7.98937 333
8.00948 308
8.0296 307
8.04971 291
8.06982 265
8.08994 261
8.11005 283
8.13016 301
8.15028 271
8.17039 315
8.1905 272
8.21062 291
8.23073 292
8.25085 282
8.27096 286
8.29107 347
8.31119 350
8.3313 324
8.35141 308
8.37153 329
8.39164 287
8.41176 299
8.43187 300
8.45198 323
8.4721 303
8.49221 343
8.51232 318
8.53244 315
8.55255 316
8.57266 319
8.59278 312
8.61289 324
8.63301 335
8.65312 312
8.67323 339
8.69335 322
8.71346 375
8.73357 340
8.75369 366
8.7738 318
8.79392 351
8.81403 349
8.83414 356
8.85426 360
8.87437 362
8.89448 356
8.9146 349
8.93471 337
8.95483 365
8.97494 344
8.99505 315
9.01517 304
9.03528 304
9.05539 313
9.07551 294
9.09562 302
9.11573 309
9.13585 310
9.15596 307
9.17608 301
9.19619 287
9.2163 275
9.23642 304
9.25653 327
9.27664 293
9.29676 303
9.31687 293
9.33699 345
9.3571 308
9.37721 309
9.39733 306
9.41744 296
9.43755 309
9.45767 299
9.47778 321
9.4979 321
9.51801 285
9.53812 277
9.55824 309
9.57835 303
9.59846 271
9.61858 318
9.63869 278
9.6588 292
9.67892 281
9.69903 313
9.71915 319
9.73926 303
9.75937 264
9.77949 294
9.7996 279
9.81971 280
9.83983 317
9.85994 316
9.88006 269
9.90017 325
9.92028 293
9.9404 310
9.96051 323
9.98062 310
10.00074 313
10.02085 275
10.04097 293
10.06108 292
10.08119 305
10.10131 297
10.12142 307
10.14153 298
10.16165 286
10.18176 285
10.20187 296
10.22199 322
10.2421 282
10.26222 295
10.28233 289
10.30244 274
10.32256 301
10.34267 280
10.36278 275
10.3829 272
10.40301 278
10.42313 289
10.44324 297
10.46335 316
10.48347 333
10.50358 323
10.52369 310
10.54381 276
10.56392 309
10.58403 296
10.60415 308
10.62426 323
10.64438 303
10.66449 323
10.6846 333
10.70472 288
10.72483 283
10.74494 279
10.76506 304
10.78517 305
10.80529 311
10.8254 300
10.84551 327
10.86563 320
10.88574 275
10.90585 292
10.92597 262
10.94608 306
10.9662 283
10.98631 306
11.00642 307
11.02654 291
11.04665 311
11.06676 299
11.08688 305
11.10699 321
11.1271 290
11.14722 277
11.16733 307
11.18745 330
11.20756 281
11.22767 285
11.24779 317
11.2679 289
11.28801 311
11.30813 288
11.32824 266
11.34836 318
11.36847 273
11.38858 276
11.4087 346
11.42881 308
11.44892 304
11.46904 319
11.48915 290
11.50927 317
11.52938 326
11.54949 326
11.56961 287
11.58972 311
11.60983 322
11.62995 325
11.65006 347
11.67017 329
11.69029 324
11.7104 334
11.73052 396
11.75063 381
11.77074 352
11.79086 394
11.81097 330
11.83108 355
11.8512 398
11.87131 368
11.89143 403
11.91154 390
11.93165 451
11.95177 388
11.97188 433
11.99199 454
12.01211 490
12.03222 473
12.05234 503
12.07245 523
12.09256 523
12.11268 483
12.13279 571
12.1529 649
12.17302 621
12.19313 662
12.21324 700
12.23336 781
12.25347 804
12.27359 734
12.2937 724
12.31381 764
12.33393 813
12.35404 766
12.37415 703
12.39427 654
12.41438 657
12.4345 598
12.45461 577
12.47472 585
12.49484 507
12.51495 528
12.53506 498
12.55518 440
12.57529 441
12.5954 416
12.61552 402
12.63563 394
12.65575 396
12.67586 359
12.69597 351
12.71609 376
12.7362 336
12.75631 332
12.77643 296
12.79654 353
12.81666 338
12.83677 316
12.85688 332
12.877 339
12.89711 327
12.91722 275
12.93734 282
12.95745 304
12.97757 263
12.99768 278
13.01779 297
13.03791 312
13.05802 277
13.07813 294
13.09825 256
13.11836 324
13.13847 285
13.15859 295
13.1787 277
13.19882 291
13.21893 279
13.23904 270
13.25916 279
13.27927 331
13.29938 294
13.3195 278
13.33961 322
13.35973 307
13.37984 302
13.39995 274
13.42007 275
13.44018 300
13.46029 249
13.48041 245
13.50052 284
13.52064 297
13.54075 266
13.56086 277
13.58098 297
13.60109 282
13.6212 276
13.64132 299
13.66143 251
13.68154 279
13.70166 287
13.72177 283
13.74189 305
13.762 247
13.78211 265
13.80223 293
13.82234 251
13.84245 278
13.86257 230
13.88268 261
13.9028 227
13.92291 246
13.94302 262
13.96314 264
13.98325 248
14.00336 241
14.02348 248
14.04359 278
14.06371 263
14.08382 250
14.10393 307
14.12405 231
14.14416 266
14.16427 287
14.18439 291
14.2045 246
14.22461 269
14.24473 277
14.26484 240
14.28496 261
14.30507 248
14.32518 297
14.3453 249
14.36541 243
14.38552 278
14.40564 209
14.42575 267
14.44587 247
14.46598 247
14.48609 232
14.50621 231
14.52632 238
14.54643 263
14.56655 244
14.58666 262
14.60677 269
14.62689 269
14.647 263
14.66712 257
14.68723 254
14.70734 239
14.72746 237
14.74757 265
14.76768 247
14.7878 251
14.80791 236
14.82803 292
14.84814 256
14.86825 274
14.88837 245
14.90848 281
14.92859 279
14.94871 243
14.96882 266
14.98894 242
15.00905 306
15.02916 258
15.04928 242
15.06939 246
15.0895 245
15.10962 244
15.12973 244
15.14984 264
15.16996 262
15.19007 231
15.21019 242
15.2303 253
15.25041 227
15.27053 287
15.29064 257
15.31075 254
15.33087 259
15.35098 270
15.3711 219
15.39121 250
15.41132 261
15.43144 238
15.45155 240
15.47166 269
15.49178 236
15.51189 247
15.53201 231
15.55212 261
15.57223 256
15.59235 241
15.61246 250
15.63257 217
15.65269 229
15.6728 237
15.69291 265
15.71303 221
15.73314 241
15.75326 204
15.77337 252
15.79348 245
15.8136 240
15.83371 241
15.85382 248
15.87394 278
15.89405 245
15.91417 236
15.93428 236
15.95439 233
15.97451 245
15.99462 239
16.01473 239
16.03485 253
16.05496 250
16.07508 227
16.09519 239
16.1153 236
16.13542 250
16.15553 248
16.17564 228
16.19576 248
16.21587 256
16.23598 248
16.2561 227
16.27621 225
16.29633 252
16.31644 255
16.33655 263
16.35667 236
16.37678 251
16.39689 238
16.41701 235
16.43712 268
16.45724 234
16.47735 241
16.49746 252
16.51758 214
16.53769 253
16.5578 226
16.57792 258
16.59803 244
16.61814 231
16.63826 245
16.65837 253
16.67849 235
16.6986 268
16.71871 245
16.73883 241
16.75894 267
16.77905 262
16.79917 257
16.81928 247
16.8394 229
16.85951 237
16.87962 234
16.89974 278
16.91985 227
16.93996 263
16.96008 228
16.98019 251
17.00031 244
17.02042 257
17.04053 250
17.06065 244
17.08076 260
17.10087 249
17.12099 231
17.1411 250
17.16121 251
17.18133 246
17.20144 238
17.22156 262
17.24167 226
17.26178 247
17.2819 237
17.30201 242
17.32212 261
17.34224 222
17.36235 240
17.38247 231
17.40258 253
17.42269 271
17.44281 269
17.46292 261
17.48303 232
17.50315 260
17.52326 238
17.54338 238
17.56349 277
17.5836 259
17.60372 271
17.62383 250
17.64394 250
17.66406 269
17.68417 268
17.70428 259
17.7244 289
17.74451 299
17.76463 250
17.78474 258
17.80485 283
17.82497 300
17.84508 294
17.86519 257
17.88531 262
17.90542 256
17.92554 251
17.94565 227
17.96576 262
17.98588 265
18.00599 295
18.0261 273
18.04622 241
18.06633 262
18.08645 278
18.10656 272
18.12667 281
18.14679 300
18.1669 309
18.18701 335
18.20713 325
18.22724 326
18.24735 378
18.26747 350
18.28758 388
18.3077 343
18.32781 323
18.34792 335
18.36804 309
18.38815 302
18.40826 281
18.42838 262
18.44849 265
18.46861 273
18.48872 265
18.50883 269
18.52895 247
18.54906 232
18.56917 230
18.58929 237
18.6094 249
18.62951 279
18.64963 264
18.66974 247
18.68986 277
18.70997 256
18.73008 267
18.7502 275
18.77031 216
18.79042 248
18.81054 261
18.83065 238
18.85077 217
18.87088 258
18.89099 265
18.91111 267
18.93122 254
18.95133 273
18.97145 256
18.99156 253
19.01168 279
19.03179 268
19.0519 240
19.07202 266
19.09213 273
19.11224 271
19.13236 291
19.15247 244
19.17258 265
19.1927 287
19.21281 281
19.23293 286
19.25304 244
19.27315 257
19.29327 249
19.31338 259
19.33349 279
19.35361 269
19.37372 252
19.39384 248
19.41395 262
19.43406 282
19.45418 274
19.47429 290
19.4944 304
19.51452 287
19.53463 311
19.55475 325
19.57486 312
19.59497 308
19.61509 362
19.6352 365
19.65531 403
19.67543 419
19.69554 447
19.71565 496
19.73577 544
19.75588 556
19.776 597
19.79611 657
19.81622 648
19.83634 694
19.85645 683
19.87656 666
19.89668 645
19.91679 652
19.93691 642
19.95702 641
19.97713 582
19.99725 608
20.01736 604
20.03747 551
20.05759 526
20.0777 536
20.09782 559
20.11793 573
20.13804 571
20.15816 605
20.17827 553
20.19838 610
20.2185 608
20.23861 581
20.25872 536
20.27884 586
20.29895 623
20.31907 564
20.33918 592
20.35929 615
20.37941 640
20.39952 615
20.41963 684
20.43975 669
20.45986 633
20.47998 686
20.50009 667
20.5202 707
20.54032 665
20.56043 710
20.58054 743
20.60066 828
20.62077 916
20.64088 1009
20.661 1155
20.68111 1482
20.70123 2007
20.72134 2551
20.74145 3227
20.76157 4045
20.78168 4847
20.80179 5545
20.82191 5636
20.84202 5061
20.86214 4232
20.88225 3310
20.90236 2458
20.92248 1633
20.94259 1129
20.9627 897
20.98282 755
21.00293 755
21.02305 667
21.04316 630
21.06327 634
21.08339 610
21.1035 552
21.12361 578
21.14373 568
21.16384 575
21.18395 564
21.20407 559
21.22418 537
21.2443 560
21.26441 528
21.28452 570
21.30464 567
21.32475 556
21.34486 562
21.36498 557
21.38509 537
21.40521 558
21.42532 511
21.44543 561
21.46555 532
21.48566 551
21.50577 514
21.52589 531
21.546 517
21.56612 488
21.58623 502
21.60634 476
21.62646 505
21.64657 519
21.66668 439
21.6868 448
21.70691 437
21.72702 445
21.74714 466
21.76725 440
21.78737 445
21.80748 414
21.82759 394
21.84771 429
21.86782 419
21.88793 468
21.90805 396
21.92816 423
21.94828 408
21.96839 434
21.9885 372
22.00862 397
22.02873 409
22.04884 419
22.06896 422
22.08907 418
22.10919 433
22.1293 364
22.14941 412
22.16953 395
22.18964 359
22.20975 384
22.22987 375
22.24998 383
22.27009 385
22.29021 396
22.31032 393
22.33044 392
22.35055 398
22.37066 418
22.39078 366
22.41089 376
22.431 374
22.45112 348
22.47123 410
22.49135 356
22.51146 414
22.53157 354
22.55169 378
22.5718 394
22.59191 391
22.61203 363
22.63214 354
22.65225 359
22.67237 360
22.69248 373
22.7126 400
22.73271 341
22.75282 369
22.77294 356
22.79305 424
22.81316 366
22.83328 382
22.85339 377
22.87351 364
22.89362 379
22.91373 367
22.93385 354
22.95396 364
22.97407 393
22.99419 382
23.0143 351
23.03442 298
23.05453 339
23.07464 304
23.09476 355
23.11487 337
23.13498 317
23.1551 352
23.17521 357
23.19532 321
23.21544 330
23.23555 367
23.25567 356
23.27578 341
23.29589 318
23.31601 323
23.33612 333
23.35623 342
23.37635 308
23.39646 322
23.41658 388
23.43669 355
23.4568 340
23.47692 356
23.49703 332
23.51714 303
23.53726 338
23.55737 336
23.57749 346
23.5976 341
23.61771 368
23.63783 387
23.65794 397
23.67805 371
23.69817 402
23.71828 399
23.73839 398
23.75851 378
23.77862 407
23.79874 395
23.81885 415
23.83896 405
23.85908 443
23.87919 401
23.8993 384
23.91942 374
23.93953 428
23.95965 461
23.97976 412
23.99987 371
24.01999 360
24.0401 331
24.06021 378
24.08033 340
24.10044 363
24.12056 344
24.14067 370
24.16078 351
24.1809 384
24.20101 362
24.22112 371
24.24124 381
24.26135 385
24.28146 336
24.30158 362
24.32169 393
24.34181 347
24.36192 364
24.38203 396
24.40215 370
24.42226 378
24.44237 375
24.46249 381
24.4826 398
24.50272 457
24.52283 436
24.54294 430
24.56306 443
24.58317 407
24.60328 479
24.6234 474
24.64351 506
24.66362 523
24.68374 556
24.70385 587
24.72397 605
24.74408 611
24.76419 634
24.78431 634
24.80442 642
24.82453 660
24.84465 654
24.86476 670
24.88488 649
24.90499 626
24.9251 648
24.94522 583
24.96533 608
24.98544 535
25.00556 547
25.02567 497
25.04579 508
25.0659 484
25.08601 485
25.10613 501
25.12624 489
25.14635 497
25.16647 451
25.18658 447
25.20669 456
25.22681 485
25.24692 481
25.26704 467
25.28715 478
25.30726 416
25.32738 457
25.34749 428
25.3676 433
25.38772 384
25.40783 382
25.42795 415
25.44806 408
25.46817 424
25.48829 375
25.5084 430
25.52851 419
25.54863 401
25.56874 389
25.58886 411
25.60897 408
25.62908 409
25.6492 421
25.66931 446
25.68942 458
25.70954 454
25.72965 503
25.74976 495
25.76988 499
25.78999 494
25.81011 503
25.83022 550
25.85033 513
25.87045 522
25.89056 543
25.91067 550
25.93079 504
25.9509 497
25.97102 550
25.99113 560
26.01124 582
26.03136 610
26.05147 548
26.07158 637
26.0917 662
26.11181 634
26.13193 770
26.15204 762
26.17215 825
26.19227 875
26.21238 904
26.23249 924
26.25261 1018
26.27272 1050
26.29283 1194
26.31295 1328
26.33306 1447
26.35318 1764
26.37329 2094
26.3934 2537
26.41352 3297
26.43363 4329
26.45374 5687
26.47386 7720
26.49397 10183
26.51409 13637
26.5342 17383
26.55431 20117
26.57443 22709
26.59454 23223
26.61465 22068
26.63477 19238
26.65488 15086
26.67499 11237
26.69511 7892
26.71522 5263
26.73534 3489
26.75545 2319
26.77556 1712
26.79568 1479
26.81579 1264
26.8359 1161
26.85602 1085
26.87613 1054
26.89625 966
26.91636 821
26.93647 770
26.95659 713
26.9767 722
26.99681 645
27.01693 578
27.03704 562
27.05716 536
27.07727 544
27.09738 483
27.1175 538
27.13761 487
27.15772 539
27.17784 458
27.19795 472
27.21806 458
27.23818 471
27.25829 443
27.27841 417
27.29852 470
27.31863 413
27.33875 428
27.35886 435
27.37897 471
27.39909 440
27.4192 428
27.43932 421
27.45943 412
27.47954 373
27.49966 402
27.51977 407
27.53988 411
27.56 380
27.58011 378
27.60023 391
27.62034 390
27.64045 431
27.66057 374
27.68068 409
27.70079 391
27.72091 380
27.74102 395
27.76113 378
27.78125 400
27.80136 405
27.82148 402
27.84159 426
27.8617 408
27.88182 372
27.90193 397
27.92204 403
27.94216 361
27.96227 344
27.98239 343
28.0025 374
28.02261 371
28.04273 338
28.06284 365
28.08295 318
28.10307 317
28.12318 357
28.1433 351
28.16341 313
28.18352 345
28.20364 314
28.22375 347
28.24386 326
28.26398 319
28.28409 335
28.3042 309
28.32432 325
28.34443 336
28.36455 325
28.38466 316
28.40477 323
28.42489 302
28.445 334
28.46511 306
28.48523 299
28.50534 308
28.52546 320
28.54557 320
28.56568 317
28.5858 321
28.60591 345
28.62602 316
28.64614 323
28.66625 302
28.68636 314
28.70648 329
28.72659 312
28.74671 319
28.76682 311
28.78693 303
28.80705 298
28.82716 303
28.84727 301
28.86739 295
28.8875 292
28.90762 292
28.92773 329
28.94784 305
28.96796 321
28.98807 280
29.00818 293
29.0283 302
29.04841 292
29.06853 306
29.08864 284
29.10875 334
29.12887 299
29.14898 288
29.16909 309
29.18921 288
29.20932 297
29.22943 309
29.24955 305
29.26966 301
29.28978 277
29.30989 276
29.33 306
29.35012 293
29.37023 312
29.39034 301
29.41046 302
29.43057 292
29.45069 272
29.4708 323
29.49091 257
29.51103 291
29.53114 301
29.55125 292
29.57137 279
29.59148 308
29.6116 278
29.63171 270
29.65182 313
29.67194 311
29.69205 326
29.71216 324
29.73228 304
29.75239 298
29.7725 319
29.79262 318
29.81273 307
29.83285 342
29.85296 337
29.87307 316
29.89319 322
29.9133 316
29.93341 294
29.95353 330
29.97364 314
29.99376 300
30.01387 297
30.03398 307
30.0541 310
30.07421 267
30.09432 300
30.11444 288
30.13455 274
30.15467 288
30.17478 307
30.19489 285
30.21501 282
30.23512 264
30.25523 295
30.27535 256
30.29546 294
30.31557 283
30.33569 266
30.3558 295
30.37592 288
30.39603 303
30.41614 294
30.43626 280
30.45637 281
30.47648 261
30.4966 299
30.51671 263
30.53683 287
30.55694 261
30.57705 284
30.59717 310
30.61728 268
30.63739 282
30.65751 307
30.67762 264
30.69773 284
30.71785 253
30.73796 283
30.75808 312
30.77819 247
30.7983 259
30.81842 248
30.83853 273
30.85864 291
30.87876 271
30.89887 263
30.91899 273
30.9391 268
30.95921 279
30.97933 255
30.99944 302
31.01955 296
31.03967 275
31.05978 293
31.0799 271
31.10001 302
31.12012 299
31.14024 273
31.16035 275
31.18046 306
31.20058 304
31.22069 321
31.2408 331
31.26092 287
31.28103 317
31.30115 285
31.32126 279
31.34137 294
31.36149 275
31.3816 282
31.40171 282
31.42183 271
31.44194 265
31.46206 258
31.48217 306
31.50228 255
31.5224 299
31.54251 295
31.56262 279
31.58274 281
31.60285 262
31.62297 269
31.64308 293
31.66319 277
31.68331 246
31.70342 271
31.72353 264
31.74365 272
31.76376 270
31.78387 265
31.80399 272
31.8241 258
31.84422 268
31.86433 275
31.88444 292
31.90456 261
31.92467 253
31.94478 274
31.9649 266
31.98501 261
32.00513 273
32.02524 291
32.04535 273
32.06547 277
32.08558 285
32.10569 281
32.12581 268
32.14592 282
32.16604 289
32.18615 295
32.20626 262
32.22638 266
32.24649 290
32.2666 246
32.28672 286
32.30683 268
32.32694 290
32.34706 302
32.36717 331
32.38729 328
32.4074 299
32.42751 326
32.44763 333
32.46774 340
32.48785 318
32.50797 324
32.52808 314
32.5482 318
32.56831 282
32.58842 325
32.60854 313
32.62865 295
32.64876 279
32.66888 239
32.68899 278
32.7091 280
32.72922 293
32.74933 263
32.76945 266
32.78956 275
32.80967 293
32.82979 289
32.8499 298
32.87001 305
32.89013 289
32.91024 281
32.93036 284
32.95047 275
32.97058 257
32.9907 253
33.01081 295
33.03092 294
33.05104 303
33.07115 315
33.09127 285
33.11138 291
33.13149 314
33.15161 268
33.17172 291
33.19183 259
33.21195 301
33.23206 325
33.25217 324
33.27229 308
33.2924 286
33.31252 276
33.33263 304
33.35274 281
33.37286 267
33.39297 323
33.41308 285
33.4332 290
33.45331 323
33.47343 310
33.49354 273
33.51365 285
33.53377 283
33.55388 297
33.57399 287
33.59411 267
33.61422 275
33.63434 259
33.65445 326
33.67456 305
33.69468 270
33.71479 291
33.7349 299
33.75502 254
33.77513 289
33.79524 273
33.81536 290
33.83547 243
33.85559 255
33.8757 274
33.89581 280
33.91593 242
33.93604 266
33.95615 285
33.97627 286
33.99638 256
34.0165 248
34.03661 251
34.05672 257
34.07684 272
34.09695 247
34.11706 290
34.13718 267
34.15729 252
34.17741 286
34.19752 245
34.21763 289
34.23775 252
34.25786 274
34.27797 271
34.29809 249
34.3182 258
34.33831 266
34.35843 266
34.37854 285
34.39866 263
34.41877 316
34.43888 309
34.459 327
34.47911 327
34.49922 342
34.51934 316
34.53945 346
34.55957 320
34.57968 346
34.59979 340
34.61991 321
34.64002 378
34.66013 362
34.68025 377
34.70036 376
34.72047 392
34.74059 417
34.7607 407
34.78082 459
34.80093 408
34.82104 513
34.84116 479
34.86127 547
34.88138 489
34.9015 516
34.92161 535
34.94173 540
34.96184 564
34.98195 556
35.00207 480
35.02218 530
35.04229 517
35.06241 469
35.08252 440
35.10264 404
35.12275 390
35.14286 409
35.16298 430
35.18309 442
35.2032 426
35.22332 415
35.24343 413
35.26354 388
35.28366 389
35.30377 403
35.32389 406
35.344 398
35.36411 392
35.38423 415
35.40434 447
35.42445 395
35.44457 377
35.46468 385
35.4848 417
35.50491 408
35.52502 391
35.54514 379
35.56525 391
35.58536 418
35.60548 400
35.62559 375
35.64571 356
35.66582 408
35.68593 423
35.70605 402
35.72616 440
35.74627 452
35.76639 472
35.7865 489
35.80661 430
35.82673 487
35.84684 485
35.86696 505
35.88707 425
35.90718 504
35.9273 451
35.94741 447
35.96752 475
35.98764 402
36.00775 486
36.02787 433
36.04798 418
36.06809 427
36.08821 445
36.10832 400
36.12843 413
36.14855 402
36.16866 422
36.18878 406
36.20889 395
36.229 425
36.24912 482
36.26923 521
36.28934 501
36.30946 607
36.32957 678
36.34968 766
36.3698 862
36.38991 1068
36.41003 1292
36.43014 1491
36.45025 1621
36.47037 1781
36.49048 1760
36.51059 1757
36.53071 1559
36.55082 1351
36.57094 1212
36.59105 957
36.61116 865
36.63128 785
36.65139 580
36.6715 539
36.69162 428
36.71173 397
36.73184 394
36.75196 366
36.77207 368
36.79219 355
36.8123 346
36.83241 360
36.85253 321
36.87264 343
36.89275 374
36.91287 385
36.93298 356
36.9531 357
36.97321 342
36.99332 376
37.01344 348
37.03355 341
37.05366 351
37.07378 358
37.09389 408
37.11401 370
37.13412 350
37.15423 307
37.17435 348
37.19446 372
37.21457 311
37.23469 324
37.2548 351
37.27491 354
37.29503 351
37.31514 350
37.33526 359
37.35537 333
37.37548 346
37.3956 368
37.41571 323
37.43582 335
37.45594 343
37.47605 339
37.49617 367
37.51628 357
37.53639 360
37.55651 365
37.57662 378
37.59673 358
37.61685 385
37.63696 357
37.65708 397
37.67719 343
37.6973 415
37.71742 407
37.73753 375
37.75764 385
37.77776 365
37.79787 360
37.81798 351
37.8381 355
37.85821 345
37.87833 345
37.89844 336
37.91855 332
37.93867 325
37.95878 303
37.97889 345
37.99901 350
38.01912 364
38.03924 345
38.05935 353
38.07946 391
38.09958 356
38.11969 402
38.1398 400
38.15992 408
38.18003 380
38.20015 414
38.22026 411
38.24037 429
38.26049 442
38.2806 406
38.30071 447
38.32083 443
38.34094 439
38.36105 492
38.38117 454
38.40128 465
38.4214 469
38.44151 426
38.46162 444
38.48174 423
38.50185 410
38.52196 432
38.54208 397
38.56219 442
38.58231 382
38.60242 371
38.62253 390
38.64265 359
38.66276 366
38.68287 370
38.70299 384
38.7231 365
38.74321 361
38.76333 342
38.78344 385
38.80356 316
38.82367 305
38.84378 324
38.8639 330
38.88401 359
38.90412 346
38.92424 367
38.94435 392
38.96447 371
38.98458 394
39.00469 383
39.02481 375
39.04492 382
39.06503 400
39.08515 424
39.10526 419
39.12538 472
39.14549 460
39.1656 471
39.18572 533
39.20583 550
39.22594 554
39.24606 659
39.26617 759
39.28628 824
39.3064 990
39.32651 1068
39.34663 1318
39.36674 1507
39.38685 1539
39.40697 1635
39.42708 1614
39.44719 1440
39.46731 1284
39.48742 1148
39.50754 972
39.52765 858
39.54776 777
39.56788 655
39.58799 491
39.6081 428
39.62822 359
39.64833 321
39.66845 321
39.68856 330
39.70867 321
39.72879 309
39.7489 326
39.76901 314
39.78913 307
39.80924 330
39.82935 285
39.84947 325
39.86958 295
39.8897 325
39.90981 340
39.92992 320
39.95004 310
39.97015 339
39.99026 342
40.01038 411
40.03049 400
40.05061 418
40.07072 419
40.09083 498
40.11095 584
40.13106 669
40.15117 688
40.17129 782
40.1914 894
40.21152 967
40.23163 904
40.25174 979
40.27186 793
40.29197 771
40.31208 669
40.3322 618
40.35231 564
40.37242 493
40.39254 442
40.41265 349
40.43277 333
40.45288 358
40.47299 339
40.49311 302
40.51322 332
40.53333 306
40.55345 322
40.57356 289
40.59368 311
40.61379 274
40.6339 318
40.65402 305
40.67413 316
40.69424 326
40.71436 285
40.73447 281
40.75458 305
40.7747 322
40.79481 315
40.81493 287
40.83504 302
40.85515 290
40.87527 293
40.89538 320
40.91549 272
40.93561 344
40.95572 298
40.97584 333
40.99595 316
41.01606 295
41.03618 316
41.05629 270
41.0764 293
41.09652 314
41.11663 350
41.13675 289
41.15686 305
41.17697 294
41.19709 331
41.2172 293
41.23731 293
41.25743 303
41.27754 293
41.29765 287
41.31777 302
41.33788 260
41.358 294
41.37811 293
41.39822 275
41.41834 274
41.43845 311
41.45856 278
41.47868 264
41.49879 263
41.51891 299
41.53902 263
41.55913 294
41.57925 285
41.59936 266
41.61947 298
41.63959 297
41.6597 268
41.67982 280
41.69993 293
41.72004 271
41.74016 296
41.76027 281
41.78038 277
41.8005 282
41.82061 276
41.84072 286
41.86084 295
41.88095 269
41.90107 281
41.92118 270
41.94129 308
41.96141 306
41.98152 294
42.00163 286
42.02175 328
42.04186 295
42.06198 311
42.08209 339
42.1022 332
42.12232 342
42.14243 373
42.16254 369
42.18266 428
42.20277 455
42.22289 520
42.243 570
42.26311 616
42.28323 707
42.30334 837
42.32345 973
42.34357 1108
42.36368 1184
42.38379 1287
42.40391 1238
42.42402 1129
42.44414 984
42.46425 940
42.48436 844
42.50448 755
42.52459 645
42.5447 549
42.56482 439
42.58493 355
42.60505 295
42.62516 353
42.64527 314
42.66539 271
42.6855 285
42.70561 295
42.72573 284
42.74584 273
42.76595 247
42.78607 247
42.80618 234
42.8263 255
42.84641 254
42.86652 270
42.88664 238
42.90675 245
42.92686 227
42.94698 227
42.96709 217
42.98721 225
43.00732 227
43.02743 258
43.04755 252
43.06766 257
43.08777 232
43.10789 240
43.128 249
43.14812 239
43.16823 271
43.18834 254
43.20846 267
43.22857 246
43.24868 257
43.2688 264
43.28891 272
43.30902 251
43.32914 224
43.34925 228
43.36937 219
43.38948 216
43.40959 248
43.42971 242
43.44982 247
43.46993 230
43.49005 250
43.51016 248
43.53028 244
43.55039 244
43.5705 225
43.59062 241
43.61073 245
43.63084 253
43.65096 230
43.67107 251
43.69119 255
43.7113 240
43.73141 225
43.75153 252
43.77164 239
43.79175 248
43.81187 224
43.83198 231
43.85209 244
43.87221 233
43.89232 250
43.91244 238
43.93255 244
43.95266 268
43.97278 255
43.99289 224
44.013 241
44.03312 258
44.05323 292
44.07335 258
44.09346 261
44.11357 258
44.13369 259
44.1538 243
44.17391 238
44.19403 242
44.21414 268
44.23426 257
44.25437 236
44.27448 223
44.2946 238
44.31471 230
44.33482 233
44.35494 236
44.37505 243
44.39516 272
44.41528 248
44.43539 235
44.45551 218
44.47562 249
44.49573 220
44.51585 220
44.53596 267
44.55607 237
44.57619 252
44.5963 225
44.61642 204
44.63653 229
44.65664 262
44.67676 240
44.69687 230
44.71698 258
44.7371 251
44.75721 237
44.77732 235
44.79744 230
44.81755 231
44.83767 264
44.85778 254
44.87789 257
44.89801 275
44.91812 253
44.93823 259
44.95835 249
44.97846 237
44.99858 234
45.01869 270
45.0388 256
45.05892 277
45.07903 272
45.09914 242
45.11926 240
45.13937 311
45.15949 283
45.1796 287
45.19971 298
45.21983 253
45.23994 279
45.26005 291
45.28017 300
45.30028 290
45.32039 320
45.34051 310
45.36062 310
45.38074 348
45.40085 338
45.42096 346
45.44108 355
45.46119 343
45.4813 339
45.50142 384
45.52153 388
45.54165 426
45.56176 445
45.58187 447
45.60199 527
45.6221 540
45.64221 635
45.66233 653
45.68244 767
45.70256 838
45.72267 889
45.74278 913
45.7629 794
45.78301 718
45.80312 708
45.82324 661
45.84335 598
45.86346 539
45.88358 493
45.90369 453
45.92381 413
45.94392 312
45.96403 306
45.98415 267
46.00426 303
46.02437 293
46.04449 252
46.0646 243
46.08472 273
46.10483 268
46.12494 261
46.14506 275
46.16517 257
46.18528 260
46.2054 261
46.22551 265
46.24563 214
46.26574 288
46.28585 274
46.30597 229
46.32608 234
46.34619 230
46.36631 259
46.38642 233
46.40653 236
46.42665 215
46.44676 230
46.46688 265
46.48699 232
46.5071 249
46.52722 251
46.54733 276
46.56744 232
46.58756 259
46.60767 274
46.62779 208
46.6479 270
46.66801 256
46.68813 245
46.70824 249
46.72835 264
46.74847 234
46.76858 232
46.78869 225
46.80881 257
46.82892 240
46.84904 223
46.86915 221
46.88926 257
46.90938 241
46.92949 236
46.9496 216
46.96972 223
46.98983 240
47.00995 232
47.03006 261
47.05017 271
47.07029 226
47.0904 234
47.11051 244
47.13063 237
47.15074 254
47.17086 238
47.19097 212
47.21108 216
47.2312 237
47.25131 224
47.27142 245
47.29154 250
47.31165 246
47.33176 277
47.35188 234
47.37199 227
47.39211 243
47.41222 254
47.43233 227
47.45245 265
47.47256 231
47.49267 266
47.51279 235
47.5329 226
47.55302 279
47.57313 248
47.59324 237
47.61336 253
47.63347 272
47.65358 233
47.6737 212
47.69381 247
47.71393 233
47.73404 245
47.75415 245
47.77427 260
47.79438 239
47.81449 241
47.83461 292
47.85472 243
47.87483 236
47.89495 275
47.91506 248
47.93518 261
47.95529 284
47.9754 265
47.99552 248
48.01563 252
48.03574 263
48.05586 266
48.07597 236
48.09609 252
48.1162 218
48.13631 244
48.15643 252
48.17654 234
48.19665 248
48.21677 244
48.23688 238
48.257 230
48.27711 253
48.29722 263
48.31734 261
48.33745 240
48.35756 242
48.37768 237
48.39779 233
48.4179 249
48.43802 251
48.45813 262
48.47825 234
48.49836 257
48.51847 245
48.53859 270
48.5587 247
48.57881 251
48.59893 275
48.61904 253
48.63916 273
48.65927 287
48.67938 265
48.6995 260
48.71961 273
48.73972 261
48.75984 257
48.77995 258
48.80006 252
48.82018 248
48.84029 244
48.86041 268
48.88052 240
48.90063 264
48.92075 221
48.94086 243
48.96097 236
48.98109 251
49.0012 276
49.02132 240
49.04143 242
49.06154 261
49.08166 258
49.10177 259
49.12188 270
49.142 277
49.16211 246
49.18223 260
49.20234 253
49.22245 271
49.24257 252
49.26268 243
49.28279 258
49.30291 265
49.32302 255
49.34313 297
49.36325 244
49.38336 249
49.40348 280
49.42359 266
49.4437 283
49.46382 246
49.48393 287
49.50404 308
49.52416 295
49.54427 267
49.56439 325
49.5845 309
49.60461 304
49.62473 307
49.64484 307
49.66495 285
49.68507 325
49.70518 329
49.7253 345
49.74541 376
49.76552 397
49.78564 438
49.80575 477
49.82586 527
49.84598 502
49.86609 574
49.8862 718
49.90632 765
49.92643 970
49.94655 1084
49.96666 1293
49.98677 1644
50.00689 1835
50.027 2116
50.04711 2376
50.06723 2481
50.08734 2382
50.10746 2162
50.12757 1928
50.14768 1736
50.1678 1582
50.18791 1407
50.20802 1379
50.22814 1130
50.24825 942
50.26837 769
50.28848 606
50.30859 478
50.32871 427
50.34882 333
50.36893 349
50.38905 330
50.40916 328
50.42927 300
50.44939 321
50.4695 328
50.48962 354
50.50973 336
50.52984 347
50.54996 330
50.57007 306
50.59018 305
50.6103 282
50.63041 275
50.65053 270
50.67064 293
50.69075 275
50.71087 292
50.73098 276
50.75109 286
50.77121 262
50.79132 260
50.81143 256
50.83155 237
50.85166 248
50.87178 248
50.89189 258
50.912 239
50.93212 251
50.95223 273
50.97234 233
50.99246 265
51.01257 219
51.03269 250
51.0528 245
51.07291 249
51.09303 242
51.11314 236
51.13325 254
51.15337 205
51.17348 253
51.1936 251
51.21371 243
51.23382 240
51.25394 205
51.27405 229
51.29416 249
51.31428 237
51.33439 243
51.3545 231
51.37462 247
51.39473 219
51.41485 228
51.43496 197
51.45507 243
51.47519 203
51.4953 242
51.51541 238
51.53553 211
51.55564 220
51.57576 211
51.59587 233
51.61598 234
51.6361 196
51.65621 202
51.67632 206
51.69644 254
51.71655 210
51.73667 213
51.75678 222
51.77689 212
51.79701 209
51.81712 220
51.83723 240
51.85735 226
51.87746 237
51.89757 200
51.91769 218
51.9378 226
51.95792 238
51.97803 213
51.99814 212
52.01826 220
52.03837 227
52.05848 228
52.0786 240
52.09871 231
52.11883 238
52.13894 230
52.15905 240
52.17917 241
52.19928 233
52.21939 236
52.23951 235
52.25962 219
52.27974 204
52.29985 233
52.31996 197
52.34008 208
52.36019 215
52.3803 226
52.40042 213
52.42053 222
52.44064 236
52.46076 236
52.48087 232
52.50099 240
52.5211 211
52.54121 212
52.56133 192
52.58144 206
52.60155 270
52.62167 226
52.64178 202
52.6619 234
52.68201 253
52.70212 231
52.72224 210
52.74235 267
52.76246 227
52.78258 221
52.80269 235
52.8228 261
52.84292 240
52.86303 257
52.88315 267
52.90326 220
52.92337 232
52.94349 289
52.9636 263
52.98371 232
53.00383 241
53.02394 267
53.04406 284
53.06417 252
53.08428 248
53.1044 230
53.12451 245
53.14462 260
53.16474 208
53.18485 278
53.20497 255
53.22508 261
53.24519 243
53.26531 270
53.28542 249
53.30553 242
53.32565 293
53.34576 254
53.36587 231
53.38599 245
53.4061 252
53.42622 260
53.44633 270
53.46644 251
53.48656 246
53.50667 265
53.52678 259
53.5469 249
53.56701 252
53.58713 258
53.60724 277
53.62735 251
53.64747 247
53.66758 277
53.68769 267
53.70781 296
53.72792 257
53.74804 278
53.76815 268
53.78826 308
53.80838 248
53.82849 287
53.8486 296
53.86872 324
53.88883 250
53.90894 289
53.92906 294
53.94917 292
53.96929 307
53.9894 268
54.00951 303
54.02963 281
54.04974 309
54.06985 298
54.08997 281
54.11008 302
54.1302 295
54.15031 316
54.17042 335
54.19054 333
54.21065 332
54.23076 313
54.25088 337
54.27099 310
54.29111 358
54.31122 330
54.33133 312
54.35145 315
54.37156 311
54.39167 331
54.41179 319
54.4319 347
54.45201 307
54.47213 353
54.49224 360
54.51236 355
54.53247 361
54.55258 387
54.5727 369
54.59281 394
54.61292 411
54.63304 481
54.65315 482
54.67327 529
54.69338 625
54.71349 675
54.73361 749
54.75372 801
54.77383 922
54.79395 865
54.81406 931
54.83417 833
54.85429 803
54.8744 659
54.89452 676
54.91463 626
54.93474 654
54.95486 600
54.97497 613
54.99508 526
55.0152 523
55.03531 464
55.05543 429
55.07554 413
55.09565 447
55.11577 426
55.13588 440
55.15599 453
55.17611 492
55.19622 545
55.21634 535
55.23645 568
55.25656 595
55.27668 519
55.29679 569
55.3169 484
55.33702 488
55.35713 441
55.37724 444
55.39736 426
55.41747 427
55.43759 413
55.4577 401
55.47781 335
55.49793 335
55.51804 319
55.53815 311
55.55827 297
55.57838 331
55.5985 311
55.61861 283
55.63872 319
55.65884 293
55.67895 289
55.69906 290
55.71918 306
55.73929 284
55.75941 269
55.77952 302
55.79963 261
55.81975 287
55.83986 277
55.85997 278
55.88009 278
55.9002 264
55.92031 266
55.94043 273
55.96054 270
55.98066 272
56.00077 258
56.02088 243
56.041 284
56.06111 263
56.08122 255
56.10134 281
56.12145 272
56.14157 263
56.16168 257
56.18179 249
56.20191 266
56.22202 228
56.24213 244
56.26225 259
56.28236 272
56.30248 264
56.32259 246
56.3427 277
56.36282 255
56.38293 291
56.40304 262
56.42316 261
56.44327 269
56.46338 247
56.4835 248
56.50361 249
56.52373 255
56.54384 268
56.56395 250
56.58407 263
56.60418 258
56.62429 264
56.64441 276
56.66452 244
56.68464 261
56.70475 259
56.72486 248
56.74498 222
56.76509 237
56.7852 270
56.80532 271
56.82543 251
56.84554 244
56.86566 253
56.88577 239
56.90589 256
56.926 249
56.94611 252
56.96623 250
56.98634 228
57.00645 251
57.02657 255
57.04668 258
57.0668 252
57.08691 284
57.10702 287
57.12714 273
57.14725 290
57.16736 252
57.18748 302
57.20759 258
57.22771 252
57.24782 258
57.26793 241
57.28805 262
57.30816 268
57.32827 237
57.34839 229
57.3685 268
57.38861 213
57.40873 228
57.42884 240
57.44896 206
57.46907 228
57.48918 209
57.5093 234
57.52941 233
57.54952 218
57.56964 260
57.58975 263
57.60987 227
57.62998 229
57.65009 229
57.67021 212
57.69032 240
57.71043 224
57.73055 262
57.75066 229
57.77078 246
57.79089 239
57.811 238
57.83112 222
57.85123 242
57.87134 242
57.89146 257
57.91157 217
57.93168 253
57.9518 227
57.97191 225
57.99203 251
58.01214 230
58.03225 205
58.05237 228
58.07248 215
58.09259 235
58.11271 240
58.13282 229
58.15294 240
58.17305 214
58.19316 228
58.21328 247
58.23339 224
58.2535 213
58.27362 253
58.29373 245
58.31385 221
58.33396 215
58.35407 239
58.37419 220
58.3943 223
58.41441 202
58.43453 238
58.45464 228
58.47475 226
58.49487 240
58.51498 219
58.5351 258
58.55521 235
58.57532 215
58.59544 240
58.61555 203
58.63566 219
58.65578 235
58.67589 249
58.69601 242
58.71612 246
58.73623 217
58.75635 247
58.77646 235
58.79657 231
58.81669 233
58.8368 249
58.85691 236
58.87703 236
58.89714 222
58.91726 228
58.93737 257
58.95748 226
58.9776 224
58.99771 264
59.01782 267
59.03794 224
59.05805 229
59.07817 219
59.09828 206
59.11839 213
59.13851 245
59.15862 243
59.17873 245
59.19885 212
59.21896 252
59.23908 270
59.25919 271
59.2793 247
59.29942 297
59.31953 257
59.33964 254
59.35976 241
59.37987 284
59.39998 238
59.4201 268
59.44021 302
59.46033 287
59.48044 286
59.50055 316
59.52067 322
59.54078 333
59.56089 350
59.58101 346
59.60112 381
59.62124 403
59.64135 450
59.66146 467
59.68158 501
59.70169 597
59.7218 639
59.74192 794
59.76203 901
59.78215 993
59.80226 1208
59.82237 1336
59.84249 1548
59.8626 1548
59.88271 1540
59.90283 1494
59.92294 1327
59.94305 1183
59.96317 1062
59.98328 991
60.0034 964
60.02351 914
60.04362 882
60.06374 801
60.08385 729
60.10396 648
60.12408 543
60.14419 427
60.16431 369
60.18442 323
60.20453 318
60.22465 304
60.24476 293
60.26487 318
60.28499 309
60.3051 267
60.32522 242
60.34533 226
60.36544 251
60.38556 248
60.40567 261
60.42578 248
60.4459 241
60.46601 278
60.48612 236
60.50624 243
60.52635 251
60.54647 230
60.56658 228
60.58669 224
60.60681 254
60.62692 249
60.64703 249
60.66715 232
60.68726 242
60.70738 223
60.72749 239
60.7476 233
60.76772 237
60.78783 217
60.80794 240
60.82806 226
60.84817 245
60.86828 225
60.8884 222
60.90851 225
60.92863 232
60.94874 239
60.96885 219
60.98897 225
61.00908 237
61.02919 218
61.04931 224
61.06942 211
61.08954 204
61.10965 203
61.12976 230
61.14988 228
61.16999 206
61.1901 248
61.21022 247
61.23033 215
61.25045 236
61.27056 243
61.29067 250
61.31079 235
61.3309 223
61.35101 240
61.37113 255
61.39124 269
61.41135 250
61.43147 232
61.45158 272
61.4717 240
61.49181 226
61.51192 248
61.53204 269
61.55215 239
61.57226 264
61.59238 253
61.61249 299
61.63261 283
61.65272 256
61.67283 259
61.69295 277
61.71306 270
61.73317 259
61.75329 281
61.7734 285
61.79352 297
61.81363 295
61.83374 291
61.85386 307
61.87397 288
61.89408 283
61.9142 280
61.93431 284
61.95442 283
61.97454 282
61.99465 275
62.01477 317
62.03488 331
62.05499 318
62.07511 364
62.09522 301
62.11533 344
62.13545 341
62.15556 361
62.17568 365
62.19579 332
62.2159 377
62.23602 366
62.25613 340
62.27624 316
62.29636 304
62.31647 366
62.33659 329
62.3567 301
62.37681 289
62.39693 304
62.41704 292
62.43715 303
62.45727 318
62.47738 311
62.49749 273
62.51761 240
62.53772 290
62.55784 272
62.57795 258
62.59806 239
62.61818 250
62.63829 248
62.6584 258
62.67852 229
62.69863 234
62.71875 250
62.73886 229
62.75897 243
62.77909 244
62.7992 226
62.81931 220
62.83943 234
62.85954 221
62.87965 229
62.89977 213
62.91988 239
62.94 256
62.96011 218
62.98022 218
63.00034 231
63.02045 253
63.04056 219
63.06068 233
63.08079 271
63.10091 249
63.12102 236
63.14113 246
63.16125 232
63.18136 260
63.20147 227
63.22159 233
63.2417 228
63.26182 246
63.28193 227
63.30204 234
63.32216 243
63.34227 234
63.36238 229
63.3825 231
63.40261 262
63.42272 222
63.44284 247
63.46295 244
63.48307 259
63.50318 263
63.52329 233
63.54341 266
63.56352 278
63.58363 254
63.60375 254
63.62386 237
63.64398 259
63.66409 282
63.6842 266
63.70432 260
63.72443 282
63.74454 282
63.76466 304
63.78477 285
63.80489 319
63.825 336
63.84511 357
63.86523 383
63.88534 390
63.90545 450
63.92557 479
63.94568 443
63.96579 492
63.98591 457
64.00602 439
64.02614 395
64.04625 375
64.06636 369
64.08648 340
64.10659 392
64.1267 331
64.14682 345
64.16693 337
64.18705 311
64.20716 327
64.22727 269
64.24739 256
64.2675 230
64.28761 253
64.30773 230
64.32784 222
64.34796 220
64.36807 221
64.38818 222
64.4083 209
64.42841 192
64.44852 227
64.46864 197
64.48875 245
64.50886 221
64.52898 229
64.54909 225
64.56921 210
64.58932 221
64.60943 203
64.62955 197
64.64966 225
64.66977 211
64.68989 226
64.71 211
64.73012 210
64.75023 239
64.77034 196
64.79046 199
64.81057 202
64.83068 199
64.8508 220
64.87091 230
64.89102 197
64.91114 197
64.93125 220
64.95137 207
64.97148 197
64.99159 185
65.01171 243
65.03182 202
65.05193 215
65.07205 215
65.09216 203
65.11228 198
65.13239 190
65.1525 212
65.17262 225
65.19273 231
65.21284 200
65.23296 224
65.25307 206
65.27319 189
65.2933 212
65.31341 210
65.33353 235
65.35364 216
65.37375 248
65.39387 204
65.41398 227
65.43409 211
65.45421 259
65.47432 204
65.49444 200
65.51455 233
65.53466 222
65.55478 242
65.57489 253
65.595 257
65.61512 252
65.63523 269
65.65535 275
65.67546 259
65.69557 251
65.71569 267
65.7358 281
65.75591 251
65.77603 260
65.79614 240
65.81626 236
65.83637 231
65.85648 255
65.8766 242
65.89671 240
65.91682 247
65.93694 264
65.95705 245
65.97716 240
65.99728 248
66.01739 229
66.03751 212
66.05762 211
66.07773 223
66.09785 221
66.11796 191
66.13807 213
66.15819 223
66.1783 213
66.19842 198
66.21853 213
66.23864 211
66.25876 231
66.27887 210
66.29898 214
66.3191 219
66.33921 207
66.35933 192
66.37944 217
66.39955 205
66.41967 239
66.43978 188
66.45989 197
66.48001 210
66.50012 204
66.52023 197
66.54035 219
66.56046 211
66.58058 211
66.60069 213
66.6208 203
66.64092 210
66.66103 198
66.68114 230
66.70126 216
66.72137 221
66.74149 203
66.7616 180
66.78171 206
66.80183 220
66.82194 214
66.84205 228
66.86217 221
66.88228 196
66.90239 208
66.92251 193
66.94262 218
66.96274 222
66.98285 226
67.00296 236
67.02308 218
67.04319 230
67.0633 204
67.08342 228
67.10353 233
67.12365 223
67.14376 232
67.16387 268
67.18399 222
67.2041 263
67.22421 270
67.24433 269
67.26444 273
67.28456 270
67.30467 285
67.32478 301
67.3449 301
67.36501 283
67.38512 322
67.40524 350
67.42535 318
67.44546 377
67.46558 431
67.48569 467
67.50581 485
67.52592 530
67.54603 597
67.56615 711
67.58626 758
67.60637 880
67.62649 932
67.6466 955
67.66672 945
67.68683 955
67.70694 885
67.72706 837
67.74717 754
67.76728 715
67.7874 676
67.80751 658
67.82763 736
67.84774 792
67.86785 845
67.88797 787
67.90808 795
67.92819 818
67.94831 867
67.96842 886
67.98853 949
68.00865 1118
68.02876 1244
68.04888 1221
68.06899 1267
68.0891 1269
68.10922 1302
68.12933 1169
68.14944 1125
68.16956 1123
68.18967 1125
68.20979 1232
68.2299 1252
68.25001 1175
68.27013 1117
68.29024 945
68.31035 829
68.33047 753
68.35058 642
68.3707 562
68.39081 579
68.41092 586
68.43104 536
68.45115 519
68.47126 437
68.49138 405
68.51149 370
68.5316 313
68.55172 285
68.57183 261
68.59195 248
68.61206 247
68.63217 258
68.65229 231
68.6724 261
68.69251 244
68.71263 248
68.73274 237
68.75286 244
68.77297 219
68.79308 223
68.8132 248
68.83331 229
68.85342 224
68.87354 258
68.89365 233
68.91376 222
68.93388 215
68.95399 231
68.97411 220
68.99422 207
69.01433 212
69.03445 210
69.05456 213
69.07467 231
69.09479 230
69.1149 214
69.13502 203
69.15513 233
69.17524 217
69.19536 214
69.21547 221
69.23558 232
69.2557 228
69.27581 193
69.29593 217
69.31604 208
69.33615 221
69.35627 196
69.37638 209
69.39649 194
69.41661 224
69.43672 227
69.45683 208
69.47695 212
69.49706 231
69.51718 194
69.53729 212
69.5574 245
69.57752 221
69.59763 211
69.61774 223
69.63786 222
69.65797 206
69.67809 187
69.6982 220
69.71831 228
69.73843 213
69.75854 204
69.77865 219
69.79877 223
69.81888 190
69.839 215
69.85911 213
69.87922 207
69.89934 231
69.91945 201
69.93956 246
69.95968 224
69.97979 205
69.9999 209
70.02002 229
70.04013 221
70.06025 190
70.08036 207
70.10047 234
70.12059 224
70.1407 218
70.16081 240
70.18093 219
70.20104 212
70.22116 214
70.24127 230
70.26138 208
70.2815 207
70.30161 198
70.32172 231
70.34184 219
70.36195 191
70.38207 218
70.40218 189
70.42229 210
70.44241 207
70.46252 238
70.48263 160
70.50275 215
70.52286 207
70.54297 198
70.56309 206
70.5832 212
70.60332 216
70.62343 180
70.64354 178
70.66366 188
70.68377 215
70.70388 191
70.724 212
70.74411 218
70.76423 199
70.78434 207
70.80445 190
70.82457 202
70.84468 194
70.86479 197
70.88491 190
70.90502 160
70.92513 178
70.94525 211
70.96536 184
70.98548 196
71.00559 189
71.0257 196
71.04582 197
71.06593 182
71.08604 169
71.10616 194
71.12627 192
71.14639 182
71.1665 196
71.18661 193
71.20673 194
71.22684 187
71.24695 199
71.26707 190
71.28718 214
71.3073 205
71.32741 193
71.34752 198
71.36764 190
71.38775 217
71.40786 209
71.42798 198
71.44809 191
71.4682 178
71.48832 209
71.50843 203
71.52855 201
71.54866 193
71.56877 199
71.58889 200
71.609 182
71.62911 175
71.64923 184
71.66934 212
71.68946 182
71.70957 191
71.72968 206
71.7498 182
71.76991 205
71.79002 216
71.81014 196
71.83025 189
71.85037 201
71.87048 201
71.89059 192
71.91071 195
71.93082 198
71.95093 198
71.97105 203
71.99116 208
72.01127 192
72.03139 206
72.0515 208
72.07162 190
72.09173 186
72.11184 198
72.13196 180
72.15207 211
72.17218 202
72.1923 208
72.21241 212
72.23253 201
72.25264 201
72.27275 186
72.29287 170
72.31298 183
72.33309 190
72.35321 214
72.37332 190
72.39344 221
72.41355 204
72.43366 195
72.45378 205
72.47389 224
72.494 204
72.51412 209
72.53423 197
72.55434 191
72.57446 211
72.59457 234
72.61469 185
72.6348 206
72.65491 215
72.67503 189
72.69514 207
72.71525 206
72.73537 190
72.75548 211
72.7756 201
72.79571 211
72.81582 233
72.83594 203
72.85605 220
72.87616 216
72.89628 230
72.91639 225
72.9365 203
72.95662 207
72.97673 212
72.99685 211
73.01696 227
73.03707 219
73.05719 233
73.0773 218
73.09741 222
73.11753 228
73.13764 221
73.15776 225
73.17787 273
73.19798 254
73.2181 283
73.23821 300
73.25832 330
73.27844 357
73.29855 385
73.31867 412
73.33878 427
73.35889 474
73.37901 488
73.39912 435
73.41923 456
73.43935 426
73.45946 357
73.47957 366
73.49969 332
73.5198 307
73.53992 364
73.56003 325
73.58014 353
73.60026 314
73.62037 362
73.64048 312
73.6606 326
73.68071 268
73.70083 239
73.72094 237
73.74105 218
73.76117 200
73.78128 223
73.80139 228
73.82151 204
73.84162 199
73.86174 195
73.88185 190
73.90196 194
73.92208 233
73.94219 217
73.9623 216
73.98242 207
74.00253 181
74.02264 212
74.04276 212
74.06287 175
74.08299 179
74.1031 195
74.12321 186
74.14333 203
74.16344 198
74.18355 187
74.20367 200
74.22378 203
74.2439 210
74.26401 190
74.28412 177
74.30424 204
74.32435 195
74.34446 199
74.36458 194
74.38469 195
74.40481 206
74.42492 200
74.44503 201
74.46515 204
74.48526 196
74.50537 191
74.52549 223
74.5456 185
74.56571 192
74.58583 197
74.60594 178
74.62606 221
74.64617 179
74.66628 169
74.6864 189
74.70651 207
74.72662 208
74.74674 194
74.76685 205
74.78697 213
74.80708 179
74.82719 195
74.84731 239
74.86742 187
74.88753 199
74.90765 222
74.92776 196
74.94787 214
74.96799 212
74.9881 200
75.00822 193
