3.00117 21645
3.02128 20916
3.0414 20280
3.06151 19709
3.08162 19462
3.10174 18805
3.12185 18282
3.14197 17410
3.16208 17191
3.18219 16790
3.20231 16484
3.22242 15470
3.24253 15344
3.26265 14743
3.28276 14352
3.30288 14095
3.32299 13362
3.3431 13155
3.36322 12500
3.38333 12382
3.40344 12020
3.42356 11427
3.44367 11239
3.46379 10799
3.4839 10774
3.50401 10282
3.52413 9876
3.54424 9540
3.56435 9182
3.58447 8901
3.60458 8526
3.62469 8172
3.64481 8162
3.66492 7712
3.68504 7408
3.70515 7198
3.72526 6838
3.74538 6867
3.76549 6506
3.7856 6181
3.80572 6048
3.82583 5833
3.84595 5687
3.86606 5403
3.88617 5186
3.90629 4804
3.9264 4658
3.94651 4672
3.96663 4442
3.98674 4305
4.00686 4059
4.02697 3903
4.04708 3895
4.0672 3628
4.08731 3546
4.10742 3385
4.12754 3271
4.14765 3294
4.16776 2995
4.18788 2905
4.20799 2770
4.22811 2719
4.24822 2731
4.26833 2724
4.28845 2507
4.30856 2434
4.32867 2447
4.34879 2418
4.3689 2401
4.38902 2283
4.40913 2171
4.42924 2079
4.44936 2171
4.46947 2189
4.48958 2106
4.5097 1964
4.52981 1975
4.54992 1973
4.57004 1929
4.59015 1904
4.61027 1852
4.63038 1879
4.65049 1856
4.67061 1853
4.69072 1693
4.71083 1737
4.73095 1689
4.75106 1662
4.77118 1633
4.79129 1547
4.8114 1568
4.83152 1573
4.85163 1508
4.87174 1513
4.89186 1513
4.91197 1457
4.93209 1435
4.9522 1400
4.97231 1493
4.99243 1420
5.01254 1433
5.03265 1333
5.05277 1346
5.07288 1387
5.09299 1311
5.11311 1318
5.13322 1373
5.15334 1390
5.17345 1310
5.19356 1211
5.21368 1324
5.23379 1147
5.2539 1249
5.27402 1221
5.29413 1146
5.31425 1217
5.33436 1155
5.35447 1133
5.37459 1137
5.3947 1101
5.41481 1098
5.43493 1188
5.45504 1086
5.47516 1111
5.49527 1088
5.51538 1061
5.5355 1015
5.55561 1045
5.57572 1035
5.59584 998
5.61595 1062
5.63606 965
5.65618 1026
5.67629 1000
5.69641 1070
5.71652 996
5.73663 1044
5.75675 1001
5.77686 971
5.79697 989
5.81709 1033
5.8372 954
5.85732 1010
5.87743 988
5.89754 935
5.91766 982
5.93777 925
5.95788 911
5.978 939
5.99811 964
6.01823 914
6.03834 924
6.05845 967
6.07857 931
6.09868 877
6.11879 944
6.13891 923
6.15902 963
6.17913 932
6.19925 926
6.21936 894
6.23948 944
6.25959 894
6.2797 913
6.29982 851
6.31993 934
6.34004 876
6.36016 910
6.38027 931
6.40039 851
6.4205 839
6.44061 932
6.46073 923
6.48084 871
6.50095 920
6.52107 891
6.54118 941
6.56129 862
6.58141 912
6.60152 870
6.62164 862
6.64175 855
6.66186 841
6.68198 871
6.70209 794
6.7222 891
6.74232 813
6.76243 870
6.78255 839
6.80266 807
6.82277 835
6.84289 884
6.863 859
6.88311 859
6.90323 827
6.92334 854
6.94346 856
6.96357 881
6.98368 836
7.0038 849
7.02391 840
7.04402 828
7.06414 811
7.08425 817
7.10436 786
7.12448 819
7.14459 847
7.16471 776
7.18482 757
7.20493 802
7.22505 811
7.24516 756
7.26527 796
7.28539 759
7.3055 808
7.32562 726
7.34573 711
7.36584 749
7.38596 740
7.40607 728
7.42618 791
7.4463 705
7.46641 783
7.48653 723
7.50664 732
7.52675 680
7.54687 762
7.56698 714
7.58709 741
7.60721 718
7.62732 755
7.64743 712
7.66755 701
7.68766 755
7.70778 835
7.72789 682
7.748 722
7.76812 718
7.78823 719
7.80834 704
7.82846 689
7.84857 673
7.86869 651
7.8888 694
7.90891 692
7.92903 681
7.94914 696
7.96925 651
7.98937 641
8.00948 696
8.0296 642
8.04971 688
8.06982 674
8.08994 664
8.11005 630
8.13016 693
8.15028 650
8.17039 648
8.1905 646
8.21062 676
8.23073 713
8.25085 636
8.27096 656
8.29107 649
8.31119 679
8.3313 710
8.35141 708
8.37153 651
8.39164 607
8.41176 660
8.43187 675
8.45198 699
8.4721 658
8.49221 672
8.51232 672
8.53244 698
8.55255 672
8.57266 728
8.59278 705
8.61289 716
8.63301 705
8.65312 774
8.67323 779
8.69335 751
8.71346 768
8.73357 763
8.75369 735
8.7738 764
8.79392 778
8.81403 722
8.83414 693
8.85426 668
8.87437 691
8.89448 684
8.9146 642
8.93471 663
8.95483 630
8.97494 601
8.99505 559
9.01517 561
9.03528 543
9.05539 547
9.07551 574
9.09562 559
9.11573 521
9.13585 536
9.15596 549
9.17608 496
9.19619 507
9.2163 498
9.23642 515
9.25653 499
9.27664 545
9.29676 541
9.31687 509
9.33699 493
9.3571 516
9.37721 494
9.39733 485
9.41744 500
9.43755 510
9.45767 491
9.47778 508
9.4979 476
9.51801 507
9.53812 473
9.55824 460
9.57835 474
9.59846 497
9.61858 465
9.63869 434
9.6588 454
9.67892 448
9.69903 463
9.71915 496
9.73926 454
9.75937 451
9.77949 464
9.7996 505
9.81971 452
9.83983 433
9.85994 480
9.88006 480
9.90017 460
9.92028 463
9.9404 459
9.96051 448
9.98062 423
10.00074 457
10.02085 483
10.04097 477
10.06108 460
10.08119 454
10.10131 481
10.12142 451
10.14153 458
10.16165 469
10.18176 393
10.20187 473
10.22199 405
10.2421 435
10.26222 504
10.28233 425
10.30244 455
10.32256 445
10.34267 445
10.36278 433
10.3829 455
10.40301 480
10.42313 474
10.44324 445
10.46335 467
10.48347 421
10.50358 463
10.52369 417
10.54381 486
10.56392 403
10.58403 408
10.60415 419
10.62426 469
10.64438 450
10.66449 386
10.6846 478
10.70472 417
10.72483 448
10.74494 399
10.76506 434
10.78517 437
10.80529 442
10.8254 406
10.84551 448
10.86563 425
10.88574 466
10.90585 489
10.92597 455
10.94608 440
10.9662 445
10.98631 490
11.00642 472
11.02654 449
11.04665 414
11.06676 431
11.08688 430
11.10699 441
11.1271 438
11.14722 473
11.16733 480
11.18745 521
11.20756 474
11.22767 468
11.24779 417
11.2679 435
11.28801 462
11.30813 506
11.32824 503
11.34836 451
11.36847 447
11.38858 431
11.4087 490
11.42881 473
11.44892 496
11.46904 480
11.48915 490
11.50927 512
11.52938 520
11.54949 548
11.56961 539
11.58972 585
11.60983 558
11.62995 529
11.65006 535
11.67017 509
11.69029 505
11.7104 481
11.73052 532
11.75063 496
11.77074 484
11.79086 484
11.81097 510
11.83108 482
11.8512 484
11.87131 522
11.89143 506
11.91154 556
11.93165 521
11.95177 519
11.97188 504
11.99199 548
12.01211 543
12.03222 526
12.05234 543
12.07245 491
12.09256 559
12.11268 529
12.13279 572
12.1529 548
12.17302 600
12.19313 594
12.21324 597
12.23336 606
12.25347 573
12.27359 602
12.2937 601
12.31381 593
12.33393 603
12.35404 607
12.37415 608
12.39427 553
12.41438 589
12.4345 537
12.45461 541
12.47472 500
12.49484 474
12.51495 507
12.53506 471
12.55518 508
12.57529 491
12.5954 418
12.61552 463
12.63563 443
12.65575 454
12.67586 424
12.69597 434
12.71609 470
12.7362 424
12.75631 397
12.77643 456
12.79654 450
12.81666 416
12.83677 414
12.85688 449
12.877 408
12.89711 411
12.91722 411
12.93734 450
12.95745 462
12.97757 417
12.99768 432
13.01779 432
13.03791 394
13.05802 412
13.07813 407
13.09825 420
13.11836 443
13.13847 425
13.15859 416
13.1787 424
13.19882 416
13.21893 399
13.23904 438
13.25916 399
13.27927 392
13.29938 397
13.3195 387
13.33961 378
13.35973 399
13.37984 382
13.39995 427
13.42007 407
13.44018 405
13.46029 399
13.48041 393
13.50052 422
13.52064 418
13.54075 424
13.56086 424
13.58098 399
13.60109 395
13.6212 400
13.64132 431
13.66143 416
13.68154 404
13.70166 387
13.72177 387
13.74189 372
13.762 397
13.78211 404
13.80223 394
13.82234 412
13.84245 398
13.86257 406
13.88268 431
13.9028 420
13.92291 377
13.94302 415
13.96314 367
13.98325 348
14.00336 384
14.02348 375
14.04359 397
14.06371 431
14.08382 371
14.10393 405
14.12405 405
14.14416 412
14.16427 415
14.18439 391
14.2045 375
14.22461 386
14.24473 378
14.26484 396
14.28496 408
14.30507 387
14.32518 371
14.3453 399
14.36541 394
14.38552 374
14.40564 394
14.42575 432
14.44587 400
14.46598 407
14.48609 445
14.50621 386
14.52632 358
14.54643 424
14.56655 390
14.58666 422
14.60677 365
14.62689 370
14.647 445
14.66712 415
14.68723 371
14.70734 401
14.72746 377
14.74757 427
14.76768 389
14.7878 386
14.80791 399
14.82803 410
14.84814 400
14.86825 386
14.88837 431
14.90848 391
14.92859 363
14.94871 426
14.96882 441
14.98894 420
15.00905 389
15.02916 428
15.04928 415
15.06939 403
15.0895 390
15.10962 376
15.12973 389
15.14984 417
15.16996 407
15.19007 395
15.21019 425
15.2303 391
15.25041 403
15.27053 387
15.29064 415
15.31075 426
15.33087 387
15.35098 416
15.3711 414
15.39121 404
15.41132 386
15.43144 391
15.45155 399
15.47166 356
15.49178 378
15.51189 425
15.53201 403
15.55212 381
15.57223 372
15.59235 369
15.61246 382
15.63257 401
15.65269 432
15.6728 393
15.69291 412
15.71303 385
15.73314 423
15.75326 426
15.77337 372
15.79348 389
15.8136 383
15.83371 399
15.85382 429
15.87394 360
15.89405 374
15.91417 398
15.93428 367
15.95439 381
15.97451 409
15.99462 394
16.01473 396
16.03485 397
16.05496 423
16.07508 395
16.09519 395
16.1153 413
16.13542 363
16.15553 415
16.17564 381
16.19576 405
16.21587 426
16.23598 378
16.2561 386
16.27621 388
16.29633 387
16.31644 408
16.33655 409
16.35667 383
16.37678 370
16.39689 372
16.41701 363
16.43712 385
16.45724 387
16.47735 381
16.49746 379
16.51758 420
16.53769 400
16.5578 363
16.57792 412
16.59803 399
16.61814 377
16.63826 438
16.65837 412
16.67849 399
16.6986 383
16.71871 423
16.73883 428
16.75894 431
16.77905 409
16.79917 386
16.81928 380
16.8394 390
16.85951 371
16.87962 401
16.89974 423
16.91985 375
16.93996 384
16.96008 377
16.98019 379
17.00031 429
17.02042 403
17.04053 416
17.06065 425
17.08076 390
17.10087 399
17.12099 354
17.1411 417
17.16121 430
17.18133 411
17.20144 469
17.22156 448
17.24167 432
17.26178 393
17.2819 383
17.30201 443
17.32212 411
17.34224 409
17.36235 441
17.38247 447
17.40258 440
17.42269 431
17.44281 399
17.46292 446
17.48303 411
17.50315 447
17.52326 454
17.54338 399
17.56349 411
17.5836 412
17.60372 420
17.62383 418
17.64394 388
17.66406 435
17.68417 449
17.70428 468
17.7244 416
17.74451 446
17.76463 450
17.78474 409
17.80485 460
17.82497 446
17.84508 409
17.86519 477
17.88531 424
17.90542 410
17.92554 415
17.94565 434
17.96576 412
17.98588 455
18.00599 427
18.0261 412
18.04622 449
18.06633 418
18.08645 404
18.10656 411
18.12667 420
18.14679 403
18.1669 399
18.18701 384
18.20713 389
18.22724 425
18.24735 420
18.26747 459
18.28758 425
18.3077 422
18.32781 436
18.34792 389
18.36804 397
18.38815 401
18.40826 425
18.42838 405
18.44849 367
18.46861 445
18.48872 447
18.50883 396
18.52895 427
18.54906 470
18.56917 410
18.58929 476
18.6094 421
18.62951 411
18.64963 424
18.66974 436
18.68986 414
18.70997 414
18.73008 415
18.7502 459
18.77031 414
18.79042 443
18.81054 431
18.83065 409
18.85077 443
18.87088 439
18.89099 431
18.91111 454
18.93122 416
18.95133 416
18.97145 441
18.99156 496
19.01168 463
19.03179 448
19.0519 454
19.07202 503
19.09213 482
19.11224 501
19.13236 501
19.15247 489
19.17258 499
19.1927 537
19.21281 544
19.23293 574
19.25304 545
19.27315 566
19.29327 616
19.31338 586
19.33349 599
19.35361 662
19.37372 698
19.39384 672
19.41395 687
19.43406 702
19.45418 763
19.47429 775
19.4944 799
19.51452 860
19.53463 852
19.55475 903
19.57486 1009
19.59497 971
19.61509 1071
19.6352 1050
19.65531 1116
19.67543 1128
19.69554 1225
19.71565 1270
19.73577 1243
19.75588 1230
19.776 1209
19.79611 1199
19.81622 1198
19.83634 1184
19.85645 1112
19.87656 1145
19.89668 1061
19.91679 1083
19.93691 1049
19.95702 994
19.97713 1013
19.99725 1043
20.01736 998
20.03747 943
20.05759 948
20.0777 1001
20.09782 972
20.11793 941
20.13804 922
20.15816 917
20.17827 912
20.19838 886
20.2185 898
20.23861 840
20.25872 899
20.27884 881
20.29895 896
20.31907 881
20.33918 843
20.35929 818
20.37941 855
20.39952 854
20.41963 800
20.43975 788
20.45986 837
20.47998 844
20.50009 856
20.5202 800
20.54032 864
20.56043 853
20.58054 891
20.60066 923
20.62077 900
20.64088 889
20.661 980
20.68111 976
20.70123 1031
20.72134 965
20.74145 1089
20.76157 1103
20.78168 1150
20.80179 1087
20.82191 1077
20.84202 1025
20.86214 984
20.88225 903
20.90236 932
20.92248 868
20.94259 817
20.9627 833
20.98282 809
21.00293 817
21.02305 767
21.04316 751
21.06327 731
21.08339 719
21.1035 737
21.12361 701
21.14373 718
21.16384 780
21.18395 751
21.20407 680
21.22418 712
21.2443 720
21.26441 685
21.28452 646
21.30464 732
21.32475 702
21.34486 649
21.36498 695
21.38509 710
21.40521 690
21.42532 678
21.44543 641
21.46555 683
21.48566 671
21.50577 701
21.52589 734
21.546 635
21.56612 706
21.58623 687
21.60634 659
21.62646 689
21.64657 670
21.66668 695
21.6868 587
21.70691 644
21.72702 639
21.74714 662
21.76725 587
21.78737 697
21.80748 629
21.82759 680
21.84771 672
21.86782 680
21.88793 632
21.90805 702
21.92816 739
21.94828 698
21.96839 721
21.9885 697
22.00862 703
22.02873 704
22.04884 608
22.06896 652
22.08907 641
22.10919 625
22.1293 673
22.14941 666
22.16953 622
22.18964 600
22.20975 649
22.22987 618
22.24998 635
22.27009 638
22.29021 622
22.31032 653
22.33044 665
22.35055 671
22.37066 616
22.39078 640
22.41089 629
22.431 694
22.45112 634
22.47123 579
22.49135 631
22.51146 627
22.53157 614
22.55169 678
22.5718 623
22.59191 614
22.61203 615
22.63214 585
22.65225 642
22.67237 611
22.69248 676
22.7126 595
22.73271 617
22.75282 641
22.77294 634
22.79305 665
22.81316 623
22.83328 591
22.85339 612
22.87351 633
22.89362 642
22.91373 631
22.93385 623
22.95396 696
22.97407 620
22.99419 615
23.0143 639
23.03442 574
23.05453 647
23.07464 605
23.09476 615
23.11487 574
23.13498 582
23.1551 658
23.17521 625
23.19532 602
23.21544 645
23.23555 651
23.25567 623
23.27578 647
23.29589 626
23.31601 659
23.33612 643
23.35623 603
23.37635 632
23.39646 612
23.41658 672
23.43669 702
23.4568 653
23.47692 702
23.49703 650
23.51714 642
23.53726 641
23.55737 644
23.57749 685
23.5976 616
23.61771 650
23.63783 597
23.65794 671
23.67805 642
23.69817 595
23.71828 628
23.73839 610
23.75851 619
23.77862 644
23.79874 601
23.81885 629
23.83896 602
23.85908 666
23.87919 600
23.8993 620
23.91942 577
23.93953 598
23.95965 636
23.97976 622
23.99987 619
24.01999 631
24.0401 604
24.06021 630
24.08033 630
24.10044 599
24.12056 638
24.14067 662
24.16078 631
24.1809 677
24.20101 663
24.22112 637
24.24124 659
24.26135 628
24.28146 644
24.30158 613
24.32169 625
24.34181 611
24.36192 641
24.38203 637
24.40215 640
24.42226 655
24.44237 673
24.46249 637
24.4826 644
24.50272 644
24.52283 627
24.54294 697
24.56306 635
24.58317 638
24.60328 641
24.6234 628
24.64351 690
24.66362 645
24.68374 672
24.70385 653
24.72397 681
24.74408 701
24.76419 727
24.78431 690
24.80442 696
24.82453 769
24.84465 731
24.86476 700
24.88488 729
24.90499 660
24.9251 657
24.94522 685
24.96533 628
24.98544 686
25.00556 666
25.02567 687
25.04579 692
25.0659 647
25.08601 701
25.10613 693
25.12624 742
25.14635 740
25.16647 696
25.18658 667
25.20669 714
25.22681 758
25.24692 710
25.26704 696
25.28715 710
25.30726 671
25.32738 744
25.34749 735
25.3676 668
25.38772 677
25.40783 730
25.42795 710
25.44806 694
25.46817 667
25.48829 650
25.5084 687
25.52851 668
25.54863 686
25.56874 672
25.58886 673
25.60897 735
25.62908 666
25.6492 556
25.66931 609
25.68942 609
25.70954 629
25.72965 612
25.74976 655
25.76988 584
25.78999 631
25.81011 610
25.83022 626
25.85033 587
25.87045 621
25.89056 588
25.91067 645
25.93079 629
25.9509 620
25.97102 638
25.99113 622
26.01124 637
26.03136 682
26.05147 631
26.07158 619
26.0917 631
26.11181 615
26.13193 609
26.15204 646
26.17215 704
26.19227 681
26.21238 714
26.23249 708
26.25261 715
26.27272 751
26.29283 750
26.31295 787
26.33306 822
26.35318 868
26.37329 957
26.3934 989
26.41352 1094
26.43363 1298
26.45374 1414
26.47386 1485
26.49397 1731
26.51409 2032
26.5342 2072
26.55431 2223
26.57443 2310
26.59454 2162
26.61465 1927
26.63477 1838
26.65488 1550
26.67499 1268
26.69511 1107
26.71522 963
26.73534 872
26.75545 874
26.77556 781
26.79568 765
26.81579 702
26.8359 677
26.85602 742
26.87613 704
26.89625 725
26.91636 711
26.93647 717
26.95659 712
26.9767 689
26.99681 702
27.01693 682
27.03704 681
27.05716 699
27.07727 683
27.09738 622
27.1175 742
27.13761 743
27.15772 722
27.17784 738
27.19795 753
27.21806 743
27.23818 783
27.25829 776
27.27841 860
27.29852 852
27.31863 827
27.33875 839
27.35886 792
27.37897 830
27.39909 842
27.4192 751
27.43932 740
27.45943 739
27.47954 715
27.49966 691
27.51977 757
27.53988 712
27.56 704
27.58011 662
27.60023 713
27.62034 719
27.64045 731
27.66057 732
27.68068 714
27.70079 714
27.72091 781
27.74102 728
27.76113 774
27.78125 769
27.80136 762
27.82148 821
27.84159 772
27.8617 731
27.88182 736
27.90193 716
27.92204 701
27.94216 776
27.96227 689
27.98239 665
28.0025 690
28.02261 664
28.04273 661
28.06284 621
28.08295 638
28.10307 633
28.12318 610
28.1433 617
28.16341 633
28.18352 550
28.20364 573
28.22375 608
28.24386 626
28.26398 614
28.28409 647
28.3042 585
28.32432 599
28.34443 615
28.36455 581
28.38466 602
28.40477 607
28.42489 551
28.445 622
28.46511 549
28.48523 593
28.50534 545
28.52546 518
28.54557 571
28.56568 566
28.5858 548
28.60591 488
28.62602 571
28.64614 554
28.66625 562
28.68636 504
28.70648 579
28.72659 520
28.74671 525
28.76682 557
28.78693 533
28.80705 522
28.82716 567
28.84727 513
28.86739 569
28.8875 550
28.90762 582
28.92773 581
28.94784 550
28.96796 579
28.98807 582
29.00818 600
29.0283 581
29.04841 583
29.06853 540
29.08864 578
29.10875 570
29.12887 546
29.14898 534
29.16909 578
29.18921 517
29.20932 514
29.22943 546
29.24955 560
29.26966 537
29.28978 525
29.30989 518
29.33 550
29.35012 531
29.37023 529
29.39034 496
29.41046 494
29.43057 540
29.45069 520
29.4708 498
29.49091 540
29.51103 520
29.53114 507
29.55125 518
29.57137 529
29.59148 548
29.6116 536
29.63171 545
29.65182 530
29.67194 547
29.69205 545
29.71216 550
29.73228 567
29.75239 579
29.7725 541
29.79262 502
29.81273 575
29.83285 555
29.85296 503
29.87307 567
29.89319 523
29.9133 528
29.93341 562
29.95353 465
29.97364 526
29.99376 531
30.01387 520
30.03398 493
30.0541 504
30.07421 540
30.09432 492
30.11444 551
30.13455 473
30.15467 549
30.17478 477
30.19489 472
30.21501 581
30.23512 509
30.25523 498
30.27535 502
30.29546 527
30.31557 531
30.33569 519
30.3558 513
30.37592 555
30.39603 549
30.41614 543
30.43626 532
30.45637 523
30.47648 498
30.4966 541
30.51671 506
30.53683 496
30.55694 503
30.57705 538
30.59717 508
30.61728 523
30.63739 494
30.65751 517
30.67762 522
30.69773 516
30.71785 497
30.73796 524
30.75808 504
30.77819 521
30.7983 507
30.81842 506
30.83853 521
30.85864 490
30.87876 518
30.89887 499
30.91899 503
30.9391 548
30.95921 527
30.97933 542
30.99944 542
31.01955 553
31.03967 521
31.05978 524
31.0799 546
31.10001 528
31.12012 534
31.14024 520
31.16035 569
31.18046 567
31.20058 564
31.22069 541
31.2408 581
31.26092 542
31.28103 531
31.30115 582
31.32126 611
31.34137 570
31.36149 675
31.3816 672
31.40171 737
31.42183 787
31.44194 854
31.46206 1057
31.48217 1154
31.50228 1320
31.5224 1529
31.54251 1754
31.56262 1987
31.58274 2245
31.60285 2209
31.62297 2226
31.64308 2164
31.66319 2067
31.68331 1805
31.70342 1523
31.72353 1302
31.74365 1120
31.76376 942
31.78387 756
31.80399 672
31.8241 617
31.84422 571
31.86433 505
31.88444 537
31.90456 514
31.92467 541
31.94478 451
31.9649 530
31.98501 483
32.00513 505
32.02524 467
32.04535 475
32.06547 462
32.08558 445
32.10569 465
32.12581 505
32.14592 490
32.16604 454
32.18615 434
32.20626 461
32.22638 467
32.24649 464
32.2666 454
32.28672 440
32.30683 494
32.32694 453
32.34706 437
32.36717 409
32.38729 478
32.4074 441
32.42751 383
32.44763 423
32.46774 438
32.48785 430
32.50797 405
32.52808 425
32.5482 446
32.56831 385
32.58842 424
32.60854 464
32.62865 421
32.64876 451
32.66888 460
32.68899 442
32.7091 412
32.72922 425
32.74933 376
32.76945 423
32.78956 456
32.80967 419
32.82979 457
32.8499 404
32.87001 416
32.89013 484
32.91024 467
32.93036 450
32.95047 438
32.97058 453
32.9907 413
33.01081 451
33.03092 424
33.05104 426
33.07115 450
33.09127 430
33.11138 467
33.13149 425
33.15161 421
33.17172 434
33.19183 478
33.21195 453
33.23206 438
33.25217 465
33.27229 477
33.2924 452
33.31252 462
33.33263 434
33.35274 468
33.37286 494
33.39297 465
33.41308 452
33.4332 441
33.45331 451
33.47343 422
33.49354 433
33.51365 455
33.53377 456
33.55388 449
33.57399 423
33.59411 434
33.61422 428
33.63434 481
33.65445 463
33.67456 455
33.69468 471
33.71479 430
33.7349 438
33.75502 458
33.77513 491
33.79524 444
33.81536 485
33.83547 502
33.85559 457
33.8757 468
33.89581 502
33.91593 475
33.93604 512
33.95615 515
33.97627 488
33.99638 507
34.0165 488
34.03661 523
34.05672 569
34.07684 590
34.09695 598
34.11706 580
34.13718 626
34.15729 618
34.17741 651
34.19752 637
34.21763 642
34.23775 690
34.25786 631
34.27797 682
34.29809 648
34.3182 652
34.33831 650
34.35843 690
34.37854 710
34.39866 676
34.41877 690
34.43888 683
34.459 671
34.47911 700
34.49922 727
34.51934 747
34.53945 705
34.55957 688
34.57968 728
34.59979 725
34.61991 697
34.64002 757
34.66013 742
34.68025 776
34.70036 777
34.72047 777
34.74059 742
34.7607 822
34.78082 770
34.80093 841
34.82104 775
34.84116 783
34.86127 795
34.88138 806
34.9015 812
34.92161 811
34.94173 780
34.96184 782
34.98195 752
35.00207 783
35.02218 699
35.04229 689
35.06241 691
35.08252 684
35.10264 706
35.12275 691
35.14286 666
35.16298 694
35.18309 685
35.2032 663
35.22332 621
35.24343 660
35.26354 677
35.28366 638
35.30377 655
35.32389 626
35.344 603
35.36411 683
35.38423 640
35.40434 608
35.42445 610
35.44457 640
35.46468 628
35.4848 602
35.50491 645
35.52502 617
35.54514 602
35.56525 643
35.58536 603
35.60548 629
35.62559 621
35.64571 642
35.66582 626
35.68593 579
35.70605 624
35.72616 629
35.74627 618
35.76639 626
35.7865 629
35.80661 610
35.82673 645
35.84684 590
35.86696 652
35.88707 653
35.90718 677
35.9273 594
35.94741 611
35.96752 565
35.98764 581
36.00775 590
36.02787 571
36.04798 618
36.06809 625
36.08821 590
36.10832 605
36.12843 558
36.14855 604
36.16866 569
36.18878 567
36.20889 573
36.229 573
36.24912 551
36.26923 574
36.28934 514
36.30946 606
36.32957 610
36.34968 635
36.3698 664
36.38991 633
36.41003 703
36.43014 700
36.45025 701
36.47037 676
36.49048 674
36.51059 660
36.53071 594
36.55082 626
36.57094 667
36.59105 589
36.61116 582
36.63128 609
36.65139 581
36.6715 624
36.69162 574
36.71173 600
36.73184 606
36.75196 597
36.77207 592
36.79219 600
36.8123 584
36.83241 617
36.85253 608
36.87264 643
36.89275 607
36.91287 627
36.93298 612
36.9531 676
36.97321 609
36.99332 587
37.01344 610
37.03355 578
37.05366 612
37.07378 608
37.09389 602
37.11401 545
37.13412 603
37.15423 555
37.17435 569
37.19446 538
37.21457 538
37.23469 528
37.2548 590
37.27491 503
37.29503 585
37.31514 592
37.33526 563
37.35537 599
37.37548 617
37.3956 581
37.41571 582
37.43582 573
37.45594 560
37.47605 593
37.49617 579
37.51628 551
37.53639 550
37.55651 604
37.57662 578
37.59673 540
37.61685 600
37.63696 578
37.65708 564
37.67719 559
37.6973 557
37.71742 549
37.73753 558
37.75764 572
37.77776 561
37.79787 550
37.81798 550
37.8381 554
37.85821 556
37.87833 552
37.89844 572
37.91855 625
37.93867 539
37.95878 543
37.97889 508
37.99901 490
38.01912 504
38.03924 581
38.05935 564
38.07946 535
38.09958 525
38.11969 565
38.1398 533
38.15992 520
38.18003 528
38.20015 567
38.22026 551
38.24037 564
38.26049 567
38.2806 587
38.30071 585
38.32083 522
38.34094 557
38.36105 588
38.38117 528
38.40128 557
38.4214 576
38.44151 583
38.46162 593
38.48174 527
38.50185 544
38.52196 567
38.54208 522
38.56219 540
38.58231 536
38.60242 522
38.62253 515
38.64265 531
38.66276 503
38.68287 544
38.70299 482
38.7231 518
38.74321 460
38.76333 457
38.78344 471
38.80356 500
38.82367 518
38.84378 514
38.8639 503
38.88401 508
38.90412 504
38.92424 527
38.94435 492
38.96447 500
38.98458 511
39.00469 521
39.02481 509
39.04492 519
39.06503 475
39.08515 519
39.10526 510
39.12538 553
39.14549 511
39.1656 499
39.18572 524
39.20583 482
39.22594 574
39.24606 520
39.26617 498
39.28628 538
39.3064 556
39.32651 566
39.34663 563
39.36674 613
39.38685 585
39.40697 539
39.42708 530
39.44719 538
39.46731 527
39.48742 500
39.50754 553
39.52765 490
39.54776 474
39.56788 516
39.58799 512
39.6081 442
39.62822 512
39.64833 457
39.66845 455
39.68856 454
39.70867 447
39.72879 498
39.7489 507
39.76901 510
39.78913 493
39.80924 498
39.82935 485
39.84947 446
39.86958 470
39.8897 498
39.90981 476
39.92992 463
39.95004 482
39.97015 490
39.99026 488
40.01038 493
40.03049 509
40.05061 484
40.07072 468
40.09083 511
40.11095 467
40.13106 511
40.15117 539
40.17129 517
40.1914 500
40.21152 512
40.23163 535
40.25174 499
40.27186 475
40.29197 506
40.31208 487
40.3322 465
40.35231 478
40.37242 477
40.39254 445
40.41265 484
40.43277 455
40.45288 474
40.47299 465
40.49311 476
40.51322 473
40.53333 445
40.55345 487
40.57356 493
40.59368 492
40.61379 458
40.6339 447
40.65402 483
40.67413 492
40.69424 454
40.71436 473
40.73447 469
40.75458 496
40.7747 500
40.79481 497
40.81493 406
40.83504 464
40.85515 482
40.87527 476
40.89538 493
40.91549 507
40.93561 455
40.95572 457
40.97584 441
40.99595 455
41.01606 463
41.03618 449
41.05629 474
41.0764 475
41.09652 475
41.11663 479
41.13675 456
41.15686 434
41.17697 478
41.19709 457
41.2172 465
41.23731 475
41.25743 452
41.27754 440
41.29765 469
41.31777 483
41.33788 469
41.358 482
41.37811 452
41.39822 490
41.41834 483
41.43845 483
41.45856 491
41.47868 457
41.49879 488
41.51891 465
41.53902 470
41.55913 479
41.57925 464
41.59936 468
41.61947 502
41.63959 426
41.6597 466
41.67982 482
41.69993 463
41.72004 469
41.74016 435
41.76027 472
41.78038 449
41.8005 508
41.82061 453
41.84072 447
41.86084 451
41.88095 444
41.90107 408
41.92118 478
41.94129 441
41.96141 454
41.98152 489
42.00163 414
42.02175 470
42.04186 463
42.06198 432
42.08209 462
42.1022 435
42.12232 452
42.14243 412
42.16254 424
42.18266 478
42.20277 439
42.22289 480
42.243 487
42.26311 487
42.28323 486
42.30334 496
42.32345 479
42.34357 507
42.36368 514
42.38379 505
42.40391 497
42.42402 461
42.44414 515
42.46425 495
42.48436 430
42.50448 418
42.52459 491
42.5447 472
42.56482 412
42.58493 462
42.60505 417
42.62516 438
42.64527 454
42.66539 398
42.6855 445
42.70561 406
42.72573 389
42.74584 430
42.76595 415
42.78607 404
42.80618 384
42.8263 416
42.84641 408
42.86652 441
42.88664 416
42.90675 419
42.92686 379
42.94698 391
42.96709 429
42.98721 395
43.00732 424
43.02743 411
43.04755 433
43.06766 420
43.08777 431
43.10789 422
43.128 444
43.14812 426
43.16823 426
43.18834 407
43.20846 434
43.22857 397
43.24868 445
43.2688 416
43.28891 461
43.30902 469
43.32914 422
43.34925 444
43.36937 425
43.38948 437
43.40959 423
43.42971 434
43.44982 430
43.46993 358
43.49005 422
43.51016 374
43.53028 427
43.55039 381
43.5705 392
43.59062 414
43.61073 410
43.63084 374
43.65096 384
43.67107 397
43.69119 389
43.7113 408
43.73141 396
43.75153 409
43.77164 407
43.79175 439
43.81187 417
43.83198 415
43.85209 434
43.87221 409
43.89232 406
43.91244 414
43.93255 408
43.95266 383
43.97278 403
43.99289 399
44.013 419
44.03312 420
44.05323 380
44.07335 411
44.09346 410
44.11357 420
44.13369 413
44.1538 413
44.17391 460
44.19403 406
44.21414 404
44.23426 428
44.25437 416
44.27448 434
44.2946 432
44.31471 433
44.33482 426
44.35494 411
44.37505 409
44.39516 412
44.41528 421
44.43539 427
44.45551 411
44.47562 427
44.49573 415
44.51585 417
44.53596 399
44.55607 433
44.57619 437
44.5963 455
44.61642 429
44.63653 410
44.65664 368
44.67676 402
44.69687 386
44.71698 414
44.7371 425
44.75721 422
44.77732 431
44.79744 411
44.81755 437
44.83767 445
44.85778 462
44.87789 440
44.89801 456
44.91812 519
44.93823 457
44.95835 494
44.97846 467
44.99858 495
45.01869 544
45.0388 521
45.05892 580
45.07903 594
45.09914 616
45.11926 681
45.13937 697
45.15949 751
45.1796 792
45.19971 854
45.21983 937
45.23994 972
45.26005 1089
45.28017 1131
45.30028 1306
45.32039 1285
45.34051 1310
45.36062 1302
45.38074 1283
45.40085 1152
45.42096 1114
45.44108 983
45.46119 870
45.4813 862
45.50142 761
45.52153 762
45.54165 699
45.56176 632
45.58187 548
45.60199 526
45.6221 500
45.64221 473
45.66233 498
45.68244 492
45.70256 535
45.72267 523
45.74278 485
45.7629 444
45.78301 492
45.80312 449
45.82324 455
45.84335 436
45.86346 449
45.88358 426
45.90369 462
45.92381 422
45.94392 438
45.96403 376
45.98415 432
46.00426 456
46.02437 412
46.04449 434
46.0646 419
46.08472 412
46.10483 413
46.12494 407
46.14506 435
46.16517 389
46.18528 406
46.2054 398
46.22551 413
46.24563 360
46.26574 398
46.28585 354
46.30597 411
46.32608 400
46.34619 436
46.36631 408
46.38642 409
46.40653 377
46.42665 367
46.44676 376
46.46688 391
46.48699 374
46.5071 398
46.52722 423
46.54733 424
46.56744 408
46.58756 368
46.60767 399
46.62779 410
46.6479 412
46.66801 376
46.68813 417
46.70824 408
46.72835 394
46.74847 396
46.76858 365
46.78869 378
46.80881 382
46.82892 416
46.84904 371
46.86915 391
46.88926 374
46.90938 391
46.92949 398
46.9496 407
46.96972 381
46.98983 438
47.00995 447
47.03006 389
47.05017 395
47.07029 394
47.0904 406
47.11051 387
47.13063 369
47.15074 371
47.17086 395
47.19097 385
47.21108 395
47.2312 383
47.25131 388
47.27142 406
47.29154 431
47.31165 380
47.33176 380
47.35188 400
47.37199 360
47.39211 364
47.41222 396
47.43233 379
47.45245 392
47.47256 377
47.49267 386
47.51279 383
47.5329 360
47.55302 367
47.57313 403
47.59324 427
47.61336 422
47.63347 403
47.65358 398
47.6737 375
47.69381 402
47.71393 390
47.73404 399
47.75415 374
47.77427 405
47.79438 407
47.81449 383
47.83461 384
47.85472 384
47.87483 405
47.89495 354
47.91506 421
47.93518 396
47.95529 355
47.9754 375
47.99552 388
48.01563 377
48.03574 369
48.05586 384
48.07597 410
48.09609 376
48.1162 408
48.13631 382
48.15643 372
48.17654 355
48.19665 366
48.21677 365
48.23688 355
48.257 369
48.27711 388
48.29722 383
48.31734 355
48.33745 404
48.35756 419
48.37768 397
48.39779 362
48.4179 377
48.43802 376
48.45813 394
48.47825 353
48.49836 387
48.51847 349
48.53859 378
48.5587 358
48.57881 358
48.59893 392
48.61904 358
48.63916 333
48.65927 390
48.67938 383
48.6995 343
48.71961 391
48.73972 372
48.75984 378
48.77995 388
48.80006 379
48.82018 369
48.84029 366
48.86041 355
48.88052 331
48.90063 377
48.92075 376
48.94086 354
48.96097 395
48.98109 368
49.0012 362
49.02132 418
49.04143 344
49.06154 383
49.08166 408
49.10177 344
49.12188 396
49.142 385
49.16211 394
49.18223 397
49.20234 344
49.22245 345
49.24257 352
49.26268 329
49.28279 351
49.30291 332
49.32302 360
49.34313 386
49.36325 355
49.38336 340
49.40348 376
49.42359 371
49.4437 328
49.46382 366
49.48393 353
49.50404 366
49.52416 380
49.54427 370
49.56439 390
49.5845 376
49.60461 371
49.62473 374
49.64484 357
49.66495 370
49.68507 389
49.70518 382
49.7253 366
49.74541 370
49.76552 413
49.78564 383
49.80575 398
49.82586 376
49.84598 418
49.86609 392
49.8862 398
49.90632 443
49.92643 444
49.94655 462
49.96666 468
49.98677 508
50.00689 473
50.027 502
50.04711 542
50.06723 470
50.08734 471
50.10746 472
50.12757 500
50.14768 435
50.1678 446
50.18791 453
50.20802 433
50.22814 417
50.24825 388
50.26837 391
50.28848 384
50.30859 355
50.32871 346
50.34882 383
50.36893 376
50.38905 369
50.40916 388
50.42927 355
50.44939 391
50.4695 381
50.48962 382
50.50973 399
50.52984 374
50.54996 372
50.57007 398
50.59018 383
50.6103 362
50.63041 375
50.65053 368
50.67064 362
50.69075 358
50.71087 368
50.73098 350
50.75109 374
50.77121 345
50.79132 359
50.81143 379
50.83155 376
50.85166 336
50.87178 364
50.89189 367
50.912 355
50.93212 376
50.95223 338
50.97234 346
50.99246 372
51.01257 343
51.03269 361
51.0528 375
51.07291 387
51.09303 393
51.11314 370
51.13325 341
51.15337 338
51.17348 304
51.1936 355
51.21371 355
51.23382 373
51.25394 349
51.27405 355
51.29416 348
51.31428 403
51.33439 368
51.3545 333
51.37462 354
51.39473 361
51.41485 353
51.43496 323
51.45507 343
51.47519 362
51.4953 355
51.51541 338
51.53553 353
51.55564 332
51.57576 340
51.59587 321
51.61598 348
51.6361 349
51.65621 344
51.67632 348
51.69644 326
51.71655 354
51.73667 349
51.75678 350
51.77689 353
51.79701 311
51.81712 356
51.83723 332
51.85735 372
51.87746 356
51.89757 330
51.91769 350
51.9378 327
51.95792 340
51.97803 362
51.99814 344
52.01826 351
52.03837 360
52.05848 361
52.0786 348
52.09871 316
52.11883 372
52.13894 332
52.15905 361
52.17917 336
52.19928 354
52.21939 333
52.23951 353
52.25962 356
52.27974 342
52.29985 344
52.31996 351
52.34008 355
52.36019 334
52.3803 371
52.40042 328
52.42053 320
52.44064 394
52.46076 316
52.48087 349
52.50099 352
52.5211 303
52.54121 348
52.56133 340
52.58144 343
52.60155 344
52.62167 365
52.64178 354
52.6619 355
52.68201 395
52.70212 358
52.72224 356
52.74235 341
52.76246 355
52.78258 363
52.80269 353
52.8228 358
52.84292 343
52.86303 361
52.88315 392
52.90326 326
52.92337 340
52.94349 348
52.9636 365
52.98371 373
53.00383 385
53.02394 378
53.04406 360
53.06417 359
53.08428 384
53.1044 399
53.12451 369
53.14462 379
53.16474 363
53.18485 382
53.20497 374
53.22508 356
53.24519 422
53.26531 367
53.28542 390
53.30553 390
53.32565 404
53.34576 414
53.36587 413
53.38599 386
53.4061 412
53.42622 432
53.44633 438
53.46644 375
53.48656 406
53.50667 385
53.52678 399
53.5469 417
53.56701 473
53.58713 402
53.60724 434
53.62735 461
53.64747 448
53.66758 473
53.68769 466
53.70781 433
53.72792 452
53.74804 446
53.76815 426
53.78826 442
53.80838 476
53.82849 483
53.8486 452
53.86872 434
53.88883 459
53.90894 419
53.92906 441
53.94917 417
53.96929 460
53.9894 438
54.00951 424
54.02963 424
54.04974 419
54.06985 435
54.08997 429
54.11008 417
54.1302 452
54.15031 425
54.17042 423
54.19054 429
54.21065 449
54.23076 422
54.25088 484
54.27099 455
54.29111 467
54.31122 459
54.33133 487
54.35145 447
54.37156 479
54.39167 482
54.41179 425
54.4319 438
54.45201 452
54.47213 413
54.49224 502
54.51236 429
54.53247 463
54.55258 488
54.5727 474
54.59281 446
54.61292 475
54.63304 466
54.65315 500
54.67327 487
54.69338 496
54.71349 514
54.73361 522
54.75372 490
54.77383 487
54.79395 497
54.81406 522
54.83417 512
54.85429 502
54.8744 507
54.89452 477
54.91463 493
54.93474 506
54.95486 500
54.97497 472
54.99508 499
55.0152 464
55.03531 458
55.05543 497
55.07554 477
55.09565 487
55.11577 465
55.13588 478
55.15599 477
55.17611 476
55.19622 451
55.21634 463
55.23645 444
55.25656 437
55.27668 469
55.29679 451
55.3169 441
55.33702 411
55.35713 476
55.37724 458
55.39736 459
55.41747 473
55.43759 436
55.4577 443
55.47781 480
55.49793 448
55.51804 419
55.53815 422
55.55827 456
55.57838 439
55.5985 423
55.61861 431
55.63872 442
55.65884 436
55.67895 440
55.69906 456
55.71918 437
55.73929 414
55.75941 445
55.77952 416
55.79963 420
55.81975 476
55.83986 442
55.85997 455
55.88009 408
55.9002 442
55.92031 486
55.94043 442
55.96054 441
55.98066 433
56.00077 445
56.02088 457
56.041 467
56.06111 471
56.08122 431
56.10134 456
56.12145 472
56.14157 481
56.16168 499
56.18179 517
56.20191 505
56.22202 548
56.24213 548
56.26225 549
56.28236 573
56.30248 619
56.32259 667
56.3427 615
56.36282 628
56.38293 594
56.40304 571
56.42316 600
56.44327 591
56.46338 516
56.4835 479
56.50361 523
56.52373 474
56.54384 501
56.56395 476
56.58407 401
56.60418 464
56.62429 424
56.64441 464
56.66452 442
56.68464 419
56.70475 425
56.72486 390
56.74498 412
56.76509 413
56.7852 397
56.80532 363
56.82543 396
56.84554 405
56.86566 380
56.88577 407
56.90589 362
56.926 382
56.94611 388
56.96623 376
56.98634 374
57.00645 379
57.02657 379
57.04668 398
57.0668 385
57.08691 366
57.10702 408
57.12714 405
57.14725 376
57.16736 357
57.18748 370
57.20759 385
57.22771 387
57.24782 384
57.26793 357
57.28805 362
57.30816 358
57.32827 361
57.34839 349
57.3685 351
57.38861 395
57.40873 407
57.42884 380
57.44896 368
57.46907 379
57.48918 362
57.5093 362
57.52941 368
57.54952 382
57.56964 376
57.58975 367
57.60987 365
57.62998 374
57.65009 395
57.67021 377
57.69032 356
57.71043 355
57.73055 387
57.75066 371
57.77078 364
57.79089 357
57.811 330
57.83112 338
57.85123 350
57.87134 411
57.89146 374
57.91157 365
57.93168 364
57.9518 348
57.97191 381
57.99203 363
58.01214 386
58.03225 373
58.05237 332
58.07248 389
58.09259 356
58.11271 356
58.13282 375
58.15294 354
58.17305 382
58.19316 373
58.21328 390
58.23339 375
58.2535 359
58.27362 341
58.29373 350
58.31385 387
58.33396 330
58.35407 326
58.37419 338
58.3943 336
58.41441 329
58.43453 341
58.45464 333
58.47475 353
58.49487 352
58.51498 350
58.5351 323
58.55521 364
58.57532 357
58.59544 369
58.61555 336
58.63566 346
58.65578 373
58.67589 371
58.69601 357
58.71612 334
58.73623 366
58.75635 359
58.77646 378
58.79657 367
58.81669 375
58.8368 325
58.85691 375
58.87703 330
58.89714 376
58.91726 353
58.93737 370
58.95748 376
58.9776 318
58.99771 380
59.01782 359
59.03794 369
59.05805 365
59.07817 325
59.09828 346
59.11839 373
59.13851 315
59.15862 363
59.17873 359
59.19885 325
59.21896 355
59.23908 348
59.25919 358
59.2793 376
59.29942 355
59.31953 371
59.33964 357
59.35976 374
59.37987 349
59.39998 385
59.4201 379
59.44021 360
59.46033 334
59.48044 351
59.50055 379
59.52067 360
59.54078 355
59.56089 369
59.58101 407
59.60112 371
59.62124 416
59.64135 411
59.66146 415
59.68158 429
59.70169 408
59.7218 418
59.74192 424
59.76203 455
59.78215 445
59.80226 460
59.82237 446
59.84249 485
59.8626 480
59.88271 455
59.90283 461
59.92294 429
59.94305 413
59.96317 459
59.98328 468
60.0034 425
60.02351 444
60.04362 461
60.06374 395
60.08385 425
60.10396 445
60.12408 408
60.14419 401
60.16431 427
60.18442 407
60.20453 431
60.22465 437
60.24476 417
60.26487 421
60.28499 406
60.3051 421
60.32522 388
60.34533 429
60.36544 364
60.38556 409
60.40567 390
60.42578 411
60.4459 414
60.46601 376
60.48612 394
60.50624 354
60.52635 390
60.54647 384
60.56658 397
60.58669 399
60.60681 374
60.62692 381
60.64703 360
60.66715 435
60.68726 410
60.70738 390
60.72749 418
60.7476 394
60.76772 411
60.78783 417
60.80794 391
60.82806 385
60.84817 420
60.86828 436
60.8884 421
60.90851 390
60.92863 433
60.94874 420
60.96885 396
60.98897 446
61.00908 424
61.02919 431
61.04931 466
61.06942 445
61.08954 461
61.10965 448
61.12976 455
61.14988 458
61.16999 415
61.1901 431
61.21022 457
61.23033 464
61.25045 480
61.27056 430
61.29067 453
61.31079 478
61.3309 458
61.35101 499
61.37113 473
61.39124 488
61.41135 488
61.43147 470
61.45158 475
61.4717 478
61.49181 476
61.51192 503
61.53204 541
61.55215 527
61.57226 502
61.59238 494
61.61249 524
61.63261 468
61.65272 468
61.67283 504
61.69295 540
61.71306 533
61.73317 501
61.75329 516
61.7734 478
61.79352 478
61.81363 483
61.83374 473
61.85386 516
61.87397 452
61.89408 507
61.9142 478
61.93431 480
61.95442 509
61.97454 500
61.99465 454
62.01477 482
62.03488 521
62.05499 497
62.07511 494
62.09522 454
62.11533 471
62.13545 454
62.15556 497
62.17568 471
62.19579 437
62.2159 482
62.23602 445
62.25613 463
62.27624 458
62.29636 452
62.31647 451
62.33659 429
62.3567 418
62.37681 431
62.39693 440
62.41704 409
62.43715 411
62.45727 398
62.47738 405
62.49749 393
62.51761 396
62.53772 390
62.55784 376
62.57795 442
62.59806 380
62.61818 356
62.63829 375
62.6584 408
62.67852 360
62.69863 362
62.71875 369
62.73886 405
62.75897 366
62.77909 339
62.7992 352
62.81931 351
62.83943 377
62.85954 364
62.87965 375
62.89977 371
62.91988 375
62.94 378
62.96011 344
62.98022 370
63.00034 326
63.02045 360
63.04056 353
63.06068 334
63.08079 340
63.10091 392
63.12102 391
63.14113 339
63.16125 329
63.18136 370
63.20147 328
63.22159 350
63.2417 402
63.26182 358
63.28193 338
63.30204 379
63.32216 335
63.34227 333
63.36238 359
63.3825 343
63.40261 362
63.42272 335
63.44284 343
63.46295 339
63.48307 385
63.50318 350
63.52329 373
63.54341 370
63.56352 361
63.58363 361
63.60375 367
63.62386 366
63.64398 393
63.66409 384
63.6842 358
63.70432 364
63.72443 399
63.74454 367
63.76466 334
63.78477 376
63.80489 331
63.825 342
63.84511 341
63.86523 342
63.88534 391
63.90545 352
63.92557 383
63.94568 348
63.96579 356
63.98591 358
64.00602 329
64.02614 346
64.04625 342
64.06636 356
64.08648 351
64.10659 342
64.1267 339
64.14682 355
64.16693 341
64.18705 332
64.20716 330
64.22727 357
64.24739 308
64.2675 332
64.28761 359
64.30773 314
64.32784 312
64.34796 314
64.36807 343
64.38818 358
64.4083 335
64.42841 333
64.44852 328
64.46864 312
64.48875 329
64.50886 311
64.52898 322
64.54909 323
64.56921 335
64.58932 301
64.60943 342
64.62955 313
64.64966 344
64.66977 343
64.68989 331
64.71 328
64.73012 328
64.75023 328
64.77034 351
64.79046 341
64.81057 331
64.83068 327
64.8508 337
64.87091 312
64.89102 369
64.91114 332
64.93125 317
64.95137 323
64.97148 343
64.99159 328
65.01171 335
65.03182 323
65.05193 330
65.07205 362
65.09216 344
65.11228 328
65.13239 316
65.1525 331
65.17262 371
65.19273 329
65.21284 309
65.23296 335
65.25307 324
65.27319 294
65.2933 347
65.31341 304
65.33353 332
65.35364 342
65.37375 351
65.39387 335
65.41398 353
65.43409 344
65.45421 329
65.47432 334
65.49444 330
65.51455 353
65.53466 336
65.55478 325
65.57489 324
65.595 352
65.61512 365
65.63523 377
65.65535 353
65.67546 344
65.69557 365
65.71569 331
65.7358 356
65.75591 316
65.77603 378
65.79614 347
65.81626 337
65.83637 365
65.85648 361
65.8766 341
65.89671 358
65.91682 362
65.93694 377
65.95705 358
65.97716 382
65.99728 383
66.01739 368
66.03751 403
66.05762 383
66.07773 390
66.09785 386
66.11796 438
66.13807 401
66.15819 393
66.1783 377
66.19842 371
66.21853 391
66.23864 392
66.25876 368
66.27887 348
66.29898 355
66.3191 359
66.33921 364
66.35933 343
66.37944 326
66.39955 337
66.41967 325
66.43978 301
66.45989 311
66.48001 329
66.50012 356
66.52023 323
66.54035 354
66.56046 302
66.58058 328
66.60069 289
66.6208 311
66.64092 323
66.66103 325
66.68114 358
66.70126 350
66.72137 319
66.74149 328
66.7616 316
66.78171 303
66.80183 310
66.82194 329
66.84205 306
66.86217 307
66.88228 329
66.90239 346
66.92251 317
66.94262 371
66.96274 326
66.98285 332
67.00296 328
67.02308 309
67.04319 300
67.0633 332
67.08342 311
67.10353 307
67.12365 344
67.14376 338
67.16387 316
67.18399 343
67.2041 334
67.22421 302
67.24433 352
67.26444 326
67.28456 319
67.30467 322
67.32478 332
67.3449 339
67.36501 384
67.38512 340
67.40524 310
67.42535 337
67.44546 321
67.46558 327
67.48569 360
67.50581 339
67.52592 359
67.54603 370
67.56615 371
67.58626 379
67.60637 350
67.62649 355
67.6466 373
67.66672 364
67.68683 373
67.70694 395
67.72706 358
67.74717 369
67.76728 370
67.7874 363
67.80751 399
67.82763 380
67.84774 382
67.86785 359
67.88797 369
67.90808 379
67.92819 380
67.94831 403
67.96842 401
67.98853 422
68.00865 447
68.02876 402
68.04888 462
68.06899 385
68.0891 406
68.10922 397
68.12933 405
68.14944 370
68.16956 413
68.18967 399
68.20979 370
68.2299 408
68.25001 333
68.27013 366
68.29024 405
68.31035 367
68.33047 405
68.35058 333
68.3707 373
68.39081 331
68.41092 377
68.43104 342
68.45115 365
68.47126 328
68.49138 352
68.51149 367
68.5316 342
68.55172 364
68.57183 329
68.59195 332
68.61206 304
68.63217 318
68.65229 325
68.6724 374
68.69251 369
68.71263 358
68.73274 348
68.75286 314
68.77297 355
68.79308 349
68.8132 330
68.83331 313
68.85342 345
68.87354 324
68.89365 363
68.91376 335
68.93388 310
68.95399 335
68.97411 307
68.99422 316
69.01433 320
69.03445 333
69.05456 345
69.07467 319
69.09479 370
69.1149 350
69.13502 396
69.15513 336
69.17524 323
69.19536 337
69.21547 313
69.23558 305
69.2557 330
69.27581 354
69.29593 322
69.31604 352
69.33615 317
69.35627 348
69.37638 336
69.39649 323
69.41661 310
69.43672 328
69.45683 321
69.47695 326
69.49706 329
69.51718 340
69.53729 340
69.5574 328
69.57752 320
69.59763 347
69.61774 316
69.63786 320
69.65797 306
69.67809 333
69.6982 317
69.71831 332
69.73843 308
69.75854 344
69.77865 334
69.79877 326
69.81888 350
69.839 329
69.85911 320
69.87922 307
69.89934 313
69.91945 352
69.93956 345
69.95968 332
69.97979 329
69.9999 323
70.02002 317
70.04013 305
70.06025 322
70.08036 347
70.10047 323
70.12059 317
70.1407 349
70.16081 324
70.18093 338
70.20104 310
70.22116 326
70.24127 329
70.26138 340
70.2815 325
70.30161 301
70.32172 325
70.34184 351
70.36195 326
70.38207 305
70.40218 334
70.42229 355
70.44241 292
70.46252 299
70.48263 314
70.50275 313
70.52286 297
70.54297 311
70.56309 327
70.5832 326
70.60332 301
70.62343 327
70.64354 329
70.66366 353
70.68377 297
70.70388 349
70.724 313
70.74411 330
70.76423 319
70.78434 287
70.80445 330
70.82457 327
70.84468 344
70.86479 319
70.88491 305
70.90502 340
70.92513 315
70.94525 310
70.96536 322
70.98548 334
71.00559 316
71.0257 314
71.04582 324
71.06593 330
71.08604 303
71.10616 335
71.12627 344
71.14639 346
71.1665 318
71.18661 325
71.20673 321
71.22684 325
71.24695 351
71.26707 329
71.28718 321
71.3073 339
71.32741 354
71.34752 326
71.36764 349
71.38775 343
71.40786 342
71.42798 332
71.44809 328
71.4682 356
71.48832 328
71.50843 325
71.52855 306
71.54866 336
71.56877 307
71.58889 315
71.609 311
71.62911 312
71.64923 327
71.66934 331
71.68946 354
71.70957 316
71.72968 294
71.7498 331
71.76991 289
71.79002 317
71.81014 329
71.83025 328
71.85037 345
71.87048 313
71.89059 335
71.91071 356
71.93082 342
71.95093 337
71.97105 353
71.99116 321
72.01127 371
72.03139 298
72.0515 347
72.07162 343
72.09173 322
72.11184 320
72.13196 353
72.15207 348
72.17218 364
72.1923 378
72.21241 334
72.23253 338
72.25264 336
72.27275 349
72.29287 323
72.31298 381
72.33309 343
72.35321 367
72.37332 360
72.39344 367
72.41355 342
72.43366 347
72.45378 378
72.47389 344
72.494 343
72.51412 358
72.53423 380
72.55434 368
72.57446 343
72.59457 389
72.61469 356
72.6348 342
72.65491 341
72.67503 350
72.69514 337
72.71525 349
72.73537 370
72.75548 372
72.7756 366
72.79571 376
72.81582 394
72.83594 364
72.85605 383
72.87616 391
72.89628 375
72.91639 368
72.9365 369
72.95662 386
72.97673 351
72.99685 394
73.01696 383
73.03707 312
73.05719 389
73.0773 361
73.09741 361
73.11753 405
73.13764 366
73.15776 389
73.17787 378
73.19798 378
73.2181 361
73.23821 387
73.25832 402
73.27844 366
73.29855 382
73.31867 368
73.33878 355
73.35889 399
73.37901 368
73.39912 368
73.41923 351
73.43935 367
73.45946 364
73.47957 364
73.49969 367
73.5198 336
73.53992 373
73.56003 349
73.58014 375
73.60026 365
73.62037 367
73.64048 359
73.6606 334
73.68071 348
73.70083 293
73.72094 356
73.74105 365
73.76117 336
73.78128 342
73.80139 360
73.82151 340
73.84162 323
73.86174 330
73.88185 337
73.90196 355
73.92208 333
73.94219 331
73.9623 325
73.98242 342
74.00253 316
74.02264 346
74.04276 341
74.06287 324
74.08299 362
74.1031 355
74.12321 316
74.14333 328
74.16344 330
74.18355 334
74.20367 338
74.22378 340
74.2439 338
74.26401 295
74.28412 337
74.30424 335
74.32435 348
74.34446 334
74.36458 339
74.38469 334
74.40481 353
74.42492 342
74.44503 339
74.46515 335
74.48526 343
74.50537 377
74.52549 323
74.5456 326
74.56571 338
74.58583 336
74.60594 328
74.62606 347
74.64617 333
74.66628 335
74.6864 338
74.70651 311
74.72662 385
74.74674 352
74.76685 317
74.78697 327
74.80708 360
74.82719 343
74.84731 366
74.86742 370
74.88753 386
74.90765 385
74.92776 388
74.94787 409
74.96799 387
74.9881 397
75.00822 425
