3.00117 21929
3.02128 21304
3.0414 20590
3.06151 20546
3.08162 19586
3.10174 19046
3.12185 18600
3.14197 18020
3.16208 17832
3.18219 17107
3.20231 16942
3.22242 16008
3.24253 15854
3.26265 15245
3.28276 15015
3.30288 14420
3.32299 13879
3.3431 13694
3.36322 13035
3.38333 12629
3.40344 12344
3.42356 12029
3.44367 11688
3.46379 11124
3.4839 10639
3.50401 10519
3.52413 10135
3.54424 9887
3.56435 9665
3.58447 9041
3.60458 9074
3.62469 8522
3.64481 8282
3.66492 8008
3.68504 7614
3.70515 7624
3.72526 7198
3.74538 7083
3.76549 6839
3.7856 6218
3.80572 6100
3.82583 5844
3.84595 5639
3.86606 5538
3.88617 5139
3.90629 5141
3.9264 4879
3.94651 4837
3.96663 4509
3.98674 4311
4.00686 4269
4.02697 3977
4.04708 3946
4.0672 3907
4.08731 3450
4.10742 3528
4.12754 3235
4.14765 3275
4.16776 3211
4.18788 2944
4.20799 2814
4.22811 2744
4.24822 2738
4.26833 2727
4.28845 2415
4.30856 2495
4.32867 2344
4.34879 2247
4.3689 2241
4.38902 2084
4.40913 2220
4.42924 2115
4.44936 2032
4.46947 2133
4.48958 1952
4.5097 1935
4.52981 1955
4.54992 1871
4.57004 1797
4.59015 1665
4.61027 1719
4.63038 1867
4.65049 1750
4.67061 1762
4.69072 1624
4.71083 1648
4.73095 1636
4.75106 1622
4.77118 1584
4.79129 1511
4.8114 1449
4.83152 1432
4.85163 1506
4.87174 1461
4.89186 1387
4.91197 1425
4.93209 1348
4.9522 1303
4.97231 1327
4.99243 1240
5.01254 1315
5.03265 1319
5.05277 1239
5.07288 1253
5.09299 1263
5.11311 1246
5.13322 1179
5.15334 1144
5.17345 1102
5.19356 1062
5.21368 1114
5.23379 1046
5.2539 1072
5.27402 1047
5.29413 1000
5.31425 1080
5.33436 1036
5.35447 1042
5.37459 1018
5.3947 971
5.41481 1024
5.43493 957
5.45504 964
5.47516 937
5.49527 917
5.51538 947
5.5355 908
5.55561 856
5.57572 938
5.59584 860
5.61595 830
5.63606 896
5.65618 867
5.67629 863
5.69641 863
5.71652 875
5.73663 854
5.75675 867
5.77686 835
5.79697 797
5.81709 803
5.8372 747
5.85732 802
5.87743 779
5.89754 811
5.91766 808
5.93777 793
5.95788 715
5.978 793
5.99811 799
6.01823 788
6.03834 769
6.05845 769
6.07857 761
6.09868 686
6.11879 702
6.13891 791
6.15902 768
6.17913 750
6.19925 701
6.21936 724
6.23948 741
6.25959 732
6.2797 722
6.29982 750
6.31993 707
6.34004 757
6.36016 697
6.38027 768
6.40039 646
6.4205 699
6.44061 681
6.46073 710
6.48084 639
6.50095 633
6.52107 719
6.54118 665
6.56129 695
6.58141 662
6.60152 693
6.62164 657
6.64175 684
6.66186 676
6.68198 631
6.70209 666
6.7222 699
6.74232 656
6.76243 688
6.78255 687
6.80266 698
6.82277 612
6.84289 668
6.863 698
6.88311 652
6.90323 669
6.92334 654
6.94346 654
6.96357 683
6.98368 664
7.0038 691
7.02391 675
7.04402 682
7.06414 670
7.08425 610
7.10436 633
7.12448 663
7.14459 652
7.16471 664
7.18482 652
7.20493 634
7.22505 622
7.24516 649
7.26527 654
7.28539 663
7.3055 643
7.32562 637
7.34573 616
7.36584 657
7.38596 584
7.40607 630
7.42618 680
7.4463 636
7.46641 627
7.48653 604
7.50664 616
7.52675 634
7.54687 570
7.56698 661
7.58709 644
7.60721 612
7.62732 625
7.64743 615
7.66755 639
7.68766 664
7.70778 623
7.72789 622
7.748 648
7.76812 630
7.78823 610
7.80834 641
7.82846 610
7.84857 601
7.86869 643
7.8888 666
7.90891 579
7.92903 614
7.94914 613
7.96925 633
7.98937 594
8.00948 639
8.0296 623
8.04971 635
8.06982 654
8.08994 606
8.11005 668
8.13016 610
8.15028 631
8.17039 604
8.1905 612
8.21062 551
8.23073 629
8.25085 606
8.27096 602
8.29107 608
8.31119 647
8.3313 602
8.35141 623
8.37153 592
8.39164 655
8.41176 637
8.43187 703
8.45198 571
8.4721 578
8.49221 630
8.51232 577
8.53244 586
8.55255 583
8.57266 608
8.59278 612
8.61289 615
8.63301 627
8.65312 596
8.67323 596
8.69335 569
8.71346 609
8.73357 638
8.75369 609
8.7738 611
8.79392 610
8.81403 611
8.83414 633
8.85426 602
8.87437 602
8.89448 606
8.9146 571
8.93471 557
8.95483 583
8.97494 621
8.99505 574
9.01517 593
9.03528 584
9.05539 627
9.07551 649
9.09562 611
9.11573 598
9.13585 586
9.15596 615
9.17608 608
9.19619 623
9.2163 630
9.23642 592
9.25653 603
9.27664 621
9.29676 593
9.31687 638
9.33699 612
9.3571 605
9.37721 632
9.39733 626
9.41744 585
9.43755 622
9.45767 621
9.47778 612
9.4979 630
9.51801 629
9.53812 647
9.55824 589
9.57835 596
9.59846 590
9.61858 578
9.63869 601
9.6588 595
9.67892 568
9.69903 609
9.71915 542
9.73926 596
9.75937 575
9.77949 616
9.7996 570
9.81971 601
9.83983 657
9.85994 594
9.88006 633
9.90017 571
9.92028 586
9.9404 581
9.96051 578
9.98062 610
10.00074 543
10.02085 567
10.04097 616
10.06108 629
10.08119 592
10.10131 588
10.12142 586
10.14153 553
10.16165 609
10.18176 620
10.20187 598
10.22199 564
10.2421 595
10.26222 601
10.28233 584
10.30244 602
10.32256 608
10.34267 607
10.36278 616
10.3829 623
10.40301 573
10.42313 672
10.44324 637
10.46335 617
10.48347 560
10.50358 650
10.52369 578
10.54381 646
10.56392 601
10.58403 610
10.60415 559
10.62426 585
10.64438 591
10.66449 556
10.6846 601
10.70472 564
10.72483 603
10.74494 590
10.76506 616
10.78517 625
10.80529 586
10.8254 624
10.84551 561
10.86563 601
10.88574 612
10.90585 610
10.92597 613
10.94608 629
10.9662 692
10.98631 631
11.00642 659
11.02654 643
11.04665 663
11.06676 677
11.08688 594
11.10699 621
11.1271 586
11.14722 650
11.16733 632
11.18745 598
11.20756 609
11.22767 679
11.24779 668
11.2679 649
11.28801 703
11.30813 673
11.32824 629
11.34836 710
11.36847 708
11.38858 714
11.4087 687
11.42881 739
11.44892 660
11.46904 698
11.48915 706
11.50927 743
11.52938 643
11.54949 728
11.56961 751
11.58972 721
11.60983 707
11.62995 698
11.65006 693
11.67017 742
11.69029 680
11.7104 737
11.73052 747
11.75063 669
11.77074 724
11.79086 751
11.81097 776
11.83108 762
11.8512 748
11.87131 816
11.89143 796
11.91154 795
11.93165 826
11.95177 816
11.97188 812
11.99199 803
12.01211 809
12.03222 788
12.05234 805
12.07245 805
12.09256 812
12.11268 846
12.13279 847
12.1529 831
12.17302 771
12.19313 823
12.21324 877
12.23336 850
12.25347 815
12.27359 841
12.2937 760
12.31381 750
12.33393 754
12.35404 731
12.37415 712
12.39427 703
12.41438 752
12.4345 730
12.45461 695
12.47472 666
12.49484 731
12.51495 703
12.53506 706
12.55518 674
12.57529 687
12.5954 704
12.61552 629
12.63563 675
12.65575 668
12.67586 602
12.69597 629
12.71609 619
12.7362 629
12.75631 606
12.77643 631
12.79654 599
12.81666 647
12.83677 628
12.85688 580
12.877 601
12.89711 564
12.91722 578
12.93734 574
12.95745 609
12.97757 639
12.99768 581
13.01779 567
13.03791 594
13.05802 541
13.07813 577
13.09825 533
13.11836 572
13.13847 521
13.15859 578
13.1787 554
13.19882 525
13.21893 531
13.23904 594
13.25916 555
13.27927 516
13.29938 562
13.3195 587
13.33961 531
13.35973 574
13.37984 575
13.39995 575
13.42007 521
13.44018 559
13.46029 581
13.48041 582
13.50052 511
13.52064 502
13.54075 528
13.56086 527
13.58098 557
13.60109 559
13.6212 523
13.64132 496
13.66143 501
13.68154 555
13.70166 489
13.72177 538
13.74189 537
13.762 524
13.78211 525
13.80223 518
13.82234 532
13.84245 514
13.86257 535
13.88268 506
13.9028 506
13.92291 533
13.94302 515
13.96314 492
13.98325 506
14.00336 516
14.02348 548
14.04359 540
14.06371 548
14.08382 503
14.10393 554
14.12405 542
14.14416 534
14.16427 489
14.18439 512
14.2045 503
14.22461 482
14.24473 532
14.26484 520
14.28496 497
14.30507 528
14.32518 544
14.3453 475
14.36541 463
14.38552 509
14.40564 492
14.42575 507
14.44587 491
14.46598 492
14.48609 476
14.50621 506
14.52632 528
14.54643 521
14.56655 508
14.58666 537
14.60677 527
14.62689 498
14.647 489
14.66712 513
14.68723 517
14.70734 534
14.72746 509
14.74757 498
14.76768 463
14.7878 499
14.80791 525
14.82803 487
14.84814 472
14.86825 504
14.88837 518
14.90848 546
14.92859 494
14.94871 483
14.96882 512
14.98894 495
15.00905 486
15.02916 460
15.04928 528
15.06939 506
15.0895 510
15.10962 522
15.12973 519
15.14984 505
15.16996 511
15.19007 512
15.21019 490
15.2303 531
15.25041 479
15.27053 536
15.29064 505
15.31075 522
15.33087 504
15.35098 527
15.3711 558
15.39121 491
15.41132 520
15.43144 520
15.45155 558
15.47166 508
15.49178 485
15.51189 545
15.53201 506
15.55212 524
15.57223 522
15.59235 492
15.61246 477
15.63257 516
15.65269 504
15.6728 499
15.69291 464
15.71303 463
15.73314 543
15.75326 516
15.77337 488
15.79348 552
15.8136 494
15.83371 549
15.85382 513
15.87394 496
15.89405 556
15.91417 525
15.93428 485
15.95439 494
15.97451 525
15.99462 542
16.01473 505
16.03485 515
16.05496 485
16.07508 553
16.09519 492
16.1153 540
16.13542 535
16.15553 463
16.17564 459
16.19576 490
16.21587 487
16.23598 525
16.2561 562
16.27621 486
16.29633 487
16.31644 540
16.33655 499
16.35667 491
16.37678 498
16.39689 464
16.41701 479
16.43712 513
16.45724 481
16.47735 499
16.49746 499
16.51758 458
16.53769 502
16.5578 493
16.57792 479
16.59803 494
16.61814 485
16.63826 446
16.65837 485
16.67849 520
16.6986 500
16.71871 543
16.73883 488
16.75894 494
16.77905 509
16.79917 483
16.81928 500
16.8394 533
16.85951 479
16.87962 518
16.89974 498
16.91985 467
16.93996 511
16.96008 525
16.98019 534
17.00031 466
17.02042 506
17.04053 477
17.06065 520
17.08076 512
17.10087 507
17.12099 505
17.1411 513
17.16121 495
17.18133 514
17.20144 519
17.22156 530
17.24167 500
17.26178 535
17.2819 531
17.30201 476
17.32212 522
17.34224 470
17.36235 535
17.38247 504
17.40258 520
17.42269 498
17.44281 513
17.46292 496
17.48303 495
17.50315 526
17.52326 518
17.54338 511
17.56349 503
17.5836 507
17.60372 529
17.62383 528
17.64394 535
17.66406 514
17.68417 537
17.70428 530
17.7244 521
17.74451 485
17.76463 559
17.78474 505
17.80485 496
17.82497 480
17.84508 498
17.86519 546
17.88531 529
17.90542 491
17.92554 494
17.94565 518
17.96576 555
17.98588 482
18.00599 516
18.0261 537
18.04622 551
18.06633 527
18.08645 467
18.10656 508
18.12667 529
18.14679 541
18.1669 531
18.18701 536
18.20713 514
18.22724 547
18.24735 492
18.26747 557
18.28758 568
18.3077 528
18.32781 513
18.34792 545
18.36804 494
18.38815 490
18.40826 568
18.42838 520
18.44849 520
18.46861 500
18.48872 550
18.50883 493
18.52895 540
18.54906 506
18.56917 508
18.58929 557
18.6094 524
18.62951 530
18.64963 549
18.66974 515
18.68986 513
18.70997 542
18.73008 530
18.7502 506
18.77031 561
18.79042 531
18.81054 513
18.83065 504
18.85077 510
18.87088 487
18.89099 516
18.91111 551
18.93122 528
18.95133 487
18.97145 549
18.99156 529
19.01168 545
19.03179 550
19.0519 561
19.07202 586
19.09213 564
19.11224 570
19.13236 559
19.15247 563
19.17258 599
19.1927 549
19.21281 592
19.23293 607
19.25304 589
19.27315 635
19.29327 592
19.31338 597
19.33349 638
19.35361 647
19.37372 642
19.39384 701
19.41395 624
19.43406 641
19.45418 638
19.47429 711
19.4944 665
19.51452 675
19.53463 701
19.55475 748
19.57486 748
19.59497 780
19.61509 814
19.6352 884
19.65531 895
19.67543 872
19.69554 929
19.71565 952
19.73577 956
19.75588 1048
19.776 1005
19.79611 1029
19.81622 1037
19.83634 1053
19.85645 1094
19.87656 1161
19.89668 1098
19.91679 1147
19.93691 1164
19.95702 1124
19.97713 1059
19.99725 1129
20.01736 1069
20.03747 1067
20.05759 1056
20.0777 1018
20.09782 1051
20.11793 1029
20.13804 1006
20.15816 997
20.17827 1053
20.19838 1011
20.2185 1019
20.23861 948
20.25872 961
20.27884 984
20.29895 958
20.31907 1063
20.33918 920
20.35929 954
20.37941 956
20.39952 1013
20.41963 904
20.43975 953
20.45986 952
20.47998 935
20.50009 968
20.5202 903
20.54032 1029
20.56043 939
20.58054 993
20.60066 919
20.62077 951
20.64088 1077
20.661 1023
20.68111 1058
20.70123 1101
20.72134 1219
20.74145 1226
20.76157 1321
20.78168 1438
20.80179 1491
20.82191 1427
20.84202 1427
20.86214 1318
20.88225 1206
20.90236 1124
20.92248 997
20.94259 1012
20.9627 939
20.98282 898
21.00293 949
21.02305 934
21.04316 963
21.06327 987
21.08339 959
21.1035 934
21.12361 912
21.14373 888
21.16384 922
21.18395 929
21.20407 919
21.22418 900
21.2443 916
21.26441 954
21.28452 948
21.30464 886
21.32475 875
21.34486 815
21.36498 886
21.38509 854
21.40521 889
21.42532 868
21.44543 864
21.46555 850
21.48566 847
21.50577 877
21.52589 869
21.546 816
21.56612 788
21.58623 839
21.60634 800
21.62646 829
21.64657 812
21.66668 867
21.6868 784
21.70691 758
21.72702 807
21.74714 795
21.76725 738
21.78737 784
21.80748 745
21.82759 755
21.84771 776
21.86782 809
21.88793 794
21.90805 738
21.92816 774
21.94828 761
21.96839 757
21.9885 778
22.00862 735
22.02873 766
22.04884 791
22.06896 823
22.08907 751
22.10919 732
22.1293 704
22.14941 736
22.16953 722
22.18964 727
22.20975 713
22.22987 682
22.24998 692
22.27009 758
22.29021 785
22.31032 748
22.33044 710
22.35055 730
22.37066 744
22.39078 683
22.41089 713
22.431 712
22.45112 685
22.47123 687
22.49135 709
22.51146 737
22.53157 702
22.55169 697
22.5718 718
22.59191 676
22.61203 726
22.63214 726
22.65225 696
22.67237 690
22.69248 709
22.7126 715
22.73271 652
22.75282 702
22.77294 705
22.79305 701
22.81316 652
22.83328 643
22.85339 675
22.87351 718
22.89362 676
22.91373 654
22.93385 694
22.95396 665
22.97407 684
22.99419 744
23.0143 690
23.03442 665
23.05453 672
23.07464 650
23.09476 725
23.11487 698
23.13498 680
23.1551 719
23.17521 690
23.19532 666
23.21544 708
23.23555 667
23.25567 652
23.27578 655
23.29589 688
23.31601 704
23.33612 714
23.35623 739
23.37635 736
23.39646 681
23.41658 692
23.43669 698
23.4568 773
23.47692 707
23.49703 742
23.51714 696
23.53726 688
23.55737 743
23.57749 686
23.5976 754
23.61771 710
23.63783 700
23.65794 755
23.67805 739
23.69817 733
23.71828 750
23.73839 719
23.75851 766
23.77862 734
23.79874 728
23.81885 762
23.83896 749
23.85908 741
23.87919 789
23.8993 734
23.91942 732
23.93953 790
23.95965 767
23.97976 756
23.99987 769
24.01999 743
24.0401 776
24.06021 780
24.08033 800
24.10044 806
24.12056 776
24.14067 774
24.16078 730
24.1809 779
24.20101 746
24.22112 786
24.24124 806
24.26135 775
24.28146 756
24.30158 797
24.32169 768
24.34181 769
24.36192 737
24.38203 818
24.40215 765
24.42226 810
24.44237 773
24.46249 812
24.4826 804
24.50272 768
24.52283 827
24.54294 837
24.56306 845
24.58317 821
24.60328 833
24.6234 778
24.64351 794
24.66362 808
24.68374 834
24.70385 828
24.72397 881
24.74408 849
24.76419 824
24.78431 856
24.80442 877
24.82453 814
24.84465 901
24.86476 887
24.88488 862
24.90499 862
24.9251 803
24.94522 885
24.96533 867
24.98544 826
25.00556 857
25.02567 852
25.04579 786
25.0659 823
25.08601 829
25.10613 852
25.12624 795
25.14635 793
25.16647 833
25.18658 786
25.20669 811
25.22681 774
25.24692 797
25.26704 764
25.28715 761
25.30726 771
25.32738 751
25.34749 782
25.3676 742
25.38772 786
25.40783 780
25.42795 794
25.44806 783
25.46817 750
25.48829 728
25.5084 759
25.52851 752
25.54863 745
25.56874 703
25.58886 759
25.60897 725
25.62908 710
25.6492 744
25.66931 749
25.68942 704
25.70954 751
25.72965 709
25.74976 740
25.76988 657
25.78999 725
25.81011 677
25.83022 654
25.85033 739
25.87045 698
25.89056 666
25.91067 716
25.93079 731
25.9509 692
25.97102 729
25.99113 698
26.01124 706
26.03136 676
26.05147 681
26.07158 734
26.0917 689
26.11181 738
26.13193 782
26.15204 746
26.17215 703
26.19227 748
26.21238 744
26.23249 750
26.25261 792
26.27272 759
26.29283 759
26.31295 793
26.33306 845
26.35318 884
26.37329 895
26.3934 981
26.41352 1098
26.43363 1235
26.45374 1559
26.47386 1752
26.49397 2194
26.51409 2655
26.5342 2953
26.55431 3301
26.57443 3230
26.59454 3158
26.61465 2989
26.63477 2622
26.65488 2212
26.67499 1725
26.69511 1460
26.71522 1217
26.73534 1082
26.75545 901
26.77556 765
26.79568 805
26.81579 748
26.8359 784
26.85602 758
26.87613 698
26.89625 743
26.91636 681
26.93647 726
26.95659 655
26.9767 713
26.99681 702
27.01693 644
27.03704 653
27.05716 637
27.07727 692
27.09738 667
27.1175 713
27.13761 664
27.15772 676
27.17784 630
27.19795 677
27.21806 679
27.23818 645
27.25829 630
27.27841 636
27.29852 682
27.31863 684
27.33875 697
27.35886 602
27.37897 648
27.39909 716
27.4192 669
27.43932 631
27.45943 658
27.47954 633
27.49966 649
27.51977 627
27.53988 663
27.56 665
27.58011 689
27.60023 692
27.62034 644
27.64045 633
27.66057 655
27.68068 609
27.70079 623
27.72091 607
27.74102 639
27.76113 627
27.78125 587
27.80136 630
27.82148 595
27.84159 616
27.8617 627
27.88182 625
27.90193 641
27.92204 606
27.94216 617
27.96227 590
27.98239 644
28.0025 583
28.02261 585
28.04273 600
28.06284 587
28.08295 655
28.10307 610
28.12318 613
28.1433 649
28.16341 597
28.18352 618
28.20364 568
28.22375 584
28.24386 574
28.26398 619
28.28409 561
28.3042 627
28.32432 614
28.34443 594
28.36455 576
28.38466 600
28.40477 555
28.42489 612
28.445 621
28.46511 562
28.48523 601
28.50534 607
28.52546 585
28.54557 594
28.56568 626
28.5858 545
28.60591 572
28.62602 594
28.64614 592
28.66625 561
28.68636 569
28.70648 589
28.72659 541
28.74671 562
28.76682 531
28.78693 530
28.80705 620
28.82716 569
28.84727 594
28.86739 568
28.8875 590
28.90762 590
28.92773 588
28.94784 524
28.96796 587
28.98807 558
29.00818 577
29.0283 578
29.04841 573
29.06853 562
29.08864 591
29.10875 585
29.12887 567
29.14898 558
29.16909 562
29.18921 562
29.20932 551
29.22943 559
29.24955 581
29.26966 538
29.28978 620
29.30989 585
29.33 578
29.35012 593
29.37023 560
29.39034 544
29.41046 566
29.43057 561
29.45069 564
29.4708 535
29.49091 564
29.51103 570
29.53114 582
29.55125 569
29.57137 593
29.59148 534
29.6116 580
29.63171 531
29.65182 582
29.67194 565
29.69205 590
29.71216 592
29.73228 604
29.75239 573
29.7725 617
29.79262 571
29.81273 595
29.83285 565
29.85296 579
29.87307 575
29.89319 581
29.9133 539
29.93341 617
29.95353 548
29.97364 563
29.99376 591
30.01387 585
30.03398 536
30.0541 563
30.07421 552
30.09432 584
30.11444 593
30.13455 561
30.15467 587
30.17478 620
30.19489 564
30.21501 598
30.23512 587
30.25523 596
30.27535 548
30.29546 566
30.31557 559
30.33569 569
30.3558 560
30.37592 611
30.39603 563
30.41614 534
30.43626 574
30.45637 582
30.47648 564
30.4966 550
30.51671 572
30.53683 520
30.55694 568
30.57705 592
30.59717 528
30.61728 571
30.63739 549
30.65751 593
30.67762 608
30.69773 559
30.71785 562
30.73796 575
30.75808 524
30.77819 580
30.7983 568
30.81842 555
30.83853 586
30.85864 562
30.87876 551
30.89887 540
30.91899 556
30.9391 540
30.95921 570
30.97933 586
30.99944 575
31.01955 554
31.03967 513
31.05978 585
31.0799 558
31.10001 553
31.12012 602
31.14024 530
31.16035 534
31.18046 578
31.20058 551
31.22069 577
31.2408 553
31.26092 605
31.28103 538
31.30115 522
31.32126 537
31.34137 606
31.36149 577
31.3816 543
31.40171 607
31.42183 607
31.44194 576
31.46206 562
31.48217 535
31.50228 593
31.5224 538
31.54251 519
31.56262 600
31.58274 548
31.60285 531
31.62297 590
31.64308 575
31.66319 581
31.68331 570
31.70342 560
31.72353 540
31.74365 529
31.76376 560
31.78387 571
31.80399 527
31.8241 553
31.84422 573
31.86433 567
31.88444 613
31.90456 536
31.92467 587
31.94478 522
31.9649 583
31.98501 600
32.00513 528
32.02524 593
32.04535 531
32.06547 616
32.08558 582
32.10569 535
32.12581 566
32.14592 552
32.16604 575
32.18615 546
32.20626 602
32.22638 630
32.24649 596
32.2666 583
32.28672 569
32.30683 560
32.32694 641
32.34706 629
32.36717 613
32.38729 667
32.4074 626
32.42751 637
32.44763 636
32.46774 639
32.48785 639
32.50797 648
32.52808 705
32.5482 649
32.56831 660
32.58842 674
32.60854 688
32.62865 646
32.64876 647
32.66888 666
32.68899 676
32.7091 661
32.72922 651
32.74933 655
32.76945 685
32.78956 651
32.80967 701
32.82979 645
32.8499 714
32.87001 686
32.89013 701
32.91024 687
32.93036 684
32.95047 707
32.97058 696
32.9907 719
33.01081 726
33.03092 764
33.05104 686
33.07115 675
33.09127 707
33.11138 693
33.13149 731
33.15161 727
33.17172 685
33.19183 716
33.21195 722
33.23206 705
33.25217 685
33.27229 677
33.2924 698
33.31252 673
33.33263 714
33.35274 685
33.37286 655
33.39297 680
33.41308 611
33.4332 675
33.45331 646
33.47343 552
33.49354 653
33.51365 638
33.53377 596
33.55388 627
33.57399 643
33.59411 628
33.61422 619
33.63434 658
33.65445 607
33.67456 593
33.69468 592
33.71479 594
33.7349 595
33.75502 625
33.77513 605
33.79524 617
33.81536 609
33.83547 597
33.85559 585
33.8757 571
33.89581 561
33.91593 617
33.93604 609
33.95615 625
33.97627 576
33.99638 620
34.0165 592
34.03661 570
34.05672 627
34.07684 617
34.09695 591
34.11706 626
34.13718 564
34.15729 613
34.17741 599
34.19752 638
34.21763 619
34.23775 603
34.25786 598
34.27797 643
34.29809 634
34.3182 654
34.33831 599
34.35843 655
34.37854 648
34.39866 620
34.41877 634
34.43888 705
34.459 656
34.47911 670
34.49922 675
34.51934 702
34.53945 668
34.55957 736
34.57968 710
34.59979 700
34.61991 705
34.64002 795
34.66013 742
34.68025 799
34.70036 748
34.72047 798
34.74059 820
34.7607 822
34.78082 874
34.80093 842
34.82104 823
34.84116 841
34.86127 887
34.88138 887
34.9015 851
34.92161 890
34.94173 844
34.96184 840
34.98195 846
35.00207 847
35.02218 763
35.04229 859
35.06241 863
35.08252 839
35.10264 826
35.12275 853
35.14286 864
35.16298 841
35.18309 832
35.2032 864
35.22332 802
35.24343 793
35.26354 926
35.28366 846
35.30377 818
35.32389 854
35.344 902
35.36411 880
35.38423 865
35.40434 915
35.42445 829
35.44457 887
35.46468 882
35.4848 920
35.50491 853
35.52502 944
35.54514 879
35.56525 903
35.58536 897
35.60548 913
35.62559 919
35.64571 967
35.66582 921
35.68593 921
35.70605 992
35.72616 896
35.74627 925
35.76639 886
35.7865 884
35.80661 909
35.82673 903
35.84684 852
35.86696 874
35.88707 810
35.90718 831
35.9273 825
35.94741 825
35.96752 802
35.98764 759
36.00775 748
36.02787 811
36.04798 793
36.06809 778
36.08821 728
36.10832 711
36.12843 742
36.14855 757
36.16866 714
36.18878 743
36.20889 738
36.229 736
36.24912 694
36.26923 779
36.28934 745
36.30946 760
36.32957 799
36.34968 815
36.3698 786
36.38991 830
36.41003 882
36.43014 861
36.45025 869
36.47037 867
36.49048 833
36.51059 868
36.53071 794
36.55082 863
36.57094 831
36.59105 775
36.61116 810
36.63128 766
36.65139 696
36.6715 733
36.69162 727
36.71173 714
36.73184 733
36.75196 734
36.77207 750
36.79219 702
36.8123 729
36.83241 740
36.85253 713
36.87264 660
36.89275 762
36.91287 709
36.93298 671
36.9531 675
36.97321 687
36.99332 663
37.01344 668
37.03355 698
37.05366 708
37.07378 700
37.09389 735
37.11401 659
37.13412 721
37.15423 677
37.17435 645
37.19446 689
37.21457 699
37.23469 666
37.2548 701
37.27491 717
37.29503 729
37.31514 706
37.33526 641
37.35537 663
37.37548 693
37.3956 739
37.41571 678
37.43582 705
37.45594 688
37.47605 731
37.49617 678
37.51628 715
37.53639 690
37.55651 732
37.57662 747
37.59673 690
37.61685 690
37.63696 682
37.65708 697
37.67719 683
37.6973 736
37.71742 687
37.73753 691
37.75764 739
37.77776 681
37.79787 684
37.81798 729
37.8381 747
37.85821 720
37.87833 732
37.89844 708
37.91855 737
37.93867 766
37.95878 739
37.97889 783
37.99901 760
38.01912 723
38.03924 740
38.05935 731
38.07946 775
38.09958 747
38.11969 727
38.1398 817
38.15992 728
38.18003 762
38.20015 770
38.22026 745
38.24037 794
38.26049 731
38.2806 781
38.30071 738
38.32083 757
38.34094 726
38.36105 762
38.38117 770
38.40128 747
38.4214 738
38.44151 749
38.46162 730
38.48174 733
38.50185 762
38.52196 726
38.54208 740
38.56219 678
38.58231 741
38.60242 706
38.62253 726
38.64265 730
38.66276 707
38.68287 657
38.70299 735
38.7231 696
38.74321 710
38.76333 704
38.78344 691
38.80356 677
38.82367 641
38.84378 713
38.8639 661
38.88401 656
38.90412 760
38.92424 674
38.94435 684
38.96447 641
38.98458 694
39.00469 660
39.02481 686
39.04492 649
39.06503 629
39.08515 685
39.10526 635
39.12538 673
39.14549 648
39.1656 701
39.18572 648
39.20583 705
39.22594 703
39.24606 700
39.26617 722
39.28628 741
39.3064 723
39.32651 746
39.34663 724
39.36674 721
39.38685 785
39.40697 761
39.42708 765
39.44719 725
39.46731 658
39.48742 735
39.50754 693
39.52765 687
39.54776 678
39.56788 630
39.58799 636
39.6081 599
39.62822 591
39.64833 607
39.66845 623
39.68856 607
39.70867 597
39.72879 601
39.7489 572
39.76901 581
39.78913 602
39.80924 602
39.82935 628
39.84947 608
39.86958 583
39.8897 602
39.90981 578
39.92992 612
39.95004 587
39.97015 588
39.99026 610
40.01038 616
40.03049 588
40.05061 679
40.07072 659
40.09083 677
40.11095 663
40.13106 653
40.15117 721
40.17129 684
40.1914 695
40.21152 683
40.23163 696
40.25174 673
40.27186 702
40.29197 675
40.31208 667
40.3322 673
40.35231 635
40.37242 684
40.39254 686
40.41265 643
40.43277 626
40.45288 665
40.47299 640
40.49311 585
40.51322 632
40.53333 609
40.55345 658
40.57356 633
40.59368 628
40.61379 613
40.6339 656
40.65402 625
40.67413 641
40.69424 609
40.71436 618
40.73447 684
40.75458 648
40.7747 629
40.79481 637
40.81493 630
40.83504 625
40.85515 638
40.87527 654
40.89538 634
40.91549 639
40.93561 656
40.95572 664
40.97584 677
40.99595 641
41.01606 607
41.03618 637
41.05629 589
41.0764 630
41.09652 629
41.11663 631
41.13675 628
41.15686 616
41.17697 591
41.19709 599
41.2172 611
41.23731 534
41.25743 635
41.27754 586
41.29765 637
41.31777 583
41.33788 595
41.358 601
41.37811 613
41.39822 567
41.41834 603
41.43845 578
41.45856 571
41.47868 576
41.49879 604
41.51891 545
41.53902 612
41.55913 594
41.57925 564
41.59936 592
41.61947 573
41.63959 565
41.6597 572
41.67982 603
41.69993 569
41.72004 611
41.74016 545
41.76027 552
41.78038 573
41.8005 534
41.82061 533
41.84072 597
41.86084 572
41.88095 599
41.90107 552
41.92118 521
41.94129 576
41.96141 576
41.98152 540
42.00163 549
42.02175 564
42.04186 595
42.06198 545
42.08209 569
42.1022 547
42.12232 584
42.14243 590
42.16254 602
42.18266 551
42.20277 553
42.22289 628
42.243 588
42.26311 633
42.28323 599
42.30334 599
42.32345 661
42.34357 668
42.36368 692
42.38379 664
42.40391 657
42.42402 655
42.44414 629
42.46425 622
42.48436 634
42.50448 587
42.52459 577
42.5447 601
42.56482 522
42.58493 517
42.60505 591
42.62516 588
42.64527 524
42.66539 567
42.6855 524
42.70561 537
42.72573 525
42.74584 533
42.76595 498
42.78607 521
42.80618 526
42.8263 509
42.84641 516
42.86652 542
42.88664 552
42.90675 542
42.92686 545
42.94698 608
42.96709 548
42.98721 515
43.00732 547
43.02743 564
43.04755 521
43.06766 533
43.08777 548
43.10789 524
43.128 535
43.14812 587
43.16823 561
43.18834 522
43.20846 579
43.22857 568
43.24868 558
43.2688 543
43.28891 560
43.30902 553
43.32914 563
43.34925 561
43.36937 536
43.38948 569
43.40959 534
43.42971 518
43.44982 503
43.46993 556
43.49005 576
43.51016 515
43.53028 531
43.55039 569
43.5705 572
43.59062 509
43.61073 544
43.63084 529
43.65096 501
43.67107 562
43.69119 554
43.7113 577
43.73141 565
43.75153 554
43.77164 546
43.79175 549
43.81187 509
43.83198 553
43.85209 508
43.87221 548
43.89232 519
43.91244 543
43.93255 551
43.95266 531
43.97278 504
43.99289 531
44.013 558
44.03312 569
44.05323 520
44.07335 542
44.09346 531
44.11357 520
44.13369 540
44.1538 573
44.17391 497
44.19403 543
44.21414 530
44.23426 542
44.25437 541
44.27448 539
44.2946 522
44.31471 521
44.33482 569
44.35494 565
44.37505 574
44.39516 577
44.41528 554
44.43539 538
44.45551 540
44.47562 576
44.49573 504
44.51585 510
44.53596 525
44.55607 581
44.57619 562
44.5963 563
44.61642 523
44.63653 570
44.65664 537
44.67676 556
44.69687 555
44.71698 524
44.7371 530
44.75721 540
44.77732 554
44.79744 557
44.81755 572
44.83767 588
44.85778 520
44.87789 554
44.89801 540
44.91812 558
44.93823 557
44.95835 537
44.97846 579
44.99858 556
45.01869 564
45.0388 530
45.05892 590
45.07903 558
45.09914 554
45.11926 552
45.13937 580
45.15949 564
45.1796 544
45.19971 557
45.21983 566
45.23994 572
45.26005 566
45.28017 568
45.30028 603
45.32039 570
45.34051 611
45.36062 584
45.38074 561
45.40085 549
45.42096 516
45.44108 567
45.46119 580
45.4813 590
45.50142 590
45.52153 593
45.54165 587
45.56176 577
45.58187 594
45.60199 565
45.6221 619
45.64221 626
45.66233 685
45.68244 672
45.70256 604
45.72267 676
45.74278 611
45.7629 635
45.78301 654
45.80312 616
45.82324 601
45.84335 601
45.86346 581
45.88358 584
45.90369 536
45.92381 556
45.94392 561
45.96403 561
45.98415 536
46.00426 547
46.02437 560
46.04449 564
46.0646 574
46.08472 601
46.10483 560
46.12494 579
46.14506 562
46.16517 511
46.18528 541
46.2054 576
46.22551 569
46.24563 530
46.26574 544
46.28585 576
46.30597 532
46.32608 544
46.34619 552
46.36631 573
46.38642 494
46.40653 595
46.42665 565
46.44676 555
46.46688 534
46.48699 570
46.5071 572
46.52722 569
46.54733 567
46.56744 544
46.58756 564
46.60767 519
46.62779 558
46.6479 531
46.66801 513
46.68813 572
46.70824 564
46.72835 566
46.74847 509
46.76858 504
46.78869 529
46.80881 538
46.82892 581
46.84904 543
46.86915 549
46.88926 577
46.90938 517
46.92949 544
46.9496 532
46.96972 496
46.98983 526
47.00995 551
47.03006 564
47.05017 544
47.07029 527
47.0904 565
47.11051 575
47.13063 565
47.15074 562
47.17086 578
47.19097 514
47.21108 557
47.2312 512
47.25131 555
47.27142 520
47.29154 534
47.31165 561
47.33176 547
47.35188 549
47.37199 545
47.39211 564
47.41222 516
47.43233 524
47.45245 530
47.47256 550
47.49267 525
47.51279 544
47.5329 537
47.55302 546
47.57313 570
47.59324 528
47.61336 571
47.63347 528
47.65358 567
47.6737 528
47.69381 591
47.71393 543
47.73404 526
47.75415 572
47.77427 529
47.79438 541
47.81449 548
47.83461 533
47.85472 541
47.87483 556
47.89495 529
47.91506 537
47.93518 514
47.95529 501
47.9754 573
47.99552 565
48.01563 514
48.03574 560
48.05586 562
48.07597 558
48.09609 556
48.1162 546
48.13631 498
48.15643 542
48.17654 517
48.19665 550
48.21677 552
48.23688 521
48.257 576
48.27711 570
48.29722 535
48.31734 569
48.33745 526
48.35756 563
48.37768 549
48.39779 556
48.4179 542
48.43802 552
48.45813 519
48.47825 579
48.49836 530
48.51847 546
48.53859 586
48.5587 563
48.57881 538
48.59893 561
48.61904 555
48.63916 553
48.65927 572
48.67938 532
48.6995 589
48.71961 556
48.73972 562
48.75984 555
48.77995 595
48.80006 554
48.82018 561
48.84029 569
48.86041 590
48.88052 551
48.90063 575
48.92075 571
48.94086 534
48.96097 542
48.98109 544
49.0012 563
49.02132 553
49.04143 559
49.06154 586
49.08166 547
49.10177 588
49.12188 581
49.142 616
49.16211 533
49.18223 585
49.20234 552
49.22245 592
49.24257 612
49.26268 563
49.28279 568
49.30291 567
49.32302 554
49.34313 555
49.36325 605
49.38336 560
49.40348 616
49.42359 569
49.4437 602
49.46382 586
49.48393 636
49.50404 595
49.52416 601
49.54427 608
49.56439 549
49.5845 552
49.60461 546
49.62473 613
49.64484 584
49.66495 596
49.68507 557
49.70518 581
49.7253 579
49.74541 593
49.76552 600
49.78564 635
49.80575 546
49.82586 588
49.84598 575
49.86609 590
49.8862 628
49.90632 679
49.92643 701
49.94655 708
49.96666 733
49.98677 729
50.00689 747
50.027 818
50.04711 815
50.06723 855
50.08734 838
50.10746 743
50.12757 707
50.14768 699
50.1678 670
50.18791 701
50.20802 659
50.22814 641
50.24825 613
50.26837 617
50.28848 537
50.30859 562
50.32871 539
50.34882 550
50.36893 554
50.38905 592
50.40916 554
50.42927 528
50.44939 541
50.4695 526
50.48962 573
50.50973 553
50.52984 559
50.54996 520
50.57007 564
50.59018 537
50.6103 512
50.63041 538
50.65053 528
50.67064 567
50.69075 542
50.71087 561
50.73098 543
50.75109 533
50.77121 553
50.79132 549
50.81143 561
50.83155 557
50.85166 503
50.87178 548
50.89189 555
50.912 522
50.93212 504
50.95223 504
50.97234 542
50.99246 545
51.01257 528
51.03269 547
51.0528 554
51.07291 562
51.09303 524
51.11314 569
51.13325 562
51.15337 504
51.17348 517
51.1936 519
51.21371 499
51.23382 526
51.25394 506
51.27405 529
51.29416 488
51.31428 527
51.33439 541
51.3545 556
51.37462 515
51.39473 527
51.41485 521
51.43496 554
51.45507 499
51.47519 513
51.4953 509
51.51541 471
51.53553 527
51.55564 538
51.57576 522
51.59587 506
51.61598 510
51.6361 486
51.65621 508
51.67632 504
51.69644 509
51.71655 510
51.73667 512
51.75678 464
51.77689 474
51.79701 525
51.81712 525
51.83723 520
51.85735 514
51.87746 481
51.89757 560
51.91769 525
51.9378 485
51.95792 520
51.97803 529
51.99814 542
52.01826 481
52.03837 503
52.05848 463
52.0786 509
52.09871 478
52.11883 580
52.13894 497
52.15905 491
52.17917 513
52.19928 531
52.21939 504
52.23951 514
52.25962 488
52.27974 510
52.29985 486
52.31996 488
52.34008 525
52.36019 513
52.3803 538
52.40042 509
52.42053 551
52.44064 536
52.46076 541
52.48087 535
52.50099 489
52.5211 541
52.54121 504
52.56133 503
52.58144 502
52.60155 544
52.62167 513
52.64178 488
52.6619 517
52.68201 511
52.70212 535
52.72224 527
52.74235 546
52.76246 512
52.78258 534
52.80269 533
52.8228 548
52.84292 594
52.86303 562
52.88315 526
52.90326 546
52.92337 510
52.94349 561
52.9636 589
52.98371 605
53.00383 596
53.02394 571
53.04406 557
53.06417 594
53.08428 579
53.1044 582
53.12451 619
53.14462 592
53.16474 585
53.18485 549
53.20497 573
53.22508 648
53.24519 573
53.26531 613
53.28542 609
53.30553 552
53.32565 624
53.34576 570
53.36587 587
53.38599 615
53.4061 569
53.42622 631
53.44633 576
53.46644 637
53.48656 583
53.50667 610
53.52678 663
53.5469 602
53.56701 591
53.58713 609
53.60724 620
53.62735 644
53.64747 640
53.66758 635
53.68769 611
53.70781 600
53.72792 617
53.74804 616
53.76815 642
53.78826 639
53.80838 640
53.82849 618
53.8486 683
53.86872 685
53.88883 651
53.90894 696
53.92906 688
53.94917 662
53.96929 690
53.9894 712
54.00951 685
54.02963 709
54.04974 705
54.06985 697
54.08997 705
54.11008 715
54.1302 707
54.15031 687
54.17042 660
54.19054 694
54.21065 700
54.23076 705
54.25088 682
54.27099 685
54.29111 695
54.31122 698
54.33133 738
54.35145 659
54.37156 650
54.39167 670
54.41179 662
54.4319 711
54.45201 628
54.47213 698
54.49224 644
54.51236 686
54.53247 637
54.55258 679
54.5727 689
54.59281 688
54.61292 693
54.63304 654
54.65315 648
54.67327 694
54.69338 693
54.71349 648
54.73361 653
54.75372 727
54.77383 701
54.79395 707
54.81406 678
54.83417 692
54.85429 658
54.8744 663
54.89452 654
54.91463 630
54.93474 669
54.95486 625
54.97497 655
54.99508 661
55.0152 647
55.03531 645
55.05543 639
55.07554 606
55.09565 628
55.11577 670
55.13588 633
55.15599 660
55.17611 628
55.19622 675
55.21634 598
55.23645 635
55.25656 596
55.27668 606
55.29679 662
55.3169 635
55.33702 636
55.35713 604
55.37724 641
55.39736 626
55.41747 572
55.43759 596
55.4577 640
55.47781 559
55.49793 587
55.51804 608
55.53815 584
55.55827 569
55.57838 603
55.5985 591
55.61861 606
55.63872 592
55.65884 611
55.67895 610
55.69906 600
55.71918 590
55.73929 609
55.75941 568
55.77952 591
55.79963 540
55.81975 567
55.83986 609
55.85997 540
55.88009 558
55.9002 594
55.92031 586
55.94043 591
55.96054 572
55.98066 547
56.00077 580
56.02088 603
56.041 531
56.06111 576
56.08122 507
56.10134 591
56.12145 591
56.14157 580
56.16168 548
56.18179 560
56.20191 583
56.22202 570
56.24213 530
56.26225 600
56.28236 580
56.30248 536
56.32259 530
56.3427 565
56.36282 593
56.38293 608
56.40304 601
56.42316 579
56.44327 558
56.46338 612
56.4835 566
56.50361 566
56.52373 559
56.54384 522
56.56395 564
56.58407 556
56.60418 579
56.62429 535
56.64441 588
56.66452 600
56.68464 571
56.70475 599
56.72486 549
56.74498 540
56.76509 546
56.7852 558
56.80532 575
56.82543 530
56.84554 605
56.86566 523
56.88577 560
56.90589 548
56.926 559
56.94611 580
56.96623 564
56.98634 572
57.00645 536
57.02657 572
57.04668 543
57.0668 570
57.08691 562
57.10702 522
57.12714 571
57.14725 570
57.16736 578
57.18748 560
57.20759 554
57.22771 584
57.24782 546
57.26793 499
57.28805 544
57.30816 558
57.32827 565
57.34839 574
57.3685 549
57.38861 552
57.40873 550
57.42884 543
57.44896 538
57.46907 555
57.48918 557
57.5093 529
57.52941 571
57.54952 542
57.56964 524
57.58975 537
57.60987 547
57.62998 562
57.65009 548
57.67021 595
57.69032 539
57.71043 550
57.73055 551
57.75066 615
57.77078 584
57.79089 526
57.811 565
57.83112 541
57.85123 552
57.87134 536
57.89146 563
57.91157 554
57.93168 526
57.9518 491
57.97191 511
57.99203 518
58.01214 526
58.03225 552
58.05237 539
58.07248 538
58.09259 545
58.11271 500
58.13282 505
58.15294 527
58.17305 529
58.19316 567
58.21328 510
58.23339 552
58.2535 551
58.27362 524
58.29373 531
58.31385 549
58.33396 505
58.35407 557
58.37419 528
58.3943 476
58.41441 561
58.43453 528
58.45464 524
58.47475 564
58.49487 530
58.51498 524
58.5351 526
58.55521 539
58.57532 519
58.59544 533
58.61555 523
58.63566 507
58.65578 533
58.67589 524
58.69601 495
58.71612 520
58.73623 556
58.75635 529
58.77646 551
58.79657 538
58.81669 541
58.8368 516
58.85691 530
58.87703 524
58.89714 541
58.91726 529
58.93737 564
58.95748 539
58.9776 533
58.99771 551
59.01782 545
59.03794 537
59.05805 545
59.07817 553
59.09828 495
59.11839 512
59.13851 502
59.15862 554
59.17873 518
59.19885 502
59.21896 524
59.23908 561
59.25919 559
59.2793 504
59.29942 501
59.31953 542
59.33964 451
59.35976 530
59.37987 535
59.39998 554
59.4201 550
59.44021 544
59.46033 545
59.48044 528
59.50055 557
59.52067 551
59.54078 531
59.56089 532
59.58101 541
59.60112 516
59.62124 566
59.64135 574
59.66146 570
59.68158 612
59.70169 612
59.7218 652
59.74192 657
59.76203 679
59.78215 663
59.80226 687
59.82237 714
59.84249 706
59.8626 656
59.88271 736
59.90283 708
59.92294 697
59.94305 645
59.96317 649
59.98328 657
60.0034 606
60.02351 649
60.04362 616
60.06374 636
60.08385 633
60.10396 585
60.12408 519
60.14419 575
60.16431 552
60.18442 597
60.20453 569
60.22465 581
60.24476 544
60.26487 532
60.28499 563
60.3051 537
60.32522 575
60.34533 594
60.36544 582
60.38556 574
60.40567 522
60.42578 577
60.4459 543
60.46601 543
60.48612 535
60.50624 569
60.52635 553
60.54647 532
60.56658 559
60.58669 564
60.60681 583
60.62692 517
60.64703 535
60.66715 553
60.68726 551
60.70738 578
60.72749 563
60.7476 554
60.76772 564
60.78783 567
60.80794 549
60.82806 567
60.84817 560
60.86828 579
60.8884 533
60.90851 555
60.92863 591
60.94874 555
60.96885 528
60.98897 523
61.00908 549
61.02919 605
61.04931 536
61.06942 556
61.08954 517
61.10965 574
61.12976 566
61.14988 516
61.16999 559
61.1901 580
61.21022 577
61.23033 502
61.25045 545
61.27056 599
61.29067 587
61.31079 573
61.3309 587
61.35101 526
61.37113 581
61.39124 574
61.41135 581
61.43147 571
61.45158 553
61.4717 587
61.49181 588
61.51192 603
61.53204 613
61.55215 607
61.57226 601
61.59238 605
61.61249 637
61.63261 631
61.65272 594
61.67283 616
61.69295 631
61.71306 652
61.73317 586
61.75329 626
61.7734 654
61.79352 670
61.81363 670
61.83374 677
61.85386 696
61.87397 706
61.89408 659
61.9142 705
61.93431 703
61.95442 723
61.97454 725
61.99465 738
62.01477 697
62.03488 733
62.05499 734
62.07511 741
62.09522 718
62.11533 741
62.13545 718
62.15556 733
62.17568 684
62.19579 732
62.2159 783
62.23602 753
62.25613 767
62.27624 761
62.29636 750
62.31647 700
62.33659 725
62.3567 688
62.37681 723
62.39693 726
62.41704 673
62.43715 688
62.45727 657
62.47738 663
62.49749 650
62.51761 647
62.53772 678
62.55784 659
62.57795 683
62.59806 642
62.61818 605
62.63829 619
62.6584 586
62.67852 616
62.69863 539
62.71875 579
62.73886 569
62.75897 600
62.77909 591
62.7992 596
62.81931 606
62.83943 607
62.85954 578
62.87965 585
62.89977 562
62.91988 566
62.94 589
62.96011 583
62.98022 632
63.00034 623
63.02045 596
63.04056 597
63.06068 583
63.08079 615
63.10091 558
63.12102 575
63.14113 584
63.16125 581
63.18136 633
63.20147 567
63.22159 625
63.2417 614
63.26182 623
63.28193 565
63.30204 562
63.32216 571
63.34227 556
63.36238 554
63.3825 582
63.40261 582
63.42272 567
63.44284 581
63.46295 600
63.48307 588
63.50318 614
63.52329 589
63.54341 612
63.56352 600
63.58363 562
63.60375 610
63.62386 566
63.64398 594
63.66409 568
63.6842 594
63.70432 629
63.72443 615
63.74454 582
63.76466 596
63.78477 605
63.80489 593
63.825 648
63.84511 638
63.86523 626
63.88534 609
63.90545 641
63.92557 616
63.94568 670
63.96579 627
63.98591 610
64.00602 655
64.02614 619
64.04625 592
64.06636 648
64.08648 626
64.10659 617
64.1267 612
64.14682 598
64.16693 559
64.18705 569
64.20716 598
64.22727 631
64.24739 607
64.2675 584
64.28761 596
64.30773 602
64.32784 621
64.34796 573
64.36807 589
64.38818 535
64.4083 560
64.42841 590
64.44852 562
64.46864 539
64.48875 566
64.50886 513
64.52898 583
64.54909 553
64.56921 555
64.58932 584
64.60943 558
64.62955 559
64.64966 491
64.66977 538
64.68989 552
64.71 522
64.73012 525
64.75023 562
64.77034 543
64.79046 527
64.81057 517
64.83068 549
64.8508 530
64.87091 560
64.89102 544
64.91114 533
64.93125 503
64.95137 541
64.97148 510
64.99159 508
65.01171 491
65.03182 520
65.05193 531
65.07205 547
65.09216 530
65.11228 518
65.13239 536
65.1525 541
65.17262 535
65.19273 476
65.21284 484
65.23296 515
65.25307 507
65.27319 514
65.2933 516
65.31341 532
65.33353 498
65.35364 556
65.37375 505
65.39387 549
65.41398 510
65.43409 512
65.45421 582
65.47432 529
65.49444 521
65.51455 503
65.53466 540
65.55478 535
65.57489 526
65.595 569
65.61512 513
65.63523 517
65.65535 494
65.67546 503
65.69557 519
65.71569 522
65.7358 556
65.75591 502
65.77603 526
65.79614 547
65.81626 526
65.83637 544
65.85648 536
65.8766 573
65.89671 562
65.91682 495
65.93694 533
65.95705 502
65.97716 532
65.99728 521
66.01739 530
66.03751 516
66.05762 495
66.07773 512
66.09785 514
66.11796 483
66.13807 491
66.15819 513
66.1783 527
66.19842 545
66.21853 530
66.23864 513
66.25876 509
66.27887 506
66.29898 473
66.3191 497
66.33921 523
66.35933 553
66.37944 511
66.39955 516
66.41967 519
66.43978 494
66.45989 491
66.48001 513
66.50012 505
66.52023 500
66.54035 523
66.56046 516
66.58058 555
66.60069 549
66.6208 523
66.64092 505
66.66103 568
66.68114 526
66.70126 557
66.72137 479
66.74149 509
66.7616 503
66.78171 524
66.80183 547
66.82194 514
66.84205 544
66.86217 513
66.88228 525
66.90239 448
66.92251 557
66.94262 493
66.96274 489
66.98285 514
67.00296 503
67.02308 516
67.04319 488
67.0633 520
67.08342 488
67.10353 491
67.12365 510
67.14376 498
67.16387 520
67.18399 532
67.2041 529
67.22421 556
67.24433 524
67.26444 542
67.28456 483
67.30467 544
67.32478 505
67.3449 523
67.36501 527
67.38512 513
67.40524 522
67.42535 526
67.44546 501
67.46558 561
67.48569 536
67.50581 573
67.52592 541
67.54603 587
67.56615 604
67.58626 630
67.60637 618
67.62649 623
67.6466 599
67.66672 649
67.68683 625
67.70694 577
67.72706 590
67.74717 579
67.76728 587
67.7874 596
67.80751 613
67.82763 577
67.84774 612
67.86785 617
67.88797 624
67.90808 628
67.92819 656
67.94831 623
67.96842 641
67.98853 597
68.00865 673
68.02876 658
68.04888 674
68.06899 625
68.0891 633
68.10922 643
68.12933 676
68.14944 655
68.16956 625
68.18967 673
68.20979 644
68.2299 681
68.25001 654
68.27013 582
68.29024 621
68.31035 563
68.33047 593
68.35058 559
68.3707 511
68.39081 585
68.41092 550
68.43104 530
68.45115 523
68.47126 533
68.49138 535
68.51149 543
68.5316 522
68.55172 527
68.57183 509
68.59195 491
68.61206 504
68.63217 518
68.65229 558
68.6724 510
68.69251 485
68.71263 524
68.73274 542
68.75286 504
68.77297 533
68.79308 498
68.8132 501
68.83331 488
68.85342 526
68.87354 481
68.89365 528
68.91376 516
68.93388 517
68.95399 529
68.97411 486
68.99422 537
69.01433 507
69.03445 481
69.05456 561
69.07467 539
69.09479 492
69.1149 519
69.13502 521
69.15513 497
69.17524 530
69.19536 541
69.21547 539
69.23558 519
69.2557 522
69.27581 535
69.29593 489
69.31604 534
69.33615 487
69.35627 538
69.37638 486
69.39649 512
69.41661 497
69.43672 523
69.45683 464
69.47695 461
69.49706 511
69.51718 515
69.53729 528
69.5574 538
69.57752 504
69.59763 492
69.61774 517
69.63786 513
69.65797 511
69.67809 472
69.6982 508
69.71831 574
69.73843 504
69.75854 499
69.77865 499
69.79877 501
69.81888 497
69.839 505
69.85911 523
69.87922 559
69.89934 508
69.91945 527
69.93956 529
69.95968 509
69.97979 499
69.9999 514
70.02002 527
70.04013 548
70.06025 510
70.08036 508
70.10047 540
70.12059 533
70.1407 508
70.16081 532
70.18093 480
70.20104 490
70.22116 520
70.24127 497
70.26138 519
70.2815 476
70.30161 518
70.32172 479
70.34184 485
70.36195 517
70.38207 504
70.40218 535
70.42229 532
70.44241 501
70.46252 511
70.48263 497
70.50275 555
70.52286 500
70.54297 487
70.56309 511
70.5832 505
70.60332 543
70.62343 539
70.64354 500
70.66366 482
70.68377 502
70.70388 513
70.724 476
70.74411 487
70.76423 512
70.78434 504
70.80445 538
70.82457 508
70.84468 507
70.86479 493
70.88491 506
70.90502 509
70.92513 511
70.94525 540
70.96536 534
70.98548 511
71.00559 506
71.0257 496
71.04582 494
71.06593 502
71.08604 525
71.10616 547
71.12627 494
71.14639 534
71.1665 498
71.18661 486
71.20673 485
71.22684 497
71.24695 527
71.26707 516
71.28718 481
71.3073 522
71.32741 541
71.34752 497
71.36764 509
71.38775 510
71.40786 526
71.42798 571
71.44809 529
71.4682 528
71.48832 541
71.50843 499
71.52855 500
71.54866 518
71.56877 491
71.58889 532
71.609 512
71.62911 524
71.64923 541
71.66934 533
71.68946 505
71.70957 487
71.72968 516
71.7498 517
71.76991 476
71.79002 571
71.81014 519
71.83025 539
71.85037 513
71.87048 557
71.89059 533
71.91071 530
71.93082 538
71.95093 512
71.97105 567
71.99116 533
72.01127 495
72.03139 498
72.0515 526
72.07162 562
72.09173 521
72.11184 540
72.13196 479
72.15207 507
72.17218 533
72.1923 484
72.21241 537
72.23253 523
72.25264 568
72.27275 505
72.29287 574
72.31298 529
72.33309 525
72.35321 518
72.37332 557
72.39344 528
72.41355 528
72.43366 540
72.45378 496
72.47389 522
72.494 481
72.51412 542
72.53423 536
72.55434 521
72.57446 513
72.59457 493
72.61469 519
72.6348 518
72.65491 520
72.67503 508
72.69514 521
72.71525 556
72.73537 495
72.75548 516
72.7756 498
72.79571 541
72.81582 525
72.83594 523
72.85605 525
72.87616 546
72.89628 543
72.91639 538
72.9365 525
72.95662 569
72.97673 545
72.99685 531
73.01696 526
73.03707 531
73.05719 510
73.0773 510
73.09741 549
73.11753 561
73.13764 508
73.15776 534
73.17787 542
73.19798 549
73.2181 521
73.23821 545
73.25832 571
73.27844 579
73.29855 585
73.31867 568
73.33878 552
73.35889 555
73.37901 588
73.39912 551
73.41923 613
73.43935 502
73.45946 560
73.47957 543
73.49969 584
73.5198 534
73.53992 525
73.56003 552
73.58014 528
73.60026 515
73.62037 515
73.64048 573
73.6606 542
73.68071 548
73.70083 546
73.72094 540
73.74105 544
73.76117 551
73.78128 520
73.80139 581
73.82151 562
73.84162 542
73.86174 528
73.88185 540
73.90196 512
73.92208 571
73.94219 534
73.9623 535
73.98242 522
74.00253 530
74.02264 511
74.04276 532
74.06287 522
74.08299 492
74.1031 531
74.12321 533
74.14333 506
74.16344 538
74.18355 533
74.20367 548
74.22378 505
74.2439 499
74.26401 536
74.28412 506
74.30424 549
74.32435 525
74.34446 526
74.36458 473
74.38469 504
74.40481 515
74.42492 513
74.44503 498
74.46515 534
74.48526 520
74.50537 513
74.52549 539
74.5456 523
74.56571 557
74.58583 521
74.60594 538
74.62606 548
74.64617 529
74.66628 514
74.6864 533
74.70651 551
74.72662 504
74.74674 543
74.76685 479
74.78697 514
74.80708 535
74.82719 502
74.84731 536
74.86742 515
74.88753 515
74.90765 534
74.92776 539
74.94787 499
74.96799 527
74.9881 525
75.00822 515
