3.00117 20502.8234935626
3.02128 19986.4424132133
3.0414 19537
3.06151 18870.6817582796
3.08162 18374.6400768067
3.10174 18014.0420784396
3.12185 17415.462367095
3.14197 16898.7616529724
3.16208 16430.3215189657
3.18219 16157.2094081065
3.20231 15451.5388708161
3.22242 14749.9086883046
3.24253 14947.6778395239
3.26265 14192.2164464109
3.28276 13760.9386232146
3.30288 13123.5975774206
3.32299 12747.0822875977
3.3431 12509
3.36322 11798.6457870041
3.38333 11743.5695364411
3.40344 11119.9511069492
3.42356 10927.101313703
3.44367 10745.586240557
3.46379 10236.2235038828
3.4839 9913
3.50401 9522.76876536126
3.52413 9179.9507725403
3.54424 9183.16595132895
3.56435 8445.22257887095
3.58447 8342.20160427128
3.60458 7923.52793957495
3.62469 7557.04843506951
3.64481 7519.85567842413
3.66492 7029.67752914729
3.68504 6918.57097028072
3.70515 6465.74362349149
3.72526 6147.15161132579
3.74538 6148.14193452294
3.76549 5815.17336249609
3.7856 5589
3.80572 5397.66073023546
3.82583 5041.79555835088
3.84595 5060.69960239111
3.86606 4788.27906901862
3.88617 4723.49203633721
3.90629 4199.15205747977
3.9264 4206
3.94651 4015.87708529515
3.96663 3872.98323732232
3.98674 3820.41710329434
4.00686 3374.61576017459
4.02697 3361.76414195768
4.04708 3414.20236714902
4.0672 3050
4.08731 2946.95948287652
4.10742 2813.89707930446
4.12754 2805.13866362076
4.14765 2803.51520533845
4.16776 2513.23134336988
4.18788 2581.99320085793
4.20799 2410.109328757
4.22811 2321.04448990701
4.24822 2423.90452887705
4.26833 2157.70792567781
4.28845 2131.00216169697
4.30856 2041.3133494912
4.32867 1938.91974421338
4.34879 2073.9800670947
4.3689 1977
4.38902 1945.97563933289
4.40913 1862.78431072179
4.42924 1741.98106781968
4.44936 1829.83489304138
4.46947 1814.15943693202
4.48958 1702.0389228585
4.5097 1706
4.52981 1593.98000072558
4.54992 1653.06296011644
4.57004 1649.9100483235
4.59015 1565.36107101976
4.61027 1422.08480413929
4.63038 1453.96150603323
4.65049 1465.98304327538
4.67061 1498.98002153975
4.69072 1392.90777298879
4.71083 1362.0003067537
4.73095 1352.93007448834
4.75106 1325.99129961568
4.77118 1338.03396148099
4.79129 1251.04606546185
4.8114 1208
4.83152 1243.01039293769
4.85163 1217.96041514675
4.87174 1214.01745754797
4.89186 1202.11183705018
4.91197 1098.19639226427
4.93209 1027.9698458796
4.9522 1147
4.97231 1056.94193896098
4.99243 1015.05271034325
5.01254 1044.87980545569
5.03265 955.926521803671
5.05277 1095.85790456092
5.07288 1046.13908890963
5.09299 915.03914310037
5.11311 926.046953713109
5.13322 1021.01902889432
5.15334 961.874025968352
5.17345 936.9562837011
5.19356 902.091247031105
5.21368 860.029417680588
5.23379 858.982579727262
5.2539 902
5.27402 866.927707483433
5.29413 813.012352765564
5.31425 839.897437303347
5.33436 759.01022873315
5.35447 842.893711534801
5.37459 831.031541385349
5.3947 791
5.41481 842.996506280968
5.43493 768.903495672805
5.45504 756.010072920238
5.47516 740.083994967298
5.49527 700.006022945535
5.51538 733.960178457662
5.5355 754
5.55561 761.008561183873
5.57572 756.93448075147
5.59584 673.970320309869
5.61595 715.001017898938
5.63606 662.038421371792
5.65618 696.977012218247
5.67629 700.978150144879
5.69641 746.97562673088
5.71652 633.951047099983
5.73663 687.099006047968
5.75675 698.946692849801
5.77686 670.062416426427
5.79697 655.972822576787
5.81709 678.008814093589
5.8372 640
5.85732 676.995658815737
5.87743 621.937848783031
5.89754 620.000407714415
5.91766 612.972459088538
5.93777 646.962115762982
5.95788 648.010193828826
5.978 633
5.99811 617.011291183588
6.01823 648.97544615509
6.03834 604.007483653481
6.05845 656.937568478915
6.07857 620.083887438108
6.09868 600.968381822466
6.11879 645.996590864966
6.13891 586.949711017585
6.15902 518.013543582654
6.17913 584.056707111815
6.19925 580.050059131851
6.21936 634.932079487961
6.23948 616.048760731478
6.25959 574.010423055065
6.2797 572
6.29982 579.032841869556
6.31993 619.012402268899
6.34004 592.951156823501
6.36016 587.011945321115
6.38027 581.976549387354
6.40039 605.001502551614
6.4205 579
6.44061 593.008624303008
6.46073 593.982359673625
6.48084 571.934033986779
6.50095 541.035460879731
6.52107 550.959050662887
6.54118 572.002576363915
6.56129 561.992021065768
6.58141 569.9663132326
6.60152 475.996712102599
6.62164 559.096264363428
6.64175 530.935285550985
6.66186 547.955047835305
6.68198 551.004281006854
6.70209 544.008620104036
6.7222 514
6.74232 492.010775764102
6.76243 519.013679138161
6.78255 501.956002686832
6.80266 506.949218339033
6.82277 548.91562777491
6.84289 568.034168550606
6.863 473
6.88311 548.023339358705
6.90323 522.957802702735
6.92334 533.042717251815
6.94346 547.965737001693
6.96357 550.058983684947
6.98368 487.041614693417
7.0038 494
7.02391 521.99608383923
7.04402 490.983847972764
7.06414 501.019759491174
7.08425 496.021033445835
7.10436 495.982375080815
7.12448 510.982153583505
7.14459 515.011739357724
7.16471 481.994805118591
7.18482 495.005426406622
7.20493 476.960464523639
7.22505 464.018831874202
7.24516 481.977843793793
7.26527 479.010806828542
7.28539 475.001570310604
7.3055 475
7.32562 478.983759488802
7.34573 463.031926978105
7.36584 515.077715031897
7.38596 512.060865822912
7.40607 488.992258083768
7.42618 505.011307296082
7.4463 476
7.46641 500.996796621226
7.48653 463.982459327949
7.50664 481.993520017011
7.52675 445.079292797869
7.54687 440.988126817675
7.56698 462.946347537893
7.58709 514.002376430168
7.60721 466.988755023444
7.62732 486.011308061426
7.64743 471.988087954727
7.66755 483.029060312608
7.68766 476.053004412102
7.70778 462.965277062065
7.72789 519.990641199525
7.748 477
7.76812 440.013349094847
7.78823 478.026184227879
7.80834 462.970457679658
7.82846 468.970638119593
7.84857 478.994291253819
7.86869 470.013427960151
7.8888 458
7.90891 508.989627671904
7.92903 433.955387704168
7.94914 472.059752715066
7.96925 457.05250176997
7.98937 447.030836150262
8.00948 424.992240636766
8.0296 458
8.04971 460.004012064084
8.06982 474.99650796307
8.08994 452.969908862327
8.11005 448.965493548513
8.13016 438.943239480271
8.15028 484.992307255542
8.17039 435.035435623512
8.1905 408
8.21062 476.009096041454
8.23073 424.951927152415
8.25085 451.112157725772
8.27096 462.073901959065
8.29107 419.984681690596
8.31119 463.000690328771
8.3313 415
8.35141 439.003955031399
8.37153 423.017618209569
8.39164 472.087913064424
8.41176 478.046922040338
8.43187 459.979209166319
8.45198 482.020254592669
8.4721 432
8.49221 463.014088713581
8.51232 466.004850890398
8.53244 476.988441196593
8.55255 451.065652415426
8.57266 433.040564414494
8.59278 418.98812073401
8.61289 447.991296615359
8.63301 439.990608146196
8.65312 437.02495921135
8.67323 466.999411337816
8.69335 440.970837572331
8.71346 451.995276423463
8.73357 439.005570609986
8.75369 449.996793819812
8.7738 452
8.79392 471.99174387103
8.81403 436.956804872052
8.83414 429.996437006732
8.85426 444.881077706296
8.87437 504.02311148631
8.89448 431.039008052037
8.9146 464
8.93471 473.980082778838
8.95483 425.991246902123
8.97494 457.025605462973
8.99505 442.986659568092
9.01517 471.984313073172
9.03528 456.008205655787
9.05539 460.006754522349
9.07551 437.002805331107
9.09562 468.015045863853
9.11573 450.963745197413
9.13585 433.950390805137
9.15596 415.007467797156
9.17608 423.994889613089
9.19619 407.020276298612
9.2163 383
9.23642 447.020724126782
9.25653 412.9572718602
9.27664 417.007750516469
9.29676 408.003722839323
9.31687 411.021439663034
9.33699 394.989813554459
9.3571 439
9.37721 426.003491289204
9.39733 444.960505470546
9.41744 387.969105059247
9.43755 434.85536119325
9.45767 453.033239214629
9.47778 410.043524119105
9.4979 387
9.51801 403.012854924313
9.53812 431.029285012125
9.55824 452.006740166321
9.57835 430.892436936105
9.59846 393.014177291859
9.61858 401.017759706073
9.63869 368.996702842464
9.6588 408
9.67892 396.02540303598
9.69903 453.031187504578
9.71915 407.816892157364
9.73926 377.903178934274
9.75937 452.978582065628
9.77949 419.989787257032
9.7996 486
9.81971 413.975942373707
9.83983 432.04350250055
9.85994 430.965297168617
9.88006 411.044112237362
9.90017 395.997965019783
9.92028 392.040168250189
9.9404 358
9.96051 443.00396418176
9.98062 382.996598721753
10.00074 457.095666561756
10.02085 428.133614519917
10.04097 398.015231740059
10.06108 396.998631854752
10.08119 404.987221502483
10.10131 435.004881026571
10.12142 418.977094896953
10.14153 418.04679963611
10.16165 449.976755966767
10.18176 410.035584772129
10.20187 421.008761915
10.22199 398.995745944115
10.2421 442
10.26222 427.940235873003
10.28233 378.020366873714
10.30244 435.053589363611
10.32256 407.067983687382
10.34267 404.970468349035
10.36278 418.01203263792
10.3829 399
10.40301 422.992102989771
10.42313 386.02052060089
10.44324 445.054419331565
10.46335 411.119028835807
10.48347 399.956548645924
10.50358 440.978996516435
10.52369 430.011646458437
10.54381 396.970420163745
10.56392 348.01518287277
10.58403 403.024917022769
10.60415 382.048962258051
10.62426 437.981266200799
10.64438 400.003589142559
10.66449 449.979679432952
10.6846 435
10.70472 388.995259553237
10.72483 429.083691408004
10.74494 456.968858682876
10.76506 422.028405259991
10.78517 432.00292823241
10.80529 414.000863281868
10.8254 429
10.84551 410.996626369667
10.86563 415.982475760558
10.88574 383.945383187044
10.90585 395.84772091736
10.92597 448.038231727581
10.94608 377.015109963976
10.9662 430
10.98631 406.988683765276
11.00642 412.005089351124
11.02654 401.974574529883
11.04665 412.878856376757
11.06676 460.016333154224
11.08688 409.027086179589
11.10699 419.00299212173
11.1271 393
11.14722 423.004643866966
11.16733 399.998215732159
11.18745 428.038127344902
11.20756 407.077543859703
11.22767 390.955805671554
11.24779 433.000912496562
11.2679 401
11.28801 458.022664303107
11.30813 444.913082345122
11.32824 386.948828440049
11.34836 396.965915873686
11.36847 385.072666606589
11.38858 355.945492963701
11.4087 455
11.42881 418.989026161323
11.44892 435.992339274317
11.46904 390.937674693712
11.48915 391.997159231889
11.50927 391.955325538715
11.52938 438.980182523187
11.54949 427.002203544392
11.56961 440.000376338976
11.58972 415.96846370723
11.60983 395.99113484265
11.62995 392.966418941773
11.65006 388.922879568084
11.67017 443.982960998027
11.69029 404.019391661615
11.7104 402
11.73052 408.979844280439
11.75063 388.030505567427
11.77074 450.123131152311
11.79086 460.1033605114
11.81097 395.028794986729
11.83108 431.955553955695
11.8512 449
11.87131 427.966584180228
11.89143 370.043501806887
11.91154 458.082043251565
11.93165 427.057259435459
11.95177 441.000497798051
11.97188 409.029364121819
11.99199 415.978451956402
12.01211 468.016484177342
12.03222 458.953245606211
12.05234 403.92586760097
12.07245 409.115437534045
12.09256 456.979398387735
12.11268 434.013187757843
12.13279 446.99372267848
12.1529 435
12.17302 411.016243762613
12.19313 446.003087490908
12.21324 408.938445678213
12.23336 424.883842303175
12.25347 471.02481533611
12.27359 428.989721138598
12.2937 482
12.31381 382.987043216716
12.33393 443.03058899958
12.35404 391.941123294686
12.37415 422.906471764975
12.39427 431.005696729064
12.41438 427.010185837941
12.4345 415
12.45461 423.005487551935
12.47472 418.971175237785
12.49484 387.999663034198
12.51495 417.934212223186
12.53506 426.977705753795
12.55518 438.011239607419
12.57529 414.002443573595
12.5954 432
12.61552 421.977456231012
12.63563 410.017591240907
12.65575 424.961618331789
12.67586 392.007938729602
12.69597 419.975259707535
12.71609 407.008531183439
12.7362 400
12.75631 392.00195615319
12.77643 410.033220129649
12.79654 419.982021457983
12.81666 396.055448295304
12.83677 380.994427946354
12.85688 398.978333122166
12.877 395
12.89711 339.998339954257
12.91722 387.0381507694
12.93734 382.957755152797
12.95745 382.914405476415
12.97757 423.990321740142
12.99768 392.032884947561
13.01779 382.000157563693
13.03791 383.003628310537
13.05802 384.980229987559
13.07813 365.027088441031
13.09825 416.100883551045
13.11836 405.11993240213
13.13847 356.964949485911
13.15859 429.97975160431
13.1787 406
13.19882 398.02027927223
13.21893 424.017578142413
13.23904 410.94292432422
13.25916 384.033354878217
13.27927 378.99991115698
13.29938 384.980622113398
13.3195 402
13.33961 377.997856334515
13.35973 388.981029514639
13.37984 362.013863678385
13.39995 396.978421571158
13.42007 370.026423876559
13.44018 385.971119281823
13.46029 391.017621351291
13.48041 339.987464984685
13.50052 360.043147957259
13.52064 379.943551522731
13.54075 341.031843637384
13.56086 392.968104607148
13.58098 356.0319741155
13.60109 363.987322607403
13.6212 377
13.64132 371.022840962657
13.66143 401.985248671072
13.68154 363.990623565576
13.70166 390.014558993188
13.72177 345.034412231025
13.74189 368.981961222969
13.762 374
13.78211 336.002491532171
13.80223 388.085287817826
13.82234 399.91666122697
13.84245 351.993591769401
13.86257 390.992851629364
13.88268 359.000470153865
13.9028 395
13.92291 363.990032338583
13.94302 373.005340316789
13.96314 352.931235978751
13.98325 331.975139017061
14.00336 365.932951441826
14.02348 393.95892337256
14.04359 427.007888030419
14.06371 378.988718815199
14.08382 395.010662420268
14.10393 384.996584331153
14.12405 390.966386814746
14.14416 369.977457169728
14.16427 400.006994284559
14.18439 355.018521308739
14.2045 360
14.22461 391.00532797111
14.24473 386.002257275029
14.26484 383.924892876524
14.28496 330.035974907804
14.30507 353.969356194747
14.32518 353.992005936284
14.3453 374
14.36541 364.997961511678
14.38552 377.018087110092
14.40564 382.970800860781
14.42575 354.070113109895
14.44587 351.948298962295
14.46598 390.99961481736
14.48609 359.007446163663
14.50621 377.008662766646
14.52632 378.002224944077
14.54643 389.014454731253
14.56655 386.965038459944
14.58666 376.979043336566
14.60677 402.970177876328
14.62689 394.019575815026
14.647 355
14.66712 378.017184608385
14.68723 372.986961735904
14.70734 371.9994171135
14.72746 372.980372101828
14.74757 387.986879598637
14.76768 385.008908870635
14.7878 375
14.80791 369.004361255803
14.82803 379.987869209869
14.84814 359.993243079114
14.86825 372.005688212231
14.88837 354.008045270742
14.90848 382.943590289568
14.92859 424.005710105458
14.94871 361.963377002337
14.96882 323.003058704281
14.98894 358.098548423469
15.00905 398.059236096855
15.02916 399.043503734742
15.04928 365.03520696245
15.06939 359.976932920046
15.0895 421
15.10962 383.954781754186
15.12973 361.980820600568
15.14984 353.007752023709
15.16996 359.023261443775
15.19007 338.99872975624
15.21019 372.975094195774
15.2303 397
15.25041 350.996345143941
15.27053 380.008386582069
15.29064 344.933353465786
15.31075 350.897559733871
15.33087 391.985517770354
15.35098 367.031560479492
15.3711 358
15.39121 370.991518714058
15.41132 338.995985940428
15.43144 367.042481112268
15.45155 371.956701392896
15.47166 399.984553708786
15.49178 377.0329941751
15.51189 357.002026836716
15.53201 363.003683464423
15.55212 373.022345567823
15.57223 389.975763056645
15.59235 347.918573610498
15.61246 344.975435010012
15.63257 373.908302471273
15.65269 425.009114298188
15.6728 350
15.69291 353.021041149382
15.71303 371.935350610522
15.73314 322.075092248537
15.75326 415.952713102202
15.77337 350.073757112105
15.79348 374.949665565007
15.8136 390
15.83371 339.98833135086
15.85382 362.042756487677
15.87394 379.943201439728
15.89405 329.068219892716
15.91417 347.936540076706
15.93428 377.995806464832
15.95439 373.990670856504
15.97451 397.990380870924
15.99462 350.989529133093
16.01473 381.015915516276
16.03485 354.94929515428
16.05496 363.960456202522
16.07508 374.999085462296
16.09519 370.002731084099
16.1153 369
16.13542 369.993346012104
16.15553 363.008498645853
16.17564 383.045839218614
16.19576 395.997976341606
16.21587 390.00937307162
16.23598 385.008854912343
16.2561 368
16.27621 352.003140999473
16.29633 371.011736896891
16.31644 365.002184052749
16.33655 374.008148402726
16.35667 357.0178325524
16.37678 358.994018770967
16.39689 357.006021251005
16.41701 343.99872671872
16.43712 350.001364734202
16.45724 351.035983026721
16.47735 363.921268636502
16.49746 316.986812261991
16.51758 374.96183138137
16.53769 359.016893549179
16.5578 343
16.57792 366.048660824301
16.59803 405.987844190221
16.61814 358.924970628033
16.63826 374.869321398653
16.65837 422.053733510018
16.67849 335.020368741132
16.6986 366
16.71871 357.991578836176
16.73883 363.040419010374
16.75894 379.949449800849
16.77905 343.956268696243
16.79917 395.995398107932
16.81928 353.002528875086
16.8394 400
16.85951 352.96384232421
16.87962 316.019939689264
16.89974 368.075060129934
16.91985 364.067021390382
16.93996 341.021944246849
16.96008 346.980208511725
16.98019 369.990851560625
17.00031 376.998291125828
17.02042 376.013297872952
17.04053 391.992553289265
17.06065 382.061036813646
17.08076 432.941251875453
17.10087 408.096943150098
17.12099 353.004708475291
17.1411 386
17.16121 391.989887329871
17.18133 374.012915250593
17.20144 400.019716678823
17.22156 375.089499093572
17.24167 346.983309259483
17.26178 386.964256605779
17.2819 389
17.30201 359.999207194578
17.32212 382.014189827905
17.34224 372.96704221195
17.36235 363.01216500459
17.38247 366.97277524453
17.40258 388.990218961403
17.42269 383.004717515566
17.44281 377.99756574181
17.46292 371.996065619457
17.48303 385.062370119907
17.50315 413.907345018115
17.52326 347.013197095541
17.54338 399.977962268331
17.56349 372.003393644105
17.5836 389
17.60372 323.974722629007
17.62383 372.117889352238
17.64394 419.994761599949
17.66406 391.022633206704
17.68417 406.986126523528
17.70428 396.010653779313
17.7244 399
17.74451 407.002806711564
17.76463 407.992396458632
17.78474 394.957556692324
17.80485 382.961607116628
17.82497 408.002058653306
17.84508 376.030537642994
17.86519 372.990500808071
17.88531 398.010071253851
17.90542 407.001882511059
17.92554 399.95647446816
17.94565 388.071151701523
17.96576 435.969700997001
17.98588 400.053537276226
18.00599 360.013882808359
18.0261 351
18.04622 379.011253726464
18.06633 379.030268472731
18.08645 411.009122436554
18.10656 379.069240861539
18.12667 375.954221908751
18.14679 405.005037770478
18.1669 368
18.18701 379.995723763693
18.20713 356.018577800386
18.22724 395.008174272092
18.24735 362.026725927867
18.26747 388.968898113187
18.28758 385.003520934618
18.3077 390
18.32781 387.012133030666
18.34792 410.969314718765
18.36804 366.071460702799
18.38815 456.938487783088
18.40826 387.143438217055
18.42838 370.994685694138
18.44849 371.997223692307
18.46861 384.005631854185
18.48872 385.991149233688
18.50883 380.018293613848
18.52895 400.00484377731
18.54906 380.039718641919
18.56917 377.982095682879
18.58929 385.006522950158
18.6094 363
18.62951 385.015477563273
18.64963 391.950682198868
18.66974 349.991826684176
18.68986 387.926047014851
18.70997 392.028040812287
18.73008 369.018769543684
18.7502 369
18.77031 397.000987013224
18.79042 372.978882421483
18.81054 378.051817352546
18.83065 411.916259092638
18.85077 416.070176852298
18.87088 349.034051195376
18.89099 373.971308936836
18.91111 401.981292217166
18.93122 341.99668798567
18.95133 387.009280845663
18.97145 342.95295988046
18.99156 378.909913005699
19.01168 397.997350569616
19.03179 392.008365934663
19.0519 371
19.07202 376.034161186316
19.09213 409.994143221441
19.11224 379.986259060398
19.13236 399.997064422983
19.15247 377.012001540223
19.17258 388.005430100121
19.1927 377
19.21281 432.008694893104
19.23293 403.971631349948
19.25304 406.967680285013
19.27315 383.940356470991
19.29327 438.975792591349
19.31338 408.016447576948
19.33349 421.002093890345
19.35361 385.983797950649
19.37372 394.053359296921
19.39384 447.002141447849
19.41395 411.988912515606
19.43406 458.895700051712
19.45418 466.043252230575
19.47429 411.011081404216
19.4944 434
19.51452 451.99935900776
19.53463 467.097257948473
19.55475 546.055129751775
19.57486 493.150422922308
19.59497 458.970933846849
19.61509 522.956597461494
19.6352 582
19.65531 562.013904805957
19.67543 610.962264320481
19.69554 522.911500397731
19.71565 583.697974419929
19.73577 660.045707911086
19.75588 571.036929521505
19.776 610
19.79611 599.003105697976
19.81622 649.063158254492
19.83634 670.911742722822
19.85645 611.992116803547
19.87656 660.99609712684
19.89668 604.034176147267
19.91679 624.986411828063
19.93691 637.01198955055
19.95702 664.996342996943
19.97713 637.990224370952
19.99725 661.045004998942
20.01736 654.035463889696
20.03747 632.050424281349
20.05759 604.996996330969
20.0777 617
20.09782 574.042714597041
20.11793 663.003174003059
20.13804 574.902025522507
20.15816 610.923190158555
20.17827 605.022626630212
20.19838 616.960183174431
20.2185 647
20.23861 597.989666988714
20.25872 615.006217296433
20.27884 597.991402392811
20.29895 630.85424672088
20.31907 661.061709283665
20.33918 587.024572612317
20.35929 620.990140014527
20.37941 600.993776555458
20.39952 636.075027897844
20.41963 692.98041038899
20.43975 645.00932283831
20.45986 693.997636662124
20.47998 655.975750243273
20.50009 743.974615169125
20.5202 716
20.54032 709.037323447226
20.56043 771.094733308489
20.58054 813.040757924203
20.60066 837.890493367435
20.62077 914.903135250528
20.64088 974.904017610967
20.661 1108
20.68111 1268.13458341668
20.70123 1606.42396086208
20.72134 1824.51865254126
20.74145 2200.86586862092
20.76157 2705.17003362304
20.78168 3284.43445998755
20.80179 3714.90163891143
20.82191 3731.99132257886
20.84202 3732.92664503698
20.86214 3493.19879908115
20.88225 2984.61119354812
20.90236 2432.08510246996
20.92248 1934.4065078966
20.94259 1583.18162209205
20.9627 1231
20.98282 1104.89226702815
21.00293 965.817979822839
21.02305 899.953954963082
21.04316 874.157481824346
21.06327 777.049836779274
21.08339 817.978078927025
21.1035 824
21.12361 816.980441276237
21.14373 779.036198390955
21.16384 817.891751221534
21.18395 706.062179108895
21.20407 787.903415754551
21.22418 767.05035307536
21.2443 747
21.26441 773.004626940962
21.28452 743.939175072587
21.30464 692.990555605696
21.32475 727.920586751619
21.34486 731.018091512882
21.36498 716.031300485317
21.38509 693.988071487126
21.40521 735.997691104366
21.42532 682.961593687018
21.44543 686.013794243193
21.46555 676.959057517655
21.48566 667.994688317476
21.50577 657.080618260762
21.52589 597.998147014862
21.546 649
21.56612 596.933719909218
21.58623 570.021934376655
21.60634 603.051862963756
21.62646 612.98040075465
21.64657 623.008460165974
21.66668 587.064667888259
21.6868 528
21.70691 532.989959615474
21.72702 495.000876265729
21.74714 533.033519625194
21.76725 504.102036782558
21.78737 500.923443667362
21.80748 565.978634795435
21.82759 531.023334107897
21.84771 506.994612628197
21.86782 505.012165345878
21.88793 527.03281929554
21.90805 531.951992389021
21.92816 488.121968705564
21.94828 455.963229344135
21.96839 530.979049382188
21.9885 499
22.00862 457.041063501309
22.02873 532.015681579908
22.04884 471.922568952213
22.06896 496.920560036364
22.08907 501.050377765054
22.10919 456.013743459938
22.1293 460
22.14941 480.007325003094
22.16953 476.956445604549
22.18964 451.029747247256
22.20975 495.93514804183
22.22987 480.048390612652
22.24998 458.01023213395
22.27009 465.984340715347
22.29021 497.000638430499
22.31032 466.966451889392
22.33044 474.12894300586
22.35055 537.96960508295
22.37066 467.073068545195
22.39078 478.020398394916
22.41089 436.985657919953
22.431 513
22.45112 443.952525185961
22.47123 463.046697219755
22.49135 466.978702602942
22.51146 467.964488318157
22.53157 469.084702327548
22.55169 394.006155029556
22.5718 460
22.59191 480.978541925322
22.61203 442.058972840091
22.63214 523.02308567431
22.65225 455.115707887237
22.67237 464.003548198252
22.69248 426.030708694435
22.7126 435
22.73271 478.015831651644
22.75282 480.972022918729
22.77294 459.047102992404
22.79305 505.979575536123
22.81316 462.094790642865
22.83328 445.000786520893
22.85339 446.997166581659
22.87351 451.999499052827
22.89362 443.989362454268
22.91373 435.993698342675
22.93385 441.046403966603
22.95396 457.014824586762
22.97407 431.028309809735
22.99419 434.991437391358
23.0143 449
23.03442 451.014467694989
23.05453 452.924988447175
23.07464 398.054341360124
23.09476 488.903801991428
23.11487 460.052741783865
23.13498 462.985142510271
23.1551 464
23.17521 446.99343529111
23.19532 444.005213729124
23.21544 457.044354777548
23.23555 483.937154812562
23.25567 487.050161157652
23.27578 456.971761273477
23.29589 511.004085333215
23.31601 432.966516083496
23.33612 416.995671766576
23.35623 419.063802817888
23.37635 470.988743476836
23.39646 426.007392922793
23.41658 481.94780850145
23.43669 480.021919614393
23.4568 441
23.47692 469.007341557395
23.49703 441.958743542406
23.51714 440.032517980097
23.53726 456.98577108088
23.55737 455.000194765533
23.57749 457.003311072711
23.5976 438
23.61771 419.996312645012
23.63783 435.067105652512
23.65794 474.985315034885
23.67805 426.104635194689
23.69817 423.965827716013
23.71828 446.986760737137
23.73839 464.976657151099
23.75851 501.982021846039
23.77862 418.959660426563
23.79874 463.162663988606
23.81885 508.958764214067
23.83896 448.119553847922
23.85908 438.95286750306
23.87919 500.98541975963
23.8993 491
23.91942 504.013627908436
23.93953 498.966578663498
23.95965 476.987164336995
23.97976 494.938507770987
23.99987 511.024713187321
24.01999 494.982300845488
24.0401 540
24.06021 445.986545884404
24.08033 509.080983806103
24.10044 485.859551857716
24.12056 440.951692248813
24.14067 505.949359519376
24.16078 473.063289374465
24.1809 435
24.20101 473.016456646895
24.22112 478.992021955151
24.24124 467.968071843251
24.26135 451.028867027176
24.28146 456.941125792136
24.30158 488.992980643366
24.32169 461.022712832169
24.34181 427.99633263043
24.36192 449.039028174373
24.38203 473.982748813279
24.40215 452.039504649712
24.42226 490.007923419918
24.44237 445.031528489671
24.46249 467.988964771203
24.4826 460
24.50272 450.014368939913
24.52283 473.005898501778
24.54294 447.927405950131
24.56306 428.979875394067
24.58317 460.947425683877
24.60328 472.021849534528
24.6234 442
24.64351 451.9894347335
24.66362 417.014033765604
24.68374 486.133553310362
24.70385 496.113492953809
24.72397 446.007093357305
24.74408 488.956966696193
24.76419 503.997114534819
24.78431 489.96842811328
24.80442 423.004997617225
24.82453 483.03391490597
24.84465 448.954425246125
24.86476 476.935398353942
24.88488 481.015527148969
24.90499 464.004445238722
24.9251 463
24.94522 465.022568072003
24.96533 483.962650771187
24.98544 436.986372796187
25.00556 477.932128502753
25.02567 484.978895725685
25.04579 498.015297106929
25.0659 453
25.08601 511.008901377091
25.10613 480.999080042974
25.12624 528.071657822643
25.14635 526.02113602531
25.16647 537.958612687108
25.18658 564.985597466366
25.20669 561.008230850853
25.22681 554.009333231603
25.24692 578.99554910398
25.26704 570.093783355971
25.28715 645.035970423308
25.30726 584.124792021736
25.32738 570.985382021131
25.34749 571.017509307082
25.3676 523
25.38772 543.022321695475
25.40783 542.982006956036
25.42795 529.967031539486
25.44806 521.00163515006
25.46817 530.970706777459
25.48829 543.005840177196
25.5084 519
25.52851 524.99609780205
25.54863 499.974542618639
25.56874 508.050275708623
25.58886 527.006224895719
25.60897 516.979081809189
25.62908 552.975265478542
25.6492 547
25.66931 535.007274720367
25.68942 571.036745262092
25.70954 585.981197329927
25.72965 557.101475919647
25.74976 550.865082846082
25.76988 632.006063089709
25.78999 563.003479790856
25.81011 633.018315615976
25.83022 599.970582379765
25.85033 615.041267506975
25.87045 620.954883599172
25.89056 610.934858865103
25.91067 668.953471657436
25.93079 659.006531817186
25.9509 660
25.97102 652.014524901228
25.99113 691.060262965832
26.01124 702.953696254257
26.03136 669.02599283419
26.05147 697.909332236339
26.07158 742.01101278935
26.0917 712
26.11181 792.028684665935
26.13193 809.051384095938
26.15204 888.185077909645
26.17215 935.07166399535
26.19227 877.016655876394
26.21238 967.828941109436
26.23249 1119.97404477338
26.25261 1119.03622073403
26.27272 1270.10640640881
26.29283 1296.04479725766
26.31295 1398.39170712172
26.33306 1604.47415615921
26.35318 1870.79946546419
26.37329 2028.89953498188
26.3934 2376
26.41352 2987.64636930974
26.43363 3711.34075123831
26.45374 4778.24022056423
26.47386 5977.23259711601
26.49397 7620.26312442766
26.51409 9636.88208255665
26.5342 12091
26.55431 14535.0520747109
26.57443 16204.9318781068
26.59454 17141.0405973325
26.61465 17130.5124551369
26.63477 15885.7738531586
26.65488 13598.5391046443
26.67499 11038.2294130713
26.69511 8722.91545902648
26.71522 6612.93527429222
26.73534 4691.80418765308
26.75545 3453.5765656623
26.77556 2629.36207349949
26.79568 2075.41674984593
26.81579 1750.136830173
26.8359 1516
26.85602 1403.87039558605
26.87613 1233.75067235469
26.89625 1114.83028028733
26.91636 1061.15479212574
26.93647 954.153099673807
26.95659 884.021404393851
26.9767 841
26.99681 777.991433930606
27.01693 799.011021253232
27.03704 762.885246457594
27.05716 722.014561042826
27.07727 726.035088684025
27.09738 673.045167247666
27.1175 661
27.13761 658.981745178663
27.15772 604.96886959545
27.17784 609.023918080821
27.19795 602.063768332106
27.21806 574.028619956964
27.23818 578.986097560829
27.25829 591.993810814048
27.27841 593.990673246577
27.29852 563.978620176311
27.31863 557.995187676193
27.33875 539.906198273254
27.35886 506.003370657937
27.37897 535.951064936877
27.39909 549.000205640972
27.4192 538
27.43932 521.016713043465
27.45943 552.000024772388
27.47954 510.906068792675
27.49966 492.976190879935
27.51977 517.969238438209
27.53988 516.02518549656
27.56 497
27.58011 526.993647435923
27.60023 486.000419748043
27.62034 530.041943628566
27.64045 512.016356487666
27.66057 519.041593726305
27.68068 471.004692233276
27.70079 506.994788157105
27.72091 463.971094701503
27.74102 434.00303715488
27.76113 471.100136764818
27.78125 523.996367956126
27.80136 477.085746868932
27.82148 466.996891043555
27.84159 459.011680858098
27.8617 443
27.88182 495.055841195944
27.90193 505.918590694645
27.92204 434.963706733299
27.94216 482.884366926756
27.96227 500.029064745015
27.98239 465.01688520927
28.0025 454
28.02261 489.018383432805
28.04273 489.914637148617
28.06284 430.029130589355
28.08295 503.90003354436
28.10307 473.06957545588
28.12318 459.985740189277
28.1433 478
28.16341 464.992070966756
28.18352 453.987678097729
28.20364 446.016921597099
28.22375 464.021193100288
28.24386 452.048713655536
28.26398 433.003491761131
28.28409 458.970445601189
28.3042 503
28.32432 421.926845697552
28.34443 411.063641186728
28.36455 462.057562130644
28.38466 444.072023685833
28.40477 426.97514803218
28.42489 461.988401886545
28.445 451
28.46511 426.010100485006
28.48523 472.029431075848
28.50534 447.933223117674
28.52546 442.945349136105
28.54557 472.006233063905
28.56568 436.031307801299
28.5858 438
28.60591 464.001747595615
28.62602 453.002918929799
28.64614 465.981676121623
28.66625 442.990168933193
28.68636 469.989193713492
28.70648 445.019258504075
28.72659 444.003000413667
28.74671 441.015684570162
28.76682 476.979059188445
28.78693 417.975225038235
28.80705 450.016941214421
28.82716 417.027093370245
28.84727 437.982479318933
28.86739 429.997116007443
28.8875 450
28.90762 429.990034354313
28.92773 441.018116242887
28.94784 435.958935340182
28.96796 419.985101605272
28.98807 442.982343126536
29.00818 433.015597008002
29.0283 425
29.04841 430.009520029504
29.06853 456.02923110235
29.08864 448.919079621152
29.10875 408.001680615347
29.12887 434.997595478705
29.14898 399.032382611358
29.16909 400.986815946797
29.18921 421.997735799662
29.20932 400.991689395099
29.22943 416.029974897423
29.24955 427.014875125583
29.26966 420.063382836895
29.28978 386.998446834019
29.30989 417.990335504868
29.33 414
29.35012 432.015417721485
29.37023 420.935984878756
29.39034 386.035855950901
29.41046 440.939485926616
29.43057 426.029957668881
29.45069 425.997590345498
29.4708 429
29.49091 451.015671891169
29.51103 460.940640402273
29.53114 397.936900795814
29.55125 416.914165234597
29.57137 433.99747859802
29.59148 430.002134259109
29.6116 422
29.63171 395.006808004631
29.65182 436.016390612311
29.67194 409.930768401318
29.69205 397.014537778682
29.71216 405.00702318804
29.73228 394.000756519948
29.75239 412.984822167481
29.7725 436
29.79262 426.992759404493
29.81273 426.996209941334
29.83285 414.953652306262
29.85296 400.007531689266
29.87307 403.003054036034
29.89319 398.995512746213
29.9133 418
29.93341 415.999114757441
29.95353 415.985334185311
29.97364 401.998055369858
29.99376 417.961046397146
30.01387 432.976831462133
30.03398 433.036440502102
30.0541 391
30.07421 429.001926159729
30.09432 395.99424265291
30.11444 429.038715890834
30.13455 409.081776996171
30.15467 404.940218428478
30.17478 448.010565988985
30.19489 399.007602414073
30.21501 439.022198295176
30.23512 435.947872408504
30.25523 386.008763044035
30.27535 436.072863814947
30.29546 415.07169164798
30.31557 389.039007871452
30.33569 371.994246926245
30.3558 403
30.37592 408.009190208972
30.39603 428.024370692836
30.41614 423.946901645622
30.43626 405.951412899727
30.45637 445.011678356285
30.47648 388.046458263499
30.4966 395
30.51671 433.001844103349
30.53683 415.000995315254
30.55694 438.01760368501
30.57705 414.09642802186
30.59717 385.018780543575
30.61728 390.98015823211
30.63739 404.005091064907
30.65751 391.010495432888
30.67762 429.00091542645
30.69773 395.985099701239
30.71785 428.090337362278
30.73796 425.095880907554
30.75808 367.026421557706
30.77819 386.979995124798
30.7983 406
30.81842 379.005224027679
30.83853 413.026190782233
30.85864 395.950851902216
30.87876 383.017105667462
30.89887 385.956330646885
30.91899 419.99882742636
30.9391 385
30.95921 366.001061698054
30.97933 370.986670370364
30.99944 358.018932873528
31.01955 397.872140240503
31.03967 429.003737174217
31.05978 408.011069831028
31.0799 412
31.10001 394.994233777889
31.12012 397.005451510258
31.14024 408.057153576104
31.16035 433.031021641286
31.18046 374.160800824476
31.20058 333.961473916624
31.22069 407.986307991727
31.2408 373
31.26092 382.021075563023
31.28103 387.987844182794
31.30115 379.005873158025
31.32126 397.943263351102
31.34137 407.048564571281
31.36149 359.007473831195
31.3816 393
31.40171 409.982937083318
31.42183 359.981526748092
31.44194 387.030222002844
31.46206 368.048131111051
31.48217 369.954332035609
31.50228 403.990433014666
31.5224 388
31.54251 384.996522076132
31.56262 375.003829876548
31.58274 392.025200648638
31.60285 395.979202592294
31.62297 403.019755918063
31.64308 375.018167563743
31.66319 374.000397690338
31.68331 364.995751142492
31.70342 375.037834703924
31.72353 415.009694657366
31.74365 387.937096244111
31.76376 388.966747727187
31.78387 392.0438982263
31.80399 350.007859991929
31.8241 370
31.84422 387.02046714415
31.86433 400.976352178248
31.88444 363.947445318298
31.90456 368.949387434474
31.92467 390.991488801826
31.94478 386.994145843311
31.9649 403
31.98501 385.982248762605
32.00513 355.99263999701
32.02524 374.039051424181
32.04535 375.04111652841
32.06547 367.957570336504
32.08558 406.004392711135
32.10569 364.01120548023
32.12581 387.018626981699
32.14592 403.992699494034
32.16604 377.929926518397
32.18615 363.062956139296
32.20626 404.970560190268
32.22638 386.015708341735
32.24649 390.996843994081
32.2666 387
32.28672 387.008000318129
32.30683 401.024576432465
32.32694 407.978200353265
32.34706 389.016923042726
32.36717 392.004256005889
32.38729 373.013934258945
32.4074 358
32.42751 391.015079924598
32.44763 410.032553104897
32.46774 418.933117695547
32.48785 372.995399037236
32.50797 411.991982117177
32.52808 379.005050192506
32.5482 413
32.56831 388.982163204401
32.58842 369.996763684482
32.60854 376.019753622392
32.62865 382.993858108536
32.64876 385.979913232909
32.66888 392.015818738606
32.68899 364.006165617793
32.7091 392
32.72922 454.020499037239
32.74933 429.94909306433
32.76945 413.989825576669
32.78956 414.989034969911
32.80967 418.008864400591
32.82979 410.996857216914
32.8499 421
32.87001 394.993598944235
32.89013 408.034178635987
32.91024 426.028351797852
32.93036 425.057330740699
32.95047 388.019352455082
32.97058 415.946858233258
32.9907 456
33.01081 434.995401073119
33.03092 449.012768427091
33.05104 442.963832806082
33.07115 434.955626290717
33.09127 467.967493130748
33.11138 459.032655057036
33.13149 430.002191690947
33.15161 447.007140703622
33.17172 445.994950843073
33.19183 442.9909672128
33.21195 440.028119436621
33.23206 462.958924508688
33.25217 465.028449306147
33.27229 446.99614357531
33.2924 463
33.31252 421.989398798199
33.33263 449.028177063541
33.35274 458.085684186414
33.37286 512.999066334152
33.39297 461.054272141637
33.41308 467.990291237355
33.4332 456
33.45331 455.010875910578
33.47343 473.976354579813
33.49354 437.98063739958
33.51365 460.961061291808
33.53377 444.052003681222
33.55388 419.002172085675
33.57399 434.99181844798
33.59411 431.987756290901
33.61422 402.986059656102
33.63434 407.011434623795
33.65445 401.969992554471
33.67456 393.992951083218
33.69468 412.969213415786
33.71479 437.997690626857
33.7349 425
33.75502 432.031036282047
33.77513 450.950230555288
33.79524 385.928050438816
33.81536 399.950367952489
33.83547 397.045540638526
33.85559 365.00382965009
33.8757 386
33.89581 399.999846405175
33.91593 391.986524116568
33.93604 386.994929819183
33.95615 385.996919165857
33.97627 401.93650964066
33.99638 440.00949164442
34.0165 385
34.03661 368.006943434949
34.05672 397.035122886351
34.07684 416.983622360758
34.09695 393.035408989039
34.11706 398.977536715644
34.13718 398.015830849683
34.15729 381.000783397338
34.17741 401.015503887895
34.19752 410.967009291999
34.21763 369.007993603382
34.23775 420.097294349997
34.25786 406.100987880257
34.27797 369.979338442906
34.29809 410.995049553502
34.3182 388
34.33831 420.007681222251
34.35843 407.996684541046
34.37854 430.047068965154
34.39866 434.028667061449
34.41877 416.012113981095
34.43888 424.980337729255
34.459 451
34.47911 471.992597083274
34.49922 438.989496389599
34.51934 465.072226342658
34.53945 492.93292581521
34.55957 506.032159921915
34.57968 454.057195284055
34.59979 443.967449817459
34.61991 519.996748904009
34.64002 458.002483217707
34.66013 524.013332985038
34.68025 455.888565060513
34.70036 479.923734281274
34.72047 505.93805080357
34.74059 536.018142392537
34.7607 457
34.78082 472.014253468632
34.80093 472.044839457881
34.82104 530.079128736073
34.84116 535.994657246474
34.86127 550.981750003223
34.88138 551.006509056269
34.9015 533
34.92161 489.991887665675
34.94173 518.090144042649
34.96184 570.029329862591
34.98195 544.102374296392
35.00207 513.031239195575
35.02218 518.95051734261
35.04229 567.008051430164
35.06241 501.982213162798
35.08252 528.042225883399
35.10264 540.965932168856
35.12275 504.892482522138
35.14286 473.027076439522
35.16298 476.986015067961
35.18309 487.998839032299
35.2032 486
35.22332 498.013054842317
35.24343 503.996783105273
35.26354 483.907204717759
35.28366 454.916933097357
35.30377 522.009082837798
35.32389 444.024718458318
35.344 477
35.36411 516.994673980054
35.38423 476.959609777888
35.40434 491.082130207158
35.42445 509.104295478706
35.44457 445.017187254319
35.46468 490.966615591796
35.4848 481
35.50491 481.99886922654
35.52502 465.978708770187
35.54514 457.025724656006
35.56525 488.904659213152
35.58536 521.943502866052
35.60548 533.01969757303
35.62559 490.022403483711
35.64571 470.005444989699
35.66582 492.007240625152
35.68593 476.971382795127
35.70605 467.993698909662
35.72616 467.995351682297
35.74627 480.952016441274
35.76639 511.001030115441
35.7865 468
35.80661 433.009592461093
35.82673 492.086207668149
35.84684 507.949033563565
35.86696 471.035919434275
35.88707 486.947575114351
35.90718 505.020410239736
35.9273 469
35.94741 498.013395483526
35.96752 498.989120484494
35.98764 495.015586529874
36.00775 505.9986252166
36.02787 494.019507292544
36.04798 494.98138989917
36.06809 514.000906696012
36.08821 502.004813668905
36.10832 541.044008977607
36.12843 565.003471035954
36.14855 543.888688627005
36.16866 513.952692198821
36.18878 573.960352600776
36.20889 567.011960357293
36.229 558
36.24912 579.026434515353
36.26923 607.048316049467
36.28934 660.173298322477
36.30946 731.018546059817
36.32957 696.909935571024
36.34968 844.891421339124
36.3698 874
36.38991 983.083096697146
36.41003 1137.12879600561
36.43014 1173.11398873426
36.45025 1307.51351711547
36.47037 1468.93029809804
36.49048 1435.00046394844
36.51059 1491.98809517928
36.53071 1415.92429072802
36.55082 1259.88937694586
36.57094 1197.88686224732
36.59105 1119.79701943473
36.61116 1044.15445753385
36.63128 956.098246799681
36.65139 853.049937087122
36.6715 780
36.69162 778.98947836975
36.71173 739.925223211581
36.73184 688.882462813431
36.75196 629.09124542181
36.77207 609.990735921501
36.79219 629.988145110173
36.8123 642
36.83241 633.003664946845
36.85253 631.919409065275
36.87264 561.99073713711
36.89275 627.850429985459
36.91287 626.065828922405
36.93298 581.024289658499
36.9531 588
36.97321 608.998948734875
36.99332 597.007768092303
37.01344 601.90019756118
37.03355 524.063785848463
37.05366 565.910183502626
37.07378 559.049448750188
37.09389 512.004045411724
37.11401 538.009493130734
37.13412 524.970819252082
37.15423 502.989901250279
37.17435 497.938873600783
37.19446 467.999591152276
37.21457 494.977646990598
37.23469 488.998486402936
37.2548 503
37.27491 483.997288635353
37.29503 493.996975507716
37.31514 465.919090873702
37.33526 440.988302924061
37.35537 464.978450864105
37.37548 459.009464053566
37.3956 447
37.41571 427.017466654421
37.43582 485.004006632349
37.45594 442.993153040476
37.47605 479.020513950277
37.49617 422.039394904898
37.51628 451.967624830971
37.53639 446.015774784231
37.55651 413.990239496109
37.57662 420.032104172792
37.59673 452.006862523234
37.61685 430.955534557626
37.63696 440.932753193574
37.65708 472.991417671177
37.67719 463.999587713081
37.6973 483
37.71742 476.966167863836
37.73753 433.95657087811
37.75764 432.031034240729
37.77776 451.959191124111
37.79787 460.020665325044
37.81798 445.983077048975
37.8381 468
37.85821 408.996785444478
37.87833 460.048291315102
37.89844 438.933531923923
37.91855 427.986745694763
37.93867 440.972756510573
37.95878 462.973520789486
37.97889 474.012784545109
37.99901 427.985727874001
38.01912 435.023462868263
38.03924 451.006663187155
38.05935 440.95241756135
38.07946 430.97377066258
38.09958 451.003495632723
38.11969 429.002494157737
38.1398 447
38.15992 439.991982098109
38.18003 443.013108110223
38.20015 441.947442965975
38.22026 413.027987807443
38.24037 415.004973830534
38.26049 416.98037596915
38.2806 468
38.30071 417.972993647413
38.32083 410.05796423052
38.34094 453.008120395119
38.36105 421.05471185123
38.38117 433.959786697616
38.40128 440.02868243676
38.4214 404
38.44151 446.026170607524
38.46162 460.962100465489
38.48174 411.995376250654
38.50185 445.001523071464
38.52196 405.032193206531
38.54208 441.944380920588
38.56219 469.00770959532
38.58231 429.985191892447
38.60242 413.969773706068
38.62253 383.015298015148
38.64265 425.056360102972
38.66276 426.938878241546
38.68287 475.989247891508
38.70299 421.038350792723
38.7231 376
38.74321 409.017935995468
38.76333 419.979783407995
38.78344 404.006077507755
38.80356 428.944132325147
38.82367 442.997875036326
38.84378 431.027515690877
38.8639 419
38.88401 470.999254322725
38.90412 415.959759229346
38.92424 417.002893679768
38.94435 404.00326666152
38.96447 421.972013625664
38.98458 441.959917578929
39.00469 476.008937183468
39.02481 430.999395161985
39.04492 475.019910809484
39.06503 459.007428426792
39.08515 492.028049991581
39.10526 465.063629286316
39.12538 461.973403949978
39.14549 501.982143908958
39.1656 522
39.18572 533.018161140984
39.20583 558.037784063792
39.22594 581.048704334733
39.24606 622.858527447425
39.26617 701.920122328382
39.28628 757.88061425104
39.3064 928
39.32651 1017.03997700109
39.34663 1115.14251803416
39.36674 1217.27405048579
39.38685 1355.81323019378
39.40697 1374.94846374035
39.42708 1399.08377799255
39.44719 1245.04335955164
39.46731 1241.98086112072
39.48742 1111.84244248987
39.50754 1003.91656491161
39.52765 969.752207233752
39.54776 809.28447248062
39.56788 730.046601880656
39.58799 681.026816451659
39.6081 618
39.62822 543.937425196157
39.64833 510.001863966551
39.66845 516.942784395203
39.68856 466.0812866144
39.70867 461.967436525251
39.72879 474.011232824994
39.7489 432
39.76901 444.009072758599
39.78913 440.963269483026
39.80924 426.052148818945
39.82935 470.976301795657
39.84947 456.957544686779
39.86958 505.021467286824
39.8897 435
39.90981 494.009634807498
39.92992 445.963195375117
39.95004 464.07730294864
39.97015 473.092834568928
39.99026 439.923764267211
40.01038 532.937062782663
40.03049 515.0329006568
40.05061 482.024118169604
40.07072 571.04014818887
40.09083 562.044526739991
40.11095 636.088655480663
40.13106 634.908545592518
40.15117 731.898467827728
40.17129 729.017748361538
40.1914 733
40.21152 845.071911445336
40.23163 842.944251288137
40.25174 828.052066528371
40.27186 850.091908129403
40.29197 740.157242520275
40.31208 692.006572280802
40.3322 704
40.35231 693.959341399449
40.37242 594.976399184702
40.39254 624.940032104756
40.41265 524.168986469795
40.43277 530.969526309311
40.45288 512.049519048649
40.47299 463.012544383643
40.49311 454.989816676004
40.51322 430.008011194239
40.53333 467.036481393937
40.55345 458.952618023578
40.57356 439.063558754915
40.59368 416.978988472775
40.61379 454.003847478309
40.6339 405
40.65402 415.997930257179
40.67413 397.015269900391
40.69424 437.048600648296
40.71436 428.029644217986
40.73447 426.992366831673
40.75458 425.014503379997
40.7747 403
40.79481 399.00574487371
40.81493 418.026215899161
40.83504 425.998257957693
40.85515 414.064385225177
40.87527 390.005084147957
40.89538 408.975794167184
40.91549 426.991500232326
40.93561 441.001656042888
40.95572 422.957746256862
40.97584 389.021040052483
40.99595 425.016362055685
41.01606 405.972216814322
41.03618 450.984607297583
41.05629 421.015266067084
41.0764 413
41.09652 408.01852949546
41.11663 432.988528148188
41.13675 399.969917465564
41.15686 415.989760993606
41.17697 405.985808698541
41.19709 443.979796491571
41.2172 451
41.23731 404.995203653739
41.25743 432.027798028517
41.27754 418.95400488573
41.29765 407.995248971217
41.31777 420.967787148665
41.33788 435.007239547745
41.358 414
41.37811 421.009308339024
41.39822 435.001488871952
41.41834 427.992548575022
41.43845 429.011120492413
41.45856 419.010568798462
41.47868 415.016258791518
41.49879 393.003618155964
41.51891 411.016611338733
41.53902 428.98174522617
41.55913 394.987867154311
41.57925 429.127330648997
41.59936 452.051268218376
41.61947 406.025983827511
41.63959 416.006412918649
41.6597 385
41.67982 418.997841705382
41.69993 376.96775985601
41.72004 399.057500423856
41.74016 399.055503577806
41.76027 373.988662983875
41.78038 399.00272563545
41.8005 364
41.82061 371.012228691147
41.84072 392.012052129853
41.86084 388.961953068329
41.88095 379.929673588418
41.90107 420.997089800542
41.92118 389.008724287063
41.94129 416.989570766194
41.96141 410.995496673666
41.98152 402.973405414372
42.00163 376.016317437612
42.02175 419.077796399163
42.04186 427.961017088233
42.06198 461.981081293297
42.08209 459.99978369454
42.1022 469
42.12232 461.001610426658
42.14243 485.061810978671
42.16254 520.019386572336
42.18266 506.034464791526
42.20277 529.866464866553
42.22289 628.986094766142
42.243 608
42.26311 709.040033794286
42.28323 733.029974365107
42.30334 795.194017208187
42.32345 892.828884880286
42.34357 931.944475010239
42.36368 975.968732586882
42.38379 983.004877560567
42.40391 976.003908142143
42.42402 991.002396387925
42.44414 957.857339287787
42.46425 861.743783975593
42.48436 782.086086889467
42.50448 754.046613567214
42.52459 680.037439945607
42.5447 628
42.56482 587.920101373856
42.58493 494.928653238524
42.60505 499.012256133435
42.62516 467.110455302293
42.64527 429.984542042625
42.66539 457.008113112754
42.6855 398
42.70561 394.997254359273
42.72573 368.964271591473
42.74584 365.022721437473
42.76595 381.957469879273
42.78607 394.985087318294
42.80618 397.011958939176
42.8263 381
42.84641 385.997193377037
42.86652 363.975472765336
42.88664 360.052435999224
42.90675 393.977561814934
42.92686 372.052964883906
42.94698 361.001586581503
42.96709 366.991080238552
42.98721 377.990456443057
43.00732 333.959919654546
43.02743 334.072375325152
43.04755 386.006044578261
43.06766 353.996736513402
43.08777 394.973048597523
43.10789 370.012727989423
43.128 367
43.14812 354.979382025404
43.16823 338.997881646352
43.18834 358.070773497769
43.20846 385.006091628719
43.22857 359.030736538077
43.24868 365.971820565981
43.2688 390
43.28891 367.988491580625
43.30902 357.996383385271
43.32914 351.979435923974
43.34925 350.940636667335
43.36937 377.015238159829
43.38948 340.015671248746
43.40959 354.99648416397
43.42971 350.008723591662
43.44982 386.015794880572
43.46993 366.954901333354
43.49005 355.030051348674
43.51016 373.000247277782
43.53028 352.02057072283
43.55039 349.99312934463
43.5705 364
43.59062 355.998667474307
43.61073 363.001537917356
43.63084 357.000313859158
43.65096 357.038918790043
43.67107 327.017681259985
43.69119 344.984705062611
43.7113 355
43.73141 311.989568942606
43.75153 330.053980410581
43.77164 355.01046105296
43.79175 344.037656017352
43.81187 337.99351449881
43.83198 351.97844566467
43.85209 364.006474441035
43.87221 339.997259171427
43.89232 359.020042980215
43.91244 358.963860347255
43.93255 349.055940742208
43.95266 387.970141345929
43.97278 362.043540021643
43.99289 332.003921565985
44.013 341
44.03312 346.000977171531
44.05323 344.993792579695
44.07335 348.053985169433
44.09346 373.991638059962
44.11357 351.044328269893
44.13369 337.996716780164
44.1538 362
44.17391 379.987266251778
44.19403 343.01367022744
44.21414 394.062448796261
44.23426 373.08849050726
44.25437 342.01406478452
44.27448 355.969192623564
44.2946 382
44.31471 362.984110659162
44.33482 334.981363997598
44.35494 330.015792339501
44.37505 345.950746143385
44.39516 368.941031639799
44.41528 397.982471823235
44.43539 386.024380440898
44.45551 331.990323504994
44.47562 355.033783693075
44.49573 361.960499952231
44.51585 336.036941446582
44.53596 373.993980839487
44.55607 338.031551251384
44.57619 349.995360247584
44.5963 340
44.61642 342.007416284349
44.63653 345.997552492487
44.65664 348.034051447508
44.67676 375.95444981609
44.69687 380.01932203532
44.71698 361.015907105218
44.7371 353
44.75721 339.984823109253
44.77732 316.015099275002
44.79744 357.041687597048
44.81755 341.059467210903
44.83767 340.96024741282
44.85778 372.986882146065
44.87789 357.015542365109
44.89801 339.004897387507
44.91812 371.033763197225
44.93823 390.010991290561
44.95835 383.939017861318
44.97846 361.986499133578
44.99858 390.981565817741
45.01869 379.014837942159
45.0388 361
45.05892 384.001469099742
45.07903 361.979268982728
45.09914 376.060245717398
45.11926 403.963213504873
45.13937 399.05300924862
45.15949 357.00855268193
45.1796 370
45.19971 368.992169081771
45.21983 370.068391333422
45.23994 420.977356660852
45.26005 360.074517302997
45.28017 382.974036508791
45.30028 381.973724158189
45.32039 417.010527437495
45.34051 359.996252794383
45.36062 410.030367918083
45.38074 395.986574133693
45.40085 415.02920094395
45.42096 404.032143718775
45.44108 401.986189639526
45.46119 424.988286702543
45.4813 431
45.50142 413.024642662666
45.52153 464.031629955635
45.54165 453.025426515454
45.56176 494.939011118516
45.58187 509.943550877214
45.60199 574.971228196763
45.6221 607
45.64221 635.017320358475
45.66233 673.055084264151
45.68244 732.216288567671
45.70256 819.068222490559
45.72267 722.003611060357
45.74278 815.966062986717
45.7629 752
45.78301 761.989126057564
45.80312 672.894277872352
45.82324 590.868549975821
45.84335 557.935816002134
45.86346 603.995724456904
45.88358 557.036630944682
45.90369 547.012897580207
45.92381 490.971428752746
45.94392 446.955926632284
45.96403 409.987515428242
45.98415 420.999833316117
46.00426 400.04224203974
46.02437 391.007271119171
46.04449 383.005125769136
46.0646 372
46.08472 360.987994933901
46.10483 360.034651053286
46.12494 389.006581290304
46.14506 364.048250965249
46.16517 361.980841187865
46.18528 372.003163791698
46.2054 360
46.22551 365.003154591117
46.24563 364.993511121516
46.26574 362.004077002031
46.28585 368.979905459793
46.30597 370.015537895168
46.32608 349.026204331169
46.34619 334.99464811237
46.36631 359.006574599929
46.38642 349.981391109775
46.40653 342.01586003073
46.42665 354.978219557004
46.44676 342.945818960347
46.46688 386.007174619427
46.48699 335.011012002359
46.5071 363
46.52722 359.990504851677
46.54733 363.017287261935
46.56744 365.962561472234
46.58756 337.028012146914
46.60767 344.981521719235
46.62779 352.993757244334
46.6479 364
46.66801 350.000388624165
46.68813 365.008180174979
46.70824 364.038228724079
46.72835 389.025902020015
46.74847 347.04260639057
46.76858 357.968719187603
46.78869 374.008095043342
46.80881 339.98993322469
46.82892 355.040136880532
46.84904 380.963822894875
46.86915 336.945224693834
46.88926 349.973469629803
46.90938 351.986327693944
46.92949 371.002655567887
46.9496 340
46.96972 347.046444703092
46.98983 393.000970580033
47.00995 347.883917696176
47.03006 333.981558223185
47.05017 353.95841497514
47.07029 368.009326475792
47.0904 343
47.11051 381.000423083412
47.13063 326.901838776887
47.15074 313.116506310288
47.17086 394.930493672885
47.19097 359.090999703143
47.21108 321.012902662412
47.2312 329
47.25131 359.01798266889
47.27142 373.9678178203
47.29154 335.042167957144
47.31165 391.996502207475
47.33176 336.047610850194
47.35188 365.984308466176
47.37199 345.006018463903
47.39211 363.011732528836
47.41222 366.983763166245
47.43233 341.968090259536
47.45245 336.022253584709
47.47256 349.981073473999
47.49267 356.976342356555
47.51279 372.003475051705
47.5329 355
47.55302 383.01530536931
47.57313 374.988322962448
47.59324 373.978017668777
47.61336 354.021479044943
47.63347 355.003865126405
47.65358 345.005775781167
47.6737 353
47.69381 368.999342678137
47.71393 344.942448188091
47.73404 321.023122155041
47.75415 349.982677268355
47.77427 339.974024249197
47.79438 379.986845379122
47.81449 357.009508069935
47.83461 375.023992240944
47.85472 400.958333795969
47.87483 323.949276110873
47.89495 357.115231475164
47.91506 379.967540713533
47.93518 392.006970286201
47.95529 367.013524047271
47.9754 360
47.99552 390.017075619036
48.01563 386.988783539114
48.03574 386.001839848909
48.05586 375.063584751562
48.07597 350.967159836789
48.09609 393.999726559404
48.1162 351
48.13631 366.005943345756
48.15643 353.978014205764
48.17654 346.980171711579
48.19665 326.072393843015
48.21677 306.990114270971
48.23688 335.96776968585
48.257 354
48.27711 350.996706554611
48.29722 343.991708595089
48.31734 332.972011263687
48.33745 326.026443698299
48.35756 342.997021838616
48.37768 333.9927676633
48.39779 359.989877088973
48.4179 362
48.43802 350.971341291647
48.45813 325.013180897904
48.47825 360.05151844014
48.49836 357.985862438422
48.51847 376.997440653564
48.53859 357.008348802492
48.5587 364
48.57881 387.000524747899
48.59893 362.949680509037
48.61904 340.991766374264
48.63916 354.948014070704
48.65927 375.993271360079
48.67938 372.99008437163
48.6995 385
48.71961 342.985008626563
48.73972 346.020985124239
48.75984 358.98755864398
48.77995 345.990242362933
48.80006 364.982954867548
48.82018 357.004995099104
48.84029 359.00322929869
48.86041 341.993043401867
48.88052 343.014406571105
48.90063 347.961262812228
48.92075 320.050450482582
48.94086 373.954971136099
48.96097 346.049436264039
48.98109 346.98567084428
49.0012 375
49.02132 357.985036422118
49.04143 355.997648810359
49.06154 351.000637649812
49.08166 365.94017218205
49.10177 377.063707101486
49.12188 317.005926466272
49.142 361
49.16211 335.995176249836
49.18223 364.044384559869
49.20234 364.955307591915
49.22245 348.962464483662
49.24257 388.949131728725
49.26268 391.025186787441
49.28279 360.009801020117
49.30291 362.008499196063
49.32302 378.005322607072
49.34313 371.987243275631
49.36325 370.012124133872
49.38336 384.944592420434
49.40348 404.014365423917
49.42359 373.002948558769
49.4437 394
49.46382 374.979743937211
49.48393 372.011138215417
49.50404 374.981117482851
49.52416 365.975153623613
49.54427 393.975266419633
49.56439 398.989874369227
49.5845 430
49.60461 414.993868207065
49.62473 413.987057673888
49.64484 396.985915759581
49.66495 416.886400730164
49.68507 461.971458184661
49.70518 461.987024436697
49.7253 495
49.74541 502.999735841546
49.76552 512.025413499578
49.78564 539.012694232066
49.80575 535.044185824103
49.82586 593.827171672212
49.84598 677.937211006888
49.86609 723.974699724335
49.8862 810
49.90632 938.072788497
49.92643 985.153279137137
49.94655 1150.3794896419
49.96666 1278.66817817962
49.98677 1465.81154849472
50.00689 1542.93990677311
50.027 1733
50.04711 1834.99451068567
50.06723 1830.21457987748
50.08734 2005.89982866293
50.10746 1737.43594189392
50.12757 1669.12247220371
50.14768 1515.11782540558
50.1678 1449
50.18791 1305.95507213391
50.20802 1269.92932352381
50.22814 1113.59798635837
50.24825 934.314918543257
50.26837 857.09003497822
50.28848 782.08776681946
50.30859 687.048151597374
50.32871 602.96933616917
50.34882 554.947622954716
50.36893 508.98539219326
50.38905 519.967627097194
50.40916 476.073303584347
50.42927 464.010855254346
50.44939 455.997057047364
50.4695 473
50.48962 461.969893391994
50.50973 439.012636532925
50.52984 466.017106177327
50.54996 445.049081338647
50.57007 434.008657966888
50.59018 429.997183727115
50.6103 437
50.63041 431.994730648854
50.65053 422.995430509457
50.67064 416.955898938521
50.69075 392.995380284708
50.71087 407.022580030261
50.73098 371.007097283318
50.75109 389.005227467859
50.77121 352.997656999576
50.79132 394.044300831206
50.81143 408.991780707897
50.83155 394.951224056203
50.85166 369.071003419814
50.87178 353.960541633323
50.89189 414.992643545299
50.912 372
50.93212 368.022822974277
50.95223 378.961007240755
50.97234 341.000759678456
50.99246 379.945648490304
51.01257 371.029657443518
51.03269 368.990450719046
51.0528 397
51.07291 388.97844665888
51.09303 340.976545325421
51.11314 372.110600455959
51.13325 408.014575143127
51.15337 373.043901656825
51.17348 362.014468704982
51.1936 338
51.21371 341.010495397533
51.23382 367.019912477021
51.25394 377.013540421283
51.27405 377.042701415949
51.29416 366.936614780608
51.31428 402.035459406735
51.33439 319.016395611577
51.3545 366
51.37462 376.969767464557
51.39473 342.989815571929
51.41485 359.009632060983
51.43496 334.070558323672
51.45507 312.999790390882
51.47519 331.985715620344
51.4953 354
51.51541 344.989255185163
51.53553 337.041025410053
51.55564 388.081391732247
51.57576 388.075740133757
51.59587 344.030928487359
51.61598 352.984358126461
51.6361 359
51.65621 357.994017678754
51.67632 356.036119265622
51.69644 398.979813691473
51.71655 340.107750630978
51.73667 345.963160806511
51.75678 358.998536677352
51.77689 354.00323560558
51.79701 344.99131390733
51.81712 324.989383518676
51.83723 332.031687099537
51.85735 345.971955425435
51.87746 324.000225809125
51.89757 343.991256233909
51.91769 322.014500235145
51.9378 319
51.95792 373.038821122106
51.97803 369.9416926256
51.99814 332.994334760138
52.01826 357.971481103212
52.03837 345.027753527244
52.05848 335.008899088245
52.0786 327
52.09871 327.993259419725
52.11883 318.040102386439
52.13894 362.016520049566
52.15905 332.044629427603
52.17917 349.959029687519
52.19928 362.998908914954
52.21939 363.994916839116
52.23951 369.989543568244
52.25962 346.019735657769
52.27974 385.979654242062
52.29985 322.87909723124
52.31996 343.843981869047
52.34008 406.016018955979
52.36019 338.015720456871
52.3803 357
52.40042 315.984170366935
52.42053 347.057535324524
52.44064 359.987231834662
52.46076 342.055100755469
52.48087 320.999433341892
52.50099 333.999011483945
52.5211 335
52.54121 374.993145907373
52.56133 325.991603630163
52.58144 373.061252316196
52.60155 342.171806654367
52.62167 302.946757678615
52.64178 374.975293709677
52.6619 335
52.68201 338.009400609178
52.70212 353.016972576224
52.72224 369.011669356393
52.74235 364.018661929024
52.76246 354.041412747641
52.78258 342.972326056809
52.80269 379.007769125949
52.8228 322
52.84292 352.04718955986
52.86303 370.978122054747
52.88315 345.982756520952
52.90326 358.987203765983
52.92337 351.005675598879
52.94349 354.00312314586
52.9636 353
52.98371 401.003744694943
53.00383 361.943057386739
53.02394 361.050448729424
53.04406 383.994823260337
53.06417 372.004480443482
53.08428 385.984774344309
53.1044 390
53.12451 376.98730909445
53.14462 358.010199994596
53.16474 400.106838527952
53.18485 419.104567149046
53.20497 358.017290469833
53.22508 406.948316638509
53.24519 422.00205992171
53.26531 424.00780479475
53.28542 432.974498182618
53.30553 386.963711505861
53.32565 410.134918246193
53.34576 447.025578587757
53.36587 400.049529581268
53.38599 403.991844313697
53.4061 421
53.42622 443.981448926746
53.44633 394.948982872772
53.46644 407.088934866383
53.48656 446.977953029638
53.50667 436.003675184571
53.52678 455.974474769387
53.5469 461
53.56701 420.985088819384
53.58713 420.033051081229
53.60724 448.044738901635
53.62735 464.943752474303
53.64747 482.016748589676
53.66758 446.03431956709
53.68769 433.997439870825
53.70781 436.99345351279
53.72792 415.993491108793
53.74804 435.066590552849
53.76815 445.906898690729
53.78826 396.001179365883
53.80838 446.957120952574
53.82849 443.01528871616
53.8486 424
53.86872 455.022952670663
53.88883 447.95321226132
53.90894 408.928766916889
53.92906 390.99252261011
53.94917 413.946306786221
53.96929 440.998868706016
53.9894 430
54.00951 442.995879844667
54.02963 421.004651184067
54.04974 448.022010122234
54.06985 434.020670196987
54.08997 445.975951088544
54.11008 447.017053821314
54.1302 427
54.15031 428.990523470769
54.17042 393.981689200048
54.19054 411.077302729234
54.21065 435.035094390134
54.23076 399.036941157232
54.25088 421.951195147604
54.27099 446.018278631976
54.29111 399.014514178013
54.31122 479.019150252612
54.33133 410.894568508398
54.35145 399.058853252532
54.37156 426.952644947402
54.39167 431.034535959877
54.41179 405.997034905998
54.4319 442
54.45201 446.994083249766
54.47213 434.991570517473
54.49224 443.044950045274
54.51236 467.972060702103
54.53247 468.006005254829
54.55258 480.959176306606
54.5727 513
54.59281 474.01941625334
54.61292 573.04907943383
54.63304 546.964791827614
54.65315 578.902561575215
54.67327 599.970346275622
54.69338 640.933016201931
54.71349 710.978241170596
54.73361 733.016836470526
54.75372 774.009898949142
54.77383 758.001794486094
54.79395 803.180499463455
54.81406 869.912867969026
54.83417 866.088731636462
54.85429 783.033111193451
54.8744 745
54.89452 695.955182674606
54.91463 666.97553793289
54.93474 664.029288087659
54.95486 664.101943352512
54.97497 582.083031399076
54.99508 586.957798767002
55.0152 602
55.03531 523.992759850233
55.05543 567.011222180035
55.07554 522.962166570777
55.09565 540.030797990996
55.11577 498.009250891566
55.13588 535.975249451078
55.15599 525.006063013596
55.17611 545.025318658748
55.19622 580.97668022365
55.21634 527.983467947202
55.23645 578.120280049264
55.25656 576.081767665277
55.27668 538.004084083534
55.29679 562.990883188914
55.3169 551
55.33702 534.015369459809
55.35713 544.926001638659
55.37724 466.963221232448
55.39736 511.951627107644
55.41747 476.077397487295
55.43759 448.004403737028
55.4577 452
55.47781 448.975643400023
55.49793 395.014457246535
55.51804 444.997370957538
55.53815 388.062383535612
55.55827 420.955666428055
55.57838 411.024533803528
55.5985 390
55.61861 375.006347577825
55.63872 409.029901740449
55.65884 409.944051702549
55.67895 382.988712486288
55.69906 402.027540601795
55.71918 360.017683313278
55.73929 383.984679115141
55.75941 392.996799539615
55.77952 372.96209972317
55.79963 339.999683264942
55.81975 363.022761149746
55.83986 351.006859961969
55.85997 369.961804537758
55.88009 372.017866488364
55.9002 337
55.92031 400.021493852657
55.94043 388.946053929944
55.96054 370.022769277425
55.98066 384.048830026728
56.00077 335.027322833517
56.02088 359.97467694676
56.041 364
56.06111 381.0116420357
56.08122 382.959986341964
56.10134 329.968910274098
56.12145 360.909133160597
56.14157 368.024742036892
56.16168 358.976203197586
56.18179 398.993162906255
56.20191 376.987665379322
56.22202 362.977606153849
56.24213 340.005672932102
56.26225 353.95125668479
56.28236 323.947307421608
56.30248 394.963499147017
56.32259 374.011458996986
56.3427 383
56.36282 388.99022498909
56.38293 365.953381341597
56.40304 342.993604952995
56.42316 351.995831946213
56.44327 349.976444830568
56.46338 384.966553140916
56.4835 391
56.50361 346.980727427765
56.52373 324.976432209991
56.54384 329.095567308665
56.56395 374.073163732782
56.58407 301.021533525206
56.60418 360.952615172481
56.62429 354.008419107161
56.64441 351.996559754754
56.66452 340.002536816899
56.68464 356.01748272613
56.70475 348.972992911068
56.72486 347.978874312228
56.74498 359.001577232213
56.76509 356.988669057899
56.7852 391
56.80532 361.966751279622
56.82543 357.037915238674
56.84554 381.983861607021
56.86566 341.080735063426
56.88577 345.906474167835
56.90589 405.009198296596
56.926 335
56.94611 373.004253955566
56.96623 336.989891718748
56.98634 372.031712150959
57.00645 356.992527822901
57.02657 384.983775365548
57.04668 369.010284985004
57.0668 377
57.08691 370.995350602097
57.10702 367.000980573895
57.12714 371.01079442075
57.14725 364.078316736012
57.16736 336.962941877046
57.18748 391.959740677214
57.20759 385.018095212112
57.22771 350.991108157333
57.24782 364.044735932032
57.26793 403.99561152594
57.28805 376.006383445526
57.30816 401.03220382478
57.32827 344.050467928472
57.34839 351.997936043683
57.3685 341
57.38861 369.007015975814
57.40873 367.01996873368
57.42884 387.979098046656
57.44896 345.073542147725
57.46907 338.982561285373
57.48918 346.006838225071
57.5093 342
57.52941 375.998652206253
57.54952 347.000862493294
57.56964 388.070529009394
57.58975 387.05638117361
57.60987 356.060918815181
57.62998 320.014949840028
57.65009 321.002091506931
57.67021 323.020343994941
57.69032 383.026575599678
57.71043 357.935810906712
57.73055 330.973553341376
57.75066 330.990762785574
57.77078 344.966090123414
57.79089 380.995548043707
57.811 369
57.83112 382.988244641883
57.85123 353.999863809183
57.87134 386.042700647774
57.89146 371.068766711157
57.91157 345.009189279592
57.93168 360.971146314283
57.9518 375
57.97191 340.995332357519
57.99203 353.991734937316
58.01214 336.032579234406
58.03225 385.911401091327
58.05237 380.040465962421
58.07248 358.010971690389
58.09259 352.00638717979
58.11271 343.008668782831
58.13282 369.997193211827
58.15294 337.957629484386
58.17305 339.995626234175
58.19316 328.997277387064
58.21328 346.982796037499
58.23339 353.997774267387
58.2535 360
58.27362 364.010194318054
58.29373 373.995831857594
58.31385 354.934804175447
58.33396 336.012248668862
58.35407 350.941759982122
58.37419 382.00601330286
58.3943 341
58.41441 357.009624444039
58.43453 350.95984216192
58.45464 330.014458859282
58.47475 356.96101333907
58.49487 355.988208361956
58.51498 368.014247570849
58.5351 337
58.55521 364.016002863771
58.57532 380.007700779064
58.59544 366.892022835294
58.61555 313.971187155706
58.63566 370.959805471628
58.65578 336.02568712007
58.67589 342.001972708594
58.69601 327.007333832448
58.71612 369.025978417012
58.73623 358.965134763272
58.75635 356.070729242855
58.77646 388.006920213833
58.79657 353.03545352418
58.81669 358.994364475883
58.8368 368
58.85691 394.000024240809
58.87703 362.942266607723
58.89714 355.075351473492
58.91726 404.974414316712
58.93737 378.030949422845
58.95748 382.996046383013
58.9776 379
58.99771 399.006239355057
59.01782 390.97800928257
59.03794 374.001748254634
59.05805 380.03558632874
59.07817 348.032111939033
59.09828 359.959974413713
59.11839 400.990306183638
59.13851 383.977059432648
59.15862 351.014943766131
59.17873 406.078040857643
59.19885 411.896824775713
59.21896 369.988566455379
59.23908 407.993225058905
59.25919 369.01782080859
59.2793 368
59.29942 385.017862343327
59.31953 403.024976168972
59.33964 408.974217652312
59.35976 395.971960378216
59.37987 425.988559871539
59.39998 410.002532732565
59.4201 426
59.44021 421.012888385815
59.46033 458.989488056203
59.48044 408.932021911333
59.50055 428.867114521867
59.52067 475.9681595731
59.54078 472.00948249886
59.56089 477.988662619619
59.58101 514.022054212805
59.60112 551.018771275838
59.62124 556.012197628571
59.64135 573.056513162711
59.66146 608.877766902402
59.68158 691.912479548453
59.70169 752.990674244214
59.7218 755
59.74192 840.136889184495
59.76203 980.14712449847
59.78215 1031.10133945947
59.80226 1109.74688620199
59.82237 1221.96646952925
59.84249 1189.98819481652
59.8626 1296
59.88271 1317.97114763088
59.90283 1234.91701772091
59.92294 1212.93175460871
59.94305 1142.21205579457
59.96317 1069.08335922793
59.98328 1010.08701232575
60.0034 928
60.02351 955.997094324257
60.04362 893.938679125897
60.06374 839.809632343319
60.08385 737.064216319293
60.10396 764.05612264014
60.12408 647.129889074875
60.14419 567.020188104597
60.16431 537.982946385738
60.18442 497.970803888588
60.20453 481.975704228882
60.22465 461.966268340438
60.24476 452.038263571881
60.26487 426.025836649157
60.28499 429.988874703457
60.3051 448
60.32522 419.972604645975
60.34533 403.976727307257
60.36544 397.041702675374
60.38556 419.04627060746
60.40567 370.013538599029
60.42578 394.0157241948
60.4459 347
60.46601 397.005254285386
60.48612 356.984111007869
60.50624 385.034852390887
60.52635 359.118887738213
60.54647 334.96446244713
60.56658 380.981889852638
60.58669 356.016628808043
60.60681 349.009718036201
60.62692 371.000283812432
60.64703 362.027241377083
60.66715 391.974661424792
60.68726 342.074136672305
60.70738 354.95173907246
60.72749 395.997480170532
60.7476 368
60.76772 355.993610045753
60.78783 355.024417523405
60.80794 374.996132363797
60.82806 352.034637197056
60.84817 353.986976966305
60.86828 363.981632308667
60.8884 372
60.90851 325.991059571549
60.92863 357.083051469738
60.94874 388.968732652858
60.96885 340.107937456647
60.98897 336.949859646792
61.00908 366.013146147439
61.02919 341.982856376415
61.04931 401.991598717107
61.06942 325.984922770286
61.08954 390.083346145811
61.10965 367.932739418807
61.12976 372.969662403266
61.14988 382.988909088287
61.16999 383.014832299474
61.1901 350
61.21022 390.013907784426
61.23033 363.965126585411
61.25045 367.026475751653
61.27056 366.026180280511
61.29067 353.995580438295
61.31079 375.984495188332
61.3309 399
61.35101 383.981826489486
61.37113 351.996742222244
61.39124 379.06076251215
61.41135 390.015078385207
61.43147 372.040914163099
61.45158 360.971416998069
61.4717 405
61.49181 384.999091133406
61.51192 408.005088133975
61.53204 393.010518759343
61.55215 417.99092879348
61.57226 394.033628048986
61.59238 396.002194437671
61.61249 382.005106730388
61.63261 388.009580811944
61.65272 406.00519550572
61.67283 396.980259484432
61.69295 392.014244312543
61.71306 413.918358553813
61.73317 448.998645314433
61.75329 428.999680827213
61.7734 439
61.79352 383.99848070829
61.81363 433.032785473005
61.83374 413.000657470652
61.85386 441.992977826644
61.87397 413.021742632005
61.89408 430.978549119704
61.9142 430
61.93431 402.988605188469
61.95442 398.016242040693
61.97454 415.993289482701
61.99465 395.029153516213
62.01477 406.965226820974
62.03488 420.006494486919
62.05499 403.004520945782
62.07511 420.021325599994
62.09522 456.999600728138
62.11533 419.938090790643
62.13545 404.018575349199
62.15556 410.036296756972
62.17568 388.979594735473
62.19579 430.001981751707
62.2159 390
62.23602 431.012635139992
62.25613 401.979643225981
62.27624 423.036040957358
62.29636 412.056994879291
62.31647 380.048436740598
62.33659 364.991331012088
62.3567 398
62.37681 388.993998934687
62.39693 399.051749273395
62.41704 427.980903779515
62.43715 386.08694210068
62.45727 373.022847205739
62.47738 355.99385339608
62.49749 383.988327450162
62.51761 388.999498582556
62.53772 399.02549031601
62.55784 409.923289439492
62.57795 351.968143038881
62.59806 386.958646894414
62.61818 367.025239047481
62.63829 368.986715525184
62.6584 397
62.67852 377.966515527508
62.69863 351.98679956734
62.71875 358.022797647937
62.73886 355.03728189802
62.75897 338.986891199791
62.77909 368.987375070985
62.7992 368
62.81931 341.99345290698
62.83943 347.019385933974
62.85954 355.00036872247
62.87965 347.033924911536
62.89977 336.003793608202
62.91988 344.982366844643
62.94 359
62.96011 356.006390296924
62.98022 375.9990367895
63.00034 355.981952821386
63.02045 372.930168194818
63.04056 379.06817352629
63.06068 333.010596554641
63.08079 359.990213969232
63.10091 359.004981596042
63.12102 369.970454800174
63.14113 319.987472963206
63.16125 353.031333937144
63.18136 337.976482887558
63.20147 367.026749078841
63.22159 318.998355097108
63.2417 374
63.26182 340.960475126685
63.28193 334.020123436267
63.30204 343.989715536783
63.32216 336.967899889029
63.34227 373.954321135168
63.36238 380.009391066347
63.3825 363
63.40261 341.999288900387
63.42272 345.98060780046
63.44284 323.044540674317
63.46295 373.965951766722
63.48307 344.021350220451
63.50318 355.013519619153
63.52329 331.983692622153
63.54341 404.014550888212
63.56352 362.943246775602
63.58363 339.006007109723
63.60375 361.087395420946
63.62386 389.983766743861
63.64398 383.002081977054
63.66409 386.005870561556
63.6842 363
63.70432 374.018374819919
63.72443 404.089316661508
63.74454 453.964567158114
63.76466 388.07195237545
63.78477 413.935993868393
63.80489 433.998715819658
63.825 438
63.84511 469.013426122643
63.86523 475.980787278833
63.88534 466.030788943438
63.90545 501.928727126705
63.92557 518.95730934637
63.94568 545.01403681246
63.96579 507.003959880558
63.98591 526.995926751853
64.00602 481.965727880441
64.02614 485.040085709014
64.04625 501.027085025979
64.06636 501.031227180495
64.08648 480.011045363906
64.10659 487.989536651165
64.1267 491
64.14682 424.950525166741
64.16693 414.012215107968
64.18705 425.042448509466
64.20716 433.038655378991
64.22727 389.070676817451
64.24739 369.990150169904
64.2675 403
64.28761 379.98509566347
64.30773 362.984826527694
64.32784 348.955444121678
64.34796 333.974500008425
64.36807 369.948912821598
64.38818 376.023514992887
64.4083 341
64.42841 343.01533113435
64.44852 372.999273322068
64.46864 347.974079362288
64.48875 350.039774256467
64.50886 334.924195951088
64.52898 398.990005759087
64.54909 359.002987198534
64.56921 387.99045072534
64.58932 317.959771064749
64.60943 340.055579427047
64.62955 356.013422327412
64.64966 349.06306721864
64.66977 316.993321866501
64.68989 351.988827212652
64.71 340
64.73012 337.033663035441
64.75023 379.010544538742
64.77034 348.947430124519
64.79046 352.959101713269
64.81057 357.047293843552
64.83068 313.013486582429
64.8508 339
64.87091 346.994377968717
64.89102 327.98058172032
64.91114 319.010780423105
64.93125 334.953526152999
64.95137 350.97660703306
64.97148 360.006319717218
64.99159 347.999597417765
65.01171 354.994056908367
65.03182 323.975025665295
65.05193 331.060440277339
65.07205 364.965513444283
65.09216 318.047538371564
65.11228 333.983386155926
65.13239 332.00045465562
65.1525 343
65.17262 339.969197951754
65.19273 312.025139447769
65.21284 361.053548794954
65.23296 349.026800754181
65.25307 347.02248127743
65.27319 312.018476330745
65.2933 305
65.31341 361.016691256425
65.33353 348.940334266201
65.35364 320.006702934285
65.37375 344.964224787639
65.39387 341.992534600732
65.41398 353.01038162608
65.43409 331.996594943431
65.45421 366.010919511451
65.47432 350.962407629446
65.49444 325.012373980809
65.51455 361.107660077078
65.53466 384.00515018568
65.55478 367.015158131317
65.57489 360.004219594663
65.595 353
65.61512 368.003782407463
65.63523 367.02922266582
65.65535 400.034821163758
65.67546 390.013273202067
65.69557 396.994564613548
65.71569 383.014343429617
65.7358 367
65.75591 409.009884968188
65.77603 375.888982682935
65.79614 324.045173691211
65.81626 385.973603951723
65.83637 341.037562159159
65.85648 360.987911243725
65.8766 345
65.89671 365.022516275805
65.91682 394.980356090615
65.93694 345.953323729819
65.95705 353.030389479064
65.97716 321.998895374098
65.99728 367.945728144503
66.01739 393.002867052491
66.03751 368.985872842558
66.05762 350.993424984339
66.07773 357.028209846196
66.09785 367.955154428658
66.11796 333.037005328151
66.13807 333.018325270439
66.15819 311.9975938604
66.1783 346
66.19842 350.984689173139
66.21853 338.008462010284
66.23864 349.979707063451
66.25876 330.971832261262
66.27887 364.006449915385
66.29898 315.044290748661
66.3191 318
66.33921 364.007084551335
66.35933 339.947219519686
66.37944 326.026542933139
66.39955 351.955675208624
66.41967 352.010143607761
66.43978 348.002574366314
66.45989 343.004904247089
66.48001 331.9970335647
66.50012 336.012677668318
66.52023 345.9955210528
66.54035 339.020439788722
66.56046 355.005728130626
66.58058 326.035555523068
66.60069 320.978199818823
66.6208 369
66.64092 325.010979488639
66.66103 383.013285863511
66.68114 332.953952359288
66.70126 358.977032511222
66.72137 333.034361105894
66.74149 338.989829818119
66.7616 354
66.78171 353.002393162444
66.80183 366.018790952218
66.82194 364.961670160229
66.84205 338.047970057549
66.86217 346.936446550318
66.88228 395.97738342454
66.90239 379.018568385893
66.92251 350.995838655263
66.94262 354.998822990338
66.96274 343.984183206732
66.98285 350.045034137061
67.00296 369.973437438718
67.02308 370.011653502981
67.04319 350.013148442742
67.0633 338
67.08342 370.000577132584
67.10353 349.013530951638
67.12365 392.073182126613
67.14376 386.031573197228
67.16387 387.967311640392
67.18399 408.002923982924
67.2041 390
67.22421 419.004067102638
67.24433 388.935101644057
67.26444 362.995717919454
67.28456 390.885133079397
67.30467 444.974731199272
67.32478 427.017030229212
67.3449 439
67.36501 468.003032272324
67.38512 457.999086136426
67.40524 492.138839422932
67.42535 548.021278010777
67.44546 500.02380949264
67.46558 558.91162307193
67.48569 620.990278539782
67.50581 624.014020224329
67.52592 682.050602289722
67.54603 717.070621501093
67.56615 781.141791726893
67.58626 815.958046917018
67.60637 845.92083826041
67.62649 892.002686118204
67.6466 861
67.66672 923.043373194289
67.68683 921.992033178556
67.70694 920.943828901595
67.72706 868.085928250132
67.74717 843.048459915468
67.76728 801.027736681237
67.7874 810
67.80751 865.020071511646
67.82763 866.947199948858
67.84774 837.034030951279
67.86785 895.86707234023
67.88797 907.031725447345
67.90808 888.989257621374
67.92819 926.98114323266
67.94831 947.005769342499
67.96842 999.131190566527
67.98853 1123.98821840873
68.00865 1041.06225560316
68.02876 1196.74945203983
68.04888 1218.9957505276
68.06899 1234.01583390158
68.0891 1185
68.10922 1238.96215680328
68.12933 1125.93045388498
68.14944 1164.00023815717
68.16956 1112.98532248586
68.18967 1175.99019133615
68.20979 1110.02091993767
68.2299 1127
68.25001 1097.97385134574
68.27013 1029.85751194989
68.29024 938.915170474385
68.31035 931.075854318702
68.33047 853.138400418186
68.35058 762.10494633976
68.3707 677
68.39081 715.008767976006
68.41092 673.933952552121
68.43104 615.902271595081
68.45115 587.004969455009
68.47126 593.054935323485
68.49138 531.059095453823
68.51149 496.012857753586
68.5316 483
68.55172 513.001811035956
68.57183 476.933944730156
68.59195 444.928492042899
68.61206 420.022744775889
68.63217 427.964576737954
68.65229 444.005770956077
68.6724 406
68.69251 376.991872409158
68.71263 371.005432552101
68.73274 372.979683037937
68.75286 359.991517681863
68.77297 385.951923788267
68.79308 397.021970553752
68.8132 372
68.83331 410.00192288206
68.85342 370.96727196793
68.87354 369.009633170145
68.89365 359.055458980524
68.91376 346.963383039915
68.93388 382.979736878058
68.95399 375.007846041917
68.97411 359.986930013443
68.99422 337.006822491097
69.01433 369.038808156635
69.03445 362.917705577543
69.05456 333.997050186361
69.07467 352.008274285467
69.09479 327.998545045331
69.1149 361
69.13502 352.988928938307
69.15513 350.990704358676
69.17524 349.04786331935
69.19536 384.97667039466
69.21547 362.048103341679
69.23558 346.996818395817
69.2557 358
69.27581 350.989762580156
69.29593 334.004476125051
69.31604 353.029338888781
69.33615 346.064291613997
69.35627 330.966154281464
69.37638 375.975268636933
69.39649 360.017385795367
69.41661 342.006470494712
69.43672 364.99796132345
69.45683 335.965718861719
69.47695 339.040038451709
69.49706 343.040480933406
69.51718 314.009677691766
69.53729 327.992964005719
69.5574 339
69.57752 374.011134358793
69.59763 351.949075697835
69.61774 324.956803028809
69.63786 319.950333056611
69.65797 356.973278089814
69.67809 343.013612223316
69.6982 320
69.71831 305.99698978962
69.73843 321.069675210913
69.75854 361.974878431628
69.77865 314.042174660784
69.79877 344.955899910812
69.81888 346.005162344943
69.839 344
69.85911 332.005137255801
69.87922 354.000511689357
69.89934 338.011025810173
69.91945 356.966537064906
69.93956 318.023046521023
69.95968 343.979133897291
69.97979 340.0031246975
69.9999 341
70.02002 322.974759591052
70.04013 312.028910918339
70.06025 352.087273806321
70.08036 360.03157578755
70.10047 329.060811129577
70.12059 301.997570747188
70.1407 335
70.16081 349.991340856482
70.18093 321.987303214154
70.20104 333.001248186303
70.22116 322.982080835546
70.24127 343.009887248288
70.26138 307.030109265816
70.2815 301
70.30161 306.010370303193
70.32172 328.999036832818
70.34184 320.049737997907
70.36195 358.030134390307
70.38207 306.027687457013
70.40218 341.962179361656
70.42229 341.014148774774
70.44241 318.001916555362
70.46252 342.016017970625
70.48263 333.969605554145
70.50275 313.953546076058
70.52286 305.977836698157
70.54297 325.984759079284
70.56309 321.003419499823
70.5832 325
70.60332 340.006612871143
70.62343 330.965713133853
70.64354 307.978509503414
70.66366 315.958032222864
70.68377 331.006864807048
70.70388 316.999548282314
70.724 325
70.74411 301.00638140742
70.76423 340.013505286813
70.78434 319.009292264457
70.80445 349.994688796157
70.82457 321.010753557005
70.84468 341.000483060178
70.86479 314.005831727964
70.88491 330.007120115491
70.90502 327.996416850985
70.92513 327.991203851136
70.94525 312.955483702722
70.96536 303.988929088754
70.98548 320.980367093974
71.00559 335.994279881256
71.0257 336
71.04582 313.002385946049
71.06593 335.012327626896
71.08604 317.958949617303
71.10616 307.019079551044
71.12627 310.943110616477
71.14639 353.002557361581
71.1665 308
71.18661 317.001457660524
71.20673 305.00851018035
71.22684 332.038739317979
71.24695 332.999150893238
71.26707 337.00890890193
71.28718 318.021269193868
71.3073 308
71.32741 320.004709955938
71.34752 321.999637942639
71.36764 320.990006814598
71.38775 313.016082126749
71.40786 317.956394757555
71.42798 340.000328806637
71.44809 320.00719979607
71.4682 328
71.48832 345.000624788994
71.50843 328.967442098408
71.52855 315.999180934688
71.54866 325.971988955658
71.56877 322.056716137131
71.58889 294.977532201393
71.609 378
71.62911 321.967727718735
71.64923 310.045484799745
71.66934 339.994150161247
71.68946 311.03091919889
71.70957 320.987649362266
71.72968 324.975661379114
71.7498 354
71.76991 309.979864863776
71.79002 312.043051025163
71.81014 357.016793745702
71.83025 328.071806596241
71.85037 322.992345521696
71.87048 329.985803278391
71.89059 349.990666899168
71.91071 358.998851485323
71.93082 344.975565863299
71.95093 313.948491280789
71.97105 296.039086955207
71.99116 334.931554261464
72.01127 337.045668522376
72.03139 304.002373745173
72.0515 333
72.07162 349.992292230402
72.09173 327.967578760573
72.11184 323.027335200155
72.13196 343.970966295903
72.15207 340.031763703938
72.17218 317.010302848257
72.1923 319
72.21241 310.996950716506
72.23253 309.996884216629
72.25264 316.058743719886
72.27275 349.990615778332
72.29287 330.004183676857
72.31298 340.022556365707
72.33309 297.002658489805
72.35321 331.008405146617
72.37332 316.997638094827
72.39344 335.009325291444
72.41355 330.055898153884
72.43366 368.985602309655
72.45378 339.024517999447
72.47389 336.00382555502
72.494 324
72.51412 345.996013151295
72.53423 319.990228643155
72.55434 341.030679817061
72.57446 329.055635362622
72.59457 317.959050631418
72.61469 359.994576471003
72.6348 341
72.65491 352.98806315785
72.67503 309.002904460611
72.69514 351.021150714617
72.71525 323.005980842879
72.73537 353.988245495818
72.75548 337.984012661234
72.7756 380
72.79571 333.974811304554
72.81582 316.004965863009
72.83594 332.049260336587
72.85605 352.983141494071
72.87616 342.043842886557
72.89628 336.966783075778
72.91639 374.007799083279
72.9365 313
72.95662 317.014716089078
72.97673 325.028816528924
72.99685 352.032448112346
73.01696 348.999237211628
73.03707 370.936891336427
73.05719 393.018718590112
73.0773 326
73.09741 352.010502261517
73.11753 358.056974169726
73.13764 416.036706770707
73.15776 390.031583512724
73.17787 404.981953962255
73.19798 408.975573174876
73.2181 444
73.23821 426.000071523053
73.25832 440.983977384428
73.27844 413.050200780514
73.29855 487.861747094623
73.31867 494.007495434555
73.33878 505.981523854536
73.35889 517.998642644851
73.37901 514.998780801306
73.39912 521.016025130587
73.41923 528.970161740752
73.43935 485.897147783197
73.45946 470.976900802863
73.47957 486.00717867743
73.49969 462.009541602642
73.5198 460
73.53992 461.002034011561
73.56003 452.951121995267
73.58014 407.939904292885
73.60026 420.885924411897
73.62037 467.033063917243
73.64048 392.054872559461
73.6606 398
73.68071 418.996914426067
73.70083 400.997366244721
73.72094 410.978903474418
73.74105 375.083240520216
73.76117 357.025741252331
73.78128 347.978701186876
73.80139 380.998272711241
73.82151 346.980999980887
73.84162 333.005368846029
73.86174 344.015234335315
73.88185 346.007260912466
73.90196 354.973050469779
73.92208 357.024050917267
73.94219 320.010807266177
73.9623 318
73.98242 310.015608252862
74.00253 343.027411354201
74.02264 341.007335100525
74.04276 348.03598448932
74.06287 317.004986688118
74.08299 343.990463727496
74.1031 334
74.12321 322.002104535847
74.14333 328.985688182269
74.16344 309.996037551661
74.18355 336.897441522165
74.20367 356.03751970461
74.22378 315.00633300586
74.2439 348
74.26401 349.001426476344
74.28412 358.995219567565
74.30424 333.942773895104
74.32435 325.948115548238
74.34446 346.03693719639
74.36458 311.988262329147
74.38469 355.000914588221
74.40481 298.978472874707
74.42492 309.036950871441
74.44503 329.981634727204
74.46515 297.947479713264
74.48526 308.932939673242
74.50537 334.008507201917
74.52549 312.000815026492
74.5456 331
74.56571 311.994406181549
74.58583 322.02211033508
74.60594 318.946024204613
74.62606 294.974552659979
74.64617 335.959485527439
74.66628 337.992247025604
74.6864 350
74.70651 321.003338577404
74.72662 350.992638542647
74.74674 301.931692417607
74.76685 310.938542914727
74.78697 325.988694027337
74.80708 329.997955173882
74.82719 331.000390501013
74.84731 326.996063493035
74.86742 323.008405309044
74.88753 331.983797236728
74.90765 315.027140985233
74.92776 346.975911808631
74.94787 337.985905231709
74.96799 356.01147220901
74.9881 297
75.00822 306.033389588973
