3.00117 20079
3.02128 19649
3.0414 19390
3.06151 18420
3.08162 17715
3.10174 17906
3.12185 17196
3.14197 16922
3.16208 16561
3.18219 15577
3.20231 15518
3.22242 14693
3.24253 14458
3.26265 13920
3.28276 13455
3.30288 13403
3.32299 12947
3.3431 12562
3.36322 12044
3.38333 11514
3.40344 11444
3.42356 10812
3.44367 10507
3.46379 10418
3.4839 9706
3.50401 9867
3.52413 9392
3.54424 9101
3.56435 8552
3.58447 8346
3.60458 8134
3.62469 7635
3.64481 7562
3.66492 7153
3.68504 6809
3.70515 6869
3.72526 6212
3.74538 6303
3.76549 5995
3.7856 5544
3.80572 5499
3.82583 5262
3.84595 5030
3.86606 4993
3.88617 4786
3.90629 4647
3.9264 4408
3.94651 4312
3.96663 4074
3.98674 3677
4.00686 3729
4.02697 3540
4.04708 3553
4.0672 3335
4.08731 3117
4.10742 3087
4.12754 3057
4.14765 2861
4.16776 2668
4.18788 2611
4.20799 2624
4.22811 2492
4.24822 2400
4.26833 2327
4.28845 2219
4.30856 2291
4.32867 2251
4.34879 2167
4.3689 1988
4.38902 1900
4.40913 2054
4.42924 1949
4.44936 1889
4.46947 1821
4.48958 1762
4.5097 1763
4.52981 1786
4.54992 1697
4.57004 1602
4.59015 1571
4.61027 1504
4.63038 1676
4.65049 1455
4.67061 1509
4.69072 1424
4.71083 1449
4.73095 1483
4.75106 1325
4.77118 1373
4.79129 1318
4.8114 1261
4.83152 1364
4.85163 1278
4.87174 1275
4.89186 1292
4.91197 1185
4.93209 1226
4.9522 1153
4.97231 1133
4.99243 1107
5.01254 1158
5.03265 1193
5.05277 1034
5.07288 1087
5.09299 1061
5.11311 981
5.13322 1045
5.15334 980
5.17345 978
5.19356 1024
5.21368 955
5.23379 1017
5.2539 912
5.27402 921
5.29413 905
5.31425 906
5.33436 956
5.35447 878
5.37459 858
5.3947 863
5.41481 821
5.43493 900
5.45504 831
5.47516 870
5.49527 762
5.51538 806
5.5355 807
5.55561 833
5.57572 708
5.59584 818
5.61595 773
5.63606 781
5.65618 718
5.67629 738
5.69641 752
5.71652 730
5.73663 720
5.75675 697
5.77686 715
5.79697 722
5.81709 740
5.8372 705
5.85732 702
5.87743 693
5.89754 666
5.91766 682
5.93777 622
5.95788 706
5.978 676
5.99811 694
6.01823 694
6.03834 692
6.05845 694
6.07857 645
6.09868 647
6.11879 713
6.13891 633
6.15902 662
6.17913 618
6.19925 654
6.21936 676
6.23948 658
6.25959 662
6.2797 642
6.29982 613
6.31993 652
6.34004 633
6.36016 626
6.38027 634
6.40039 566
6.4205 610
6.44061 643
6.46073 661
6.48084 613
6.50095 669
6.52107 606
6.54118 645
6.56129 607
6.58141 653
6.60152 627
6.62164 625
6.64175 572
6.66186 596
6.68198 597
6.70209 576
6.7222 569
6.74232 600
6.76243 606
6.78255 600
6.80266 608
6.82277 547
6.84289 568
6.863 626
6.88311 602
6.90323 604
6.92334 610
6.94346 617
6.96357 609
6.98368 563
7.0038 598
7.02391 607
7.04402 537
7.06414 593
7.08425 571
7.10436 607
7.12448 616
7.14459 548
7.16471 603
7.18482 612
7.20493 576
7.22505 615
7.24516 594
7.26527 570
7.28539 562
7.3055 567
7.32562 611
7.34573 581
7.36584 584
7.38596 583
7.40607 520
7.42618 535
7.4463 580
7.46641 537
7.48653 586
7.50664 590
7.52675 599
7.54687 585
7.56698 554
7.58709 577
7.60721 553
7.62732 603
7.64743 600
7.66755 531
7.68766 496
7.70778 631
7.72789 558
7.748 567
7.76812 545
7.78823 587
7.80834 593
7.82846 569
7.84857 537
7.86869 572
7.8888 561
7.90891 596
7.92903 530
7.94914 589
7.96925 557
7.98937 589
8.00948 579
8.0296 590
8.04971 550
8.06982 576
8.08994 596
8.11005 533
8.13016 542
8.15028 535
8.17039 518
8.1905 539
8.21062 599
8.23073 560
8.25085 568
8.27096 534
8.29107 587
8.31119 515
8.3313 550
8.35141 533
8.37153 567
8.39164 608
8.41176 571
8.43187 518
8.45198 606
8.4721 563
8.49221 591
8.51232 578
8.53244 545
8.55255 497
8.57266 526
8.59278 561
8.61289 540
8.63301 602
8.65312 610
8.67323 578
8.69335 610
8.71346 609
8.73357 574
8.75369 595
8.7738 544
8.79392 590
8.81403 536
8.83414 558
8.85426 613
8.87437 594
8.89448 532
8.9146 557
8.93471 565
8.95483 594
8.97494 563
8.99505 567
9.01517 536
9.03528 552
9.05539 590
9.07551 554
9.09562 562
9.11573 547
9.13585 596
9.15596 600
9.17608 583
9.19619 601
9.2163 544
9.23642 540
9.25653 570
9.27664 539
9.29676 538
9.31687 522
9.33699 511
9.3571 513
9.37721 528
9.39733 531
9.41744 596
9.43755 537
9.45767 563
9.47778 542
9.4979 574
9.51801 519
9.53812 525
9.55824 544
9.57835 501
9.59846 566
9.61858 543
9.63869 572
9.6588 568
9.67892 546
9.69903 528
9.71915 574
9.73926 577
9.75937 617
9.77949 588
9.7996 573
9.81971 567
9.83983 592
9.85994 565
9.88006 557
9.90017 551
9.92028 591
9.9404 550
9.96051 546
9.98062 591
10.00074 589
10.02085 570
10.04097 560
10.06108 569
10.08119 576
10.10131 541
10.12142 526
10.14153 572
10.16165 609
10.18176 545
10.20187 574
10.22199 582
10.2421 512
10.26222 592
10.28233 558
10.30244 569
10.32256 559
10.34267 592
10.36278 584
10.3829 590
10.40301 600
10.42313 633
10.44324 642
10.46335 647
10.48347 594
10.50358 649
10.52369 662
10.54381 608
10.56392 550
10.58403 572
10.60415 567
10.62426 518
10.64438 587
10.66449 549
10.6846 520
10.70472 564
10.72483 543
10.74494 556
10.76506 595
10.78517 559
10.80529 579
10.8254 535
10.84551 599
10.86563 525
10.88574 567
10.90585 483
10.92597 535
10.94608 542
10.9662 567
10.98631 555
11.00642 591
11.02654 569
11.04665 572
11.06676 541
11.08688 580
11.10699 574
11.1271 580
11.14722 518
11.16733 563
11.18745 572
11.20756 606
11.22767 562
11.24779 545
11.2679 575
11.28801 568
11.30813 548
11.32824 539
11.34836 586
11.36847 541
11.38858 578
11.4087 589
11.42881 630
11.44892 540
11.46904 514
11.48915 600
11.50927 605
11.52938 640
11.54949 637
11.56961 604
11.58972 632
11.60983 618
11.62995 616
11.65006 641
11.67017 599
11.69029 633
11.7104 618
11.73052 584
11.75063 596
11.77074 651
11.79086 631
11.81097 637
11.83108 624
11.8512 613
11.87131 619
11.89143 659
11.91154 629
11.93165 681
11.95177 665
11.97188 696
11.99199 651
12.01211 654
12.03222 636
12.05234 652
12.07245 669
12.09256 679
12.11268 697
12.13279 621
12.1529 678
12.17302 647
12.19313 720
12.21324 693
12.23336 611
12.25347 658
12.27359 707
12.2937 677
12.31381 639
12.33393 640
12.35404 657
12.37415 718
12.39427 633
12.41438 641
12.4345 599
12.45461 644
12.47472 629
12.49484 621
12.51495 594
12.53506 600
12.55518 597
12.57529 535
12.5954 583
12.61552 589
12.63563 589
12.65575 588
12.67586 605
12.69597 529
12.71609 631
12.7362 605
12.75631 591
12.77643 547
12.79654 595
12.81666 598
12.83677 540
12.85688 561
12.877 558
12.89711 546
12.91722 562
12.93734 586
12.95745 567
12.97757 566
12.99768 553
13.01779 538
13.03791 550
13.05802 538
13.07813 526
13.09825 533
13.11836 544
13.13847 561
13.15859 569
13.1787 540
13.19882 530
13.21893 524
13.23904 569
13.25916 523
13.27927 521
13.29938 557
13.3195 507
13.33961 517
13.35973 534
13.37984 575
13.39995 521
13.42007 565
13.44018 562
13.46029 571
13.48041 470
13.50052 545
13.52064 516
13.54075 576
13.56086 526
13.58098 514
13.60109 514
13.6212 540
13.64132 574
13.66143 524
13.68154 559
13.70166 519
13.72177 515
13.74189 534
13.762 560
13.78211 540
13.80223 561
13.82234 594
13.84245 532
13.86257 530
13.88268 585
13.9028 532
13.92291 527
13.94302 494
13.96314 547
13.98325 543
14.00336 512
14.02348 506
14.04359 507
14.06371 464
14.08382 513
14.10393 520
14.12405 539
14.14416 552
14.16427 518
14.18439 494
14.2045 498
14.22461 494
14.24473 469
14.26484 518
14.28496 517
14.30507 483
14.32518 516
14.3453 521
14.36541 497
14.38552 476
14.40564 517
14.42575 496
14.44587 503
14.46598 555
14.48609 536
14.50621 538
14.52632 510
14.54643 541
14.56655 499
14.58666 494
14.60677 477
14.62689 478
14.647 500
14.66712 479
14.68723 523
14.70734 501
14.72746 562
14.74757 560
14.76768 543
14.7878 497
14.80791 519
14.82803 502
14.84814 514
14.86825 480
14.88837 540
14.90848 563
14.92859 510
14.94871 515
14.96882 506
14.98894 497
15.00905 518
15.02916 485
15.04928 468
15.06939 503
15.0895 490
15.10962 515
15.12973 510
15.14984 511
15.16996 511
15.19007 528
15.21019 499
15.2303 503
15.25041 482
15.27053 509
15.29064 492
15.31075 539
15.33087 469
15.35098 532
15.3711 504
15.39121 513
15.41132 557
15.43144 513
15.45155 502
15.47166 508
15.49178 500
15.51189 528
15.53201 525
15.55212 534
15.57223 517
15.59235 535
15.61246 536
15.63257 505
15.65269 466
15.6728 523
15.69291 567
15.71303 537
15.73314 524
15.75326 502
15.77337 501
15.79348 520
15.8136 537
15.83371 541
15.85382 519
15.87394 504
15.89405 490
15.91417 482
15.93428 472
15.95439 479
15.97451 503
15.99462 519
16.01473 563
16.03485 513
16.05496 515
16.07508 550
16.09519 518
16.1153 551
16.13542 517
16.15553 546
16.17564 528
16.19576 546
16.21587 489
16.23598 550
16.2561 504
16.27621 497
16.29633 466
16.31644 465
16.33655 494
16.35667 520
16.37678 510
16.39689 463
16.41701 509
16.43712 531
16.45724 478
16.47735 532
16.49746 506
16.51758 524
16.53769 497
16.5578 534
16.57792 536
16.59803 501
16.61814 501
16.63826 528
16.65837 513
16.67849 522
16.6986 487
16.71871 463
16.73883 524
16.75894 509
16.77905 535
16.79917 521
16.81928 503
16.8394 528
16.85951 537
16.87962 511
16.89974 493
16.91985 554
16.93996 504
16.96008 546
16.98019 497
17.00031 446
17.02042 486
17.04053 543
17.06065 471
17.08076 484
17.10087 504
17.12099 566
17.1411 522
17.16121 540
17.18133 484
17.20144 550
17.22156 496
17.24167 555
17.26178 543
17.2819 543
17.30201 531
17.32212 552
17.34224 534
17.36235 525
17.38247 504
17.40258 540
17.42269 499
17.44281 506
17.46292 529
17.48303 550
17.50315 531
17.52326 516
17.54338 495
17.56349 487
17.5836 541
17.60372 482
17.62383 520
17.64394 506
17.66406 502
17.68417 561
17.70428 498
17.7244 519
17.74451 494
17.76463 526
17.78474 552
17.80485 542
17.82497 491
17.84508 537
17.86519 489
17.88531 510
17.90542 568
17.92554 493
17.94565 532
17.96576 541
17.98588 501
18.00599 541
18.0261 560
18.04622 534
18.06633 546
18.08645 596
18.10656 547
18.12667 595
18.14679 709
18.1669 734
18.18701 670
18.20713 700
18.22724 693
18.24735 718
18.26747 734
18.28758 740
18.3077 740
18.32781 685
18.34792 666
18.36804 704
18.38815 622
18.40826 619
18.42838 585
18.44849 602
18.46861 590
18.48872 538
18.50883 526
18.52895 566
18.54906 521
18.56917 536
18.58929 556
18.6094 607
18.62951 566
18.64963 568
18.66974 485
18.68986 511
18.70997 554
18.73008 519
18.7502 543
18.77031 529
18.79042 544
18.81054 544
18.83065 528
18.85077 486
18.87088 491
18.89099 516
18.91111 512
18.93122 537
18.95133 519
18.97145 530
18.99156 548
19.01168 545
19.03179 553
19.0519 530
19.07202 502
19.09213 519
19.11224 544
19.13236 559
19.15247 556
19.17258 533
19.1927 533
19.21281 558
19.23293 564
19.25304 579
19.27315 614
19.29327 587
19.31338 558
19.33349 521
19.35361 574
19.37372 594
19.39384 574
19.41395 575
19.43406 594
19.45418 580
19.47429 567
19.4944 628
19.51452 567
19.53463 592
19.55475 614
19.57486 635
19.59497 670
19.61509 616
19.6352 624
19.65531 658
19.67543 684
19.69554 672
19.71565 674
19.73577 682
19.75588 680
19.776 714
19.79611 766
19.81622 736
19.83634 761
19.85645 748
19.87656 791
19.89668 739
19.91679 746
19.93691 784
19.95702 770
19.97713 817
19.99725 825
20.01736 779
20.03747 786
20.05759 756
20.0777 755
20.09782 805
20.11793 727
20.13804 816
20.15816 821
20.17827 731
20.19838 805
20.2185 739
20.23861 812
20.25872 774
20.27884 736
20.29895 828
20.31907 773
20.33918 760
20.35929 760
20.37941 747
20.39952 777
20.41963 783
20.43975 748
20.45986 746
20.47998 739
20.50009 756
20.5202 725
20.54032 712
20.56043 742
20.58054 751
20.60066 711
20.62077 730
20.64088 702
20.661 776
20.68111 737
20.70123 771
20.72134 796
20.74145 833
20.76157 855
20.78168 988
20.80179 1076
20.82191 1221
20.84202 1252
20.86214 1301
20.88225 1262
20.90236 1134
20.92248 942
20.94259 960
20.9627 833
20.98282 864
21.00293 775
21.02305 766
21.04316 786
21.06327 771
21.08339 700
21.1035 731
21.12361 734
21.14373 667
21.16384 657
21.18395 685
21.20407 710
21.22418 642
21.2443 665
21.26441 629
21.28452 675
21.30464 688
21.32475 732
21.34486 677
21.36498 677
21.38509 680
21.40521 670
21.42532 717
21.44543 674
21.46555 656
21.48566 657
21.50577 643
21.52589 645
21.546 671
21.56612 658
21.58623 740
21.60634 660
21.62646 665
21.64657 696
21.66668 594
21.6868 652
21.70691 657
21.72702 655
21.74714 680
21.76725 651
21.78737 685
21.80748 610
21.82759 638
21.84771 620
21.86782 699
21.88793 646
21.90805 675
21.92816 742
21.94828 721
21.96839 825
21.9885 739
22.00862 758
22.02873 738
22.04884 675
22.06896 657
22.08907 655
22.10919 597
22.1293 645
22.14941 625
22.16953 619
22.18964 641
22.20975 639
22.22987 662
22.24998 645
22.27009 677
22.29021 627
22.31032 643
22.33044 684
22.35055 640
22.37066 633
22.39078 669
22.41089 664
22.431 605
22.45112 663
22.47123 635
22.49135 599
22.51146 651
22.53157 649
22.55169 643
22.5718 652
22.59191 615
22.61203 656
22.63214 601
22.65225 615
22.67237 616
22.69248 565
22.7126 656
22.73271 674
22.75282 639
22.77294 671
22.79305 575
22.81316 633
22.83328 694
22.85339 661
22.87351 584
22.89362 658
22.91373 657
22.93385 644
22.95396 646
22.97407 655
22.99419 640
23.0143 634
23.03442 600
23.05453 646
23.07464 642
23.09476 644
23.11487 625
23.13498 615
23.1551 653
23.17521 639
23.19532 636
23.21544 633
23.23555 670
23.25567 672
23.27578 662
23.29589 643
23.31601 637
23.33612 622
23.35623 655
23.37635 653
23.39646 614
23.41658 603
23.43669 661
23.4568 684
23.47692 676
23.49703 688
23.51714 700
23.53726 723
23.55737 709
23.57749 765
23.5976 808
23.61771 733
23.63783 726
23.65794 717
23.67805 694
23.69817 688
23.71828 697
23.73839 655
23.75851 649
23.77862 683
23.79874 648
23.81885 625
23.83896 689
23.85908 723
23.87919 712
23.8993 687
23.91942 696
23.93953 707
23.95965 750
23.97976 704
23.99987 720
24.01999 686
24.0401 662
24.06021 670
24.08033 721
24.10044 682
24.12056 670
24.14067 678
24.16078 640
24.1809 710
24.20101 687
24.22112 645
24.24124 696
24.26135 735
24.28146 701
24.30158 703
24.32169 733
24.34181 675
24.36192 704
24.38203 702
24.40215 707
24.42226 722
24.44237 718
24.46249 731
24.4826 698
24.50272 722
24.52283 716
24.54294 731
24.56306 708
24.58317 726
24.60328 689
24.6234 715
24.64351 734
24.66362 718
24.68374 695
24.70385 699
24.72397 710
24.74408 691
24.76419 690
24.78431 690
24.80442 661
24.82453 733
24.84465 712
24.86476 667
24.88488 709
24.90499 625
24.9251 685
24.94522 659
24.96533 652
24.98544 713
25.00556 690
25.02567 673
25.04579 666
25.0659 621
25.08601 672
25.10613 694
25.12624 691
25.14635 691
25.16647 700
25.18658 677
25.20669 703
25.22681 649
25.24692 656
25.26704 693
25.28715 671
25.30726 624
25.32738 630
25.34749 644
25.3676 659
25.38772 638
25.40783 639
25.42795 685
25.44806 629
25.46817 679
25.48829 651
25.5084 690
25.52851 721
25.54863 721
25.56874 673
25.58886 735
25.60897 729
25.62908 714
25.6492 678
25.66931 730
25.68942 679
25.70954 679
25.72965 614
25.74976 678
25.76988 650
25.78999 616
25.81011 666
25.83022 674
25.85033 615
25.87045 663
25.89056 657
25.91067 659
25.93079 623
25.9509 614
25.97102 594
25.99113 649
26.01124 639
26.03136 631
26.05147 661
26.07158 652
26.0917 603
26.11181 647
26.13193 654
26.15204 656
26.17215 688
26.19227 674
26.21238 671
26.23249 693
26.25261 733
26.27272 765
26.29283 722
26.31295 761
26.33306 718
26.35318 757
26.37329 750
26.3934 774
26.41352 779
26.43363 794
26.45374 828
26.47386 919
26.49397 1045
26.51409 1308
26.5342 1525
26.55431 2004
26.57443 2754
26.59454 3335
26.61465 3538
26.63477 3531
26.65488 3546
26.67499 2884
26.69511 2328
26.71522 1759
26.73534 1457
26.75545 1097
26.77556 900
26.79568 852
26.81579 804
26.8359 754
26.85602 770
26.87613 728
26.89625 785
26.91636 773
26.93647 739
26.95659 771
26.9767 742
26.99681 740
27.01693 783
27.03704 694
27.05716 761
27.07727 768
27.09738 776
27.1175 751
27.13761 761
27.15772 750
27.17784 759
27.19795 626
27.21806 642
27.23818 637
27.25829 626
27.27841 647
27.29852 630
27.31863 642
27.33875 687
27.35886 658
27.37897 673
27.39909 767
27.4192 776
27.43932 814
27.45943 813
27.47954 748
27.49966 845
27.51977 804
27.53988 809
27.56 757
27.58011 753
27.60023 734
27.62034 682
27.64045 663
27.66057 782
27.68068 723
27.70079 801
27.72091 776
27.74102 865
27.76113 864
27.78125 828
27.80136 809
27.82148 801
27.84159 785
27.8617 774
27.88182 788
27.90193 786
27.92204 805
27.94216 821
27.96227 834
27.98239 849
28.0025 751
28.02261 754
28.04273 714
28.06284 704
28.08295 683
28.10307 625
28.12318 604
28.1433 632
28.16341 656
28.18352 600
28.20364 679
28.22375 695
28.24386 659
28.26398 606
28.28409 605
28.3042 633
28.32432 631
28.34443 655
28.36455 604
28.38466 607
28.40477 643
28.42489 652
28.445 681
28.46511 694
28.48523 625
28.50534 676
28.52546 689
28.54557 562
28.56568 616
28.5858 590
28.60591 609
28.62602 569
28.64614 587
28.66625 601
28.68636 594
28.70648 555
28.72659 571
28.74671 627
28.76682 609
28.78693 602
28.80705 564
28.82716 607
28.84727 592
28.86739 577
28.8875 592
28.90762 604
28.92773 566
28.94784 590
28.96796 555
28.98807 599
29.00818 580
29.0283 551
29.04841 568
29.06853 561
29.08864 597
29.10875 602
29.12887 582
29.14898 562
29.16909 619
29.18921 591
29.20932 605
29.22943 575
29.24955 592
29.26966 544
29.28978 554
29.30989 536
29.33 584
29.35012 582
29.37023 624
29.39034 575
29.41046 604
29.43057 579
29.45069 584
29.4708 600
29.49091 535
29.51103 563
29.53114 615
29.55125 656
29.57137 617
29.59148 579
29.6116 596
29.63171 602
29.65182 646
29.67194 619
29.69205 680
29.71216 632
29.73228 700
29.75239 733
29.7725 770
29.79262 793
29.81273 771
29.83285 862
29.85296 848
29.87307 938
29.89319 987
29.9133 975
29.93341 1027
29.95353 1011
29.97364 963
29.99376 945
30.01387 884
30.03398 836
30.0541 839
30.07421 768
30.09432 756
30.11444 750
30.13455 755
30.15467 674
30.17478 629
30.19489 705
30.21501 652
30.23512 701
30.25523 688
30.27535 680
30.29546 726
30.31557 729
30.33569 724
30.3558 664
30.37592 701
30.39603 655
30.41614 653
30.43626 696
30.45637 677
30.47648 665
30.4966 635
30.51671 651
30.53683 638
30.55694 627
30.57705 582
30.59717 634
30.61728 604
30.63739 580
30.65751 597
30.67762 632
30.69773 597
30.71785 640
30.73796 608
30.75808 643
30.77819 608
30.7983 637
30.81842 658
30.83853 602
30.85864 622
30.87876 657
30.89887 637
30.91899 604
30.9391 583
30.95921 590
30.97933 565
30.99944 612
31.01955 567
31.03967 600
31.05978 559
31.0799 563
31.10001 629
31.12012 516
31.14024 597
31.16035 582
31.18046 535
31.20058 537
31.22069 578
31.2408 558
31.26092 573
31.28103 602
31.30115 588
31.32126 591
31.34137 566
31.36149 600
31.3816 584
31.40171 588
31.42183 593
31.44194 599
31.46206 565
31.48217 529
31.50228 560
31.5224 590
31.54251 619
31.56262 591
31.58274 607
31.60285 569
31.62297 580
31.64308 581
31.66319 613
31.68331 592
31.70342 527
31.72353 599
31.74365 606
31.76376 545
31.78387 602
31.80399 607
31.8241 569
31.84422 661
31.86433 596
31.88444 567
31.90456 634
31.92467 583
31.94478 593
31.9649 558
31.98501 572
32.00513 598
32.02524 601
32.04535 580
32.06547 616
32.08558 564
32.10569 597
32.12581 590
32.14592 611
32.16604 574
32.18615 634
32.20626 575
32.22638 609
32.24649 542
32.2666 576
32.28672 595
32.30683 581
32.32694 615
32.34706 615
32.36717 627
32.38729 607
32.4074 619
32.42751 657
32.44763 630
32.46774 589
32.48785 599
32.50797 620
32.52808 570
32.5482 578
32.56831 578
32.58842 612
32.60854 612
32.62865 576
32.64876 572
32.66888 563
32.68899 623
32.7091 628
32.72922 611
32.74933 579
32.76945 559
32.78956 594
32.80967 636
32.82979 618
32.8499 617
32.87001 608
32.89013 590
32.91024 613
32.93036 592
32.95047 634
32.97058 641
32.9907 701
33.01081 646
33.03092 704
33.05104 656
33.07115 621
33.09127 633
33.11138 690
33.13149 657
33.15161 622
33.17172 641
33.19183 603
33.21195 598
33.23206 594
33.25217 595
33.27229 613
33.2924 559
33.31252 561
33.33263 599
33.35274 588
33.37286 568
33.39297 574
33.41308 560
33.4332 584
33.45331 575
33.47343 577
33.49354 588
33.51365 539
33.53377 550
33.55388 588
33.57399 566
33.59411 577
33.61422 579
33.63434 562
33.65445 587
33.67456 575
33.69468 538
33.71479 584
33.7349 608
33.75502 565
33.77513 598
33.79524 583
33.81536 607
33.83547 581
33.85559 593
33.8757 599
33.89581 560
33.91593 581
33.93604 575
33.95615 596
33.97627 568
33.99638 575
34.0165 572
34.03661 595
34.05672 567
34.07684 641
34.09695 628
34.11706 593
34.13718 646
34.15729 587
34.17741 594
34.19752 652
34.21763 606
34.23775 647
34.25786 652
34.27797 626
34.29809 617
34.3182 644
34.33831 593
34.35843 655
34.37854 627
34.39866 703
34.41877 670
34.43888 682
34.459 715
34.47911 664
34.49922 649
34.51934 654
34.53945 666
34.55957 671
34.57968 634
34.59979 650
34.61991 682
34.64002 628
34.66013 650
34.68025 649
34.70036 676
34.72047 668
34.74059 651
34.7607 688
34.78082 724
34.80093 710
34.82104 737
34.84116 750
34.86127 731
34.88138 838
34.9015 799
34.92161 809
34.94173 792
34.96184 864
34.98195 826
35.00207 849
35.02218 851
35.04229 889
35.06241 945
35.08252 998
35.10264 1014
35.12275 1073
35.14286 1200
35.16298 1267
35.18309 1377
35.2032 1485
35.22332 1618
35.24343 1765
35.26354 1823
35.28366 1707
35.30377 1751
35.32389 1692
35.344 1608
35.36411 1531
35.38423 1399
35.40434 1371
35.42445 1241
35.44457 1166
35.46468 1172
35.4848 1098
35.50491 1058
35.52502 1036
35.54514 1032
35.56525 929
35.58536 970
35.60548 954
35.62559 899
35.64571 908
35.66582 814
35.68593 784
35.70605 793
35.72616 775
35.74627 776
35.76639 805
35.7865 761
35.80661 775
35.82673 725
35.84684 710
35.86696 694
35.88707 741
35.90718 715
35.9273 643
35.94741 675
35.96752 686
35.98764 787
36.00775 701
36.02787 712
36.04798 688
36.06809 719
36.08821 690
36.10832 675
36.12843 601
36.14855 728
36.16866 704
36.18878 696
36.20889 655
36.229 669
36.24912 666
36.26923 667
36.28934 666
36.30946 672
36.32957 739
36.34968 699
36.3698 678
36.38991 659
36.41003 700
36.43014 720
36.45025 750
36.47037 782
36.49048 811
36.51059 813
36.53071 898
36.55082 863
36.57094 787
36.59105 785
36.61116 768
36.63128 715
36.65139 738
36.6715 666
36.69162 708
36.71173 674
36.73184 696
36.75196 694
36.77207 651
36.79219 659
36.8123 663
36.83241 625
36.85253 640
36.87264 741
36.89275 658
36.91287 671
36.93298 708
36.9531 695
36.97321 660
36.99332 688
37.01344 670
37.03355 701
37.05366 681
37.07378 642
37.09389 660
37.11401 645
37.13412 693
37.15423 649
37.17435 657
37.19446 623
37.21457 635
37.23469 653
37.2548 627
37.27491 656
37.29503 650
37.31514 649
37.33526 620
37.35537 680
37.37548 656
37.3956 642
37.41571 623
37.43582 649
37.45594 625
37.47605 600
37.49617 657
37.51628 694
37.53639 672
37.55651 653
37.57662 645
37.59673 682
37.61685 631
37.63696 683
37.65708 647
37.67719 633
37.6973 630
37.71742 650
37.73753 645
37.75764 640
37.77776 664
37.79787 647
37.81798 627
37.8381 634
37.85821 601
37.87833 626
37.89844 634
37.91855 634
37.93867 646
37.95878 608
37.97889 648
37.99901 626
38.01912 614
38.03924 612
38.05935 653
38.07946 638
38.09958 675
38.11969 649
38.1398 635
38.15992 642
38.18003 687
38.20015 670
38.22026 610
38.24037 664
38.26049 690
38.2806 696
38.30071 647
38.32083 651
38.34094 684
38.36105 685
38.38117 659
38.40128 653
38.4214 672
38.44151 565
38.46162 629
38.48174 635
38.50185 663
38.52196 613
38.54208 618
38.56219 644
38.58231 659
38.60242 648
38.62253 666
38.64265 664
38.66276 661
38.68287 641
38.70299 660
38.7231 647
38.74321 631
38.76333 615
38.78344 640
38.80356 605
38.82367 588
38.84378 566
38.8639 600
38.88401 643
38.90412 613
38.92424 647
38.94435 604
38.96447 635
38.98458 636
39.00469 642
39.02481 638
39.04492 602
39.06503 616
39.08515 667
39.10526 591
39.12538 633
39.14549 612
39.1656 641
39.18572 617
39.20583 608
39.22594 592
39.24606 677
39.26617 598
39.28628 642
39.3064 627
39.32651 610
39.34663 646
39.36674 748
39.38685 710
39.40697 734
39.42708 728
39.44719 772
39.46731 763
39.48742 798
39.50754 734
39.52765 725
39.54776 701
39.56788 680
39.58799 586
39.6081 590
39.62822 642
39.64833 571
39.66845 644
39.68856 610
39.70867 585
39.72879 612
39.7489 618
39.76901 588
39.78913 619
39.80924 611
39.82935 607
39.84947 599
39.86958 562
39.8897 597
39.90981 591
39.92992 591
39.95004 593
39.97015 583
39.99026 609
40.01038 553
40.03049 615
40.05061 608
40.07072 586
40.09083 570
40.11095 585
40.13106 657
40.15117 695
40.17129 655
40.1914 653
40.21152 652
40.23163 658
40.25174 646
40.27186 685
40.29197 707
40.31208 674
40.3322 633
40.35231 668
40.37242 669
40.39254 689
40.41265 625
40.43277 618
40.45288 613
40.47299 595
40.49311 622
40.51322 604
40.53333 587
40.55345 574
40.57356 597
40.59368 595
40.61379 646
40.6339 576
40.65402 604
40.67413 543
40.69424 616
40.71436 549
40.73447 631
40.75458 606
40.7747 590
40.79481 588
40.81493 595
40.83504 598
40.85515 660
40.87527 624
40.89538 594
40.91549 570
40.93561 594
40.95572 593
40.97584 592
40.99595 555
41.01606 582
41.03618 587
41.05629 607
41.0764 660
41.09652 606
41.11663 579
41.13675 582
41.15686 572
41.17697 593
41.19709 574
41.2172 630
41.23731 591
41.25743 576
41.27754 602
41.29765 579
41.31777 555
41.33788 549
41.358 536
41.37811 584
41.39822 567
41.41834 600
41.43845 581
41.45856 538
41.47868 598
41.49879 577
41.51891 625
41.53902 620
41.55913 574
41.57925 600
41.59936 593
41.61947 592
41.63959 614
41.6597 623
41.67982 603
41.69993 670
41.72004 614
41.74016 595
41.76027 566
41.78038 598
41.8005 665
41.82061 584
41.84072 607
41.86084 564
41.88095 603
41.90107 601
41.92118 570
41.94129 609
41.96141 579
41.98152 553
42.00163 586
42.02175 590
42.04186 629
42.06198 602
42.08209 581
42.1022 596
42.12232 554
42.14243 570
42.16254 591
42.18266 534
42.20277 619
42.22289 569
42.243 573
42.26311 594
42.28323 628
42.30334 652
42.32345 646
42.34357 694
42.36368 638
42.38379 737
42.40391 721
42.42402 724
42.44414 703
42.46425 655
42.48436 639
42.50448 652
42.52459 644
42.5447 640
42.56482 629
42.58493 630
42.60505 620
42.62516 619
42.64527 609
42.66539 620
42.6855 638
42.70561 639
42.72573 651
42.74584 693
42.76595 692
42.78607 719
42.80618 724
42.8263 795
42.84641 763
42.86652 734
42.88664 757
42.90675 745
42.92686 729
42.94698 781
42.96709 763
42.98721 668
43.00732 686
43.02743 652
43.04755 686
43.06766 678
43.08777 654
43.10789 660
43.128 643
43.14812 663
43.16823 622
43.18834 606
43.20846 614
43.22857 568
43.24868 565
43.2688 566
43.28891 551
43.30902 546
43.32914 585
43.34925 582
43.36937 569
43.38948 607
43.40959 585
43.42971 555
43.44982 547
43.46993 575
43.49005 546
43.51016 568
43.53028 556
43.55039 568
43.5705 575
43.59062 547
43.61073 544
43.63084 556
43.65096 545
43.67107 593
43.69119 562
43.7113 560
43.73141 542
43.75153 579
43.77164 571
43.79175 572
43.81187 558
43.83198 573
43.85209 553
43.87221 535
43.89232 539
43.91244 568
43.93255 525
43.95266 555
43.97278 608
43.99289 526
44.013 573
44.03312 575
44.05323 574
44.07335 556
44.09346 569
44.11357 564
44.13369 579
44.1538 573
44.17391 543
44.19403 553
44.21414 576
44.23426 559
44.25437 551
44.27448 611
44.2946 557
44.31471 551
44.33482 545
44.35494 568
44.37505 558
44.39516 562
44.41528 585
44.43539 563
44.45551 566
44.47562 565
44.49573 566
44.51585 568
44.53596 550
44.55607 602
44.57619 554
44.5963 592
44.61642 565
44.63653 566
44.65664 553
44.67676 511
44.69687 551
44.71698 579
44.7371 576
44.75721 577
44.77732 583
44.79744 581
44.81755 600
44.83767 588
44.85778 546
44.87789 595
44.89801 571
44.91812 569
44.93823 592
44.95835 551
44.97846 575
44.99858 520
45.01869 563
45.0388 554
45.05892 576
45.07903 551
45.09914 543
45.11926 587
45.13937 546
45.15949 568
45.1796 563
45.19971 578
45.21983 548
45.23994 554
45.26005 563
45.28017 573
45.30028 553
45.32039 543
45.34051 582
45.36062 531
45.38074 618
45.40085 598
45.42096 577
45.44108 557
45.46119 558
45.4813 560
45.50142 564
45.52153 564
45.54165 589
45.56176 557
45.58187 570
45.60199 567
45.6221 581
45.64221 582
45.66233 550
45.68244 610
45.70256 597
45.72267 651
45.74278 595
45.7629 637
45.78301 672
45.80312 631
45.82324 607
45.84335 585
45.86346 569
45.88358 595
45.90369 608
45.92381 606
45.94392 544
45.96403 619
45.98415 562
46.00426 556
46.02437 581
46.04449 543
46.0646 562
46.08472 517
46.10483 585
46.12494 506
46.14506 582
46.16517 545
46.18528 533
46.2054 581
46.22551 578
46.24563 552
46.26574 564
46.28585 562
46.30597 569
46.32608 546
46.34619 534
46.36631 600
46.38642 511
46.40653 515
46.42665 509
46.44676 553
46.46688 552
46.48699 510
46.5071 545
46.52722 533
46.54733 558
46.56744 539
46.58756 509
46.60767 556
46.62779 557
46.6479 557
46.66801 552
46.68813 597
46.70824 537
46.72835 543
46.74847 522
46.76858 537
46.78869 575
46.80881 494
46.82892 521
46.84904 544
46.86915 596
46.88926 571
46.90938 526
46.92949 521
46.9496 577
46.96972 517
46.98983 555
47.00995 575
47.03006 562
47.05017 566
47.07029 540
47.0904 558
47.11051 565
47.13063 546
47.15074 564
47.17086 564
47.19097 572
47.21108 554
47.2312 577
47.25131 561
47.27142 599
47.29154 563
47.31165 548
47.33176 538
47.35188 568
47.37199 519
47.39211 572
47.41222 548
47.43233 628
47.45245 592
47.47256 552
47.49267 565
47.51279 542
47.5329 594
47.55302 571
47.57313 595
47.59324 560
47.61336 561
47.63347 566
47.65358 537
47.6737 533
47.69381 580
47.71393 541
47.73404 524
47.75415 515
47.77427 577
47.79438 561
47.81449 525
47.83461 508
47.85472 566
47.87483 557
47.89495 543
47.91506 495
47.93518 533
47.95529 563
47.9754 509
47.99552 560
48.01563 517
48.03574 530
48.05586 547
48.07597 538
48.09609 557
48.1162 525
48.13631 526
48.15643 520
48.17654 538
48.19665 524
48.21677 544
48.23688 492
48.257 567
48.27711 558
48.29722 589
48.31734 584
48.33745 566
48.35756 558
48.37768 564
48.39779 544
48.4179 557
48.43802 563
48.45813 564
48.47825 545
48.49836 548
48.51847 554
48.53859 537
48.5587 577
48.57881 535
48.59893 541
48.61904 546
48.63916 548
48.65927 562
48.67938 541
48.6995 535
48.71961 560
48.73972 536
48.75984 586
48.77995 533
48.80006 508
48.82018 504
48.84029 550
48.86041 601
48.88052 578
48.90063 512
48.92075 538
48.94086 549
48.96097 556
48.98109 550
49.0012 531
49.02132 508
49.04143 549
49.06154 557
49.08166 593
49.10177 524
49.12188 562
49.142 547
49.16211 557
49.18223 561
49.20234 573
49.22245 518
49.24257 572
49.26268 514
49.28279 553
49.30291 544
49.32302 582
49.34313 564
49.36325 537
49.38336 536
49.40348 569
49.42359 580
49.4437 542
49.46382 544
49.48393 529
49.50404 556
49.52416 509
49.54427 573
49.56439 534
49.5845 541
49.60461 553
49.62473 537
49.64484 552
49.66495 541
49.68507 545
49.70518 531
49.7253 605
49.74541 590
49.76552 572
49.78564 568
49.80575 564
49.82586 583
49.84598 561
49.86609 610
49.8862 557
49.90632 600
49.92643 590
49.94655 602
49.96666 578
49.98677 583
50.00689 590
50.027 660
50.04711 741
50.06723 784
50.08734 831
50.10746 882
50.12757 867
50.14768 750
50.1678 744
50.18791 660
50.20802 690
50.22814 741
50.24825 735
50.26837 699
50.28848 633
50.30859 612
50.32871 576
50.34882 604
50.36893 561
50.38905 545
50.40916 522
50.42927 594
50.44939 513
50.4695 590
50.48962 554
50.50973 578
50.52984 601
50.54996 575
50.57007 503
50.59018 574
50.6103 598
50.63041 621
50.65053 559
50.67064 583
50.69075 566
50.71087 583
50.73098 578
50.75109 586
50.77121 552
50.79132 549
50.81143 556
50.83155 534
50.85166 538
50.87178 530
50.89189 525
50.912 516
50.93212 514
50.95223 529
50.97234 500
50.99246 529
51.01257 541
51.03269 524
51.0528 502
51.07291 540
51.09303 567
51.11314 540
51.13325 545
51.15337 523
51.17348 538
51.1936 521
51.21371 526
51.23382 550
51.25394 503
51.27405 585
51.29416 584
51.31428 568
51.33439 596
51.3545 562
51.37462 545
51.39473 593
51.41485 556
51.43496 560
51.45507 528
51.47519 524
51.4953 538
51.51541 559
51.53553 489
51.55564 523
51.57576 480
51.59587 552
51.61598 577
51.6361 523
51.65621 538
51.67632 515
51.69644 517
51.71655 514
51.73667 539
51.75678 517
51.77689 525
51.79701 525
51.81712 542
51.83723 553
51.85735 575
51.87746 495
51.89757 591
51.91769 520
51.9378 559
51.95792 557
51.97803 520
51.99814 557
52.01826 554
52.03837 541
52.05848 525
52.0786 504
52.09871 557
52.11883 501
52.13894 574
52.15905 561
52.17917 523
52.19928 555
52.21939 554
52.23951 586
52.25962 519
52.27974 533
52.29985 553
52.31996 532
52.34008 546
52.36019 589
52.3803 570
52.40042 557
52.42053 573
52.44064 556
52.46076 538
52.48087 571
52.50099 597
52.5211 540
52.54121 509
52.56133 563
52.58144 538
52.60155 592
52.62167 562
52.64178 536
52.6619 539
52.68201 588
52.70212 539
52.72224 564
52.74235 566
52.76246 552
52.78258 573
52.80269 542
52.8228 575
52.84292 500
52.86303 578
52.88315 536
52.90326 598
52.92337 576
52.94349 558
52.9636 550
52.98371 577
53.00383 605
53.02394 602
53.04406 599
53.06417 566
53.08428 620
53.1044 652
53.12451 633
53.14462 630
53.16474 631
53.18485 624
53.20497 624
53.22508 655
53.24519 635
53.26531 605
53.28542 633
53.30553 634
53.32565 599
53.34576 640
53.36587 621
53.38599 591
53.4061 626
53.42622 611
53.44633 573
53.46644 589
53.48656 625
53.50667 601
53.52678 550
53.5469 518
53.56701 591
53.58713 612
53.60724 594
53.62735 567
53.64747 605
53.66758 553
53.68769 606
53.70781 598
53.72792 579
53.74804 569
53.76815 583
53.78826 595
53.80838 588
53.82849 534
53.8486 567
53.86872 596
53.88883 560
53.90894 532
53.92906 552
53.94917 610
53.96929 601
53.9894 558
54.00951 600
54.02963 620
54.04974 578
54.06985 591
54.08997 571
54.11008 614
54.1302 590
54.15031 639
54.17042 588
54.19054 617
54.21065 603
54.23076 587
54.25088 617
54.27099 544
54.29111 628
54.31122 604
54.33133 601
54.35145 626
54.37156 614
54.39167 579
54.41179 541
54.4319 603
54.45201 606
54.47213 570
54.49224 637
54.51236 591
54.53247 576
54.55258 616
54.5727 630
54.59281 626
54.61292 583
54.63304 541
54.65315 555
54.67327 598
54.69338 576
54.71349 563
54.73361 651
54.75372 623
54.77383 640
54.79395 644
54.81406 666
54.83417 610
54.85429 649
54.8744 673
54.89452 639
54.91463 640
54.93474 611
54.95486 618
54.97497 614
54.99508 672
55.0152 613
55.03531 619
55.05543 610
55.07554 606
55.09565 612
55.11577 587
55.13588 593
55.15599 559
55.17611 613
55.19622 641
55.21634 606
55.23645 585
55.25656 614
55.27668 609
55.29679 601
55.3169 583
55.33702 590
55.35713 598
55.37724 581
55.39736 586
55.41747 633
55.43759 601
55.4577 596
55.47781 575
55.49793 613
55.51804 594
55.53815 573
55.55827 557
55.57838 596
55.5985 593
55.61861 555
55.63872 622
55.65884 567
55.67895 595
55.69906 588
55.71918 586
55.73929 580
55.75941 571
55.77952 562
55.79963 580
55.81975 560
55.83986 530
55.85997 544
55.88009 559
55.9002 555
55.92031 554
55.94043 601
55.96054 566
55.98066 591
56.00077 587
56.02088 572
56.041 526
56.06111 587
56.08122 563
56.10134 580
56.12145 527
56.14157 574
56.16168 573
56.18179 595
56.20191 594
56.22202 587
56.24213 597
56.26225 569
56.28236 547
56.30248 606
56.32259 595
56.3427 588
56.36282 603
56.38293 607
56.40304 591
56.42316 667
56.44327 620
56.46338 635
56.4835 650
56.50361 666
56.52373 721
56.54384 696
56.56395 702
56.58407 732
56.60418 752
56.62429 789
56.64441 752
56.66452 818
56.68464 730
56.70475 745
56.72486 775
56.74498 760
56.76509 770
56.7852 763
56.80532 673
56.82543 730
56.84554 715
56.86566 669
56.88577 705
56.90589 633
56.926 682
56.94611 610
56.96623 622
56.98634 615
57.00645 632
57.02657 649
57.04668 594
57.0668 570
57.08691 613
57.10702 586
57.12714 585
57.14725 619
57.16736 598
57.18748 569
57.20759 587
57.22771 616
57.24782 542
57.26793 601
57.28805 584
57.30816 574
57.32827 544
57.34839 559
57.3685 562
57.38861 518
57.40873 587
57.42884 522
57.44896 558
57.46907 577
57.48918 581
57.5093 574
57.52941 515
57.54952 579
57.56964 526
57.58975 488
57.60987 540
57.62998 534
57.65009 514
57.67021 531
57.69032 539
57.71043 551
57.73055 505
57.75066 542
57.77078 550
57.79089 529
57.811 558
57.83112 533
57.85123 556
57.87134 519
57.89146 525
57.91157 571
57.93168 529
57.9518 550
57.97191 551
57.99203 560
58.01214 545
58.03225 522
58.05237 547
58.07248 561
58.09259 542
58.11271 519
58.13282 520
58.15294 532
58.17305 553
58.19316 537
58.21328 513
58.23339 534
58.2535 555
58.27362 548
58.29373 532
58.31385 540
58.33396 515
58.35407 556
58.37419 564
58.3943 538
58.41441 538
58.43453 510
58.45464 545
58.47475 516
58.49487 547
58.51498 546
58.5351 538
58.55521 561
58.57532 534
58.59544 527
58.61555 585
58.63566 525
58.65578 522
58.67589 512
58.69601 547
58.71612 519
58.73623 561
58.75635 522
58.77646 534
58.79657 559
58.81669 505
58.8368 495
58.85691 551
58.87703 504
58.89714 548
58.91726 535
58.93737 509
58.95748 532
58.9776 517
58.99771 533
59.01782 493
59.03794 532
59.05805 580
59.07817 505
59.09828 517
59.11839 547
59.13851 546
59.15862 517
59.17873 533
59.19885 567
59.21896 529
59.23908 552
59.25919 565
59.2793 517
59.29942 536
59.31953 538
59.33964 547
59.35976 587
59.37987 512
59.39998 531
59.4201 542
59.44021 558
59.46033 515
59.48044 508
59.50055 525
59.52067 519
59.54078 561
59.56089 596
59.58101 543
59.60112 576
59.62124 539
59.64135 523
59.66146 564
59.68158 492
59.70169 533
59.7218 532
59.74192 566
59.76203 565
59.78215 596
59.80226 612
59.82237 644
59.84249 635
59.8626 642
59.88271 703
59.90283 753
59.92294 706
59.94305 712
59.96317 662
59.98328 640
60.0034 618
60.02351 613
60.04362 605
60.06374 668
60.08385 633
60.10396 664
60.12408 611
60.14419 568
60.16431 532
60.18442 489
60.20453 565
60.22465 559
60.24476 541
60.26487 566
60.28499 580
60.3051 552
60.32522 526
60.34533 549
60.36544 582
60.38556 556
60.40567 553
60.42578 578
60.4459 532
60.46601 530
60.48612 580
60.50624 530
60.52635 506
60.54647 524
60.56658 574
60.58669 522
60.60681 575
60.62692 544
60.64703 549
60.66715 577
60.68726 623
60.70738 538
60.72749 554
60.7476 543
60.76772 604
60.78783 545
60.80794 543
60.82806 582
60.84817 535
60.86828 542
60.8884 522
60.90851 512
60.92863 526
60.94874 544
60.96885 575
60.98897 562
61.00908 540
61.02919 579
61.04931 538
61.06942 511
61.08954 527
61.10965 532
61.12976 543
61.14988 541
61.16999 547
61.1901 501
61.21022 556
61.23033 572
61.25045 550
61.27056 572
61.29067 534
61.31079 564
61.3309 547
61.35101 550
61.37113 542
61.39124 547
61.41135 568
61.43147 556
61.45158 554
61.4717 541
61.49181 541
61.51192 600
61.53204 547
61.55215 562
61.57226 543
61.59238 553
61.61249 560
61.63261 588
61.65272 557
61.67283 561
61.69295 576
61.71306 541
61.73317 582
61.75329 563
61.7734 590
61.79352 565
61.81363 640
61.83374 616
61.85386 616
61.87397 575
61.89408 611
61.9142 623
61.93431 656
61.95442 673
61.97454 631
61.99465 677
62.01477 668
62.03488 687
62.05499 718
62.07511 742
62.09522 766
62.11533 756
62.13545 788
62.15556 836
62.17568 792
62.19579 811
62.2159 797
62.23602 820
62.25613 871
62.27624 872
62.29636 827
62.31647 799
62.33659 798
62.3567 786
62.37681 822
62.39693 791
62.41704 779
62.43715 770
62.45727 749
62.47738 739
62.49749 682
62.51761 675
62.53772 675
62.55784 671
62.57795 662
62.59806 665
62.61818 636
62.63829 611
62.6584 630
62.67852 652
62.69863 664
62.71875 603
62.73886 618
62.75897 610
62.77909 572
62.7992 545
62.81931 597
62.83943 644
62.85954 582
62.87965 576
62.89977 601
62.91988 551
62.94 581
62.96011 533
62.98022 614
63.00034 548
63.02045 581
63.04056 605
63.06068 574
63.08079 568
63.10091 576
63.12102 593
63.14113 562
63.16125 578
63.18136 562
63.20147 581
63.22159 529
63.2417 560
63.26182 579
63.28193 592
63.30204 524
63.32216 538
63.34227 563
63.36238 556
63.3825 559
63.40261 563
63.42272 566
63.44284 573
63.46295 565
63.48307 562
63.50318 563
63.52329 591
63.54341 552
63.56352 508
63.58363 573
63.60375 530
63.62386 569
63.64398 521
63.66409 613
63.6842 563
63.70432 546
63.72443 557
63.74454 567
63.76466 542
63.78477 565
63.80489 598
63.825 567
63.84511 607
63.86523 550
63.88534 574
63.90545 573
63.92557 582
63.94568 544
63.96579 578
63.98591 594
64.00602 597
64.02614 597
64.04625 518
64.06636 534
64.08648 555
64.10659 565
64.1267 544
64.14682 516
64.16693 580
64.18705 551
64.20716 561
64.22727 515
64.24739 559
64.2675 548
64.28761 534
64.30773 523
64.32784 560
64.34796 532
64.36807 574
64.38818 532
64.4083 529
64.42841 560
64.44852 548
64.46864 529
64.48875 513
64.50886 555
64.52898 539
64.54909 529
64.56921 495
64.58932 565
64.60943 532
64.62955 574
64.64966 562
64.66977 559
64.68989 514
64.71 512
64.73012 519
64.75023 543
64.77034 549
64.79046 528
64.81057 502
64.83068 494
64.8508 515
64.87091 538
64.89102 490
64.91114 567
64.93125 536
64.95137 532
64.97148 519
64.99159 542
65.01171 524
65.03182 499
65.05193 497
65.07205 541
65.09216 472
65.11228 566
65.13239 494
65.1525 533
65.17262 509
65.19273 506
65.21284 544
65.23296 561
65.25307 488
65.27319 520
65.2933 540
65.31341 522
65.33353 531
65.35364 517
65.37375 509
65.39387 498
65.41398 512
65.43409 531
65.45421 513
65.47432 538
65.49444 494
65.51455 521
65.53466 565
65.55478 525
65.57489 548
65.595 519
65.61512 513
65.63523 529
65.65535 519
65.67546 508
65.69557 565
65.71569 547
65.7358 502
65.75591 509
65.77603 535
65.79614 523
65.81626 512
65.83637 491
65.85648 502
65.8766 546
65.89671 501
65.91682 471
65.93694 528
65.95705 525
65.97716 453
65.99728 500
66.01739 538
66.03751 483
66.05762 512
66.07773 492
66.09785 523
66.11796 547
66.13807 510
66.15819 472
66.1783 526
66.19842 522
66.21853 501
66.23864 477
66.25876 527
66.27887 500
66.29898 510
66.3191 485
66.33921 513
66.35933 507
66.37944 545
66.39955 531
66.41967 502
66.43978 520
66.45989 493
66.48001 507
66.50012 497
66.52023 498
66.54035 524
66.56046 516
66.58058 541
66.60069 580
66.6208 496
66.64092 532
66.66103 516
66.68114 496
66.70126 528
66.72137 485
66.74149 474
66.7616 493
66.78171 526
66.80183 482
66.82194 504
66.84205 521
66.86217 509
66.88228 524
66.90239 514
66.92251 543
66.94262 486
66.96274 499
66.98285 516
67.00296 472
67.02308 509
67.04319 490
67.0633 471
67.08342 504
67.10353 529
67.12365 523
67.14376 487
67.16387 533
67.18399 468
67.2041 524
67.22421 507
67.24433 534
67.26444 510
67.28456 504
67.30467 486
67.32478 505
67.3449 466
67.36501 519
67.38512 475
67.40524 517
67.42535 519
67.44546 479
67.46558 498
67.48569 520
67.50581 498
67.52592 531
67.54603 530
67.56615 538
67.58626 527
67.60637 539
67.62649 558
67.6466 601
67.66672 574
67.68683 615
67.70694 597
67.72706 630
67.74717 582
67.76728 593
67.7874 536
67.80751 607
67.82763 552
67.84774 558
67.86785 545
67.88797 572
67.90808 561
67.92819 569
67.94831 545
67.96842 593
67.98853 529
68.00865 580
68.02876 558
68.04888 681
68.06899 658
68.0891 664
68.10922 676
68.12933 654
68.14944 674
68.16956 587
68.18967 597
68.20979 621
68.2299 610
68.25001 666
68.27013 690
68.29024 632
68.31035 632
68.33047 638
68.35058 581
68.3707 528
68.39081 561
68.41092 572
68.43104 523
68.45115 537
68.47126 573
68.49138 505
68.51149 558
68.5316 511
68.55172 522
68.57183 508
68.59195 500
68.61206 480
68.63217 525
68.65229 545
68.6724 525
68.69251 533
68.71263 496
68.73274 489
68.75286 508
68.77297 462
68.79308 470
68.8132 521
68.83331 510
68.85342 500
68.87354 464
68.89365 482
68.91376 506
68.93388 483
68.95399 500
68.97411 483
68.99422 507
69.01433 505
69.03445 485
69.05456 512
69.07467 510
69.09479 500
69.1149 540
69.13502 515
69.15513 491
69.17524 508
69.19536 522
69.21547 536
69.23558 501
69.2557 524
69.27581 503
69.29593 492
69.31604 485
69.33615 490
69.35627 469
69.37638 482
69.39649 526
69.41661 550
69.43672 495
69.45683 519
69.47695 477
69.49706 468
69.51718 488
69.53729 507
69.5574 501
69.57752 477
69.59763 489
69.61774 485
69.63786 493
69.65797 478
69.67809 475
69.6982 511
69.71831 501
69.73843 495
69.75854 487
69.77865 514
69.79877 465
69.81888 528
69.839 519
69.85911 520
69.87922 513
69.89934 501
69.91945 525
69.93956 533
69.95968 505
69.97979 501
69.9999 488
70.02002 472
70.04013 453
70.06025 492
70.08036 474
70.10047 510
70.12059 547
70.1407 496
70.16081 480
70.18093 482
70.20104 502
70.22116 478
70.24127 478
70.26138 515
70.2815 481
70.30161 489
70.32172 522
70.34184 487
70.36195 476
70.38207 508
70.40218 497
70.42229 514
70.44241 519
70.46252 511
70.48263 505
70.50275 499
70.52286 465
70.54297 529
70.56309 474
70.5832 506
70.60332 508
70.62343 495
70.64354 494
70.66366 523
70.68377 498
70.70388 501
70.724 502
70.74411 482
70.76423 487
70.78434 522
70.80445 491
70.82457 524
70.84468 520
70.86479 475
70.88491 501
70.90502 530
70.92513 537
70.94525 506
70.96536 466
70.98548 527
71.00559 475
71.0257 518
71.04582 485
71.06593 473
71.08604 474
71.10616 478
71.12627 494
71.14639 517
71.1665 485
71.18661 488
71.20673 477
71.22684 486
71.24695 468
71.26707 467
71.28718 508
71.3073 490
71.32741 510
71.34752 480
71.36764 486
71.38775 495
71.40786 508
71.42798 477
71.44809 515
71.4682 499
71.48832 471
71.50843 482
71.52855 502
71.54866 484
71.56877 488
71.58889 486
71.609 485
71.62911 457
71.64923 515
71.66934 514
71.68946 494
71.70957 503
71.72968 514
71.7498 507
71.76991 495
71.79002 516
71.81014 485
71.83025 519
71.85037 489
71.87048 513
71.89059 493
71.91071 485
71.93082 496
71.95093 495
71.97105 526
71.99116 476
72.01127 447
72.03139 487
72.0515 487
72.07162 416
72.09173 485
72.11184 501
72.13196 461
72.15207 498
72.17218 460
72.1923 447
72.21241 475
72.23253 524
72.25264 529
72.27275 472
72.29287 496
72.31298 510
72.33309 480
72.35321 460
72.37332 459
72.39344 478
72.41355 490
72.43366 495
72.45378 485
72.47389 486
72.494 474
72.51412 444
72.53423 472
72.55434 491
72.57446 496
72.59457 451
72.61469 496
72.6348 496
72.65491 448
72.67503 510
72.69514 461
72.71525 528
72.73537 491
72.75548 485
72.7756 466
72.79571 470
72.81582 473
72.83594 493
72.85605 458
72.87616 505
72.89628 459
72.91639 481
72.9365 488
72.95662 525
72.97673 455
72.99685 497
73.01696 498
73.03707 488
73.05719 496
73.0773 505
73.09741 500
73.11753 500
73.13764 465
73.15776 500
73.17787 523
73.19798 503
73.2181 464
73.23821 542
73.25832 535
73.27844 506
73.29855 501
73.31867 486
73.33878 468
73.35889 478
73.37901 510
73.39912 582
73.41923 543
73.43935 555
73.45946 569
73.47957 550
73.49969 530
73.5198 514
73.53992 503
73.56003 537
73.58014 512
73.60026 518
73.62037 551
73.64048 518
73.6606 519
73.68071 520
73.70083 546
73.72094 513
73.74105 534
73.76117 485
73.78128 521
73.80139 525
73.82151 506
73.84162 519
73.86174 511
73.88185 541
73.90196 543
73.92208 550
73.94219 518
73.9623 502
73.98242 511
74.00253 489
74.02264 497
74.04276 493
74.06287 491
74.08299 504
74.1031 470
74.12321 465
74.14333 462
74.16344 475
74.18355 514
74.20367 501
74.22378 473
74.2439 477
74.26401 491
74.28412 469
74.30424 515
74.32435 494
74.34446 507
74.36458 494
74.38469 456
74.40481 473
74.42492 463
74.44503 508
74.46515 482
74.48526 511
74.50537 486
74.52549 489
74.5456 477
74.56571 513
74.58583 489
74.60594 503
74.62606 459
74.64617 468
74.66628 508
74.6864 506
74.70651 504
74.72662 512
74.74674 454
74.76685 497
74.78697 477
74.80708 477
74.82719 485
74.84731 501
74.86742 493
74.88753 461
74.90765 453
74.92776 461
74.94787 499
74.96799 499
74.9881 479
75.00822 463
