3.00117 20609
3.02128 20291
3.0414 19592
3.06151 19020
3.08162 18841
3.10174 17792
3.12185 17630
3.14197 16717
3.16208 16722
3.18219 16326
3.20231 15371
3.22242 15244
3.24253 14590
3.26265 14208
3.28276 14130
3.30288 13414
3.32299 13100
3.3431 12578
3.36322 12522
3.38333 11732
3.40344 11098
3.42356 11186
3.44367 10534
3.46379 10156
3.4839 10064
3.50401 9695
3.52413 9425
3.54424 8849
3.56435 8757
3.58447 8630
3.60458 7788
3.62469 7760
3.64481 7233
3.66492 7277
3.68504 7086
3.70515 6472
3.72526 6319
3.74538 5994
3.76549 5778
3.7856 5733
3.80572 5275
3.82583 5259
3.84595 4901
3.86606 4776
3.88617 4700
3.90629 4295
3.9264 4205
3.94651 4037
3.96663 4049
3.98674 3822
4.00686 3415
4.02697 3419
4.04708 3179
4.0672 3066
4.08731 3113
4.10742 2684
4.12754 2751
4.14765 2593
4.16776 2555
4.18788 2406
4.20799 2220
4.22811 2283
4.24822 2089
4.26833 2026
4.28845 2069
4.30856 1853
4.32867 1912
4.34879 1867
4.3689 1745
4.38902 1808
4.40913 1617
4.42924 1728
4.44936 1602
4.46947 1523
4.48958 1648
4.5097 1445
4.52981 1536
4.54992 1461
4.57004 1417
4.59015 1442
4.61027 1295
4.63038 1262
4.65049 1253
4.67061 1228
4.69072 1260
4.71083 1156
4.73095 1141
4.75106 1110
4.77118 1187
4.79129 1190
4.8114 1038
4.83152 1115
4.85163 1102
4.87174 1096
4.89186 1000
4.91197 945
4.93209 988
4.9522 924
4.97231 1051
4.99243 900
5.01254 882
5.03265 899
5.05277 877
5.07288 845
5.09299 805
5.11311 813
5.13322 783
5.15334 824
5.17345 700
5.19356 762
5.21368 683
5.23379 668
5.2539 645
5.27402 637
5.29413 689
5.31425 692
5.33436 680
5.35447 656
5.37459 657
5.3947 636
5.41481 649
5.43493 621
5.45504 596
5.47516 614
5.49527 565
5.51538 584
5.5355 590
5.55561 594
5.57572 577
5.59584 522
5.61595 514
5.63606 517
5.65618 489
5.67629 515
5.69641 451
5.71652 485
5.73663 518
5.75675 492
5.77686 538
5.79697 470
5.81709 487
5.8372 466
5.85732 435
5.87743 479
5.89754 514
5.91766 450
5.93777 474
5.95788 461
5.978 443
5.99811 443
6.01823 492
6.03834 440
6.05845 406
6.07857 404
6.09868 418
6.11879 427
6.13891 425
6.15902 423
6.17913 431
6.19925 392
6.21936 429
6.23948 432
6.25959 426
6.2797 363
6.29982 429
6.31993 414
6.34004 391
6.36016 393
6.38027 396
6.40039 424
6.4205 374
6.44061 402
6.46073 407
6.48084 366
6.50095 371
6.52107 360
6.54118 409
6.56129 378
6.58141 367
6.60152 345
6.62164 372
6.64175 418
6.66186 386
6.68198 355
6.70209 388
6.7222 370
6.74232 373
6.76243 388
6.78255 372
6.80266 341
6.82277 390
6.84289 363
6.863 320
6.88311 329
6.90323 362
6.92334 362
6.94346 365
6.96357 348
6.98368 370
7.0038 332
7.02391 343
7.04402 361
7.06414 356
7.08425 370
7.10436 363
7.12448 369
7.14459 306
7.16471 365
7.18482 332
7.20493 339
7.22505 348
7.24516 372
7.26527 378
7.28539 317
7.3055 355
7.32562 335
7.34573 341
7.36584 350
7.38596 351
7.40607 340
7.42618 327
7.4463 352
7.46641 306
7.48653 389
7.50664 357
7.52675 318
7.54687 334
7.56698 331
7.58709 301
7.60721 348
7.62732 342
7.64743 351
7.66755 369
7.68766 326
7.70778 335
7.72789 361
7.748 346
7.76812 324
7.78823 325
7.80834 295
7.82846 305
7.84857 323
7.86869 300
7.8888 356
7.90891 345
7.92903 325
7.94914 343
7.96925 352
7.98937 333
8.00948 346
8.0296 349
8.04971 319
8.06982 334
8.08994 327
8.11005 348
8.13016 350
8.15028 298
8.17039 331
8.1905 318
8.21062 359
8.23073 318
8.25085 328
8.27096 318
8.29107 330
8.31119 317
8.3313 334
8.35141 333
8.37153 365
8.39164 360
8.41176 337
8.43187 343
8.45198 360
8.4721 394
8.49221 292
8.51232 315
8.53244 359
8.55255 316
8.57266 329
8.59278 344
8.61289 321
8.63301 316
8.65312 328
8.67323 355
8.69335 320
8.71346 345
8.73357 330
8.75369 328
8.7738 341
8.79392 321
8.81403 340
8.83414 340
8.85426 333
8.87437 327
8.89448 316
8.9146 332
8.93471 322
8.95483 326
8.97494 279
8.99505 308
9.01517 320
9.03528 353
9.05539 327
9.07551 339
9.09562 303
9.11573 360
9.13585 319
9.15596 309
9.17608 303
9.19619 303
9.2163 303
9.23642 349
9.25653 343
9.27664 300
9.29676 321
9.31687 328
9.33699 324
9.3571 299
9.37721 307
9.39733 324
9.41744 328
9.43755 295
9.45767 342
9.47778 329
9.4979 315
9.51801 344
9.53812 350
9.55824 348
9.57835 345
9.59846 304
9.61858 346
9.63869 346
9.6588 340
9.67892 304
9.69903 334
9.71915 337
9.73926 303
9.75937 292
9.77949 319
9.7996 284
9.81971 337
9.83983 308
9.85994 320
9.88006 289
9.90017 340
9.92028 311
9.9404 309
9.96051 325
9.98062 280
10.00074 284
10.02085 356
10.04097 318
10.06108 332
10.08119 325
10.10131 333
10.12142 344
10.14153 332
10.16165 310
10.18176 338
10.20187 299
10.22199 270
10.2421 319
10.26222 347
10.28233 290
10.30244 319
10.32256 317
10.34267 324
10.36278 335
10.3829 294
10.40301 291
10.42313 283
10.44324 318
10.46335 292
10.48347 301
10.50358 312
10.52369 332
10.54381 315
10.56392 301
10.58403 326
10.60415 356
10.62426 286
10.64438 333
10.66449 339
10.6846 328
10.70472 322
10.72483 296
10.74494 333
10.76506 274
10.78517 299
10.80529 332
10.8254 324
10.84551 296
10.86563 348
10.88574 325
10.90585 329
10.92597 338
10.94608 277
10.9662 327
10.98631 303
11.00642 333
11.02654 337
11.04665 310
11.06676 331
11.08688 334
11.10699 293
11.1271 332
11.14722 315
11.16733 304
11.18745 332
11.20756 330
11.22767 300
11.24779 326
11.2679 331
11.28801 303
11.30813 342
11.32824 341
11.34836 325
11.36847 314
11.38858 318
11.4087 325
11.42881 342
11.44892 321
11.46904 335
11.48915 327
11.50927 363
11.52938 319
11.54949 345
11.56961 320
11.58972 324
11.60983 339
11.62995 307
11.65006 325
11.67017 343
11.69029 338
11.7104 374
11.73052 299
11.75063 307
11.77074 321
11.79086 322
11.81097 287
11.83108 337
11.8512 314
11.87131 353
11.89143 363
11.91154 348
11.93165 330
11.95177 317
11.97188 358
11.99199 359
12.01211 307
12.03222 323
12.05234 321
12.07245 298
12.09256 339
12.11268 343
12.13279 360
12.1529 355
12.17302 348
12.19313 351
12.21324 328
12.23336 319
12.25347 312
12.27359 339
12.2937 333
12.31381 335
12.33393 348
12.35404 286
12.37415 322
12.39427 345
12.41438 335
12.4345 300
12.45461 356
12.47472 301
12.49484 309
12.51495 296
12.53506 334
12.55518 294
12.57529 351
12.5954 307
12.61552 325
12.63563 310
12.65575 319
12.67586 318
12.69597 325
12.71609 366
12.7362 297
12.75631 304
12.77643 325
12.79654 302
12.81666 327
12.83677 331
12.85688 279
12.877 298
12.89711 326
12.91722 311
12.93734 281
12.95745 340
12.97757 314
12.99768 304
13.01779 288
13.03791 305
13.05802 343
13.07813 315
13.09825 309
13.11836 295
13.13847 313
13.15859 286
13.1787 283
13.19882 303
13.21893 321
13.23904 328
13.25916 344
13.27927 307
13.29938 334
13.3195 327
13.33961 329
13.35973 313
13.37984 333
13.39995 303
13.42007 270
13.44018 283
13.46029 305
13.48041 318
13.50052 306
13.52064 307
13.54075 325
13.56086 380
13.58098 385
13.60109 371
13.6212 343
13.64132 349
13.66143 335
13.68154 320
13.70166 312
13.72177 304
13.74189 309
13.762 320
13.78211 289
13.80223 320
13.82234 314
13.84245 337
13.86257 329
13.88268 292
13.9028 286
13.92291 276
13.94302 333
13.96314 276
13.98325 303
14.00336 312
14.02348 309
14.04359 277
14.06371 289
14.08382 285
14.10393 269
14.12405 310
14.14416 300
14.16427 287
14.18439 276
14.2045 298
14.22461 276
14.24473 301
14.26484 267
14.28496 292
14.30507 268
14.32518 253
14.3453 274
14.36541 248
14.38552 277
14.40564 250
14.42575 287
14.44587 302
14.46598 264
14.48609 294
14.50621 266
14.52632 277
14.54643 299
14.56655 244
14.58666 281
14.60677 296
14.62689 247
14.647 303
14.66712 272
14.68723 257
14.70734 309
14.72746 269
14.74757 318
14.76768 292
14.7878 282
14.80791 305
14.82803 306
14.84814 296
14.86825 306
14.88837 346
14.90848 301
14.92859 293
14.94871 310
14.96882 323
14.98894 343
15.00905 311
15.02916 345
15.04928 347
15.06939 317
15.0895 316
15.10962 289
15.12973 331
15.14984 306
15.16996 310
15.19007 265
15.21019 287
15.2303 278
15.25041 265
15.27053 272
15.29064 305
15.31075 280
15.33087 279
15.35098 275
15.3711 287
15.39121 284
15.41132 275
15.43144 294
15.45155 280
15.47166 292
15.49178 316
15.51189 280
15.53201 256
15.55212 287
15.57223 271
15.59235 267
15.61246 271
15.63257 283
15.65269 297
15.6728 273
15.69291 272
15.71303 282
15.73314 256
15.75326 254
15.77337 243
15.79348 266
15.8136 261
15.83371 293
15.85382 255
15.87394 240
15.89405 269
15.91417 303
15.93428 273
15.95439 309
15.97451 272
15.99462 271
16.01473 263
16.03485 284
16.05496 265
16.07508 286
16.09519 281
16.1153 262
16.13542 294
16.15553 245
16.17564 260
16.19576 264
16.21587 252
16.23598 269
16.2561 279
16.27621 289
16.29633 292
16.31644 283
16.33655 293
16.35667 251
16.37678 247
16.39689 274
16.41701 267
16.43712 316
16.45724 264
16.47735 300
16.49746 289
16.51758 273
16.53769 265
16.5578 267
16.57792 272
16.59803 279
16.61814 249
16.63826 273
16.65837 268
16.67849 260
16.6986 286
16.71871 275
16.73883 282
16.75894 313
16.77905 283
16.79917 263
16.81928 300
16.8394 270
16.85951 277
16.87962 245
16.89974 276
16.91985 314
16.93996 256
16.96008 300
16.98019 291
17.00031 266
17.02042 280
17.04053 284
17.06065 239
17.08076 298
17.10087 264
17.12099 285
17.1411 279
17.16121 272
17.18133 252
17.20144 274
17.22156 267
17.24167 309
17.26178 275
17.2819 245
17.30201 297
17.32212 279
17.34224 297
17.36235 271
17.38247 263
17.40258 300
17.42269 263
17.44281 268
17.46292 264
17.48303 271
17.50315 273
17.52326 262
17.54338 259
17.56349 248
17.5836 294
17.60372 279
17.62383 278
17.64394 286
17.66406 289
17.68417 285
17.70428 262
17.7244 261
17.74451 267
17.76463 288
17.78474 277
17.80485 258
17.82497 296
17.84508 281
17.86519 264
17.88531 266
17.90542 291
17.92554 254
17.94565 307
17.96576 285
17.98588 246
18.00599 312
18.0261 264
18.04622 289
18.06633 265
18.08645 254
18.10656 301
18.12667 269
18.14679 282
18.1669 268
18.18701 274
18.20713 265
18.22724 298
18.24735 299
18.26747 274
18.28758 261
18.3077 305
18.32781 267
18.34792 304
18.36804 283
18.38815 253
18.40826 269
18.42838 254
18.44849 261
18.46861 257
18.48872 291
18.50883 262
18.52895 302
18.54906 282
18.56917 257
18.58929 301
18.6094 312
18.62951 277
18.64963 264
18.66974 239
18.68986 265
18.70997 286
18.73008 298
18.7502 288
18.77031 273
18.79042 312
18.81054 271
18.83065 284
18.85077 269
18.87088 268
18.89099 252
18.91111 317
18.93122 274
18.95133 252
18.97145 304
18.99156 280
19.01168 289
19.03179 301
19.0519 285
19.07202 305
19.09213 312
19.11224 307
19.13236 302
19.15247 306
19.17258 301
19.1927 307
19.21281 288
19.23293 296
19.25304 286
19.27315 318
19.29327 321
19.31338 352
19.33349 327
19.35361 293
19.37372 320
19.39384 354
19.41395 337
19.43406 317
19.45418 326
19.47429 325
19.4944 339
19.51452 335
19.53463 355
19.55475 412
19.57486 382
19.59497 379
19.61509 355
19.6352 342
19.65531 404
19.67543 370
19.69554 418
19.71565 396
19.73577 447
19.75588 426
19.776 464
19.79611 424
19.81622 476
19.83634 422
19.85645 445
19.87656 430
19.89668 449
19.91679 493
19.93691 444
19.95702 421
19.97713 434
19.99725 451
20.01736 424
20.03747 419
20.05759 435
20.0777 417
20.09782 399
20.11793 402
20.13804 395
20.15816 425
20.17827 408
20.19838 426
20.2185 382
20.23861 441
20.25872 375
20.27884 386
20.29895 437
20.31907 389
20.33918 456
20.35929 463
20.37941 433
20.39952 452
20.41963 450
20.43975 450
20.45986 448
20.47998 425
20.50009 447
20.5202 483
20.54032 496
20.56043 516
20.58054 565
20.60066 493
20.62077 604
20.64088 711
20.661 858
20.68111 956
20.70123 1280
20.72134 1463
20.74145 1861
20.76157 2163
20.78168 2473
20.80179 2605
20.82191 2795
20.84202 2631
20.86214 2269
20.88225 1909
20.90236 1465
20.92248 1225
20.94259 1122
20.9627 995
20.98282 950
21.00293 911
21.02305 857
21.04316 774
21.06327 661
21.08339 593
21.1035 526
21.12361 446
21.14373 450
21.16384 417
21.18395 421
21.20407 439
21.22418 436
21.2443 402
21.26441 437
21.28452 417
21.30464 439
21.32475 416
21.34486 391
21.36498 429
21.38509 402
21.40521 371
21.42532 390
21.44543 366
21.46555 378
21.48566 376
21.50577 386
21.52589 372
21.546 409
21.56612 382
21.58623 372
21.60634 388
21.62646 393
21.64657 354
21.66668 385
21.6868 370
21.70691 367
21.72702 374
21.74714 427
21.76725 410
21.78737 401
21.80748 423
21.82759 362
21.84771 429
21.86782 413
21.88793 440
21.90805 408
21.92816 462
21.94828 464
21.96839 495
21.9885 464
22.00862 471
22.02873 412
22.04884 430
22.06896 412
22.08907 386
22.10919 394
22.1293 342
22.14941 379
22.16953 347
22.18964 379
22.20975 382
22.22987 365
22.24998 382
22.27009 353
22.29021 362
22.31032 365
22.33044 375
22.35055 386
22.37066 417
22.39078 417
22.41089 419
22.431 418
22.45112 427
22.47123 484
22.49135 428
22.51146 439
22.53157 389
22.55169 393
22.5718 419
22.59191 357
22.61203 340
22.63214 381
22.65225 351
22.67237 367
22.69248 337
22.7126 328
22.73271 388
22.75282 358
22.77294 339
22.79305 342
22.81316 369
22.83328 382
22.85339 367
22.87351 343
22.89362 367
22.91373 374
22.93385 383
22.95396 353
22.97407 429
22.99419 423
23.0143 456
23.03442 396
23.05453 405
23.07464 421
23.09476 421
23.11487 403
23.13498 434
23.1551 367
23.17521 423
23.19532 410
23.21544 417
23.23555 397
23.25567 445
23.27578 437
23.29589 484
23.31601 488
23.33612 455
23.35623 551
23.37635 525
23.39646 601
23.41658 585
23.43669 635
23.4568 665
23.47692 686
23.49703 729
23.51714 691
23.53726 728
23.55737 697
23.57749 631
23.5976 563
23.61771 482
23.63783 471
23.65794 475
23.67805 442
23.69817 459
23.71828 450
23.73839 424
23.75851 428
23.77862 391
23.79874 447
23.81885 452
23.83896 430
23.85908 455
23.87919 451
23.8993 419
23.91942 451
23.93953 487
23.95965 460
23.97976 492
23.99987 480
24.01999 440
24.0401 453
24.06021 433
24.08033 432
24.10044 455
24.12056 430
24.14067 462
24.16078 448
24.1809 445
24.20101 461
24.22112 465
24.24124 461
24.26135 472
24.28146 417
24.30158 423
24.32169 433
24.34181 415
24.36192 433
24.38203 429
24.40215 424
24.42226 411
24.44237 410
24.46249 407
24.4826 443
24.50272 456
24.52283 487
24.54294 453
24.56306 451
24.58317 441
24.60328 425
24.6234 458
24.64351 436
24.66362 426
24.68374 410
24.70385 424
24.72397 441
24.74408 422
24.76419 407
24.78431 391
24.80442 404
24.82453 388
24.84465 373
24.86476 469
24.88488 390
24.90499 427
24.9251 436
24.94522 437
24.96533 447
24.98544 435
25.00556 428
25.02567 519
25.04579 464
25.0659 464
25.08601 432
25.10613 507
25.12624 467
25.14635 477
25.16647 489
25.18658 463
25.20669 543
25.22681 516
25.24692 497
25.26704 490
25.28715 529
25.30726 481
25.32738 511
25.34749 439
25.3676 519
25.38772 493
25.40783 500
25.42795 525
25.44806 521
25.46817 571
25.48829 590
25.5084 667
25.52851 660
25.54863 748
25.56874 793
25.58886 715
25.60897 768
25.62908 740
25.6492 735
25.66931 646
25.68942 575
25.70954 553
25.72965 545
25.74976 535
25.76988 536
25.78999 508
25.81011 507
25.83022 538
25.85033 517
25.87045 489
25.89056 540
25.91067 495
25.93079 526
25.9509 511
25.97102 506
25.99113 460
26.01124 480
26.03136 496
26.05147 517
26.07158 557
26.0917 512
26.11181 555
26.13193 553
26.15204 586
26.17215 550
26.19227 585
26.21238 702
26.23249 753
26.25261 767
26.27272 834
26.29283 900
26.31295 971
26.33306 1096
26.35318 1255
26.37329 1466
26.3934 1899
26.41352 2343
26.43363 2948
26.45374 3706
26.47386 4952
26.49397 6116
26.51409 7509
26.5342 8891
26.55431 10143
26.57443 11063
26.59454 11206
26.61465 10421
26.63477 8880
26.65488 7346
26.67499 5491
26.69511 4120
26.71522 2887
26.73534 2122
26.75545 1633
26.77556 1329
26.79568 1341
26.81579 1232
26.8359 1164
26.85602 1125
26.87613 1149
26.89625 1118
26.91636 1077
26.93647 1091
26.95659 1056
26.9767 1024
26.99681 928
27.01693 1009
27.03704 964
27.05716 1054
27.07727 944
27.09738 872
27.1175 803
27.13761 699
27.15772 685
27.17784 702
27.19795 631
27.21806 615
27.23818 668
27.25829 740
27.27841 759
27.29852 822
27.31863 880
27.33875 961
27.35886 998
27.37897 1069
27.39909 1184
27.4192 1259
27.43932 1226
27.45943 1261
27.47954 1140
27.49966 1130
27.51977 1077
27.53988 897
27.56 760
27.58011 759
27.60023 681
27.62034 605
27.64045 594
27.66057 607
27.68068 560
27.70079 592
27.72091 606
27.74102 581
27.76113 554
27.78125 603
27.80136 600
27.82148 557
27.84159 625
27.8617 623
27.88182 611
27.90193 597
27.92204 609
27.94216 594
27.96227 510
27.98239 468
28.0025 464
28.02261 500
28.04273 466
28.06284 446
28.08295 433
28.10307 425
28.12318 433
28.1433 430
28.16341 428
28.18352 417
28.20364 366
28.22375 361
28.24386 381
28.26398 379
28.28409 367
28.3042 405
28.32432 370
28.34443 355
28.36455 335
28.38466 379
28.40477 333
28.42489 359
28.445 382
28.46511 393
28.48523 339
28.50534 319
28.52546 345
28.54557 331
28.56568 369
28.5858 321
28.60591 340
28.62602 331
28.64614 338
28.66625 345
28.68636 349
28.70648 342
28.72659 324
28.74671 350
28.76682 304
28.78693 315
28.80705 351
28.82716 367
28.84727 353
28.86739 330
28.8875 349
28.90762 321
28.92773 319
28.94784 328
28.96796 375
28.98807 401
29.00818 367
29.0283 333
29.04841 359
29.06853 355
29.08864 337
29.10875 367
29.12887 351
29.14898 350
29.16909 333
29.18921 333
29.20932 359
29.22943 324
29.24955 349
29.26966 330
29.28978 349
29.30989 349
29.33 354
29.35012 369
29.37023 362
29.39034 381
29.41046 373
29.43057 386
29.45069 365
29.4708 349
29.49091 385
29.51103 374
29.53114 392
29.55125 435
29.57137 393
29.59148 460
29.6116 461
29.63171 454
29.65182 482
29.67194 569
29.69205 533
29.71216 540
29.73228 565
29.75239 586
29.7725 611
29.79262 616
29.81273 596
29.83285 534
29.85296 530
29.87307 507
29.89319 470
29.9133 478
29.93341 457
29.95353 422
29.97364 433
29.99376 423
30.01387 409
30.03398 452
30.0541 414
30.07421 427
30.09432 412
30.11444 412
30.13455 426
30.15467 381
30.17478 402
30.19489 423
30.21501 381
30.23512 389
30.25523 388
30.27535 397
30.29546 374
30.31557 434
30.33569 393
30.3558 395
30.37592 416
30.39603 396
30.41614 397
30.43626 411
30.45637 429
30.47648 395
30.4966 380
30.51671 348
30.53683 393
30.55694 415
30.57705 380
30.59717 449
30.61728 423
30.63739 460
30.65751 484
30.67762 484
30.69773 512
30.71785 559
30.73796 517
30.75808 527
30.77819 548
30.7983 504
30.81842 499
30.83853 455
30.85864 417
30.87876 368
30.89887 354
30.91899 345
30.9391 358
30.95921 304
30.97933 345
30.99944 332
31.01955 345
31.03967 352
31.05978 312
31.0799 330
31.10001 318
31.12012 340
31.14024 344
31.16035 327
31.18046 336
31.20058 327
31.22069 317
31.2408 343
31.26092 361
31.28103 320
31.30115 314
31.32126 341
31.34137 374
31.36149 358
31.3816 324
31.40171 323
31.42183 313
31.44194 330
31.46206 348
31.48217 330
31.50228 325
31.5224 298
31.54251 328
31.56262 326
31.58274 322
31.60285 337
31.62297 332
31.64308 339
31.66319 357
31.68331 405
31.70342 381
31.72353 425
31.74365 398
31.76376 444
31.78387 443
31.80399 404
31.8241 464
31.84422 414
31.86433 404
31.88444 386
31.90456 371
31.92467 330
31.94478 371
31.9649 359
31.98501 325
32.00513 366
32.02524 354
32.04535 385
32.06547 366
32.08558 420
32.10569 415
32.12581 449
32.14592 462
32.16604 447
32.18615 453
32.20626 462
32.22638 504
32.24649 484
32.2666 507
32.28672 432
32.30683 490
32.32694 457
32.34706 443
32.36717 401
32.38729 406
32.4074 425
32.42751 380
32.44763 382
32.46774 386
32.48785 402
32.50797 393
32.52808 360
32.5482 363
32.56831 369
32.58842 386
32.60854 354
32.62865 329
32.64876 334
32.66888 352
32.68899 335
32.7091 356
32.72922 328
32.74933 362
32.76945 343
32.78956 336
32.80967 401
32.82979 374
32.8499 348
32.87001 390
32.89013 387
32.91024 397
32.93036 428
32.95047 422
32.97058 424
32.9907 453
33.01081 371
33.03092 385
33.05104 441
33.07115 423
33.09127 420
33.11138 349
33.13149 340
33.15161 358
33.17172 352
33.19183 363
33.21195 371
33.23206 307
33.25217 341
33.27229 370
33.2924 314
33.31252 342
33.33263 320
33.35274 309
33.37286 320
33.39297 332
33.41308 331
33.4332 320
33.45331 344
33.47343 329
33.49354 323
33.51365 314
33.53377 324
33.55388 327
33.57399 314
33.59411 323
33.61422 303
33.63434 309
33.65445 310
33.67456 330
33.69468 335
33.71479 351
33.7349 328
33.75502 358
33.77513 337
33.79524 344
33.81536 313
33.83547 308
33.85559 347
33.8757 317
33.89581 364
33.91593 315
33.93604 347
33.95615 337
33.97627 402
33.99638 377
34.0165 359
34.03661 384
34.05672 417
34.07684 368
34.09695 417
34.11706 374
34.13718 385
34.15729 386
34.17741 395
34.19752 434
34.21763 420
34.23775 484
34.25786 435
34.27797 400
34.29809 458
34.3182 443
34.33831 459
34.35843 430
34.37854 421
34.39866 477
34.41877 447
34.43888 409
34.459 434
34.47911 450
34.49922 428
34.51934 392
34.53945 467
34.55957 463
34.57968 454
34.59979 436
34.61991 456
34.64002 483
34.66013 471
34.68025 502
34.70036 533
34.72047 497
34.74059 517
34.7607 541
34.78082 483
34.80093 516
34.82104 526
34.84116 503
34.86127 483
34.88138 470
34.9015 532
34.92161 466
34.94173 455
34.96184 536
34.98195 485
35.00207 487
35.02218 462
35.04229 469
35.06241 476
35.08252 506
35.10264 492
35.12275 494
35.14286 450
35.16298 486
35.18309 483
35.2032 510
35.22332 500
35.24343 447
35.26354 450
35.28366 408
35.30377 436
35.32389 421
35.344 469
35.36411 458
35.38423 475
35.40434 438
35.42445 452
35.44457 520
35.46468 497
35.4848 469
35.50491 500
35.52502 526
35.54514 496
35.56525 492
35.58536 459
35.60548 485
35.62559 472
35.64571 439
35.66582 437
35.68593 415
35.70605 421
35.72616 420
35.74627 426
35.76639 405
35.7865 418
35.80661 420
35.82673 403
35.84684 386
35.86696 392
35.88707 459
35.90718 406
35.9273 426
35.94741 414
35.96752 419
35.98764 433
36.00775 401
36.02787 421
36.04798 425
36.06809 441
36.08821 430
36.10832 400
36.12843 410
36.14855 361
36.16866 424
36.18878 409
36.20889 409
36.229 422
36.24912 417
36.26923 446
36.28934 461
36.30946 525
36.32957 600
36.34968 593
36.3698 672
36.38991 730
36.41003 823
36.43014 954
36.45025 1001
36.47037 1061
36.49048 1007
36.51059 982
36.53071 942
36.55082 765
36.57094 792
36.59105 669
36.61116 593
36.63128 553
36.65139 499
36.6715 414
36.69162 447
36.71173 413
36.73184 386
36.75196 407
36.77207 416
36.79219 384
36.8123 379
36.83241 415
36.85253 393
36.87264 404
36.89275 355
36.91287 398
36.93298 388
36.9531 387
36.97321 373
36.99332 386
37.01344 357
37.03355 405
37.05366 390
37.07378 388
37.09389 418
37.11401 385
37.13412 373
37.15423 360
37.17435 343
37.19446 359
37.21457 361
37.23469 353
37.2548 347
37.27491 349
37.29503 341
37.31514 326
37.33526 323
37.35537 340
37.37548 337
37.3956 357
37.41571 341
37.43582 334
37.45594 361
37.47605 372
37.49617 378
37.51628 348
37.53639 386
37.55651 346
37.57662 357
37.59673 352
37.61685 372
37.63696 343
37.65708 361
37.67719 381
37.6973 368
37.71742 372
37.73753 335
37.75764 339
37.77776 374
37.79787 343
37.81798 320
37.8381 368
37.85821 388
37.87833 398
37.89844 323
37.91855 376
37.93867 339
37.95878 330
37.97889 369
37.99901 312
38.01912 344
38.03924 322
38.05935 324
38.07946 374
38.09958 321
38.11969 315
38.1398 357
38.15992 345
38.18003 364
38.20015 348
38.22026 324
38.24037 316
38.26049 302
38.2806 338
38.30071 346
38.32083 340
38.34094 323
38.36105 331
38.38117 350
38.40128 376
38.4214 325
38.44151 353
38.46162 347
38.48174 352
38.50185 341
38.52196 358
38.54208 358
38.56219 355
38.58231 333
38.60242 366
38.62253 316
38.64265 402
38.66276 354
38.68287 338
38.70299 347
38.7231 348
38.74321 356
38.76333 325
38.78344 352
38.80356 336
38.82367 350
38.84378 302
38.8639 333
38.88401 341
38.90412 343
38.92424 320
38.94435 329
38.96447 339
38.98458 331
39.00469 319
39.02481 337
39.04492 359
39.06503 338
39.08515 349
39.10526 405
39.12538 374
39.14549 375
39.1656 394
39.18572 423
39.20583 492
39.22594 500
39.24606 496
39.26617 564
39.28628 620
39.3064 715
39.32651 773
39.34663 914
39.36674 915
39.38685 945
39.40697 956
39.42708 958
39.44719 842
39.46731 805
39.48742 697
39.50754 639
39.52765 571
39.54776 540
39.56788 465
39.58799 406
39.6081 363
39.62822 344
39.64833 350
39.66845 360
39.68856 370
39.70867 337
39.72879 362
39.7489 358
39.76901 332
39.78913 366
39.80924 329
39.82935 366
39.84947 308
39.86958 366
39.8897 338
39.90981 346
39.92992 318
39.95004 342
39.97015 351
39.99026 379
40.01038 357
40.03049 384
40.05061 407
40.07072 425
40.09083 436
40.11095 489
40.13106 524
40.15117 547
40.17129 607
40.1914 654
40.21152 647
40.23163 639
40.25174 629
40.27186 606
40.29197 554
40.31208 512
40.3322 451
40.35231 418
40.37242 421
40.39254 412
40.41265 366
40.43277 377
40.45288 376
40.47299 336
40.49311 384
40.51322 330
40.53333 338
40.55345 320
40.57356 344
40.59368 345
40.61379 357
40.6339 362
40.65402 309
40.67413 358
40.69424 338
40.71436 316
40.73447 348
40.75458 368
40.7747 352
40.79481 307
40.81493 343
40.83504 379
40.85515 316
40.87527 345
40.89538 320
40.91549 331
40.93561 347
40.95572 375
40.97584 360
40.99595 339
41.01606 366
41.03618 383
41.05629 350
41.0764 344
41.09652 361
41.11663 330
41.13675 363
41.15686 348
41.17697 371
41.19709 363
41.2172 358
41.23731 336
41.25743 360
41.27754 333
41.29765 330
41.31777 317
41.33788 328
41.358 357
41.37811 341
41.39822 323
41.41834 303
41.43845 339
41.45856 365
41.47868 363
41.49879 336
41.51891 387
41.53902 336
41.55913 386
41.57925 384
41.59936 428
41.61947 458
41.63959 435
41.6597 428
41.67982 426
41.69993 400
41.72004 427
41.74016 414
41.76027 429
41.78038 407
41.8005 403
41.82061 367
41.84072 352
41.86084 368
41.88095 353
41.90107 335
41.92118 323
41.94129 323
41.96141 310
41.98152 339
42.00163 360
42.02175 345
42.04186 330
42.06198 327
42.08209 347
42.1022 370
42.12232 383
42.14243 357
42.16254 361
42.18266 405
42.20277 420
42.22289 433
42.243 543
42.26311 509
42.28323 570
42.30334 666
42.32345 762
42.34357 764
42.36368 762
42.38379 785
42.40391 802
42.42402 778
42.44414 658
42.46425 568
42.48436 569
42.50448 567
42.52459 468
42.5447 460
42.56482 412
42.58493 425
42.60505 407
42.62516 360
42.64527 352
42.66539 356
42.6855 319
42.70561 328
42.72573 340
42.74584 353
42.76595 353
42.78607 330
42.80618 330
42.8263 350
42.84641 299
42.86652 301
42.88664 323
42.90675 298
42.92686 289
42.94698 297
42.96709 292
42.98721 307
43.00732 308
43.02743 308
43.04755 266
43.06766 281
43.08777 308
43.10789 294
43.128 305
43.14812 300
43.16823 300
43.18834 300
43.20846 273
43.22857 282
43.24868 298
43.2688 288
43.28891 290
43.30902 305
43.32914 293
43.34925 293
43.36937 266
43.38948 321
43.40959 273
43.42971 285
43.44982 327
43.46993 263
43.49005 293
43.51016 301
43.53028 316
43.55039 313
43.5705 301
43.59062 333
43.61073 301
43.63084 316
43.65096 294
43.67107 316
43.69119 299
43.7113 331
43.73141 289
43.75153 300
43.77164 311
43.79175 310
43.81187 311
43.83198 294
43.85209 309
43.87221 294
43.89232 309
43.91244 286
43.93255 312
43.95266 315
43.97278 283
43.99289 322
44.013 292
44.03312 307
44.05323 312
44.07335 290
44.09346 291
44.11357 308
44.13369 296
44.1538 308
44.17391 289
44.19403 289
44.21414 255
44.23426 272
44.25437 281
44.27448 284
44.2946 274
44.31471 285
44.33482 262
44.35494 279
44.37505 271
44.39516 280
44.41528 274
44.43539 260
44.45551 291
44.47562 292
44.49573 269
44.51585 277
44.53596 293
44.55607 338
44.57619 282
44.5963 288
44.61642 249
44.63653 279
44.65664 303
44.67676 274
44.69687 257
44.71698 262
44.7371 286
44.75721 304
44.77732 275
44.79744 280
44.81755 309
44.83767 296
44.85778 338
44.87789 291
44.89801 315
44.91812 307
44.93823 311
44.95835 331
44.97846 313
44.99858 296
45.01869 302
45.0388 333
45.05892 315
45.07903 313
45.09914 311
45.11926 298
45.13937 311
45.15949 314
45.1796 310
45.19971 316
45.21983 276
45.23994 314
45.26005 325
45.28017 329
45.30028 303
45.32039 317
45.34051 304
45.36062 297
45.38074 304
45.40085 316
45.42096 317
45.44108 319
45.46119 364
45.4813 343
45.50142 340
45.52153 341
45.54165 331
45.56176 382
45.58187 400
45.60199 420
45.6221 486
45.64221 518
45.66233 560
45.68244 543
45.70256 586
45.72267 615
45.74278 622
45.7629 569
45.78301 540
45.80312 502
45.82324 470
45.84335 460
45.86346 453
45.88358 428
45.90369 400
45.92381 381
45.94392 383
45.96403 365
45.98415 331
46.00426 337
46.02437 280
46.04449 305
46.0646 316
46.08472 305
46.10483 284
46.12494 296
46.14506 310
46.16517 288
46.18528 289
46.2054 312
46.22551 299
46.24563 274
46.26574 289
46.28585 290
46.30597 311
46.32608 290
46.34619 271
46.36631 309
46.38642 300
46.40653 276
46.42665 298
46.44676 263
46.46688 288
46.48699 300
46.5071 266
46.52722 277
46.54733 291
46.56744 319
46.58756 286
46.60767 284
46.62779 317
46.6479 330
46.66801 295
46.68813 297
46.70824 301
46.72835 274
46.74847 308
46.76858 287
46.78869 277
46.80881 305
46.82892 291
46.84904 326
46.86915 374
46.88926 293
46.90938 293
46.92949 325
46.9496 313
46.96972 269
46.98983 352
47.00995 309
47.03006 317
47.05017 334
47.07029 304
47.0904 379
47.11051 325
47.13063 326
47.15074 344
47.17086 351
47.19097 331
47.21108 347
47.2312 290
47.25131 307
47.27142 308
47.29154 281
47.31165 323
47.33176 311
47.35188 289
47.37199 305
47.39211 341
47.41222 304
47.43233 348
47.45245 286
47.47256 313
47.49267 322
47.51279 333
47.5329 310
47.55302 301
47.57313 337
47.59324 296
47.61336 318
47.63347 314
47.65358 280
47.6737 267
47.69381 290
47.71393 297
47.73404 300
47.75415 313
47.77427 285
47.79438 314
47.81449 291
47.83461 284
47.85472 310
47.87483 315
47.89495 277
47.91506 321
47.93518 291
47.95529 301
47.9754 308
47.99552 289
48.01563 302
48.03574 320
48.05586 309
48.07597 340
48.09609 338
48.1162 314
48.13631 310
48.15643 319
48.17654 320
48.19665 318
48.21677 282
48.23688 313
48.257 317
48.27711 283
48.29722 300
48.31734 294
48.33745 280
48.35756 303
48.37768 265
48.39779 284
48.4179 301
48.43802 271
48.45813 278
48.47825 290
48.49836 288
48.51847 285
48.53859 293
48.5587 307
48.57881 277
48.59893 293
48.61904 299
48.63916 268
48.65927 307
48.67938 276
48.6995 305
48.71961 302
48.73972 286
48.75984 315
48.77995 292
48.80006 318
48.82018 332
48.84029 281
48.86041 303
48.88052 345
48.90063 332
48.92075 285
48.94086 323
48.96097 333
48.98109 349
49.0012 357
49.02132 368
49.04143 353
49.06154 316
49.08166 340
49.10177 312
49.12188 339
49.142 317
49.16211 331
49.18223 329
49.20234 305
49.22245 307
49.24257 325
49.26268 313
49.28279 342
49.30291 316
49.32302 307
49.34313 323
49.36325 333
49.38336 316
49.40348 338
49.42359 347
49.4437 364
49.46382 419
49.48393 337
49.50404 352
49.52416 359
49.54427 349
49.56439 360
49.5845 350
49.60461 345
49.62473 368
49.64484 362
49.66495 357
49.68507 368
49.70518 375
49.7253 373
49.74541 374
49.76552 405
49.78564 409
49.80575 432
49.82586 481
49.84598 503
49.86609 482
49.8862 605
49.90632 640
49.92643 819
49.94655 804
49.96666 948
49.98677 1048
50.00689 1202
50.027 1235
50.04711 1314
50.06723 1300
50.08734 1268
50.10746 1159
50.12757 1050
50.14768 1022
50.1678 922
50.18791 840
50.20802 785
50.22814 714
50.24825 628
50.26837 575
50.28848 488
50.30859 416
50.32871 411
50.34882 401
50.36893 405
50.38905 431
50.40916 420
50.42927 438
50.44939 414
50.4695 493
50.48962 470
50.50973 441
50.52984 513
50.54996 534
50.57007 495
50.59018 515
50.6103 497
50.63041 488
50.65053 432
50.67064 463
50.69075 457
50.71087 412
50.73098 388
50.75109 394
50.77121 385
50.79132 372
50.81143 349
50.83155 353
50.85166 323
50.87178 347
50.89189 299
50.912 351
50.93212 317
50.95223 321
50.97234 310
50.99246 281
51.01257 287
51.03269 295
51.0528 302
51.07291 319
51.09303 293
51.11314 300
51.13325 312
51.15337 312
51.17348 295
51.1936 280
51.21371 307
51.23382 284
51.25394 295
51.27405 305
51.29416 308
51.31428 300
51.33439 310
51.3545 298
51.37462 285
51.39473 302
51.41485 304
51.43496 296
51.45507 285
51.47519 276
51.4953 308
51.51541 293
51.53553 274
51.55564 277
51.57576 288
51.59587 270
51.61598 273
51.6361 280
51.65621 287
51.67632 266
51.69644 246
51.71655 295
51.73667 302
51.75678 262
51.77689 247
51.79701 293
51.81712 293
51.83723 253
51.85735 301
51.87746 276
51.89757 277
51.91769 299
51.9378 289
51.95792 293
51.97803 281
51.99814 296
52.01826 281
52.03837 250
52.05848 291
52.0786 295
52.09871 312
52.11883 276
52.13894 304
52.15905 292
52.17917 294
52.19928 290
52.21939 294
52.23951 313
52.25962 284
52.27974 277
52.29985 284
52.31996 316
52.34008 296
52.36019 282
52.3803 296
52.40042 299
52.42053 266
52.44064 279
52.46076 302
52.48087 286
52.50099 294
52.5211 289
52.54121 285
52.56133 299
52.58144 270
52.60155 266
52.62167 270
52.64178 295
52.6619 275
52.68201 297
52.70212 290
52.72224 281
52.74235 324
52.76246 298
52.78258 319
52.80269 311
52.8228 280
52.84292 337
52.86303 311
52.88315 317
52.90326 307
52.92337 290
52.94349 308
52.9636 285
52.98371 319
53.00383 326
53.02394 311
53.04406 316
53.06417 387
53.08428 331
53.1044 330
53.12451 354
53.14462 315
53.16474 347
53.18485 356
53.20497 332
53.22508 336
53.24519 340
53.26531 329
53.28542 296
53.30553 330
53.32565 333
53.34576 327
53.36587 319
53.38599 349
53.4061 342
53.42622 358
53.44633 294
53.46644 308
53.48656 300
53.50667 320
53.52678 343
53.5469 321
53.56701 292
53.58713 309
53.60724 291
53.62735 313
53.64747 307
53.66758 317
53.68769 329
53.70781 316
53.72792 317
53.74804 330
53.76815 342
53.78826 311
53.80838 332
53.82849 328
53.8486 327
53.86872 319
53.88883 365
53.90894 352
53.92906 345
53.94917 366
53.96929 341
53.9894 343
54.00951 387
54.02963 400
54.04974 353
54.06985 385
54.08997 353
54.11008 328
54.1302 339
54.15031 349
54.17042 402
54.19054 375
54.21065 392
54.23076 336
54.25088 356
54.27099 365
54.29111 381
54.31122 361
54.33133 346
54.35145 376
54.37156 362
54.39167 344
54.41179 321
54.4319 331
54.45201 341
54.47213 353
54.49224 354
54.51236 357
54.53247 360
54.55258 380
54.5727 377
54.59281 401
54.61292 422
54.63304 471
54.65315 451
54.67327 462
54.69338 501
54.71349 503
54.73361 598
54.75372 563
54.77383 606
54.79395 623
54.81406 619
54.83417 614
54.85429 547
54.8744 517
54.89452 482
54.91463 479
54.93474 439
54.95486 444
54.97497 426
54.99508 408
55.0152 374
55.03531 353
55.05543 375
55.07554 339
55.09565 359
55.11577 384
55.13588 354
55.15599 368
55.17611 387
55.19622 445
55.21634 387
55.23645 424
55.25656 447
55.27668 391
55.29679 396
55.3169 414
55.33702 397
55.35713 373
55.37724 322
55.39736 362
55.41747 327
55.43759 342
55.4577 316
55.47781 303
55.49793 295
55.51804 295
55.53815 309
55.55827 315
55.57838 306
55.5985 293
55.61861 296
55.63872 261
55.65884 305
55.67895 262
55.69906 293
55.71918 278
55.73929 319
55.75941 317
55.77952 294
55.79963 300
55.81975 330
55.83986 276
55.85997 287
55.88009 329
55.9002 300
55.92031 298
55.94043 268
55.96054 310
55.98066 285
56.00077 280
56.02088 257
56.041 298
56.06111 278
56.08122 302
56.10134 280
56.12145 282
56.14157 277
56.16168 269
56.18179 300
56.20191 294
56.22202 286
56.24213 287
56.26225 313
56.28236 309
56.30248 304
56.32259 308
56.3427 284
56.36282 305
56.38293 262
56.40304 335
56.42316 306
56.44327 294
56.46338 302
56.4835 309
56.50361 306
56.52373 324
56.54384 289
56.56395 275
56.58407 310
56.60418 302
56.62429 263
56.64441 300
56.66452 286
56.68464 268
56.70475 281
56.72486 287
56.74498 283
56.76509 244
56.7852 300
56.80532 321
56.82543 281
56.84554 273
56.86566 274
56.88577 292
56.90589 297
56.926 291
56.94611 280
56.96623 281
56.98634 303
57.00645 263
57.02657 290
57.04668 271
57.0668 304
57.08691 266
57.10702 298
57.12714 291
57.14725 288
57.16736 314
57.18748 294
57.20759 294
57.22771 265
57.24782 289
57.26793 314
57.28805 299
57.30816 290
57.32827 304
57.34839 239
57.3685 298
57.38861 304
57.40873 293
57.42884 293
57.44896 246
57.46907 261
57.48918 277
57.5093 252
57.52941 278
57.54952 261
57.56964 289
57.58975 284
57.60987 265
57.62998 308
57.65009 283
57.67021 286
57.69032 280
57.71043 286
57.73055 294
57.75066 296
57.77078 260
57.79089 264
57.811 297
57.83112 274
57.85123 296
57.87134 274
57.89146 265
57.91157 298
57.93168 263
57.9518 288
57.97191 243
57.99203 290
58.01214 261
58.03225 268
58.05237 285
58.07248 267
58.09259 271
58.11271 266
58.13282 272
58.15294 300
58.17305 271
58.19316 292
58.21328 297
58.23339 249
58.2535 255
58.27362 269
58.29373 262
58.31385 294
58.33396 261
58.35407 260
58.37419 284
58.3943 279
58.41441 264
58.43453 284
58.45464 289
58.47475 271
58.49487 273
58.51498 285
58.5351 295
58.55521 313
58.57532 275
58.59544 297
58.61555 267
58.63566 302
58.65578 288
58.67589 281
58.69601 315
58.71612 304
58.73623 265
58.75635 265
58.77646 281
58.79657 298
58.81669 280
58.8368 265
58.85691 290
58.87703 288
58.89714 285
58.91726 281
58.93737 251
58.95748 259
58.9776 273
58.99771 274
59.01782 284
59.03794 279
59.05805 281
59.07817 302
59.09828 276
59.11839 281
59.13851 271
59.15862 273
59.17873 284
59.19885 279
59.21896 311
59.23908 297
59.25919 282
59.2793 264
59.29942 276
59.31953 328
59.33964 267
59.35976 266
59.37987 257
59.39998 285
59.4201 293
59.44021 294
59.46033 320
59.48044 303
59.50055 295
59.52067 341
59.54078 302
59.56089 323
59.58101 325
59.60112 352
59.62124 361
59.64135 382
59.66146 402
59.68158 436
59.70169 492
59.7218 548
59.74192 601
59.76203 636
59.78215 709
59.80226 825
59.82237 843
59.84249 901
59.8626 909
59.88271 866
59.90283 796
59.92294 801
59.94305 789
59.96317 681
59.98328 676
60.0034 649
60.02351 589
60.04362 599
60.06374 518
60.08385 508
60.10396 468
60.12408 391
60.14419 370
60.16431 379
60.18442 323
60.20453 319
60.22465 286
60.24476 322
60.26487 304
60.28499 316
60.3051 330
60.32522 301
60.34533 279
60.36544 303
60.38556 340
60.40567 311
60.42578 275
60.4459 304
60.46601 295
60.48612 262
60.50624 299
60.52635 265
60.54647 281
60.56658 277
60.58669 286
60.60681 284
60.62692 322
60.64703 281
60.66715 297
60.68726 267
60.70738 293
60.72749 260
60.7476 299
60.76772 305
60.78783 280
60.80794 275
60.82806 278
60.84817 261
60.86828 260
60.8884 277
60.90851 275
60.92863 284
60.94874 298
60.96885 284
60.98897 305
61.00908 329
61.02919 300
61.04931 298
61.06942 308
61.08954 289
61.10965 309
61.12976 316
61.14988 292
61.16999 315
61.1901 301
61.21022 263
61.23033 303
61.25045 277
61.27056 293
61.29067 341
61.31079 305
61.3309 301
61.35101 279
61.37113 306
61.39124 287
61.41135 286
61.43147 313
61.45158 321
61.4717 290
61.49181 326
61.51192 319
61.53204 322
61.55215 325
61.57226 339
61.59238 368
61.61249 312
61.63261 326
61.65272 340
61.67283 347
61.69295 326
61.71306 327
61.73317 321
61.75329 375
61.7734 325
61.79352 347
61.81363 332
61.83374 348
61.85386 358
61.87397 369
61.89408 342
61.9142 350
61.93431 362
61.95442 388
61.97454 312
61.99465 331
62.01477 339
62.03488 338
62.05499 322
62.07511 315
62.09522 318
62.11533 328
62.13545 349
62.15556 323
62.17568 331
62.19579 324
62.2159 317
62.23602 292
62.25613 289
62.27624 306
62.29636 309
62.31647 304
62.33659 308
62.3567 295
62.37681 290
62.39693 284
62.41704 317
62.43715 306
62.45727 286
62.47738 342
62.49749 294
62.51761 306
62.53772 293
62.55784 306
62.57795 293
62.59806 323
62.61818 300
62.63829 290
62.6584 305
62.67852 318
62.69863 275
62.71875 302
62.73886 290
62.75897 291
62.77909 283
62.7992 299
62.81931 284
62.83943 328
62.85954 291
62.87965 278
62.89977 299
62.91988 299
62.94 294
62.96011 270
62.98022 303
63.00034 302
63.02045 287
63.04056 287
63.06068 273
63.08079 328
63.10091 307
63.12102 306
63.14113 313
63.16125 297
63.18136 314
63.20147 303
63.22159 269
63.2417 294
63.26182 322
63.28193 287
63.30204 298
63.32216 296
63.34227 268
63.36238 282
63.3825 281
63.40261 283
63.42272 266
63.44284 319
63.46295 288
63.48307 318
63.50318 274
63.52329 286
63.54341 313
63.56352 277
63.58363 310
63.60375 311
63.62386 301
63.64398 318
63.66409 336
63.6842 306
63.70432 299
63.72443 335
63.74454 339
63.76466 320
63.78477 369
63.80489 368
63.825 365
63.84511 410
63.86523 394
63.88534 411
63.90545 439
63.92557 389
63.94568 478
63.96579 418
63.98591 426
64.00602 421
64.02614 394
64.04625 395
64.06636 355
64.08648 361
64.10659 364
64.1267 359
64.14682 382
64.16693 355
64.18705 339
64.20716 299
64.22727 350
64.24739 266
64.2675 309
64.28761 296
64.30773 306
64.32784 295
64.34796 275
64.36807 304
64.38818 306
64.4083 291
64.42841 289
64.44852 277
64.46864 288
64.48875 293
64.50886 274
64.52898 290
64.54909 269
64.56921 273
64.58932 261
64.60943 288
64.62955 271
64.64966 278
64.66977 279
64.68989 285
64.71 278
64.73012 284
64.75023 280
64.77034 287
64.79046 275
64.81057 266
64.83068 302
64.8508 284
64.87091 312
64.89102 292
64.91114 291
64.93125 288
64.95137 281
64.97148 294
64.99159 263
65.01171 275
65.03182 277
65.05193 296
65.07205 295
65.09216 296
65.11228 255
65.13239 277
65.1525 282
65.17262 288
65.19273 307
65.21284 286
65.23296 271
65.25307 280
65.27319 271
65.2933 298
65.31341 284
65.33353 270
65.35364 273
65.37375 285
65.39387 258
65.41398 283
65.43409 241
65.45421 280
65.47432 290
65.49444 256
65.51455 239
65.53466 284
65.55478 267
65.57489 284
65.595 272
65.61512 290
65.63523 315
65.65535 261
65.67546 281
65.69557 292
65.71569 274
65.7358 255
65.75591 272
65.77603 273
65.79614 307
65.81626 287
65.83637 254
65.85648 287
65.8766 299
65.89671 285
65.91682 258
65.93694 253
65.95705 267
65.97716 289
65.99728 250
66.01739 252
66.03751 253
66.05762 260
66.07773 261
66.09785 262
66.11796 274
66.13807 287
66.15819 294
66.1783 291
66.19842 305
66.21853 295
66.23864 290
66.25876 277
66.27887 286
66.29898 287
66.3191 294
66.33921 309
66.35933 274
66.37944 318
66.39955 257
66.41967 289
66.43978 245
66.45989 265
66.48001 245
66.50012 260
66.52023 253
66.54035 285
66.56046 247
66.58058 279
66.60069 268
66.6208 254
66.64092 257
66.66103 264
66.68114 246
66.70126 248
66.72137 247
66.74149 258
66.7616 261
66.78171 246
66.80183 277
66.82194 237
66.84205 267
66.86217 281
66.88228 235
66.90239 249
66.92251 269
66.94262 261
66.96274 281
66.98285 262
67.00296 271
67.02308 283
67.04319 253
67.0633 281
67.08342 298
67.10353 268
67.12365 276
67.14376 282
67.16387 279
67.18399 277
67.2041 273
67.22421 282
67.24433 288
67.26444 270
67.28456 245
67.30467 314
67.32478 334
67.3449 270
67.36501 315
67.38512 329
67.40524 336
67.42535 326
67.44546 383
67.46558 364
67.48569 434
67.50581 421
67.52592 486
67.54603 512
67.56615 543
67.58626 586
67.60637 602
67.62649 631
67.6466 625
67.66672 629
67.68683 645
67.70694 606
67.72706 555
67.74717 539
67.76728 547
67.7874 512
67.80751 536
67.82763 604
67.84774 552
67.86785 564
67.88797 548
67.90808 558
67.92819 641
67.94831 595
67.96842 687
67.98853 687
68.00865 772
68.02876 807
68.04888 789
68.06899 756
68.0891 821
68.10922 717
68.12933 794
68.14944 744
68.16956 720
68.18967 736
68.20979 771
68.2299 737
68.25001 715
68.27013 741
68.29024 634
68.31035 565
68.33047 515
68.35058 449
68.3707 423
68.39081 414
68.41092 385
68.43104 408
68.45115 358
68.47126 356
68.49138 321
68.51149 355
68.5316 325
68.55172 296
68.57183 324
68.59195 308
68.61206 288
68.63217 291
68.65229 270
68.6724 256
68.69251 275
68.71263 291
68.73274 265
68.75286 289
68.77297 270
68.79308 280
68.8132 238
68.83331 245
68.85342 251
68.87354 253
68.89365 294
68.91376 290
68.93388 287
68.95399 253
68.97411 256
68.99422 252
69.01433 257
69.03445 261
69.05456 245
69.07467 242
69.09479 246
69.1149 244
69.13502 246
69.15513 255
69.17524 271
69.19536 240
69.21547 252
69.23558 263
69.2557 263
69.27581 243
69.29593 276
69.31604 276
69.33615 248
69.35627 261
69.37638 256
69.39649 238
69.41661 250
69.43672 269
69.45683 264
69.47695 255
69.49706 260
69.51718 237
69.53729 251
69.5574 253
69.57752 237
69.59763 252
69.61774 276
69.63786 266
69.65797 276
69.67809 257
69.6982 265
69.71831 245
69.73843 255
69.75854 271
69.77865 285
69.79877 250
69.81888 232
69.839 269
69.85911 263
69.87922 272
69.89934 266
69.91945 250
69.93956 232
69.95968 235
69.97979 262
69.9999 244
70.02002 257
70.04013 243
70.06025 237
70.08036 278
70.10047 255
70.12059 232
70.1407 268
70.16081 254
70.18093 260
70.20104 240
70.22116 259
70.24127 252
70.26138 255
70.2815 244
70.30161 232
70.32172 248
70.34184 242
70.36195 234
70.38207 250
70.40218 236
70.42229 247
70.44241 237
70.46252 214
70.48263 229
70.50275 241
70.52286 238
70.54297 238
70.56309 246
70.5832 234
70.60332 241
70.62343 265
70.64354 236
70.66366 257
70.68377 253
70.70388 247
70.724 245
70.74411 262
70.76423 244
70.78434 261
70.80445 261
70.82457 271
70.84468 245
70.86479 233
70.88491 240
70.90502 226
70.92513 251
70.94525 268
70.96536 230
70.98548 228
71.00559 249
71.0257 235
71.04582 222
71.06593 249
71.08604 249
71.10616 215
71.12627 220
71.14639 249
71.1665 212
71.18661 216
71.20673 228
71.22684 245
71.24695 263
71.26707 249
71.28718 260
71.3073 217
71.32741 245
71.34752 232
71.36764 254
71.38775 238
71.40786 269
71.42798 258
71.44809 262
71.4682 271
71.48832 247
71.50843 251
71.52855 255
71.54866 254
71.56877 252
71.58889 260
71.609 235
71.62911 241
71.64923 271
71.66934 259
71.68946 274
71.70957 255
71.72968 271
71.7498 242
71.76991 248
71.79002 255
71.81014 242
71.83025 231
71.85037 229
71.87048 271
71.89059 259
71.91071 275
71.93082 284
71.95093 250
71.97105 263
71.99116 278
72.01127 272
72.03139 251
72.0515 279
72.07162 270
72.09173 235
72.11184 268
72.13196 266
72.15207 266
72.17218 265
72.1923 264
72.21241 266
72.23253 257
72.25264 276
72.27275 251
72.29287 266
72.31298 262
72.33309 287
72.35321 238
72.37332 234
72.39344 242
72.41355 256
72.43366 258
72.45378 263
72.47389 267
72.494 265
72.51412 245
72.53423 241
72.55434 266
72.57446 243
72.59457 233
72.61469 246
72.6348 238
72.65491 267
72.67503 290
72.69514 228
72.71525 241
72.73537 239
72.75548 264
72.7756 225
72.79571 259
72.81582 246
72.83594 270
72.85605 259
72.87616 261
72.89628 263
72.91639 250
72.9365 272
72.95662 256
72.97673 271
72.99685 265
73.01696 266
73.03707 288
73.05719 261
73.0773 265
73.09741 262
73.11753 255
73.13764 293
73.15776 273
73.17787 278
73.19798 296
73.2181 306
73.23821 333
73.25832 336
73.27844 342
73.29855 364
73.31867 369
73.33878 400
73.35889 416
73.37901 369
73.39912 346
73.41923 380
73.43935 351
73.45946 338
73.47957 328
73.49969 324
73.5198 322
73.53992 355
73.56003 354
73.58014 296
73.60026 307
73.62037 357
73.64048 324
73.6606 323
73.68071 269
73.70083 268
73.72094 281
73.74105 242
73.76117 255
73.78128 234
73.80139 267
73.82151 246
73.84162 293
73.86174 268
73.88185 278
73.90196 259
73.92208 271
73.94219 274
73.9623 230
73.98242 275
74.00253 276
74.02264 256
74.04276 261
74.06287 251
74.08299 260
74.1031 287
74.12321 243
74.14333 272
74.16344 256
74.18355 273
74.20367 252
74.22378 254
74.2439 275
74.26401 258
74.28412 238
74.30424 264
74.32435 233
74.34446 252
74.36458 260
74.38469 247
74.40481 228
74.42492 264
74.44503 252
74.46515 265
74.48526 232
74.50537 258
74.52549 243
74.5456 237
74.56571 236
74.58583 253
74.60594 245
74.62606 273
74.64617 264
74.66628 240
74.6864 234
74.70651 237
74.72662 246
74.74674 248
74.76685 239
74.78697 255
74.80708 261
74.82719 265
74.84731 228
74.86742 254
74.88753 254
74.90765 256
74.92776 251
74.94787 254
74.96799 268
74.9881 245
75.00822 240
