3.00117 17656
3.02128 17202
3.0414 16781
3.06151 16373
3.08162 15717
3.10174 15292
3.12185 15009
3.14197 14159
3.16208 14151
3.18219 13415
3.20231 13038
3.22242 12689
3.24253 12545
3.26265 12100
3.28276 11460
3.30288 11241
3.32299 11044
3.3431 10410
3.36322 10184
3.38333 9675
3.40344 9953
3.42356 9225
3.44367 8760
3.46379 8589
3.4839 8129
3.50401 7902
3.52413 7630
3.54424 7166
3.56435 7178
3.58447 6684
3.60458 6611
3.62469 6220
3.64481 5870
3.66492 6032
3.68504 5489
3.70515 5406
3.72526 5121
3.74538 4838
3.76549 4664
3.7856 4495
3.80572 4323
3.82583 4234
3.84595 3981
3.86606 3966
3.88617 3515
3.90629 3511
3.9264 3258
3.94651 3149
3.96663 3144
3.98674 2981
4.00686 2881
4.02697 2725
4.04708 2425
4.0672 2522
4.08731 2365
4.10742 2219
4.12754 2002
4.14765 2050
4.16776 2067
4.18788 1967
4.20799 1951
4.22811 1772
4.24822 1720
4.26833 1825
4.28845 1703
4.30856 1709
4.32867 1506
4.34879 1564
4.3689 1532
4.38902 1552
4.40913 1472
4.42924 1467
4.44936 1337
4.46947 1415
4.48958 1356
4.5097 1314
4.52981 1308
4.54992 1163
4.57004 1188
4.59015 1260
4.61027 1173
4.63038 1116
4.65049 1064
4.67061 1133
4.69072 1052
4.71083 961
4.73095 987
4.75106 885
4.77118 1043
4.79129 981
4.8114 925
4.83152 883
4.85163 845
4.87174 853
4.89186 862
4.91197 787
4.93209 783
4.9522 779
4.97231 804
4.99243 810
5.01254 736
5.03265 757
5.05277 735
5.07288 745
5.09299 695
5.11311 653
5.13322 674
5.15334 651
5.17345 642
5.19356 645
5.21368 604
5.23379 646
5.2539 548
5.27402 573
5.29413 605
5.31425 581
5.33436 579
5.35447 578
5.37459 544
5.3947 510
5.41481 511
5.43493 514
5.45504 499
5.47516 522
5.49527 482
5.51538 466
5.5355 469
5.55561 452
5.57572 464
5.59584 468
5.61595 434
5.63606 420
5.65618 428
5.67629 428
5.69641 388
5.71652 444
5.73663 422
5.75675 406
5.77686 401
5.79697 426
5.81709 410
5.8372 392
5.85732 407
5.87743 371
5.89754 388
5.91766 420
5.93777 375
5.95788 375
5.978 385
5.99811 402
6.01823 379
6.03834 371
6.05845 390
6.07857 397
6.09868 361
6.11879 375
6.13891 377
6.15902 367
6.17913 395
6.19925 378
6.21936 383
6.23948 372
6.25959 356
6.2797 356
6.29982 355
6.31993 333
6.34004 351
6.36016 349
6.38027 348
6.40039 375
6.4205 345
6.44061 319
6.46073 374
6.48084 380
6.50095 328
6.52107 365
6.54118 366
6.56129 333
6.58141 345
6.60152 362
6.62164 342
6.64175 333
6.66186 323
6.68198 364
6.70209 380
6.7222 361
6.74232 330
6.76243 384
6.78255 345
6.80266 330
6.82277 340
6.84289 321
6.863 316
6.88311 348
6.90323 310
6.92334 323
6.94346 309
6.96357 334
6.98368 273
7.0038 375
7.02391 330
7.04402 329
7.06414 320
7.08425 296
7.10436 313
7.12448 298
7.14459 333
7.16471 321
7.18482 320
7.20493 335
7.22505 364
7.24516 331
7.26527 336
7.28539 305
7.3055 281
7.32562 306
7.34573 313
7.36584 366
7.38596 343
7.40607 326
7.42618 337
7.4463 306
7.46641 323
7.48653 293
7.50664 317
7.52675 350
7.54687 322
7.56698 304
7.58709 319
7.60721 321
7.62732 328
7.64743 311
7.66755 300
7.68766 343
7.70778 334
7.72789 303
7.748 302
7.76812 290
7.78823 320
7.80834 306
7.82846 325
7.84857 283
7.86869 287
7.8888 341
7.90891 303
7.92903 320
7.94914 370
7.96925 339
7.98937 344
8.00948 345
8.0296 308
8.04971 302
8.06982 338
8.08994 323
8.11005 330
8.13016 339
8.15028 315
8.17039 312
8.1905 336
8.21062 324
8.23073 318
8.25085 323
8.27096 286
8.29107 313
8.31119 320
8.3313 322
8.35141 321
8.37153 318
8.39164 331
8.41176 309
8.43187 350
8.45198 334
8.4721 299
8.49221 336
8.51232 331
8.53244 347
8.55255 299
8.57266 348
8.59278 306
8.61289 359
8.63301 340
8.65312 326
8.67323 328
8.69335 337
8.71346 337
8.73357 360
8.75369 352
8.7738 357
8.79392 324
8.81403 368
8.83414 329
8.85426 308
8.87437 328
8.89448 362
8.9146 343
8.93471 304
8.95483 322
8.97494 311
8.99505 341
9.01517 293
9.03528 303
9.05539 309
9.07551 295
9.09562 358
9.11573 327
9.13585 329
9.15596 300
9.17608 372
9.19619 288
9.2163 314
9.23642 334
9.25653 339
9.27664 318
9.29676 318
9.31687 321
9.33699 277
9.3571 309
9.37721 310
9.39733 297
9.41744 319
9.43755 293
9.45767 323
9.47778 316
9.4979 333
9.51801 335
9.53812 290
9.55824 306
9.57835 334
9.59846 323
9.61858 320
9.63869 314
9.6588 306
9.67892 311
9.69903 340
9.71915 323
9.73926 343
9.75937 346
9.77949 309
9.7996 341
9.81971 324
9.83983 320
9.85994 338
9.88006 330
9.90017 331
9.92028 320
9.9404 327
9.96051 316
9.98062 362
10.00074 310
10.02085 341
10.04097 300
10.06108 348
10.08119 284
10.10131 303
10.12142 338
10.14153 309
10.16165 330
10.18176 326
10.20187 350
10.22199 340
10.2421 294
10.26222 323
10.28233 334
10.30244 362
10.32256 365
10.34267 372
10.36278 386
10.3829 387
10.40301 394
10.42313 525
10.44324 472
10.46335 517
10.48347 492
10.50358 502
10.52369 443
10.54381 405
10.56392 377
10.58403 331
10.60415 349
10.62426 327
10.64438 334
10.66449 366
10.6846 313
10.70472 341
10.72483 332
10.74494 331
10.76506 305
10.78517 340
10.80529 352
10.8254 338
10.84551 326
10.86563 313
10.88574 324
10.90585 328
10.92597 354
10.94608 321
10.9662 339
10.98631 316
11.00642 354
11.02654 346
11.04665 317
11.06676 350
11.08688 311
11.10699 308
11.1271 344
11.14722 342
11.16733 366
11.18745 337
11.20756 373
11.22767 380
11.24779 330
11.2679 364
11.28801 327
11.30813 337
11.32824 390
11.34836 308
11.36847 328
11.38858 329
11.4087 355
11.42881 332
11.44892 359
11.46904 387
11.48915 383
11.50927 327
11.52938 370
11.54949 350
11.56961 376
11.58972 362
11.60983 390
11.62995 359
11.65006 387
11.67017 403
11.69029 352
11.7104 360
11.73052 406
11.75063 342
11.77074 370
11.79086 361
11.81097 404
11.83108 390
11.8512 433
11.87131 362
11.89143 396
11.91154 396
11.93165 395
11.95177 410
11.97188 462
11.99199 419
12.01211 438
12.03222 428
12.05234 379
12.07245 428
12.09256 459
12.11268 448
12.13279 425
12.1529 416
12.17302 416
12.19313 391
12.21324 394
12.23336 411
12.25347 391
12.27359 414
12.2937 400
12.31381 380
12.33393 380
12.35404 361
12.37415 415
12.39427 351
12.41438 353
12.4345 372
12.45461 364
12.47472 380
12.49484 308
12.51495 347
12.53506 343
12.55518 374
12.57529 364
12.5954 324
12.61552 349
12.63563 323
12.65575 338
12.67586 322
12.69597 301
12.71609 316
12.7362 318
12.75631 322
12.77643 318
12.79654 315
12.81666 320
12.83677 292
12.85688 294
12.877 282
12.89711 278
12.91722 276
12.93734 312
12.95745 311
12.97757 292
12.99768 316
13.01779 284
13.03791 302
13.05802 290
13.07813 315
13.09825 282
13.11836 311
13.13847 276
13.15859 288
13.1787 299
13.19882 312
13.21893 286
13.23904 272
13.25916 262
13.27927 289
13.29938 307
13.3195 311
13.33961 291
13.35973 282
13.37984 261
13.39995 286
13.42007 276
13.44018 302
13.46029 269
13.48041 286
13.50052 279
13.52064 283
13.54075 315
13.56086 343
13.58098 298
13.60109 305
13.6212 321
13.64132 309
13.66143 350
13.68154 303
13.70166 307
13.72177 309
13.74189 281
13.762 322
13.78211 354
13.80223 330
13.82234 346
13.84245 295
13.86257 328
13.88268 309
13.9028 303
13.92291 301
13.94302 289
13.96314 278
13.98325 280
14.00336 260
14.02348 275
14.04359 297
14.06371 295
14.08382 259
14.10393 263
14.12405 303
14.14416 272
14.16427 278
14.18439 292
14.2045 243
14.22461 270
14.24473 249
14.26484 307
14.28496 242
14.30507 262
14.32518 280
14.3453 258
14.36541 264
14.38552 288
14.40564 279
14.42575 259
14.44587 245
14.46598 248
14.48609 273
14.50621 255
14.52632 257
14.54643 260
14.56655 254
14.58666 261
14.60677 251
14.62689 269
14.647 262
14.66712 285
14.68723 270
14.70734 254
14.72746 262
14.74757 264
14.76768 272
14.7878 268
14.80791 261
14.82803 280
14.84814 266
14.86825 265
14.88837 263
14.90848 309
14.92859 289
14.94871 276
14.96882 266
14.98894 264
15.00905 275
15.02916 282
15.04928 318
15.06939 293
15.0895 286
15.10962 253
15.12973 299
15.14984 298
15.16996 255
15.19007 264
15.21019 317
15.2303 258
15.25041 234
15.27053 292
15.29064 290
15.31075 285
15.33087 296
15.35098 237
15.3711 264
15.39121 267
15.41132 267
15.43144 262
15.45155 262
15.47166 237
15.49178 263
15.51189 255
15.53201 254
15.55212 238
15.57223 254
15.59235 286
15.61246 250
15.63257 286
15.65269 275
15.6728 278
15.69291 270
15.71303 264
15.73314 265
15.75326 253
15.77337 281
15.79348 281
15.8136 250
15.83371 269
15.85382 239
15.87394 238
15.89405 252
15.91417 263
15.93428 262
15.95439 264
15.97451 229
15.99462 243
16.01473 247
16.03485 259
16.05496 271
16.07508 225
16.09519 247
16.1153 253
16.13542 232
16.15553 250
16.17564 255
16.19576 229
16.21587 216
16.23598 259
16.2561 249
16.27621 243
16.29633 243
16.31644 235
16.33655 254
16.35667 266
16.37678 256
16.39689 256
16.41701 243
16.43712 262
16.45724 250
16.47735 231
16.49746 258
16.51758 273
16.53769 294
16.5578 264
16.57792 223
16.59803 258
16.61814 255
16.63826 267
16.65837 248
16.67849 223
16.6986 216
16.71871 229
16.73883 260
16.75894 258
16.77905 263
16.79917 241
16.81928 226
16.8394 216
16.85951 244
16.87962 231
16.89974 247
16.91985 260
16.93996 231
16.96008 269
16.98019 273
17.00031 254
17.02042 259
17.04053 227
17.06065 238
17.08076 230
17.10087 245
17.12099 220
17.1411 236
17.16121 233
17.18133 236
17.20144 249
17.22156 246
17.24167 240
17.26178 265
17.2819 268
17.30201 249
17.32212 232
17.34224 250
17.36235 246
17.38247 236
17.40258 262
17.42269 241
17.44281 249
17.46292 268
17.48303 232
17.50315 259
17.52326 222
17.54338 246
17.56349 253
17.5836 262
17.60372 281
17.62383 254
17.64394 261
17.66406 217
17.68417 273
17.70428 243
17.7244 235
17.74451 269
17.76463 245
17.78474 220
17.80485 259
17.82497 279
17.84508 253
17.86519 252
17.88531 282
17.90542 283
17.92554 272
17.94565 277
17.96576 294
17.98588 313
18.00599 308
18.0261 292
18.04622 272
18.06633 262
18.08645 278
18.10656 234
18.12667 250
18.14679 263
18.1669 243
18.18701 247
18.20713 254
18.22724 245
18.24735 258
18.26747 260
18.28758 287
18.3077 291
18.32781 275
18.34792 239
18.36804 275
18.38815 236
18.40826 275
18.42838 266
18.44849 260
18.46861 259
18.48872 283
18.50883 254
18.52895 274
18.54906 260
18.56917 265
18.58929 305
18.6094 257
18.62951 245
18.64963 263
18.66974 250
18.68986 246
18.70997 262
18.73008 282
18.7502 256
18.77031 295
18.79042 303
18.81054 272
18.83065 240
18.85077 282
18.87088 268
18.89099 249
18.91111 271
18.93122 252
18.95133 283
18.97145 255
18.99156 258
19.01168 283
19.03179 272
19.0519 256
19.07202 263
19.09213 259
19.11224 247
19.13236 241
19.15247 256
19.17258 322
19.1927 288
19.21281 307
19.23293 293
19.25304 293
19.27315 298
19.29327 344
19.31338 317
19.33349 314
19.35361 325
19.37372 326
19.39384 320
19.41395 288
19.43406 317
19.45418 315
19.47429 329
19.4944 364
19.51452 372
19.53463 366
19.55475 407
19.57486 362
19.59497 423
19.61509 419
19.6352 389
19.65531 416
19.67543 433
19.69554 481
19.71565 480
19.73577 482
19.75588 504
19.776 531
19.79611 517
19.81622 555
19.83634 577
19.85645 523
19.87656 594
19.89668 583
19.91679 589
19.93691 555
19.95702 585
19.97713 541
19.99725 578
20.01736 541
20.03747 551
20.05759 536
20.0777 529
20.09782 550
20.11793 528
20.13804 555
20.15816 544
20.17827 512
20.19838 490
20.2185 548
20.23861 535
20.25872 519
20.27884 570
20.29895 516
20.31907 505
20.33918 456
20.35929 517
20.37941 523
20.39952 537
20.41963 527
20.43975 522
20.45986 511
20.47998 540
20.50009 528
20.5202 533
20.54032 578
20.56043 543
20.58054 585
20.60066 643
20.62077 664
20.64088 734
20.661 817
20.68111 1022
20.70123 1299
20.72134 1539
20.74145 2068
20.76157 2598
20.78168 3195
20.80179 3490
20.82191 3637
20.84202 3468
20.86214 3065
20.88225 2441
20.90236 1833
20.92248 1344
20.94259 989
20.9627 854
20.98282 750
21.00293 727
21.02305 694
21.04316 705
21.06327 585
21.08339 539
21.1035 523
21.12361 523
21.14373 515
21.16384 501
21.18395 485
21.20407 526
21.22418 432
21.2443 455
21.26441 483
21.28452 463
21.30464 469
21.32475 445
21.34486 456
21.36498 463
21.38509 469
21.40521 467
21.42532 419
21.44543 401
21.46555 448
21.48566 419
21.50577 441
21.52589 398
21.546 400
21.56612 416
21.58623 424
21.60634 484
21.62646 424
21.64657 401
21.66668 406
21.6868 397
21.70691 401
21.72702 444
21.74714 426
21.76725 417
21.78737 415
21.80748 479
21.82759 459
21.84771 535
21.86782 601
21.88793 643
21.90805 716
21.92816 783
21.94828 874
21.96839 799
21.9885 823
22.00862 747
22.02873 604
22.04884 542
22.06896 490
22.08907 442
22.10919 445
22.1293 381
22.14941 389
22.16953 334
22.18964 391
22.20975 366
22.22987 393
22.24998 396
22.27009 403
22.29021 392
22.31032 431
22.33044 391
22.35055 349
22.37066 348
22.39078 404
22.41089 355
22.431 340
22.45112 349
22.47123 371
22.49135 342
22.51146 355
22.53157 350
22.55169 361
22.5718 369
22.59191 338
22.61203 340
22.63214 393
22.65225 328
22.67237 361
22.69248 380
22.7126 384
22.73271 353
22.75282 394
22.77294 411
22.79305 373
22.81316 404
22.83328 401
22.85339 419
22.87351 438
22.89362 411
22.91373 429
22.93385 412
22.95396 417
22.97407 423
22.99419 365
23.0143 353
23.03442 384
23.05453 380
23.07464 362
23.09476 370
23.11487 415
23.13498 413
23.1551 384
23.17521 376
23.19532 402
23.21544 390
23.23555 363
23.25567 392
23.27578 409
23.29589 392
23.31601 334
23.33612 359
23.35623 382
23.37635 384
23.39646 382
23.41658 420
23.43669 419
23.4568 429
23.47692 444
23.49703 500
23.51714 493
23.53726 523
23.55737 555
23.57749 538
23.5976 573
23.61771 542
23.63783 517
23.65794 469
23.67805 433
23.69817 449
23.71828 432
23.73839 418
23.75851 465
23.77862 454
23.79874 501
23.81885 486
23.83896 497
23.85908 559
23.87919 548
23.8993 649
23.91942 633
23.93953 617
23.95965 565
23.97976 512
23.99987 543
24.01999 460
24.0401 436
24.06021 433
24.08033 414
24.10044 397
24.12056 385
24.14067 456
24.16078 459
24.1809 473
24.20101 528
24.22112 534
24.24124 538
24.26135 617
24.28146 550
24.30158 563
24.32169 540
24.34181 509
24.36192 502
24.38203 520
24.40215 503
24.42226 426
24.44237 436
24.46249 396
24.4826 401
24.50272 427
24.52283 387
24.54294 393
24.56306 422
24.58317 435
24.60328 427
24.6234 423
24.64351 426
24.66362 453
24.68374 454
24.70385 464
24.72397 432
24.74408 453
24.76419 439
24.78431 428
24.80442 457
24.82453 443
24.84465 455
24.86476 434
24.88488 472
24.90499 441
24.9251 460
24.94522 458
24.96533 451
24.98544 470
25.00556 453
25.02567 433
25.04579 456
25.0659 425
25.08601 476
25.10613 499
25.12624 492
25.14635 474
25.16647 450
25.18658 439
25.20669 455
25.22681 465
25.24692 457
25.26704 436
25.28715 452
25.30726 503
25.32738 426
25.34749 458
25.3676 447
25.38772 485
25.40783 446
25.42795 503
25.44806 520
25.46817 581
25.48829 558
25.5084 572
25.52851 517
25.54863 575
25.56874 539
25.58886 533
25.60897 502
25.62908 535
25.6492 537
25.66931 499
25.68942 510
25.70954 509
25.72965 510
25.74976 500
25.76988 463
25.78999 475
25.81011 514
25.83022 454
25.85033 474
25.87045 461
25.89056 453
25.91067 482
25.93079 490
25.9509 444
25.97102 468
25.99113 523
26.01124 475
26.03136 546
26.05147 522
26.07158 514
26.0917 541
26.11181 604
26.13193 632
26.15204 654
26.17215 677
26.19227 783
26.21238 750
26.23249 802
26.25261 865
26.27272 822
26.29283 950
26.31295 998
26.33306 1170
26.35318 1283
26.37329 1473
26.3934 1781
26.41352 2163
26.43363 2725
26.45374 3502
26.47386 4713
26.49397 6221
26.51409 8339
26.5342 10868
26.55431 13050
26.57443 14802
26.59454 15554
26.61465 14662
26.63477 13054
26.65488 10684
26.67499 7798
26.69511 5585
26.71522 3805
26.73534 2594
26.75545 1697
26.77556 1370
26.79568 1153
26.81579 932
26.8359 903
26.85602 871
26.87613 780
26.89625 779
26.91636 766
26.93647 722
26.95659 720
26.9767 751
26.99681 715
27.01693 748
27.03704 691
27.05716 686
27.07727 678
27.09738 608
27.1175 605
27.13761 567
27.15772 577
27.17784 552
27.19795 548
27.21806 496
27.23818 494
27.25829 487
27.27841 544
27.29852 527
27.31863 591
27.33875 614
27.35886 694
27.37897 714
27.39909 737
27.4192 700
27.43932 778
27.45943 693
27.47954 692
27.49966 675
27.51977 652
27.53988 535
27.56 575
27.58011 612
27.60023 623
27.62034 670
27.64045 736
27.66057 857
27.68068 935
27.70079 1012
27.72091 1087
27.74102 1188
27.76113 1223
27.78125 1145
27.80136 1161
27.82148 1138
27.84159 1080
27.8617 1098
27.88182 1043
27.90193 1078
27.92204 1080
27.94216 985
27.96227 1018
27.98239 892
28.0025 855
28.02261 695
28.04273 665
28.06284 588
28.08295 505
28.10307 448
28.12318 508
28.1433 477
28.16341 480
28.18352 525
28.20364 516
28.22375 540
28.24386 515
28.26398 520
28.28409 541
28.3042 526
28.32432 512
28.34443 464
28.36455 468
28.38466 463
28.40477 451
28.42489 438
28.445 435
28.46511 424
28.48523 404
28.50534 386
28.52546 387
28.54557 362
28.56568 351
28.5858 342
28.60591 347
28.62602 344
28.64614 314
28.66625 301
28.68636 299
28.70648 345
28.72659 295
28.74671 297
28.76682 295
28.78693 316
28.80705 312
28.82716 298
28.84727 300
28.86739 307
28.8875 324
28.90762 348
28.92773 307
28.94784 308
28.96796 331
28.98807 305
29.00818 300
29.0283 330
29.04841 332
29.06853 320
29.08864 336
29.10875 339
29.12887 288
29.14898 303
29.16909 327
29.18921 310
29.20932 325
29.22943 346
29.24955 304
29.26966 337
29.28978 347
29.30989 339
29.33 309
29.35012 356
29.37023 352
29.39034 364
29.41046 352
29.43057 326
29.45069 380
29.4708 332
29.49091 353
29.51103 319
29.53114 350
29.55125 359
29.57137 351
29.59148 328
29.6116 304
29.63171 376
29.65182 387
29.67194 404
29.69205 395
29.71216 434
29.73228 409
29.75239 419
29.7725 420
29.79262 437
29.81273 398
29.83285 394
29.85296 379
29.87307 417
29.89319 347
29.9133 365
29.93341 347
29.95353 349
29.97364 343
29.99376 301
30.01387 333
30.03398 374
30.0541 306
30.07421 378
30.09432 377
30.11444 392
30.13455 366
30.15467 357
30.17478 448
30.19489 467
30.21501 424
30.23512 483
30.25523 450
30.27535 489
30.29546 462
30.31557 476
30.33569 487
30.3558 506
30.37592 506
30.39603 482
30.41614 480
30.43626 447
30.45637 474
30.47648 426
30.4966 408
30.51671 379
30.53683 369
30.55694 341
30.57705 333
30.59717 304
30.61728 322
30.63739 318
30.65751 320
30.67762 410
30.69773 375
30.71785 357
30.73796 366
30.75808 357
30.77819 395
30.7983 339
30.81842 321
30.83853 327
30.85864 368
30.87876 321
30.89887 339
30.91899 348
30.9391 292
30.95921 332
30.97933 303
30.99944 282
31.01955 292
31.03967 280
31.05978 326
31.0799 284
31.10001 330
31.12012 282
31.14024 300
31.16035 316
31.18046 277
31.20058 300
31.22069 323
31.2408 334
31.26092 328
31.28103 339
31.30115 368
31.32126 399
31.34137 328
31.36149 355
31.3816 366
31.40171 326
31.42183 341
31.44194 324
31.46206 327
31.48217 309
31.50228 308
31.5224 347
31.54251 315
31.56262 339
31.58274 333
31.60285 293
31.62297 313
31.64308 283
31.66319 320
31.68331 309
31.70342 282
31.72353 315
31.74365 290
31.76376 329
31.78387 300
31.80399 294
31.8241 324
31.84422 314
31.86433 288
31.88444 265
31.90456 298
31.92467 303
31.94478 291
31.9649 257
31.98501 295
32.00513 317
32.02524 306
32.04535 285
32.06547 292
32.08558 316
32.10569 311
32.12581 302
32.14592 306
32.16604 281
32.18615 321
32.20626 301
32.22638 305
32.24649 330
32.2666 300
32.28672 292
32.30683 297
32.32694 366
32.34706 312
32.36717 274
32.38729 337
32.4074 308
32.42751 317
32.44763 332
32.46774 331
32.48785 312
32.50797 314
32.52808 305
32.5482 321
32.56831 303
32.58842 299
32.60854 284
32.62865 296
32.64876 300
32.66888 293
32.68899 315
32.7091 300
32.72922 323
32.74933 307
32.76945 342
32.78956 378
32.80967 394
32.82979 334
32.8499 414
32.87001 405
32.89013 431
32.91024 394
32.93036 403
32.95047 399
32.97058 384
32.9907 383
33.01081 340
33.03092 312
33.05104 342
33.07115 341
33.09127 335
33.11138 321
33.13149 305
33.15161 304
33.17172 312
33.19183 332
33.21195 313
33.23206 303
33.25217 298
33.27229 316
33.2924 302
33.31252 303
33.33263 312
33.35274 321
33.37286 273
33.39297 308
33.41308 315
33.4332 308
33.45331 281
33.47343 283
33.49354 293
33.51365 304
33.53377 293
33.55388 296
33.57399 316
33.59411 270
33.61422 328
33.63434 326
33.65445 334
33.67456 319
33.69468 351
33.71479 326
33.7349 360
33.75502 362
33.77513 329
33.79524 355
33.81536 325
33.83547 333
33.85559 337
33.8757 293
33.89581 328
33.91593 311
33.93604 316
33.95615 305
33.97627 312
33.99638 326
34.0165 313
34.03661 291
34.05672 321
34.07684 287
34.09695 332
34.11706 353
34.13718 322
34.15729 350
34.17741 352
34.19752 365
34.21763 352
34.23775 361
34.25786 373
34.27797 353
34.29809 380
34.3182 423
34.33831 398
34.35843 404
34.37854 412
34.39866 431
34.41877 403
34.43888 409
34.459 377
34.47911 391
34.49922 370
34.51934 410
34.53945 370
34.55957 390
34.57968 379
34.59979 398
34.61991 406
34.64002 388
34.66013 378
34.68025 378
34.70036 383
34.72047 383
34.74059 419
34.7607 433
34.78082 397
34.80093 431
34.82104 469
34.84116 464
34.86127 429
34.88138 418
34.9015 472
34.92161 459
34.94173 491
34.96184 509
34.98195 532
35.00207 493
35.02218 454
35.04229 484
35.06241 458
35.08252 442
35.10264 446
35.12275 446
35.14286 425
35.16298 455
35.18309 509
35.2032 454
35.22332 480
35.24343 458
35.26354 469
35.28366 462
35.30377 461
35.32389 510
35.344 469
35.36411 497
35.38423 446
35.40434 455
35.42445 462
35.44457 415
35.46468 446
35.4848 461
35.50491 426
35.52502 430
35.54514 459
35.56525 414
35.58536 437
35.60548 427
35.62559 403
35.64571 427
35.66582 420
35.68593 452
35.70605 406
35.72616 379
35.74627 417
35.76639 379
35.7865 404
35.80661 431
35.82673 388
35.84684 401
35.86696 401
35.88707 401
35.90718 429
35.9273 411
35.94741 391
35.96752 392
35.98764 412
36.00775 380
36.02787 383
36.04798 417
36.06809 419
36.08821 457
36.10832 471
36.12843 420
36.14855 378
36.16866 436
36.18878 456
36.20889 468
36.229 460
36.24912 485
36.26923 510
36.28934 506
36.30946 595
36.32957 581
36.34968 647
36.3698 708
36.38991 855
36.41003 911
36.43014 1089
36.45025 1151
36.47037 1356
36.49048 1320
36.51059 1302
36.53071 1204
36.55082 1055
36.57094 962
36.59105 802
36.61116 743
36.63128 576
36.65139 507
36.6715 504
36.69162 453
36.71173 405
36.73184 450
36.75196 450
36.77207 406
36.79219 443
36.8123 426
36.83241 428
36.85253 422
36.87264 418
36.89275 437
36.91287 405
36.93298 446
36.9531 370
36.97321 432
36.99332 427
37.01344 406
37.03355 410
37.05366 404
37.07378 411
37.09389 409
37.11401 389
37.13412 403
37.15423 389
37.17435 378
37.19446 408
37.21457 378
37.23469 355
37.2548 403
37.27491 376
37.29503 420
37.31514 372
37.33526 401
37.35537 363
37.37548 380
37.3956 377
37.41571 362
37.43582 391
37.45594 404
37.47605 368
37.49617 409
37.51628 370
37.53639 399
37.55651 396
37.57662 363
37.59673 407
37.61685 403
37.63696 381
37.65708 369
37.67719 356
37.6973 345
37.71742 399
37.73753 388
37.75764 405
37.77776 365
37.79787 390
37.81798 364
37.8381 344
37.85821 374
37.87833 364
37.89844 343
37.91855 357
37.93867 321
37.95878 365
37.97889 357
37.99901 347
38.01912 327
38.03924 356
38.05935 354
38.07946 319
38.09958 374
38.11969 355
38.1398 383
38.15992 404
38.18003 387
38.20015 353
38.22026 423
38.24037 398
38.26049 417
38.2806 396
38.30071 391
38.32083 386
38.34094 440
38.36105 369
38.38117 399
38.40128 395
38.4214 406
38.44151 409
38.46162 354
38.48174 381
38.50185 356
38.52196 406
38.54208 349
38.56219 358
38.58231 379
38.60242 370
38.62253 345
38.64265 358
38.66276 321
38.68287 341
38.70299 355
38.7231 356
38.74321 371
38.76333 360
38.78344 350
38.80356 375
38.82367 361
38.84378 332
38.8639 321
38.88401 355
38.90412 346
38.92424 356
38.94435 351
38.96447 376
38.98458 346
39.00469 368
39.02481 387
39.04492 390
39.06503 384
39.08515 404
39.10526 442
39.12538 407
39.14549 390
39.1656 443
39.18572 464
39.20583 459
39.22594 473
39.24606 520
39.26617 564
39.28628 628
39.3064 745
39.32651 761
39.34663 1015
39.36674 1117
39.38685 1159
39.40697 1202
39.42708 1175
39.44719 1095
39.46731 1025
39.48742 879
39.50754 770
39.52765 751
39.54776 623
39.56788 557
39.58799 454
39.6081 400
39.62822 359
39.64833 334
39.66845 331
39.68856 355
39.70867 315
39.72879 328
39.7489 321
39.76901 299
39.78913 313
39.80924 321
39.82935 326
39.84947 308
39.86958 317
39.8897 290
39.90981 339
39.92992 338
39.95004 297
39.97015 350
39.99026 337
40.01038 352
40.03049 365
40.05061 366
40.07072 379
40.09083 423
40.11095 467
40.13106 470
40.15117 589
40.17129 624
40.1914 670
40.21152 736
40.23163 738
40.25174 685
40.27186 682
40.29197 652
40.31208 561
40.3322 515
40.35231 480
40.37242 443
40.39254 425
40.41265 358
40.43277 350
40.45288 317
40.47299 320
40.49311 314
40.51322 306
40.53333 280
40.55345 319
40.57356 313
40.59368 274
40.61379 322
40.6339 318
40.65402 299
40.67413 319
40.69424 323
40.71436 351
40.73447 304
40.75458 341
40.7747 305
40.79481 358
40.81493 298
40.83504 313
40.85515 291
40.87527 312
40.89538 363
40.91549 309
40.93561 293
40.95572 335
40.97584 305
40.99595 328
41.01606 303
41.03618 301
41.05629 310
41.0764 301
41.09652 298
41.11663 262
41.13675 304
41.15686 309
41.17697 281
41.19709 315
41.2172 301
41.23731 319
41.25743 323
41.27754 310
41.29765 307
41.31777 323
41.33788 290
41.358 324
41.37811 281
41.39822 304
41.41834 296
41.43845 309
41.45856 356
41.47868 341
41.49879 317
41.51891 349
41.53902 342
41.55913 322
41.57925 350
41.59936 322
41.61947 367
41.63959 386
41.6597 334
41.67982 398
41.69993 374
41.72004 391
41.74016 381
41.76027 386
41.78038 342
41.8005 366
41.82061 337
41.84072 325
41.86084 311
41.88095 319
41.90107 300
41.92118 342
41.94129 300
41.96141 287
41.98152 286
42.00163 324
42.02175 280
42.04186 308
42.06198 314
42.08209 342
42.1022 361
42.12232 322
42.14243 354
42.16254 344
42.18266 365
42.20277 386
42.22289 423
42.243 470
42.26311 530
42.28323 565
42.30334 654
42.32345 717
42.34357 756
42.36368 895
42.38379 886
42.40391 886
42.42402 825
42.44414 815
42.46425 667
42.48436 620
42.50448 567
42.52459 531
42.5447 455
42.56482 434
42.58493 379
42.60505 312
42.62516 329
42.64527 342
42.66539 313
42.6855 330
42.70561 353
42.72573 354
42.74584 323
42.76595 368
42.78607 307
42.80618 312
42.8263 363
42.84641 315
42.86652 322
42.88664 290
42.90675 289
42.92686 322
42.94698 290
42.96709 306
42.98721 287
43.00732 292
43.02743 300
43.04755 297
43.06766 280
43.08777 318
43.10789 260
43.128 276
43.14812 289
43.16823 301
43.18834 271
43.20846 294
43.22857 256
43.24868 265
43.2688 278
43.28891 250
43.30902 257
43.32914 252
43.34925 264
43.36937 270
43.38948 289
43.40959 270
43.42971 278
43.44982 260
43.46993 274
43.49005 275
43.51016 278
43.53028 257
43.55039 261
43.5705 299
43.59062 245
43.61073 276
43.63084 291
43.65096 244
43.67107 275
43.69119 256
43.7113 262
43.73141 299
43.75153 256
43.77164 245
43.79175 270
43.81187 223
43.83198 247
43.85209 245
43.87221 241
43.89232 272
43.91244 277
43.93255 302
43.95266 282
43.97278 268
43.99289 267
44.013 291
44.03312 290
44.05323 269
44.07335 270
44.09346 288
44.11357 278
44.13369 289
44.1538 261
44.17391 267
44.19403 251
44.21414 312
44.23426 275
44.25437 283
44.27448 248
44.2946 251
44.31471 265
44.33482 298
44.35494 259
44.37505 281
44.39516 288
44.41528 278
44.43539 289
44.45551 268
44.47562 311
44.49573 259
44.51585 280
44.53596 284
44.55607 288
44.57619 293
44.5963 300
44.61642 282
44.63653 296
44.65664 280
44.67676 305
44.69687 281
44.71698 283
44.7371 310
44.75721 289
44.77732 285
44.79744 317
44.81755 307
44.83767 281
44.85778 294
44.87789 292
44.89801 279
44.91812 295
44.93823 266
44.95835 301
44.97846 293
44.99858 281
45.01869 292
45.0388 304
45.05892 296
45.07903 274
45.09914 291
45.11926 282
45.13937 278
45.15949 300
45.1796 277
45.19971 278
45.21983 290
45.23994 317
45.26005 283
45.28017 286
45.30028 301
45.32039 285
45.34051 284
45.36062 319
45.38074 327
45.40085 319
45.42096 303
45.44108 352
45.46119 309
45.4813 325
45.50142 346
45.52153 334
45.54165 380
45.56176 404
45.58187 428
45.60199 448
45.6221 506
45.64221 495
45.66233 595
45.68244 643
45.70256 674
45.72267 679
45.74278 644
45.7629 629
45.78301 638
45.80312 590
45.82324 537
45.84335 521
45.86346 475
45.88358 437
45.90369 401
45.92381 382
45.94392 333
45.96403 284
45.98415 282
46.00426 278
46.02437 290
46.04449 258
46.0646 276
46.08472 264
46.10483 256
46.12494 285
46.14506 309
46.16517 265
46.18528 309
46.2054 278
46.22551 262
46.24563 284
46.26574 282
46.28585 293
46.30597 277
46.32608 273
46.34619 287
46.36631 276
46.38642 277
46.40653 282
46.42665 285
46.44676 277
46.46688 292
46.48699 280
46.5071 232
46.52722 300
46.54733 262
46.56744 295
46.58756 255
46.60767 278
46.62779 268
46.6479 296
46.66801 249
46.68813 283
46.70824 277
46.72835 277
46.74847 270
46.76858 296
46.78869 262
46.80881 296
46.82892 292
46.84904 270
46.86915 275
46.88926 281
46.90938 278
46.92949 265
46.9496 265
46.96972 307
46.98983 306
47.00995 277
47.03006 282
47.05017 278
47.07029 279
47.0904 300
47.11051 289
47.13063 306
47.15074 273
47.17086 303
47.19097 267
47.21108 286
47.2312 267
47.25131 275
47.27142 270
47.29154 310
47.31165 290
47.33176 287
47.35188 296
47.37199 300
47.39211 316
47.41222 299
47.43233 355
47.45245 331
47.47256 322
47.49267 307
47.51279 308
47.5329 293
47.55302 278
47.57313 327
47.59324 293
47.61336 275
47.63347 275
47.65358 281
47.6737 295
47.69381 265
47.71393 292
47.73404 295
47.75415 267
47.77427 251
47.79438 241
47.81449 284
47.83461 307
47.85472 285
47.87483 257
47.89495 251
47.91506 274
47.93518 257
47.95529 256
47.9754 280
47.99552 301
48.01563 270
48.03574 280
48.05586 287
48.07597 271
48.09609 284
48.1162 311
48.13631 273
48.15643 269
48.17654 296
48.19665 250
48.21677 276
48.23688 290
48.257 298
48.27711 289
48.29722 276
48.31734 313
48.33745 275
48.35756 279
48.37768 314
48.39779 296
48.4179 267
48.43802 280
48.45813 266
48.47825 300
48.49836 271
48.51847 260
48.53859 308
48.5587 300
48.57881 294
48.59893 317
48.61904 306
48.63916 252
48.65927 277
48.67938 280
48.6995 307
48.71961 320
48.73972 267
48.75984 277
48.77995 251
48.80006 265
48.82018 301
48.84029 280
48.86041 298
48.88052 273
48.90063 294
48.92075 324
48.94086 323
48.96097 298
48.98109 303
49.0012 313
49.02132 313
49.04143 306
49.06154 296
49.08166 325
49.10177 350
49.12188 341
49.142 339
49.16211 297
49.18223 322
49.20234 312
49.22245 293
49.24257 300
49.26268 279
49.28279 299
49.30291 276
49.32302 323
49.34313 283
49.36325 284
49.38336 306
49.40348 280
49.42359 268
49.4437 303
49.46382 310
49.48393 326
49.50404 315
49.52416 308
49.54427 323
49.56439 331
49.5845 321
49.60461 321
49.62473 325
49.64484 360
49.66495 379
49.68507 360
49.70518 391
49.7253 371
49.74541 404
49.76552 415
49.78564 459
49.80575 491
49.82586 505
49.84598 565
49.86609 517
49.8862 616
49.90632 673
49.92643 728
49.94655 833
49.96666 952
49.98677 1129
50.00689 1271
50.027 1531
50.04711 1644
50.06723 1828
50.08734 1713
50.10746 1647
50.12757 1435
50.14768 1210
50.1678 1131
50.18791 1011
50.20802 958
50.22814 891
50.24825 812
50.26837 646
50.28848 533
50.30859 421
50.32871 384
50.34882 356
50.36893 370
50.38905 381
50.40916 391
50.42927 347
50.44939 381
50.4695 340
50.48962 389
50.50973 375
50.52984 403
50.54996 378
50.57007 351
50.59018 379
50.6103 367
50.63041 357
50.65053 376
50.67064 349
50.69075 377
50.71087 363
50.73098 349
50.75109 308
50.77121 312
50.79132 335
50.81143 311
50.83155 331
50.85166 303
50.87178 265
50.89189 287
50.912 258
50.93212 316
50.95223 262
50.97234 242
50.99246 275
51.01257 279
51.03269 287
51.0528 274
51.07291 273
51.09303 280
51.11314 265
51.13325 262
51.15337 303
51.17348 293
51.1936 320
51.21371 310
51.23382 316
51.25394 326
51.27405 335
51.29416 349
51.31428 308
51.33439 297
51.3545 307
51.37462 294
51.39473 292
51.41485 294
51.43496 281
51.45507 280
51.47519 276
51.4953 241
51.51541 269
51.53553 241
51.55564 255
51.57576 248
51.59587 267
51.61598 279
51.6361 270
51.65621 267
51.67632 264
51.69644 241
51.71655 275
51.73667 258
51.75678 268
51.77689 252
51.79701 256
51.81712 240
51.83723 263
51.85735 228
51.87746 234
51.89757 246
51.91769 231
51.9378 277
51.95792 263
51.97803 282
51.99814 236
52.01826 254
52.03837 223
52.05848 284
52.0786 253
52.09871 228
52.11883 287
52.13894 244
52.15905 213
52.17917 265
52.19928 263
52.21939 269
52.23951 269
52.25962 240
52.27974 271
52.29985 254
52.31996 267
52.34008 265
52.36019 256
52.3803 251
52.40042 280
52.42053 244
52.44064 233
52.46076 269
52.48087 255
52.50099 272
52.5211 265
52.54121 265
52.56133 272
52.58144 271
52.60155 261
52.62167 263
52.64178 265
52.6619 262
52.68201 277
52.70212 254
52.72224 260
52.74235 279
52.76246 311
52.78258 289
52.80269 282
52.8228 296
52.84292 270
52.86303 250
52.88315 274
52.90326 270
52.92337 274
52.94349 298
52.9636 264
52.98371 275
53.00383 268
53.02394 297
53.04406 280
53.06417 259
53.08428 301
53.1044 270
53.12451 267
53.14462 274
53.16474 282
53.18485 303
53.20497 289
53.22508 295
53.24519 273
53.26531 317
53.28542 283
53.30553 268
53.32565 264
53.34576 278
53.36587 276
53.38599 284
53.4061 299
53.42622 292
53.44633 314
53.46644 271
53.48656 251
53.50667 300
53.52678 272
53.5469 261
53.56701 285
53.58713 296
53.60724 311
53.62735 306
53.64747 274
53.66758 282
53.68769 322
53.70781 312
53.72792 276
53.74804 311
53.76815 329
53.78826 336
53.80838 282
53.82849 297
53.8486 312
53.86872 315
53.88883 282
53.90894 338
53.92906 299
53.94917 337
53.96929 326
53.9894 283
54.00951 325
54.02963 292
54.04974 339
54.06985 313
54.08997 300
54.11008 338
54.1302 333
54.15031 329
54.17042 306
54.19054 321
54.21065 331
54.23076 311
54.25088 350
54.27099 299
54.29111 349
54.31122 332
54.33133 301
54.35145 333
54.37156 348
54.39167 348
54.41179 310
54.4319 353
54.45201 364
54.47213 329
54.49224 337
54.51236 323
54.53247 335
54.55258 351
54.5727 350
54.59281 402
54.61292 423
54.63304 385
54.65315 429
54.67327 421
54.69338 518
54.71349 500
54.73361 612
54.75372 659
54.77383 669
54.79395 739
54.81406 633
54.83417 697
54.85429 587
54.8744 585
54.89452 575
54.91463 566
54.93474 569
54.95486 504
54.97497 478
54.99508 455
55.0152 444
55.03531 414
55.05543 347
55.07554 384
55.09565 367
55.11577 372
55.13588 395
55.15599 434
55.17611 398
55.19622 463
55.21634 468
55.23645 469
55.25656 475
55.27668 489
55.29679 401
55.3169 458
55.33702 403
55.35713 385
55.37724 356
55.39736 395
55.41747 388
55.43759 381
55.4577 384
55.47781 345
55.49793 334
55.51804 319
55.53815 286
55.55827 294
55.57838 294
55.5985 297
55.61861 290
55.63872 297
55.65884 272
55.67895 286
55.69906 288
55.71918 256
55.73929 286
55.75941 290
55.77952 295
55.79963 293
55.81975 308
55.83986 268
55.85997 286
55.88009 297
55.9002 271
55.92031 274
55.94043 293
55.96054 265
55.98066 267
56.00077 266
56.02088 272
56.041 266
56.06111 259
56.08122 285
56.10134 265
56.12145 260
56.14157 280
56.16168 252
56.18179 265
56.20191 237
56.22202 266
56.24213 246
56.26225 282
56.28236 284
56.30248 251
56.32259 261
56.3427 291
56.36282 283
56.38293 265
56.40304 261
56.42316 292
56.44327 260
56.46338 306
56.4835 237
56.50361 265
56.52373 260
56.54384 269
56.56395 280
56.58407 269
56.60418 286
56.62429 280
56.64441 300
56.66452 290
56.68464 281
56.70475 253
56.72486 301
56.74498 282
56.76509 268
56.7852 266
56.80532 267
56.82543 294
56.84554 265
56.86566 270
56.88577 261
56.90589 256
56.926 250
56.94611 261
56.96623 262
56.98634 234
57.00645 265
57.02657 303
57.04668 288
57.0668 262
57.08691 285
57.10702 248
57.12714 284
57.14725 276
57.16736 259
57.18748 295
57.20759 269
57.22771 293
57.24782 254
57.26793 264
57.28805 333
57.30816 314
57.32827 260
57.34839 287
57.3685 257
57.38861 268
57.40873 273
57.42884 263
57.44896 303
57.46907 266
57.48918 254
57.5093 279
57.52941 274
57.54952 287
57.56964 253
57.58975 266
57.60987 261
57.62998 270
57.65009 239
57.67021 261
57.69032 257
57.71043 255
57.73055 283
57.75066 233
57.77078 252
57.79089 262
57.811 280
57.83112 224
57.85123 269
57.87134 277
57.89146 288
57.91157 269
57.93168 266
57.9518 232
57.97191 236
57.99203 241
58.01214 260
58.03225 236
58.05237 262
58.07248 275
58.09259 237
58.11271 248
58.13282 253
58.15294 267
58.17305 238
58.19316 291
58.21328 250
58.23339 273
58.2535 254
58.27362 264
58.29373 272
58.31385 235
58.33396 235
58.35407 273
58.37419 283
58.3943 236
58.41441 259
58.43453 284
58.45464 278
58.47475 244
58.49487 278
58.51498 267
58.5351 237
58.55521 285
58.57532 282
58.59544 290
58.61555 256
58.63566 252
58.65578 297
58.67589 271
58.69601 266
58.71612 254
58.73623 298
58.75635 281
58.77646 266
58.79657 256
58.81669 245
58.8368 262
58.85691 235
58.87703 244
58.89714 256
58.91726 248
58.93737 276
58.95748 236
58.9776 276
58.99771 226
59.01782 287
59.03794 274
59.05805 258
59.07817 266
59.09828 281
59.11839 285
59.13851 261
59.15862 292
59.17873 264
59.19885 278
59.21896 289
59.23908 250
59.25919 268
59.2793 275
59.29942 289
59.31953 277
59.33964 282
59.35976 279
59.37987 305
59.39998 293
59.4201 294
59.44021 268
59.46033 299
59.48044 329
59.50055 299
59.52067 354
59.54078 300
59.56089 331
59.58101 325
59.60112 341
59.62124 337
59.64135 385
59.66146 419
59.68158 442
59.70169 455
59.7218 497
59.74192 579
59.76203 647
59.78215 729
59.80226 817
59.82237 1014
59.84249 1133
59.8626 1110
59.88271 1223
59.90283 1135
59.92294 1087
59.94305 944
59.96317 867
59.98328 794
60.0034 733
60.02351 744
60.04362 723
60.06374 708
60.08385 635
60.10396 562
60.12408 443
60.14419 390
60.16431 327
60.18442 353
60.20453 335
60.22465 351
60.24476 287
60.26487 308
60.28499 290
60.3051 289
60.32522 297
60.34533 312
60.36544 272
60.38556 289
60.40567 296
60.42578 269
60.4459 254
60.46601 295
60.48612 307
60.50624 269
60.52635 259
60.54647 275
60.56658 280
60.58669 301
60.60681 260
60.62692 281
60.64703 260
60.66715 281
60.68726 278
60.70738 298
60.72749 283
60.7476 270
60.76772 289
60.78783 277
60.80794 271
60.82806 277
60.84817 242
60.86828 264
60.8884 264
60.90851 259
60.92863 258
60.94874 272
60.96885 247
60.98897 238
61.00908 285
61.02919 297
61.04931 282
61.06942 249
61.08954 320
61.10965 270
61.12976 260
61.14988 281
61.16999 280
61.1901 296
61.21022 301
61.23033 271
61.25045 301
61.27056 270
61.29067 309
61.31079 263
61.3309 279
61.35101 261
61.37113 297
61.39124 291
61.41135 299
61.43147 296
61.45158 260
61.4717 285
61.49181 294
61.51192 311
61.53204 307
61.55215 283
61.57226 303
61.59238 299
61.61249 279
61.63261 286
61.65272 286
61.67283 296
61.69295 314
61.71306 311
61.73317 307
61.75329 301
61.7734 312
61.79352 328
61.81363 304
61.83374 304
61.85386 321
61.87397 323
61.89408 333
61.9142 319
61.93431 345
61.95442 333
61.97454 321
61.99465 330
62.01477 357
62.03488 351
62.05499 359
62.07511 367
62.09522 336
62.11533 368
62.13545 326
62.15556 418
62.17568 349
62.19579 347
62.2159 332
62.23602 319
62.25613 312
62.27624 370
62.29636 325
62.31647 334
62.33659 310
62.3567 321
62.37681 301
62.39693 299
62.41704 297
62.43715 304
62.45727 286
62.47738 294
62.49749 294
62.51761 289
62.53772 324
62.55784 292
62.57795 284
62.59806 309
62.61818 312
62.63829 275
62.6584 254
62.67852 308
62.69863 264
62.71875 297
62.73886 290
62.75897 269
62.77909 284
62.7992 299
62.81931 290
62.83943 266
62.85954 290
62.87965 311
62.89977 258
62.91988 315
62.94 274
62.96011 267
62.98022 269
63.00034 295
63.02045 294
63.04056 299
63.06068 300
63.08079 286
63.10091 281
63.12102 295
63.14113 289
63.16125 261
63.18136 284
63.20147 275
63.22159 282
63.2417 251
63.26182 284
63.28193 263
63.30204 283
63.32216 276
63.34227 278
63.36238 257
63.3825 278
63.40261 316
63.42272 276
63.44284 270
63.46295 282
63.48307 270
63.50318 271
63.52329 280
63.54341 286
63.56352 293
63.58363 307
63.60375 300
63.62386 325
63.64398 316
63.66409 308
63.6842 319
63.70432 317
63.72443 308
63.74454 322
63.76466 354
63.78477 320
63.80489 361
63.825 361
63.84511 372
63.86523 402
63.88534 421
63.90545 408
63.92557 464
63.94568 388
63.96579 456
63.98591 441
64.00602 426
64.02614 400
64.04625 393
64.06636 339
64.08648 355
64.10659 362
64.1267 370
64.14682 360
64.16693 340
64.18705 331
64.20716 320
64.22727 296
64.24739 298
64.2675 290
64.28761 277
64.30773 259
64.32784 279
64.34796 261
64.36807 299
64.38818 294
64.4083 300
64.42841 273
64.44852 285
64.46864 268
64.48875 256
64.50886 254
64.52898 265
64.54909 288
64.56921 293
64.58932 252
64.60943 256
64.62955 290
64.64966 283
64.66977 244
64.68989 260
64.71 250
64.73012 281
64.75023 228
64.77034 255
64.79046 236
64.81057 273
64.83068 253
64.8508 250
64.87091 245
64.89102 244
64.91114 262
64.93125 227
64.95137 232
64.97148 212
64.99159 241
65.01171 240
65.03182 230
65.05193 249
65.07205 250
65.09216 243
65.11228 214
65.13239 252
65.1525 241
65.17262 257
65.19273 265
65.21284 272
65.23296 270
65.25307 266
65.27319 256
65.2933 263
65.31341 285
65.33353 264
65.35364 245
65.37375 244
65.39387 266
65.41398 266
65.43409 254
65.45421 268
65.47432 263
65.49444 265
65.51455 256
65.53466 253
65.55478 245
65.57489 269
65.595 262
65.61512 278
65.63523 285
65.65535 271
65.67546 248
65.69557 291
65.71569 285
65.7358 282
65.75591 277
65.77603 255
65.79614 276
65.81626 262
65.83637 272
65.85648 251
65.8766 266
65.89671 258
65.91682 263
65.93694 282
65.95705 261
65.97716 245
65.99728 268
66.01739 239
66.03751 265
66.05762 234
66.07773 225
66.09785 235
66.11796 258
66.13807 232
66.15819 221
66.1783 281
66.19842 246
66.21853 249
66.23864 234
66.25876 248
66.27887 257
66.29898 235
66.3191 243
66.33921 246
66.35933 259
66.37944 225
66.39955 254
66.41967 267
66.43978 251
66.45989 257
66.48001 264
66.50012 211
66.52023 255
66.54035 229
66.56046 255
66.58058 207
66.60069 241
66.6208 257
66.64092 240
66.66103 250
66.68114 238
66.70126 231
66.72137 258
66.74149 243
66.7616 253
66.78171 227
66.80183 218
66.82194 255
66.84205 252
66.86217 237
66.88228 250
66.90239 251
66.92251 289
66.94262 248
66.96274 268
66.98285 243
67.00296 274
67.02308 261
67.04319 263
67.0633 264
67.08342 250
67.10353 278
67.12365 269
67.14376 246
67.16387 261
67.18399 285
67.2041 283
67.22421 279
67.24433 278
67.26444 271
67.28456 296
67.30467 273
67.32478 286
67.3449 309
67.36501 340
67.38512 315
67.40524 322
67.42535 323
67.44546 334
67.46558 363
67.48569 397
67.50581 371
67.52592 452
67.54603 486
67.56615 538
67.58626 590
67.60637 686
67.62649 741
67.6466 761
67.66672 817
67.68683 740
67.70694 754
67.72706 635
67.74717 622
67.76728 559
67.7874 577
67.80751 573
67.82763 557
67.84774 625
67.86785 655
67.88797 679
67.90808 625
67.92819 628
67.94831 699
67.96842 636
67.98853 749
68.00865 838
68.02876 923
68.04888 957
68.06899 1033
68.0891 940
68.10922 972
68.12933 869
68.14944 839
68.16956 840
68.18967 869
68.20979 888
68.2299 912
68.25001 898
68.27013 940
68.29024 770
68.31035 764
68.33047 629
68.35058 560
68.3707 511
68.39081 498
68.41092 500
68.43104 503
68.45115 455
68.47126 446
68.49138 394
68.51149 350
68.5316 315
68.55172 315
68.57183 294
68.59195 286
68.61206 269
68.63217 291
68.65229 279
68.6724 265
68.69251 289
68.71263 250
68.73274 259
68.75286 264
68.77297 264
68.79308 262
68.8132 231
68.83331 284
68.85342 269
68.87354 229
68.89365 271
68.91376 260
68.93388 266
68.95399 295
68.97411 275
68.99422 267
69.01433 260
69.03445 261
69.05456 259
69.07467 263
69.09479 272
69.1149 304
69.13502 261
69.15513 249
69.17524 282
69.19536 259
69.21547 250
69.23558 260
69.2557 296
69.27581 292
69.29593 253
69.31604 259
69.33615 243
69.35627 261
69.37638 274
69.39649 271
69.41661 266
69.43672 283
69.45683 247
69.47695 275
69.49706 257
69.51718 253
69.53729 240
69.5574 241
69.57752 307
69.59763 246
69.61774 243
69.63786 266
69.65797 253
69.67809 258
69.6982 243
69.71831 266
69.73843 240
69.75854 253
69.77865 248
69.79877 284
69.81888 250
69.839 235
69.85911 244
69.87922 241
69.89934 265
69.91945 269
69.93956 237
69.95968 243
69.97979 268
69.9999 247
70.02002 255
70.04013 233
70.06025 251
70.08036 218
70.10047 249
70.12059 254
70.1407 231
70.16081 251
70.18093 250
70.20104 239
70.22116 251
70.24127 241
70.26138 239
70.2815 222
70.30161 220
70.32172 202
70.34184 247
70.36195 242
70.38207 229
70.40218 234
70.42229 218
70.44241 232
70.46252 243
70.48263 236
70.50275 208
70.52286 248
70.54297 206
70.56309 243
70.5832 227
70.60332 221
70.62343 227
70.64354 232
70.66366 210
70.68377 255
70.70388 218
70.724 233
70.74411 238
70.76423 208
70.78434 246
70.80445 252
70.82457 227
70.84468 253
70.86479 234
70.88491 209
70.90502 246
70.92513 241
70.94525 263
70.96536 240
70.98548 230
71.00559 217
71.0257 234
71.04582 231
71.06593 274
71.08604 260
71.10616 241
71.12627 243
71.14639 240
71.1665 230
71.18661 207
71.20673 222
71.22684 253
71.24695 255
71.26707 255
71.28718 229
71.3073 244
71.32741 258
71.34752 256
71.36764 230
71.38775 223
71.40786 238
71.42798 240
71.44809 254
71.4682 261
71.48832 227
71.50843 252
71.52855 260
71.54866 257
71.56877 219
71.58889 262
71.609 239
71.62911 265
71.64923 231
71.66934 220
71.68946 232
71.70957 247
71.72968 249
71.7498 198
71.76991 222
71.79002 221
71.81014 222
71.83025 241
71.85037 238
71.87048 244
71.89059 258
71.91071 228
71.93082 251
71.95093 228
71.97105 246
71.99116 237
72.01127 237
72.03139 216
72.0515 229
72.07162 256
72.09173 228
72.11184 245
72.13196 232
72.15207 258
72.17218 260
72.1923 247
72.21241 236
72.23253 239
72.25264 251
72.27275 214
72.29287 216
72.31298 227
72.33309 228
72.35321 236
72.37332 239
72.39344 248
72.41355 204
72.43366 217
72.45378 249
72.47389 222
72.494 240
72.51412 259
72.53423 235
72.55434 222
72.57446 249
72.59457 249
72.61469 245
72.6348 219
72.65491 231
72.67503 245
72.69514 237
72.71525 220
72.73537 259
72.75548 244
72.7756 228
72.79571 239
72.81582 216
72.83594 242
72.85605 222
72.87616 248
72.89628 229
72.91639 263
72.9365 239
72.95662 274
72.97673 245
72.99685 249
73.01696 248
73.03707 276
73.05719 255
73.0773 266
73.09741 293
73.11753 287
73.13764 268
73.15776 284
73.17787 287
73.19798 270
73.2181 284
73.23821 339
73.25832 289
73.27844 340
73.29855 366
73.31867 390
73.33878 387
73.35889 408
73.37901 419
73.39912 446
73.41923 449
73.43935 419
73.45946 356
73.47957 340
73.49969 346
73.5198 339
73.53992 302
73.56003 331
73.58014 345
73.60026 339
73.62037 301
73.64048 333
73.6606 313
73.68071 303
73.70083 271
73.72094 274
73.74105 260
73.76117 268
73.78128 256
73.80139 249
73.82151 252
73.84162 254
73.86174 241
73.88185 241
73.90196 257
73.92208 245
73.94219 240
73.9623 267
73.98242 234
74.00253 234
74.02264 249
74.04276 229
74.06287 237
74.08299 262
74.1031 226
74.12321 234
74.14333 228
74.16344 263
74.18355 229
74.20367 232
74.22378 239
74.2439 234
74.26401 276
74.28412 240
74.30424 217
74.32435 214
74.34446 214
74.36458 237
74.38469 229
74.40481 237
74.42492 249
74.44503 266
74.46515 246
74.48526 229
74.50537 229
74.52549 258
74.5456 252
74.56571 242
74.58583 249
74.60594 234
74.62606 250
74.64617 236
74.66628 233
74.6864 269
74.70651 244
74.72662 244
74.74674 267
74.76685 248
74.78697 221
74.80708 262
74.82719 261
74.84731 236
74.86742 267
74.88753 252
74.90765 259
74.92776 232
74.94787 252
74.96799 264
74.9881 245
75.00822 219
