3.00117 16699
3.02128 16684
3.0414 15958
3.06151 15755
3.08162 15080
3.10174 15064
3.12185 14565
3.14197 14116
3.16208 13779
3.18219 13090
3.20231 13142
3.22242 12875
3.24253 12376
3.26265 12030
3.28276 11608
3.30288 11347
3.32299 10885
3.3431 10541
3.36322 10327
3.38333 9967
3.40344 9709
3.42356 9397
3.44367 8997
3.46379 8881
3.4839 8401
3.50401 8318
3.52413 7962
3.54424 7541
3.56435 7256
3.58447 6953
3.60458 6767
3.62469 6543
3.64481 6089
3.66492 6027
3.68504 5639
3.70515 5596
3.72526 5438
3.74538 5152
3.76549 4927
3.7856 4798
3.80572 4622
3.82583 4479
3.84595 4167
3.86606 3907
3.88617 3657
3.90629 3685
3.9264 3391
3.94651 3337
3.96663 3181
3.98674 2991
4.00686 2861
4.02697 2775
4.04708 2546
4.0672 2496
4.08731 2344
4.10742 2306
4.12754 2295
4.14765 2046
4.16776 2067
4.18788 1923
4.20799 1873
4.22811 1815
4.24822 1655
4.26833 1628
4.28845 1521
4.30856 1584
4.32867 1458
4.34879 1364
4.3689 1378
4.38902 1355
4.40913 1297
4.42924 1395
4.44936 1220
4.46947 1219
4.48958 1213
4.5097 1168
4.52981 1130
4.54992 1102
4.57004 1023
4.59015 1014
4.61027 1027
4.63038 1049
4.65049 916
4.67061 888
4.69072 912
4.71083 935
4.73095 953
4.75106 817
4.77118 804
4.79129 752
4.8114 735
4.83152 810
4.85163 696
4.87174 746
4.89186 692
4.91197 650
4.93209 681
4.9522 607
4.97231 619
4.99243 656
5.01254 653
5.03265 646
5.05277 589
5.07288 535
5.09299 547
5.11311 545
5.13322 550
5.15334 493
5.17345 490
5.19356 493
5.21368 479
5.23379 475
5.2539 411
5.27402 429
5.29413 431
5.31425 414
5.33436 430
5.35447 436
5.37459 359
5.3947 404
5.41481 332
5.43493 369
5.45504 347
5.47516 331
5.49527 324
5.51538 322
5.5355 320
5.55561 334
5.57572 290
5.59584 345
5.61595 312
5.63606 291
5.65618 282
5.67629 318
5.69641 283
5.71652 264
5.73663 245
5.75675 271
5.77686 209
5.79697 280
5.81709 247
5.8372 226
5.85732 252
5.87743 234
5.89754 233
5.91766 221
5.93777 237
5.95788 234
5.978 214
5.99811 233
6.01823 232
6.03834 216
6.05845 202
6.07857 210
6.09868 219
6.11879 214
6.13891 214
6.15902 209
6.17913 226
6.19925 207
6.21936 185
6.23948 193
6.25959 181
6.2797 184
6.29982 200
6.31993 185
6.34004 192
6.36016 178
6.38027 174
6.40039 183
6.4205 175
6.44061 221
6.46073 158
6.48084 167
6.50095 183
6.52107 211
6.54118 194
6.56129 177
6.58141 197
6.60152 161
6.62164 175
6.64175 174
6.66186 160
6.68198 170
6.70209 179
6.7222 169
6.74232 180
6.76243 179
6.78255 172
6.80266 166
6.82277 168
6.84289 164
6.863 160
6.88311 184
6.90323 162
6.92334 185
6.94346 189
6.96357 197
6.98368 214
7.0038 199
7.02391 171
7.04402 167
7.06414 178
7.08425 173
7.10436 189
7.12448 171
7.14459 172
7.16471 173
7.18482 180
7.20493 163
7.22505 172
7.24516 157
7.26527 178
7.28539 152
7.3055 183
7.32562 197
7.34573 163
7.36584 213
7.38596 190
7.40607 174
7.42618 176
7.4463 163
7.46641 179
7.48653 185
7.50664 189
7.52675 220
7.54687 180
7.56698 166
7.58709 191
7.60721 158
7.62732 190
7.64743 186
7.66755 204
7.68766 167
7.70778 196
7.72789 184
7.748 202
7.76812 181
7.78823 196
7.80834 205
7.82846 176
7.84857 195
7.86869 187
7.8888 225
7.90891 183
7.92903 185
7.94914 185
7.96925 231
7.98937 176
8.00948 193
8.0296 187
8.04971 177
8.06982 190
8.08994 171
8.11005 183
8.13016 179
8.15028 204
8.17039 158
8.1905 188
8.21062 186
8.23073 184
8.25085 162
8.27096 196
8.29107 202
8.31119 224
8.3313 203
8.35141 208
8.37153 186
8.39164 205
8.41176 197
8.43187 196
8.45198 194
8.4721 247
8.49221 178
8.51232 191
8.53244 217
8.55255 211
8.57266 211
8.59278 188
8.61289 181
8.63301 202
8.65312 157
8.67323 197
8.69335 204
8.71346 175
8.73357 215
8.75369 237
8.7738 214
8.79392 202
8.81403 189
8.83414 207
8.85426 200
8.87437 221
8.89448 218
8.9146 211
8.93471 213
8.95483 195
8.97494 207
8.99505 190
9.01517 208
9.03528 192
9.05539 211
9.07551 234
9.09562 215
9.11573 217
9.13585 169
9.15596 202
9.17608 238
9.19619 213
9.2163 203
9.23642 223
9.25653 227
9.27664 211
9.29676 200
9.31687 193
9.33699 205
9.3571 196
9.37721 183
9.39733 198
9.41744 235
9.43755 193
9.45767 240
9.47778 208
9.4979 216
9.51801 180
9.53812 200
9.55824 201
9.57835 189
9.59846 189
9.61858 185
9.63869 194
9.6588 241
9.67892 199
9.69903 197
9.71915 215
9.73926 195
9.75937 206
9.77949 224
9.7996 215
9.81971 201
9.83983 212
9.85994 197
9.88006 218
9.90017 202
9.92028 207
9.9404 225
9.96051 210
9.98062 192
10.00074 204
10.02085 211
10.04097 178
10.06108 190
10.08119 214
10.10131 187
10.12142 202
10.14153 219
10.16165 215
10.18176 196
10.20187 212
10.22199 210
10.2421 228
10.26222 182
10.28233 178
10.30244 193
10.32256 207
10.34267 204
10.36278 264
10.3829 208
10.40301 235
10.42313 226
10.44324 232
10.46335 223
10.48347 207
10.50358 230
10.52369 196
10.54381 217
10.56392 239
10.58403 197
10.60415 192
10.62426 189
10.64438 213
10.66449 204
10.6846 224
10.70472 218
10.72483 222
10.74494 199
10.76506 210
10.78517 234
10.80529 204
10.8254 234
10.84551 201
10.86563 198
10.88574 183
10.90585 214
10.92597 222
10.94608 219
10.9662 217
10.98631 219
11.00642 197
11.02654 228
11.04665 211
11.06676 215
11.08688 199
11.10699 209
11.1271 210
11.14722 192
11.16733 190
11.18745 199
11.20756 198
11.22767 210
11.24779 194
11.2679 225
11.28801 184
11.30813 198
11.32824 215
11.34836 180
11.36847 210
11.38858 235
11.4087 220
11.42881 213
11.44892 214
11.46904 200
11.48915 182
11.50927 215
11.52938 180
11.54949 177
11.56961 175
11.58972 213
11.60983 201
11.62995 185
11.65006 208
11.67017 223
11.69029 234
11.7104 223
11.73052 197
11.75063 197
11.77074 202
11.79086 225
11.81097 222
11.83108 188
11.8512 216
11.87131 218
11.89143 223
11.91154 202
11.93165 210
11.95177 179
11.97188 205
11.99199 218
12.01211 183
12.03222 211
12.05234 223
12.07245 212
12.09256 223
12.11268 213
12.13279 222
12.1529 223
12.17302 200
12.19313 225
12.21324 206
12.23336 201
12.25347 232
12.27359 219
12.2937 215
12.31381 206
12.33393 195
12.35404 207
12.37415 199
12.39427 171
12.41438 226
12.4345 231
12.45461 211
12.47472 245
12.49484 213
12.51495 207
12.53506 220
12.55518 249
12.57529 227
12.5954 200
12.61552 195
12.63563 192
12.65575 210
12.67586 202
12.69597 183
12.71609 213
12.7362 194
12.75631 218
12.77643 211
12.79654 195
12.81666 198
12.83677 167
12.85688 185
12.877 204
12.89711 208
12.91722 170
12.93734 202
12.95745 215
12.97757 209
12.99768 216
13.01779 206
13.03791 221
13.05802 220
13.07813 208
13.09825 216
13.11836 218
13.13847 213
13.15859 217
13.1787 229
13.19882 240
13.21893 199
13.23904 223
13.25916 194
13.27927 231
13.29938 206
13.3195 178
13.33961 184
13.35973 232
13.37984 176
13.39995 205
13.42007 184
13.44018 199
13.46029 216
13.48041 220
13.50052 201
13.52064 205
13.54075 254
13.56086 211
13.58098 248
13.60109 245
13.6212 263
13.64132 281
13.66143 284
13.68154 261
13.70166 257
13.72177 267
13.74189 271
13.762 253
13.78211 210
13.80223 248
13.82234 237
13.84245 249
13.86257 239
13.88268 256
13.9028 211
13.92291 241
13.94302 221
13.96314 221
13.98325 207
14.00336 187
14.02348 206
14.04359 202
14.06371 211
14.08382 191
14.10393 208
14.12405 194
14.14416 172
14.16427 189
14.18439 183
14.2045 178
14.22461 176
14.24473 194
14.26484 151
14.28496 190
14.30507 166
14.32518 210
14.3453 180
14.36541 191
14.38552 157
14.40564 180
14.42575 183
14.44587 191
14.46598 184
14.48609 174
14.50621 156
14.52632 201
14.54643 165
14.56655 196
14.58666 184
14.60677 182
14.62689 191
14.647 203
14.66712 190
14.68723 192
14.70734 205
14.72746 171
14.74757 184
14.76768 186
14.7878 193
14.80791 168
14.82803 214
14.84814 212
14.86825 213
14.88837 218
14.90848 247
14.92859 212
14.94871 236
14.96882 195
14.98894 218
15.00905 242
15.02916 221
15.04928 214
15.06939 207
15.0895 208
15.10962 206
15.12973 202
15.14984 227
15.16996 174
15.19007 202
15.21019 197
15.2303 196
15.25041 198
15.27053 214
15.29064 199
15.31075 204
15.33087 194
15.35098 187
15.3711 192
15.39121 167
15.41132 180
15.43144 184
15.45155 183
15.47166 172
15.49178 164
15.51189 168
15.53201 160
15.55212 163
15.57223 165
15.59235 159
15.61246 198
15.63257 168
15.65269 167
15.6728 175
15.69291 188
15.71303 179
15.73314 174
15.75326 181
15.77337 169
15.79348 175
15.8136 186
15.83371 171
15.85382 160
15.87394 152
15.89405 200
15.91417 169
15.93428 199
15.95439 188
15.97451 188
15.99462 151
16.01473 167
16.03485 168
16.05496 162
16.07508 162
16.09519 182
16.1153 171
16.13542 178
16.15553 157
16.17564 154
16.19576 159
16.21587 174
16.23598 166
16.2561 159
16.27621 166
16.29633 196
16.31644 185
16.33655 191
16.35667 183
16.37678 170
16.39689 167
16.41701 180
16.43712 171
16.45724 166
16.47735 147
16.49746 168
16.51758 147
16.53769 146
16.5578 179
16.57792 154
16.59803 152
16.61814 163
16.63826 172
16.65837 155
16.67849 162
16.6986 153
16.71871 157
16.73883 163
16.75894 189
16.77905 151
16.79917 157
16.81928 179
16.8394 145
16.85951 168
16.87962 156
16.89974 191
16.91985 148
16.93996 149
16.96008 165
16.98019 157
17.00031 153
17.02042 160
17.04053 167
17.06065 147
17.08076 135
17.10087 173
17.12099 151
17.1411 166
17.16121 161
17.18133 162
17.20144 155
17.22156 175
17.24167 155
17.26178 135
17.2819 158
17.30201 170
17.32212 164
17.34224 153
17.36235 158
17.38247 172
17.40258 173
17.42269 165
17.44281 187
17.46292 178
17.48303 155
17.50315 190
17.52326 175
17.54338 159
17.56349 171
17.5836 167
17.60372 148
17.62383 164
17.64394 157
17.66406 171
17.68417 166
17.70428 168
17.7244 154
17.74451 154
17.76463 188
17.78474 174
17.80485 144
17.82497 146
17.84508 172
17.86519 176
17.88531 151
17.90542 163
17.92554 169
17.94565 154
17.96576 156
17.98588 169
18.00599 167
18.0261 153
18.04622 146
18.06633 185
18.08645 181
18.10656 163
18.12667 141
18.14679 167
18.1669 169
18.18701 153
18.20713 179
18.22724 183
18.24735 175
18.26747 163
18.28758 161
18.3077 171
18.32781 159
18.34792 164
18.36804 162
18.38815 180
18.40826 176
18.42838 195
18.44849 150
18.46861 157
18.48872 181
18.50883 195
18.52895 157
18.54906 152
18.56917 169
18.58929 153
18.6094 157
18.62951 204
18.64963 168
18.66974 176
18.68986 155
18.70997 183
18.73008 194
18.7502 188
18.77031 175
18.79042 203
18.81054 177
18.83065 183
18.85077 172
18.87088 181
18.89099 188
18.91111 161
18.93122 169
18.95133 180
18.97145 178
18.99156 180
19.01168 163
19.03179 176
19.0519 192
19.07202 182
19.09213 190
19.11224 195
19.13236 184
19.15247 193
19.17258 176
19.1927 192
19.21281 192
19.23293 195
19.25304 204
19.27315 214
19.29327 193
19.31338 182
19.33349 174
19.35361 176
19.37372 184
19.39384 190
19.41395 160
19.43406 166
19.45418 180
19.47429 178
19.4944 181
19.51452 202
19.53463 212
19.55475 213
19.57486 204
19.59497 198
19.61509 175
19.6352 177
19.65531 214
19.67543 217
19.69554 214
19.71565 220
19.73577 216
19.75588 220
19.776 208
19.79611 187
19.81622 218
19.83634 215
19.85645 199
19.87656 226
19.89668 226
19.91679 232
19.93691 251
19.95702 214
19.97713 232
19.99725 211
20.01736 223
20.03747 220
20.05759 222
20.0777 244
20.09782 231
20.11793 255
20.13804 258
20.15816 222
20.17827 270
20.19838 260
20.2185 259
20.23861 255
20.25872 245
20.27884 275
20.29895 285
20.31907 271
20.33918 251
20.35929 291
20.37941 299
20.39952 320
20.41963 303
20.43975 298
20.45986 316
20.47998 347
20.50009 336
20.5202 367
20.54032 378
20.56043 383
20.58054 418
20.60066 441
20.62077 516
20.64088 683
20.661 801
20.68111 985
20.70123 1192
20.72134 1500
20.74145 1884
20.76157 2354
20.78168 2820
20.80179 3286
20.82191 3720
20.84202 4212
20.86214 4238
20.88225 4244
20.90236 3889
20.92248 3334
20.94259 2780
20.9627 2215
20.98282 1676
21.00293 1424
21.02305 1180
21.04316 1033
21.06327 958
21.08339 766
21.1035 682
21.12361 565
21.14373 517
21.16384 476
21.18395 425
21.20407 346
21.22418 320
21.2443 346
21.26441 291
21.28452 283
21.30464 266
21.32475 290
21.34486 272
21.36498 256
21.38509 218
21.40521 224
21.42532 265
21.44543 254
21.46555 269
21.48566 247
21.50577 266
21.52589 231
21.546 208
21.56612 277
21.58623 266
21.60634 225
21.62646 239
21.64657 227
21.66668 257
21.6868 266
21.70691 235
21.72702 252
21.74714 241
21.76725 232
21.78737 249
21.80748 248
21.82759 291
21.84771 261
21.86782 333
21.88793 357
21.90805 365
21.92816 372
21.94828 457
21.96839 469
21.9885 476
22.00862 502
22.02873 484
22.04884 449
22.06896 402
22.08907 358
22.10919 377
22.1293 307
22.14941 291
22.16953 292
22.18964 284
22.20975 328
22.22987 308
22.24998 304
22.27009 314
22.29021 359
22.31032 326
22.33044 338
22.35055 307
22.37066 274
22.39078 273
22.41089 288
22.431 259
22.45112 253
22.47123 230
22.49135 251
22.51146 247
22.53157 248
22.55169 250
22.5718 242
22.59191 253
22.61203 257
22.63214 243
22.65225 270
22.67237 265
22.69248 240
22.7126 230
22.73271 252
22.75282 241
22.77294 258
22.79305 249
22.81316 241
22.83328 251
22.85339 218
22.87351 237
22.89362 262
22.91373 312
22.93385 299
22.95396 310
22.97407 342
22.99419 359
23.0143 343
23.03442 415
23.05453 365
23.07464 389
23.09476 401
23.11487 368
23.13498 441
23.1551 408
23.17521 434
23.19532 484
23.21544 467
23.23555 444
23.25567 397
23.27578 382
23.29589 344
23.31601 300
23.33612 306
23.35623 296
23.37635 250
23.39646 286
23.41658 249
23.43669 277
23.4568 269
23.47692 306
23.49703 301
23.51714 300
23.53726 328
23.55737 363
23.57749 387
23.5976 367
23.61771 367
23.63783 352
23.65794 336
23.67805 334
23.69817 317
23.71828 301
23.73839 321
23.75851 300
23.77862 315
23.79874 330
23.81885 350
23.83896 384
23.85908 424
23.87919 446
23.8993 505
23.91942 551
23.93953 565
23.95965 573
23.97976 568
23.99987 602
24.01999 551
24.0401 537
24.06021 539
24.08033 458
24.10044 380
24.12056 374
24.14067 335
24.16078 341
24.1809 366
24.20101 356
24.22112 372
24.24124 415
24.26135 414
24.28146 465
24.30158 424
24.32169 424
24.34181 381
24.36192 396
24.38203 384
24.40215 399
24.42226 325
24.44237 344
24.46249 294
24.4826 295
24.50272 269
24.52283 269
24.54294 269
24.56306 300
24.58317 275
24.60328 265
24.6234 269
24.64351 260
24.66362 258
24.68374 287
24.70385 272
24.72397 267
24.74408 285
24.76419 266
24.78431 293
24.80442 263
24.82453 247
24.84465 279
24.86476 271
24.88488 296
24.90499 274
24.9251 265
24.94522 271
24.96533 253
24.98544 272
25.00556 232
25.02567 254
25.04579 231
25.0659 260
25.08601 233
25.10613 207
25.12624 230
25.14635 230
25.16647 235
25.18658 255
25.20669 257
25.22681 246
25.24692 266
25.26704 278
25.28715 265
25.30726 296
25.32738 293
25.34749 312
25.3676 349
25.38772 337
25.40783 381
25.42795 436
25.44806 423
25.46817 504
25.48829 536
25.5084 570
25.52851 589
25.54863 603
25.56874 594
25.58886 574
25.60897 598
25.62908 579
25.6492 601
25.66931 535
25.68942 516
25.70954 531
25.72965 525
25.74976 510
25.76988 491
25.78999 454
25.81011 449
25.83022 406
25.85033 393
25.87045 379
25.89056 440
25.91067 397
25.93079 393
25.9509 374
25.97102 412
25.99113 433
26.01124 456
26.03136 441
26.05147 493
26.07158 500
26.0917 529
26.11181 526
26.13193 582
26.15204 617
26.17215 706
26.19227 768
26.21238 813
26.23249 836
26.25261 966
26.27272 1074
26.29283 1261
26.31295 1361
26.33306 1541
26.35318 1969
26.37329 2243
26.3934 2677
26.41352 3386
26.43363 4048
26.45374 5221
26.47386 6262
26.49397 7974
26.51409 9374
26.5342 11478
26.55431 13321
26.57443 15299
26.59454 16871
26.61465 18220
26.63477 18482
26.65488 17988
26.67499 16720
26.69511 14080
26.71522 11557
26.73534 9186
26.75545 6848
26.77556 5108
26.79568 3640
26.81579 2678
26.8359 2108
26.85602 1632
26.87613 1405
26.89625 1195
26.91636 1088
26.93647 995
26.95659 1029
26.9767 995
26.99681 947
27.01693 949
27.03704 930
27.05716 950
27.07727 875
27.09738 876
27.1175 830
27.13761 827
27.15772 741
27.17784 720
27.19795 726
27.21806 706
27.23818 769
27.25829 787
27.27841 853
27.29852 819
27.31863 909
27.33875 993
27.35886 1097
27.37897 1188
27.39909 1253
27.4192 1330
27.43932 1303
27.45943 1268
27.47954 1261
27.49966 1160
27.51977 1011
27.53988 964
27.56 886
27.58011 804
27.60023 713
27.62034 730
27.64045 635
27.66057 647
27.68068 667
27.70079 705
27.72091 735
27.74102 810
27.76113 814
27.78125 873
27.80136 828
27.82148 830
27.84159 792
27.8617 812
27.88182 876
27.90193 822
27.92204 820
27.94216 856
27.96227 796
27.98239 703
28.0025 750
28.02261 679
28.04273 566
28.06284 520
28.08295 445
28.10307 410
28.12318 374
28.1433 392
28.16341 361
28.18352 365
28.20364 370
28.22375 351
28.24386 371
28.26398 337
28.28409 356
28.3042 368
28.32432 336
28.34443 329
28.36455 305
28.38466 313
28.40477 299
28.42489 279
28.445 273
28.46511 258
28.48523 247
28.50534 239
28.52546 235
28.54557 231
28.56568 215
28.5858 250
28.60591 230
28.62602 232
28.64614 239
28.66625 240
28.68636 244
28.70648 224
28.72659 218
28.74671 221
28.76682 219
28.78693 201
28.80705 219
28.82716 234
28.84727 229
28.86739 198
28.8875 234
28.90762 216
28.92773 199
28.94784 217
28.96796 178
28.98807 226
29.00818 239
29.0283 229
29.04841 234
29.06853 227
29.08864 215
29.10875 212
29.12887 223
29.14898 204
29.16909 246
29.18921 230
29.20932 255
29.22943 225
29.24955 284
29.26966 254
29.28978 265
29.30989 277
29.33 283
29.35012 297
29.37023 312
29.39034 359
29.41046 391
29.43057 347
29.45069 359
29.4708 353
29.49091 345
29.51103 344
29.53114 335
29.55125 324
29.57137 304
29.59148 266
29.6116 266
29.63171 254
29.65182 241
29.67194 244
29.69205 293
29.71216 276
29.73228 262
29.75239 312
29.7725 250
29.79262 258
29.81273 268
29.83285 318
29.85296 278
29.87307 283
29.89319 254
29.9133 275
29.93341 265
29.95353 329
29.97364 313
29.99376 292
30.01387 294
30.03398 306
30.0541 333
30.07421 375
30.09432 322
30.11444 361
30.13455 435
30.15467 413
30.17478 434
30.19489 422
30.21501 469
30.23512 444
30.25523 423
30.27535 435
30.29546 417
30.31557 371
30.33569 424
30.3558 380
30.37592 397
30.39603 383
30.41614 391
30.43626 367
30.45637 317
30.47648 326
30.4966 303
30.51671 325
30.53683 337
30.55694 302
30.57705 294
30.59717 298
30.61728 344
30.63739 328
30.65751 344
30.67762 380
30.69773 403
30.71785 397
30.73796 375
30.75808 398
30.77819 398
30.7983 402
30.81842 365
30.83853 367
30.85864 347
30.87876 382
30.89887 334
30.91899 335
30.9391 311
30.95921 248
30.97933 257
30.99944 233
31.01955 241
31.03967 223
31.05978 244
31.0799 204
31.10001 205
31.12012 206
31.14024 208
31.16035 191
31.18046 210
31.20058 181
31.22069 213
31.2408 203
31.26092 220
31.28103 193
31.30115 241
31.32126 198
31.34137 195
31.36149 241
31.3816 222
31.40171 216
31.42183 231
31.44194 237
31.46206 202
31.48217 220
31.50228 204
31.5224 215
31.54251 213
31.56262 209
31.58274 205
31.60285 177
31.62297 175
31.64308 184
31.66319 189
31.68331 190
31.70342 189
31.72353 186
31.74365 206
31.76376 207
31.78387 190
31.80399 196
31.8241 179
31.84422 175
31.86433 179
31.88444 194
31.90456 171
31.92467 181
31.94478 196
31.9649 193
31.98501 169
32.00513 202
32.02524 222
32.04535 236
32.06547 236
32.08558 192
32.10569 241
32.12581 208
32.14592 243
32.16604 205
32.18615 205
32.20626 237
32.22638 259
32.24649 213
32.2666 227
32.28672 258
32.30683 233
32.32694 230
32.34706 239
32.36717 215
32.38729 252
32.4074 258
32.42751 248
32.44763 265
32.46774 220
32.48785 254
32.50797 238
32.52808 196
32.5482 217
32.56831 207
32.58842 202
32.60854 168
32.62865 216
32.64876 188
32.66888 162
32.68899 168
32.7091 168
32.72922 191
32.74933 174
32.76945 159
32.78956 188
32.80967 172
32.82979 146
32.8499 160
32.87001 171
32.89013 157
32.91024 132
32.93036 160
32.95047 195
32.97058 165
32.9907 157
33.01081 146
33.03092 155
33.05104 147
33.07115 169
33.09127 169
33.11138 153
33.13149 167
33.15161 161
33.17172 179
33.19183 166
33.21195 157
33.23206 165
33.25217 166
33.27229 170
33.2924 152
33.31252 170
33.33263 182
33.35274 159
33.37286 159
33.39297 155
33.41308 157
33.4332 165
33.45331 187
33.47343 132
33.49354 158
33.51365 137
33.53377 159
33.55388 150
33.57399 148
33.59411 150
33.61422 159
33.63434 130
33.65445 168
33.67456 163
33.69468 180
33.71479 150
33.7349 190
33.75502 187
33.77513 195
33.79524 199
33.81536 188
33.83547 192
33.85559 200
33.8757 183
33.89581 221
33.91593 226
33.93604 198
33.95615 184
33.97627 180
33.99638 198
34.0165 230
34.03661 233
34.05672 234
34.07684 243
34.09695 255
34.11706 297
34.13718 261
34.15729 282
34.17741 293
34.19752 309
34.21763 316
34.23775 272
34.25786 253
34.27797 266
34.29809 223
34.3182 241
34.33831 206
34.35843 227
34.37854 182
34.39866 191
34.41877 209
34.43888 204
34.459 243
34.47911 221
34.49922 225
34.51934 236
34.53945 217
34.55957 222
34.57968 236
34.59979 261
34.61991 256
34.64002 232
34.66013 242
34.68025 212
34.70036 258
34.72047 255
34.74059 228
34.7607 249
34.78082 216
34.80093 227
34.82104 268
34.84116 233
34.86127 257
34.88138 248
34.9015 239
34.92161 244
34.94173 227
34.96184 232
34.98195 252
35.00207 232
35.02218 236
35.04229 211
35.06241 239
35.08252 268
35.10264 257
35.12275 270
35.14286 217
35.16298 286
35.18309 266
35.2032 255
35.22332 293
35.24343 324
35.26354 271
35.28366 310
35.30377 292
35.32389 284
35.344 309
35.36411 290
35.38423 295
35.40434 317
35.42445 306
35.44457 289
35.46468 320
35.4848 341
35.50491 317
35.52502 296
35.54514 330
35.56525 297
35.58536 297
35.60548 297
35.62559 266
35.64571 260
35.66582 286
35.68593 263
35.70605 228
35.72616 228
35.74627 241
35.76639 249
35.7865 227
35.80661 208
35.82673 212
35.84684 227
35.86696 191
35.88707 226
35.90718 225
35.9273 202
35.94741 184
35.96752 195
35.98764 226
36.00775 198
36.02787 224
36.04798 201
36.06809 238
36.08821 217
36.10832 252
36.12843 260
36.14855 250
36.16866 254
36.18878 265
36.20889 320
36.229 294
36.24912 338
36.26923 378
36.28934 408
36.30946 416
36.32957 494
36.34968 592
36.3698 687
36.38991 775
36.41003 838
36.43014 995
36.45025 1053
36.47037 1248
36.49048 1238
36.51059 1279
36.53071 1306
36.55082 1367
36.57094 1171
36.59105 1086
36.61116 960
36.63128 849
36.65139 735
36.6715 600
36.69162 496
36.71173 399
36.73184 353
36.75196 318
36.77207 290
36.79219 270
36.8123 267
36.83241 264
36.85253 285
36.87264 280
36.89275 259
36.91287 299
36.93298 291
36.9531 293
36.97321 251
36.99332 276
37.01344 267
37.03355 265
37.05366 256
37.07378 234
37.09389 227
37.11401 191
37.13412 235
37.15423 193
37.17435 210
37.19446 190
37.21457 225
37.23469 200
37.2548 174
37.27491 175
37.29503 189
37.31514 187
37.33526 207
37.35537 190
37.37548 192
37.3956 203
37.41571 201
37.43582 182
37.45594 206
37.47605 204
37.49617 211
37.51628 171
37.53639 189
37.55651 205
37.57662 230
37.59673 184
37.61685 210
37.63696 190
37.65708 184
37.67719 174
37.6973 174
37.71742 181
37.73753 221
37.75764 193
37.77776 186
37.79787 169
37.81798 166
37.8381 166
37.85821 155
37.87833 156
37.89844 186
37.91855 183
37.93867 151
37.95878 179
37.97889 188
37.99901 150
38.01912 175
38.03924 153
38.05935 167
38.07946 162
38.09958 167
38.11969 184
38.1398 173
38.15992 169
38.18003 166
38.20015 170
38.22026 155
38.24037 166
38.26049 137
38.2806 168
38.30071 147
38.32083 183
38.34094 210
38.36105 201
38.38117 180
38.40128 191
38.4214 217
38.44151 198
38.46162 225
38.48174 240
38.50185 206
38.52196 240
38.54208 217
38.56219 215
38.58231 236
38.60242 191
38.62253 213
38.64265 212
38.66276 201
38.68287 197
38.70299 191
38.7231 174
38.74321 179
38.76333 199
38.78344 162
38.80356 176
38.82367 180
38.84378 165
38.8639 192
38.88401 208
38.90412 169
38.92424 215
38.94435 213
38.96447 207
38.98458 219
39.00469 231
39.02481 194
39.04492 216
39.06503 260
39.08515 241
39.10526 250
39.12538 264
39.14549 303
39.1656 310
39.18572 369
39.20583 377
39.22594 433
39.24606 478
39.26617 501
39.28628 632
39.3064 684
39.32651 803
39.34663 947
39.36674 986
39.38685 1066
39.40697 1181
39.42708 1227
39.44719 1312
39.46731 1321
39.48742 1198
39.50754 1050
39.52765 965
39.54776 795
39.56788 689
39.58799 570
39.6081 567
39.62822 387
39.64833 334
39.66845 298
39.68856 239
39.70867 236
39.72879 226
39.7489 231
39.76901 214
39.78913 219
39.80924 197
39.82935 202
39.84947 208
39.86958 172
39.8897 212
39.90981 194
39.92992 233
39.95004 217
39.97015 212
39.99026 253
40.01038 242
40.03049 268
40.05061 287
40.07072 355
40.09083 348
40.11095 379
40.13106 455
40.15117 488
40.17129 590
40.1914 598
40.21152 669
40.23163 672
40.25174 674
40.27186 722
40.29197 682
40.31208 645
40.3322 632
40.35231 539
40.37242 487
40.39254 466
40.41265 345
40.43277 333
40.45288 280
40.47299 230
40.49311 229
40.51322 206
40.53333 215
40.55345 200
40.57356 211
40.59368 176
40.61379 203
40.6339 175
40.65402 155
40.67413 183
40.69424 170
40.71436 152
40.73447 150
40.75458 183
40.7747 172
40.79481 155
40.81493 156
40.83504 183
40.85515 182
40.87527 189
40.89538 174
40.91549 165
40.93561 152
40.95572 171
40.97584 166
40.99595 162
41.01606 167
41.03618 182
41.05629 152
41.0764 164
41.09652 166
41.11663 171
41.13675 191
41.15686 174
41.17697 197
41.19709 168
41.2172 198
41.23731 172
41.25743 191
41.27754 187
41.29765 162
41.31777 165
41.33788 171
41.358 190
41.37811 201
41.39822 181
41.41834 184
41.43845 171
41.45856 168
41.47868 197
41.49879 215
41.51891 206
41.53902 262
41.55913 234
41.57925 235
41.59936 256
41.61947 250
41.63959 284
41.6597 311
41.67982 337
41.69993 311
41.72004 335
41.74016 342
41.76027 322
41.78038 369
41.8005 368
41.82061 344
41.84072 310
41.86084 310
41.88095 310
41.90107 308
41.92118 260
41.94129 287
41.96141 245
41.98152 230
42.00163 235
42.02175 201
42.04186 213
42.06198 210
42.08209 226
42.1022 236
42.12232 275
42.14243 267
42.16254 289
42.18266 337
42.20277 361
42.22289 397
42.243 410
42.26311 530
42.28323 502
42.30334 592
42.32345 686
42.34357 793
42.36368 806
42.38379 921
42.40391 978
42.42402 974
42.44414 1006
42.46425 882
42.48436 864
42.50448 726
42.52459 630
42.5447 591
42.56482 540
42.58493 462
42.60505 394
42.62516 345
42.64527 311
42.66539 277
42.6855 268
42.70561 280
42.72573 246
42.74584 227
42.76595 236
42.78607 222
42.80618 217
42.8263 242
42.84641 229
42.86652 220
42.88664 223
42.90675 240
42.92686 200
42.94698 223
42.96709 207
42.98721 195
43.00732 190
43.02743 201
43.04755 202
43.06766 206
43.08777 186
43.10789 179
43.128 156
43.14812 170
43.16823 186
43.18834 184
43.20846 173
43.22857 168
43.24868 162
43.2688 180
43.28891 180
43.30902 161
43.32914 170
43.34925 183
43.36937 167
43.38948 155
43.40959 175
43.42971 178
43.44982 166
43.46993 184
43.49005 170
43.51016 183
43.53028 192
43.55039 178
43.5705 150
43.59062 172
43.61073 156
43.63084 155
43.65096 163
43.67107 157
43.69119 150
43.7113 153
43.73141 152
43.75153 166
43.77164 146
43.79175 153
43.81187 166
43.83198 158
43.85209 145
43.87221 158
43.89232 127
43.91244 160
43.93255 138
43.95266 172
43.97278 149
43.99289 163
44.013 169
44.03312 160
44.05323 155
44.07335 178
44.09346 181
44.11357 184
44.13369 175
44.1538 155
44.17391 196
44.19403 151
44.21414 164
44.23426 171
44.25437 158
44.27448 173
44.2946 152
44.31471 164
44.33482 161
44.35494 162
44.37505 158
44.39516 178
44.41528 184
44.43539 165
44.45551 157
44.47562 166
44.49573 159
44.51585 149
44.53596 165
44.55607 172
44.57619 146
44.5963 156
44.61642 150
44.63653 161
44.65664 181
44.67676 155
44.69687 167
44.71698 148
44.7371 162
44.75721 161
44.77732 153
44.79744 172
44.81755 141
44.83767 153
44.85778 161
44.87789 155
44.89801 154
44.91812 165
44.93823 178
44.95835 166
44.97846 173
44.99858 175
45.01869 169
45.0388 152
45.05892 168
45.07903 170
45.09914 187
45.11926 169
45.13937 158
45.15949 157
45.1796 184
45.19971 181
45.21983 148
45.23994 172
45.26005 169
45.28017 175
45.30028 193
45.32039 201
45.34051 208
45.36062 205
45.38074 247
45.40085 244
45.42096 228
45.44108 253
45.46119 266
45.4813 302
45.50142 287
45.52153 300
45.54165 362
45.56176 399
45.58187 393
45.60199 426
45.6221 498
45.64221 527
45.66233 568
45.68244 613
45.70256 587
45.72267 635
45.74278 677
45.7629 680
45.78301 631
45.80312 715
45.82324 572
45.84335 539
45.86346 473
45.88358 429
45.90369 399
45.92381 362
45.94392 320
45.96403 276
45.98415 245
46.00426 237
46.02437 180
46.04449 199
46.0646 176
46.08472 185
46.10483 186
46.12494 189
46.14506 180
46.16517 179
46.18528 202
46.2054 158
46.22551 192
46.24563 183
46.26574 166
46.28585 176
46.30597 159
46.32608 163
46.34619 164
46.36631 164
46.38642 168
46.40653 163
46.42665 156
46.44676 171
46.46688 129
46.48699 148
46.5071 137
46.52722 154
46.54733 143
46.56744 161
46.58756 154
46.60767 163
46.62779 166
46.6479 158
46.66801 164
46.68813 149
46.70824 159
46.72835 150
46.74847 159
46.76858 155
46.78869 150
46.80881 168
46.82892 158
46.84904 189
46.86915 190
46.88926 151
46.90938 189
46.92949 159
46.9496 166
46.96972 197
46.98983 206
47.00995 219
47.03006 212
47.05017 212
47.07029 213
47.0904 224
47.11051 209
47.13063 204
47.15074 180
47.17086 214
47.19097 201
47.21108 180
47.2312 184
47.25131 169
47.27142 198
47.29154 172
47.31165 188
47.33176 180
47.35188 186
47.37199 184
47.39211 195
47.41222 155
47.43233 184
47.45245 186
47.47256 198
47.49267 212
47.51279 197
47.5329 203
47.55302 165
47.57313 190
47.59324 150
47.61336 174
47.63347 146
47.65358 169
47.6737 148
47.69381 143
47.71393 164
47.73404 149
47.75415 155
47.77427 142
47.79438 149
47.81449 148
47.83461 129
47.85472 152
47.87483 156
47.89495 161
47.91506 145
47.93518 139
47.95529 132
47.9754 143
47.99552 147
48.01563 140
48.03574 134
48.05586 155
48.07597 155
48.09609 168
48.1162 153
48.13631 148
48.15643 155
48.17654 141
48.19665 172
48.21677 172
48.23688 174
48.257 195
48.27711 169
48.29722 147
48.31734 158
48.33745 176
48.35756 178
48.37768 155
48.39779 143
48.4179 142
48.43802 160
48.45813 180
48.47825 184
48.49836 157
48.51847 178
48.53859 172
48.5587 155
48.57881 167
48.59893 167
48.61904 178
48.63916 168
48.65927 169
48.67938 170
48.6995 206
48.71961 169
48.73972 169
48.75984 184
48.77995 191
48.80006 186
48.82018 190
48.84029 189
48.86041 190
48.88052 208
48.90063 229
48.92075 207
48.94086 214
48.96097 203
48.98109 209
49.0012 198
49.02132 233
49.04143 235
49.06154 204
49.08166 205
49.10177 205
49.12188 236
49.142 205
49.16211 188
49.18223 213
49.20234 210
49.22245 194
49.24257 193
49.26268 172
49.28279 195
49.30291 187
49.32302 195
49.34313 186
49.36325 176
49.38336 194
49.40348 184
49.42359 173
49.4437 199
49.46382 171
49.48393 177
49.50404 178
49.52416 198
49.54427 188
49.56439 241
49.5845 207
49.60461 252
49.62473 256
49.64484 248
49.66495 268
49.68507 295
49.70518 315
49.7253 347
49.74541 382
49.76552 394
49.78564 440
49.80575 465
49.82586 499
49.84598 593
49.86609 678
49.8862 711
49.90632 801
49.92643 954
49.94655 1031
49.96666 1146
49.98677 1284
50.00689 1498
50.027 1605
50.04711 1798
50.06723 1929
50.08734 1976
50.10746 1989
50.12757 2054
50.14768 1824
50.1678 1766
50.18791 1536
50.20802 1384
50.22814 1266
50.24825 1121
50.26837 922
50.28848 941
50.30859 753
50.32871 606
50.34882 554
50.36893 450
50.38905 446
50.40916 446
50.42927 418
50.44939 388
50.4695 459
50.48962 407
50.50973 432
50.52984 393
50.54996 384
50.57007 376
50.59018 381
50.6103 394
50.63041 343
50.65053 347
50.67064 352
50.69075 319
50.71087 304
50.73098 285
50.75109 265
50.77121 288
50.79132 274
50.81143 219
50.83155 268
50.85166 230
50.87178 233
50.89189 245
50.912 221
50.93212 236
50.95223 182
50.97234 176
50.99246 204
51.01257 188
51.03269 183
51.0528 196
51.07291 182
51.09303 175
51.11314 197
51.13325 200
51.15337 187
51.17348 195
51.1936 212
51.21371 183
51.23382 204
51.25394 200
51.27405 187
51.29416 198
51.31428 183
51.33439 213
51.3545 184
51.37462 185
51.39473 182
51.41485 166
51.43496 159
51.45507 155
51.47519 154
51.4953 142
51.51541 160
51.53553 145
51.55564 145
51.57576 162
51.59587 180
51.61598 158
51.6361 147
51.65621 139
51.67632 154
51.69644 135
51.71655 129
51.73667 142
51.75678 135
51.77689 174
51.79701 149
51.81712 147
51.83723 143
51.85735 159
51.87746 135
51.89757 134
51.91769 124
51.9378 137
51.95792 117
51.97803 158
51.99814 125
52.01826 146
52.03837 137
52.05848 150
52.0786 117
52.09871 151
52.11883 136
52.13894 134
52.15905 144
52.17917 146
52.19928 134
52.21939 141
52.23951 123
52.25962 133
52.27974 148
52.29985 129
52.31996 166
52.34008 144
52.36019 160
52.3803 154
52.40042 159
52.42053 155
52.44064 163
52.46076 166
52.48087 158
52.50099 143
52.5211 147
52.54121 186
52.56133 160
52.58144 158
52.60155 196
52.62167 170
52.64178 168
52.6619 149
52.68201 166
52.70212 143
52.72224 180
52.74235 165
52.76246 155
52.78258 172
52.80269 179
52.8228 149
52.84292 161
52.86303 179
52.88315 155
52.90326 171
52.92337 152
52.94349 168
52.9636 168
52.98371 153
53.00383 154
53.02394 148
53.04406 152
53.06417 152
53.08428 154
53.1044 157
53.12451 142
53.14462 154
53.16474 155
53.18485 177
53.20497 161
53.22508 180
53.24519 177
53.26531 150
53.28542 144
53.30553 157
53.32565 150
53.34576 139
53.36587 126
53.38599 171
53.4061 157
53.42622 154
53.44633 160
53.46644 151
53.48656 155
53.50667 152
53.52678 142
53.5469 142
53.56701 154
53.58713 148
53.60724 144
53.62735 136
53.64747 157
53.66758 162
53.68769 154
53.70781 154
53.72792 150
53.74804 131
53.76815 168
53.78826 141
53.80838 145
53.82849 172
53.8486 175
53.86872 150
53.88883 155
53.90894 160
53.92906 158
53.94917 152
53.96929 153
53.9894 168
54.00951 150
54.02963 167
54.04974 164
54.06985 164
54.08997 171
54.11008 174
54.1302 171
54.15031 149
54.17042 189
54.19054 165
54.21065 167
54.23076 152
54.25088 175
54.27099 160
54.29111 161
54.31122 166
54.33133 171
54.35145 174
54.37156 168
54.39167 167
54.41179 193
54.4319 196
54.45201 188
54.47213 209
54.49224 199
54.51236 228
54.53247 196
54.55258 233
54.5727 250
54.59281 267
54.61292 329
54.63304 358
54.65315 370
54.67327 383
54.69338 465
54.71349 424
54.73361 519
54.75372 557
54.77383 595
54.79395 665
54.81406 655
54.83417 651
54.85429 698
54.8744 641
54.89452 602
54.91463 558
54.93474 518
54.95486 469
54.97497 468
54.99508 413
55.0152 429
55.03531 357
55.05543 347
55.07554 302
55.09565 333
55.11577 304
55.13588 278
55.15599 314
55.17611 298
55.19622 350
55.21634 345
55.23645 372
55.25656 385
55.27668 392
55.29679 376
55.3169 415
55.33702 350
55.35713 357
55.37724 342
55.39736 312
55.41747 325
55.43759 284
55.4577 279
55.47781 262
55.49793 253
55.51804 224
55.53815 212
55.55827 186
55.57838 187
55.5985 184
55.61861 182
55.63872 163
55.65884 186
55.67895 152
55.69906 185
55.71918 159
55.73929 137
55.75941 134
55.77952 158
55.79963 146
55.81975 135
55.83986 136
55.85997 129
55.88009 141
55.9002 166
55.92031 152
55.94043 126
55.96054 147
55.98066 130
56.00077 144
56.02088 132
56.041 162
56.06111 139
56.08122 116
56.10134 110
56.12145 144
56.14157 153
56.16168 110
56.18179 155
56.20191 133
56.22202 138
56.24213 129
56.26225 142
56.28236 151
56.30248 141
56.32259 135
56.3427 139
56.36282 142
56.38293 125
56.40304 116
56.42316 147
56.44327 146
56.46338 130
56.4835 122
56.50361 127
56.52373 137
56.54384 129
56.56395 133
56.58407 155
56.60418 150
56.62429 149
56.64441 149
56.66452 148
56.68464 141
56.70475 180
56.72486 152
56.74498 156
56.76509 162
56.7852 158
56.80532 153
56.82543 161
56.84554 151
56.86566 162
56.88577 153
56.90589 160
56.926 141
56.94611 171
56.96623 150
56.98634 151
57.00645 146
57.02657 157
57.04668 173
57.0668 158
57.08691 180
57.10702 181
57.12714 165
57.14725 176
57.16736 182
57.18748 183
57.20759 156
57.22771 174
57.24782 186
57.26793 215
57.28805 182
57.30816 179
57.32827 178
57.34839 152
57.3685 179
57.38861 154
57.40873 172
57.42884 174
57.44896 155
57.46907 159
57.48918 162
57.5093 172
57.52941 147
57.54952 160
57.56964 152
57.58975 142
57.60987 134
57.62998 158
57.65009 151
57.67021 127
57.69032 141
57.71043 140
57.73055 156
57.75066 132
57.77078 130
57.79089 140
57.811 150
57.83112 160
57.85123 150
57.87134 152
57.89146 146
57.91157 171
57.93168 176
57.9518 140
57.97191 144
57.99203 145
58.01214 158
58.03225 150
58.05237 145
58.07248 151
58.09259 131
58.11271 145
58.13282 147
58.15294 152
58.17305 157
58.19316 159
58.21328 163
58.23339 132
58.2535 157
58.27362 141
58.29373 163
58.31385 148
58.33396 168
58.35407 168
58.37419 130
58.3943 165
58.41441 161
58.43453 178
58.45464 148
58.47475 186
58.49487 153
58.51498 152
58.5351 179
58.55521 164
58.57532 160
58.59544 180
58.61555 182
58.63566 167
58.65578 180
58.67589 171
58.69601 178
58.71612 186
58.73623 181
58.75635 154
58.77646 162
58.79657 172
58.81669 170
58.8368 154
58.85691 139
58.87703 155
58.89714 128
58.91726 145
58.93737 179
58.95748 150
58.9776 147
58.99771 142
59.01782 132
59.03794 140
59.05805 133
59.07817 139
59.09828 154
59.11839 182
59.13851 137
59.15862 154
59.17873 143
59.19885 146
59.21896 148
59.23908 167
59.25919 155
59.2793 165
59.29942 158
59.31953 169
59.33964 177
59.35976 170
59.37987 175
59.39998 197
59.4201 194
59.44021 236
59.46033 228
59.48044 226
59.50055 254
59.52067 255
59.54078 291
59.56089 274
59.58101 323
59.60112 320
59.62124 367
59.64135 395
59.66146 462
59.68158 469
59.70169 509
59.7218 643
59.74192 716
59.76203 738
59.78215 883
59.80226 936
59.82237 1003
59.84249 1158
59.8626 1208
59.88271 1295
59.90283 1310
59.92294 1318
59.94305 1236
59.96317 1229
59.98328 1132
60.0034 1003
60.02351 901
60.04362 843
60.06374 800
60.08385 715
60.10396 618
60.12408 599
60.14419 507
60.16431 452
60.18442 356
60.20453 305
60.22465 282
60.24476 234
60.26487 215
60.28499 206
60.3051 199
60.32522 195
60.34533 188
60.36544 197
60.38556 166
60.40567 162
60.42578 159
60.4459 168
60.46601 155
60.48612 157
60.50624 172
60.52635 161
60.54647 161
60.56658 164
60.58669 177
60.60681 159
60.62692 154
60.64703 140
60.66715 168
60.68726 170
60.70738 159
60.72749 146
60.7476 156
60.76772 170
60.78783 147
60.80794 161
60.82806 155
60.84817 183
60.86828 161
60.8884 171
60.90851 191
60.92863 194
60.94874 165
60.96885 166
60.98897 177
61.00908 186
61.02919 168
61.04931 174
61.06942 197
61.08954 207
61.10965 193
61.12976 233
61.14988 221
61.16999 210
61.1901 191
61.21022 204
61.23033 195
61.25045 189
61.27056 176
61.29067 156
61.31079 174
61.3309 189
61.35101 165
61.37113 158
61.39124 165
61.41135 151
61.43147 141
61.45158 140
61.4717 151
61.49181 145
61.51192 178
61.53204 161
61.55215 127
61.57226 146
61.59238 136
61.61249 147
61.63261 153
61.65272 171
61.67283 152
61.69295 179
61.71306 144
61.73317 154
61.75329 130
61.7734 131
61.79352 181
61.81363 139
61.83374 149
61.85386 160
61.87397 162
61.89408 164
61.9142 146
61.93431 172
61.95442 152
61.97454 137
61.99465 160
62.01477 156
62.03488 164
62.05499 168
62.07511 136
62.09522 157
62.11533 174
62.13545 134
62.15556 157
62.17568 151
62.19579 159
62.2159 182
62.23602 155
62.25613 171
62.27624 140
62.29636 150
62.31647 157
62.33659 161
62.3567 153
62.37681 138
62.39693 162
62.41704 158
62.43715 162
62.45727 157
62.47738 131
62.49749 127
62.51761 155
62.53772 170
62.55784 151
62.57795 164
62.59806 140
62.61818 155
62.63829 166
62.6584 159
62.67852 165
62.69863 150
62.71875 138
62.73886 168
62.75897 153
62.77909 151
62.7992 159
62.81931 163
62.83943 162
62.85954 201
62.87965 172
62.89977 172
62.91988 181
62.94 177
62.96011 183
62.98022 183
63.00034 207
63.02045 215
63.04056 188
63.06068 196
63.08079 226
63.10091 197
63.12102 178
63.14113 180
63.16125 181
63.18136 191
63.20147 171
63.22159 185
63.2417 177
63.26182 190
63.28193 172
63.30204 158
63.32216 167
63.34227 178
63.36238 163
63.3825 155
63.40261 164
63.42272 148
63.44284 168
63.46295 180
63.48307 155
63.50318 171
63.52329 182
63.54341 165
63.56352 178
63.58363 208
63.60375 181
63.62386 224
63.64398 224
63.66409 225
63.6842 228
63.70432 219
63.72443 239
63.74454 229
63.76466 308
63.78477 286
63.80489 320
63.825 309
63.84511 347
63.86523 310
63.88534 356
63.90545 373
63.92557 376
63.94568 397
63.96579 391
63.98591 402
64.00602 357
64.02614 391
64.04625 340
64.06636 351
64.08648 295
64.10659 269
64.1267 254
64.14682 285
64.16693 265
64.18705 293
64.20716 211
64.22727 198
64.24739 209
64.2675 174
64.28761 162
64.30773 161
64.32784 167
64.34796 169
64.36807 141
64.38818 155
64.4083 151
64.42841 131
64.44852 143
64.46864 144
64.48875 116
64.50886 139
64.52898 152
64.54909 166
64.56921 141
64.58932 141
64.60943 142
64.62955 142
64.64966 131
64.66977 133
64.68989 145
64.71 140
64.73012 148
64.75023 152
64.77034 131
64.79046 156
64.81057 128
64.83068 162
64.8508 150
64.87091 162
64.89102 162
64.91114 163
64.93125 171
64.95137 149
64.97148 169
64.99159 149
65.01171 186
65.03182 171
65.05193 168
65.07205 151
65.09216 184
65.11228 153
65.13239 204
65.1525 174
65.17262 202
65.19273 182
65.21284 178
65.23296 174
65.25307 172
65.27319 165
65.2933 192
65.31341 168
65.33353 169
65.35364 157
65.37375 195
65.39387 165
65.41398 172
65.43409 182
65.45421 154
65.47432 183
65.49444 184
65.51455 173
65.53466 179
65.55478 166
65.57489 173
65.595 193
65.61512 164
65.63523 181
65.65535 196
65.67546 166
65.69557 188
65.71569 194
65.7358 196
65.75591 190
65.77603 193
65.79614 169
65.81626 191
65.83637 166
65.85648 142
65.8766 165
65.89671 171
65.91682 182
65.93694 167
65.95705 171
65.97716 189
65.99728 175
66.01739 164
66.03751 152
66.05762 133
66.07773 191
66.09785 131
66.11796 162
66.13807 176
66.15819 191
66.1783 164
66.19842 171
66.21853 180
66.23864 155
66.25876 156
66.27887 175
66.29898 163
66.3191 168
66.33921 169
66.35933 140
66.37944 178
66.39955 179
66.41967 178
66.43978 172
66.45989 163
66.48001 156
66.50012 164
66.52023 167
66.54035 159
66.56046 167
66.58058 151
66.60069 140
66.6208 168
66.64092 161
66.66103 150
66.68114 156
66.70126 177
66.72137 151
66.74149 164
66.7616 154
66.78171 185
66.80183 165
66.82194 138
66.84205 176
66.86217 178
66.88228 176
66.90239 141
66.92251 146
66.94262 170
66.96274 164
66.98285 174
67.00296 170
67.02308 203
67.04319 178
67.0633 179
67.08342 188
67.10353 178
67.12365 181
67.14376 175
67.16387 192
67.18399 179
67.2041 187
67.22421 234
67.24433 224
67.26444 231
67.28456 225
67.30467 237
67.32478 236
67.3449 268
67.36501 273
67.38512 264
67.40524 317
67.42535 335
67.44546 319
67.46558 358
67.48569 365
67.50581 415
67.52592 499
67.54603 530
67.56615 600
67.58626 648
67.60637 694
67.62649 764
67.6466 869
67.66672 878
67.68683 849
67.70694 920
67.72706 929
67.74717 800
67.76728 828
67.7874 804
67.80751 784
67.82763 750
67.84774 718
67.86785 800
67.88797 815
67.90808 835
67.92819 923
67.94831 901
67.96842 866
67.98853 916
68.00865 1037
68.02876 1027
68.04888 1156
68.06899 1224
68.0891 1257
68.10922 1221
68.12933 1254
68.14944 1250
68.16956 1198
68.18967 1200
68.20979 1110
68.2299 1040
68.25001 1120
68.27013 1016
68.29024 1006
68.31035 946
68.33047 889
68.35058 809
68.3707 700
68.39081 593
68.41092 537
68.43104 520
68.45115 434
68.47126 420
68.49138 384
68.51149 354
68.5316 312
68.55172 287
68.57183 271
68.59195 253
68.61206 239
68.63217 188
68.65229 191
68.6724 196
68.69251 186
68.71263 191
68.73274 179
68.75286 164
68.77297 168
68.79308 173
68.8132 190
68.83331 180
68.85342 182
68.87354 152
68.89365 181
68.91376 157
68.93388 177
68.95399 163
68.97411 162
68.99422 172
69.01433 150
69.03445 179
69.05456 171
69.07467 171
69.09479 174
69.1149 160
69.13502 156
69.15513 170
69.17524 149
69.19536 148
69.21547 158
69.23558 148
69.2557 183
69.27581 152
69.29593 144
69.31604 143
69.33615 153
69.35627 148
69.37638 162
69.39649 149
69.41661 134
69.43672 146
69.45683 140
69.47695 144
69.49706 153
69.51718 137
69.53729 139
69.5574 131
69.57752 146
69.59763 137
69.61774 151
69.63786 150
69.65797 147
69.67809 145
69.6982 130
69.71831 130
69.73843 144
69.75854 147
69.77865 176
69.79877 137
69.81888 154
69.839 139
69.85911 141
69.87922 152
69.89934 148
69.91945 141
69.93956 134
69.95968 146
69.97979 165
69.9999 158
70.02002 134
70.04013 145
70.06025 109
70.08036 123
70.10047 133
70.12059 133
70.1407 135
70.16081 128
70.18093 133
70.20104 141
70.22116 124
70.24127 147
70.26138 125
70.2815 146
70.30161 132
70.32172 125
70.34184 126
70.36195 133
70.38207 134
70.40218 138
70.42229 136
70.44241 132
70.46252 117
70.48263 147
70.50275 128
70.52286 144
70.54297 147
70.56309 131
70.5832 141
70.60332 147
70.62343 146
70.64354 137
70.66366 124
70.68377 158
70.70388 122
70.724 134
70.74411 139
70.76423 148
70.78434 146
70.80445 137
70.82457 146
70.84468 137
70.86479 141
70.88491 145
70.90502 137
70.92513 118
70.94525 153
70.96536 135
70.98548 155
71.00559 139
71.0257 137
71.04582 140
71.06593 144
71.08604 161
71.10616 126
71.12627 139
71.14639 149
71.1665 129
71.18661 115
71.20673 128
71.22684 126
71.24695 139
71.26707 151
71.28718 161
71.3073 129
71.32741 143
71.34752 127
71.36764 148
71.38775 145
71.40786 167
71.42798 145
71.44809 147
71.4682 154
71.48832 143
71.50843 156
71.52855 164
71.54866 150
71.56877 172
71.58889 149
71.609 147
71.62911 148
71.64923 162
71.66934 154
71.68946 118
71.70957 123
71.72968 153
71.7498 168
71.76991 158
71.79002 174
71.81014 158
71.83025 133
71.85037 152
71.87048 151
71.89059 164
71.91071 170
71.93082 140
71.95093 143
71.97105 134
71.99116 157
72.01127 148
72.03139 145
72.0515 161
72.07162 149
72.09173 160
72.11184 164
72.13196 136
72.15207 160
72.17218 140
72.1923 153
72.21241 156
72.23253 159
72.25264 145
72.27275 152
72.29287 146
72.31298 143
72.33309 134
72.35321 139
72.37332 141
72.39344 153
72.41355 147
72.43366 157
72.45378 148
72.47389 132
72.494 149
72.51412 125
72.53423 128
72.55434 132
72.57446 140
72.59457 156
72.61469 123
72.6348 129
72.65491 142
72.67503 135
72.69514 135
72.71525 143
72.73537 137
72.75548 143
72.7756 130
72.79571 135
72.81582 131
72.83594 127
72.85605 137
72.87616 147
72.89628 141
72.91639 161
72.9365 140
72.95662 154
72.97673 142
72.99685 162
73.01696 193
73.03707 203
73.05719 189
73.0773 156
73.09741 214
73.11753 214
73.13764 196
73.15776 231
73.17787 216
73.19798 255
73.2181 246
73.23821 260
73.25832 298
73.27844 297
73.29855 321
73.31867 301
73.33878 353
73.35889 362
73.37901 382
73.39912 433
73.41923 362
73.43935 402
73.45946 361
73.47957 338
73.49969 301
73.5198 287
73.53992 288
73.56003 276
73.58014 309
73.60026 274
73.62037 276
73.64048 247
73.6606 235
73.68071 216
73.70083 233
73.72094 193
73.74105 211
73.76117 177
73.78128 171
73.80139 158
73.82151 176
73.84162 140
73.86174 143
73.88185 153
73.90196 158
73.92208 161
73.94219 151
73.9623 146
73.98242 122
74.00253 142
74.02264 142
74.04276 153
74.06287 158
74.08299 151
74.1031 126
74.12321 130
74.14333 140
74.16344 140
74.18355 148
74.20367 141
74.22378 145
74.2439 149
74.26401 138
74.28412 144
74.30424 131
74.32435 137
74.34446 142
74.36458 124
74.38469 133
74.40481 136
74.42492 153
74.44503 140
74.46515 134
74.48526 128
74.50537 146
74.52549 148
74.5456 146
74.56571 161
74.58583 156
74.60594 137
74.62606 148
74.64617 164
74.66628 146
74.6864 138
74.70651 170
74.72662 156
74.74674 162
74.76685 158
74.78697 163
74.80708 170
74.82719 159
74.84731 138
74.86742 157
74.88753 152
74.90765 149
74.92776 148
74.94787 154
74.96799 158
74.9881 172
75.00822 170
