3.00117 20596
3.02128 20107
3.0414 19722
3.06151 19016
3.08162 18719
3.10174 18098
3.12185 17652
3.14197 17250
3.16208 16467
3.18219 16337
3.20231 15654
3.22242 14989
3.24253 14826
3.26265 14232
3.28276 13939
3.30288 13522
3.32299 13402
3.3431 12737
3.36322 12136
3.38333 11884
3.40344 11620
3.42356 11162
3.44367 10906
3.46379 10310
3.4839 10045
3.50401 9764
3.52413 9440
3.54424 9113
3.56435 8546
3.58447 8485
3.60458 8406
3.62469 7833
3.64481 7759
3.66492 7250
3.68504 7096
3.70515 6811
3.72526 6454
3.74538 6359
3.76549 5768
3.7856 5649
3.80572 5588
3.82583 5319
3.84595 5213
3.86606 4742
3.88617 4646
3.90629 4511
3.9264 4359
3.94651 4401
3.96663 4052
3.98674 3879
4.00686 3743
4.02697 3556
4.04708 3613
4.0672 3172
4.08731 3131
4.10742 3061
4.12754 2844
4.14765 2883
4.16776 2664
4.18788 2578
4.20799 2521
4.22811 2425
4.24822 2489
4.26833 2184
4.28845 2264
4.30856 2103
4.32867 2046
4.34879 2144
4.3689 1998
4.38902 1865
4.40913 1921
4.42924 1871
4.44936 1846
4.46947 1660
4.48958 1704
4.5097 1777
4.52981 1649
4.54992 1710
4.57004 1572
4.59015 1521
4.61027 1548
4.63038 1490
4.65049 1427
4.67061 1411
4.69072 1537
4.71083 1366
4.73095 1349
4.75106 1359
4.77118 1340
4.79129 1337
4.8114 1285
4.83152 1280
4.85163 1283
4.87174 1218
4.89186 1106
4.91197 1189
4.93209 1181
4.9522 1121
4.97231 1160
4.99243 1105
5.01254 1088
5.03265 1057
5.05277 1022
5.07288 1043
5.09299 993
5.11311 955
5.13322 953
5.15334 957
5.17345 955
5.19356 857
5.21368 979
5.23379 940
5.2539 894
5.27402 876
5.29413 873
5.31425 854
5.33436 878
5.35447 802
5.37459 828
5.3947 816
5.41481 739
5.43493 865
5.45504 803
5.47516 747
5.49527 746
5.51538 813
5.5355 801
5.55561 720
5.57572 694
5.59584 757
5.61595 678
5.63606 741
5.65618 680
5.67629 720
5.69641 660
5.71652 640
5.73663 696
5.75675 590
5.77686 682
5.79697 642
5.81709 654
5.8372 618
5.85732 673
5.87743 636
5.89754 612
5.91766 621
5.93777 585
5.95788 625
5.978 615
5.99811 649
6.01823 592
6.03834 614
6.05845 576
6.07857 596
6.09868 580
6.11879 604
6.13891 580
6.15902 589
6.17913 619
6.19925 545
6.21936 574
6.23948 529
6.25959 575
6.2797 592
6.29982 577
6.31993 544
6.34004 504
6.36016 559
6.38027 519
6.40039 485
6.4205 518
6.44061 494
6.46073 584
6.48084 539
6.50095 567
6.52107 488
6.54118 494
6.56129 518
6.58141 475
6.60152 495
6.62164 505
6.64175 500
6.66186 499
6.68198 535
6.70209 472
6.7222 504
6.74232 494
6.76243 457
6.78255 427
6.80266 494
6.82277 436
6.84289 454
6.863 520
6.88311 449
6.90323 442
6.92334 453
6.94346 488
6.96357 436
6.98368 495
7.0038 489
7.02391 476
7.04402 413
7.06414 467
7.08425 472
7.10436 454
7.12448 460
7.14459 472
7.16471 435
7.18482 423
7.20493 435
7.22505 426
7.24516 418
7.26527 475
7.28539 445
7.3055 418
7.32562 458
7.34573 447
7.36584 460
7.38596 395
7.40607 411
7.42618 455
7.4463 393
7.46641 440
7.48653 459
7.50664 441
7.52675 444
7.54687 405
7.56698 406
7.58709 477
7.60721 446
7.62732 410
7.64743 408
7.66755 391
7.68766 413
7.70778 428
7.72789 412
7.748 422
7.76812 394
7.78823 371
7.80834 383
7.82846 435
7.84857 413
7.86869 381
7.8888 385
7.90891 426
7.92903 371
7.94914 379
7.96925 397
7.98937 415
8.00948 384
8.0296 387
8.04971 363
8.06982 378
8.08994 366
8.11005 424
8.13016 367
8.15028 366
8.17039 379
8.1905 389
8.21062 408
8.23073 365
8.25085 397
8.27096 408
8.29107 375
8.31119 386
8.3313 362
8.35141 391
8.37153 339
8.39164 409
8.41176 385
8.43187 425
8.45198 427
8.4721 394
8.49221 399
8.51232 376
8.53244 381
8.55255 398
8.57266 370
8.59278 426
8.61289 392
8.63301 416
8.65312 399
8.67323 386
8.69335 401
8.71346 419
8.73357 389
8.75369 388
8.7738 419
8.79392 418
8.81403 366
8.83414 412
8.85426 398
8.87437 442
8.89448 393
8.9146 380
8.93471 351
8.95483 376
8.97494 394
8.99505 360
9.01517 367
9.03528 333
9.05539 332
9.07551 391
9.09562 389
9.11573 342
9.13585 382
9.15596 381
9.17608 358
9.19619 371
9.2163 364
9.23642 339
9.25653 360
9.27664 367
9.29676 382
9.31687 351
9.33699 378
9.3571 357
9.37721 366
9.39733 339
9.41744 343
9.43755 376
9.45767 341
9.47778 346
9.4979 346
9.51801 364
9.53812 365
9.55824 368
9.57835 377
9.59846 390
9.61858 388
9.63869 355
9.6588 348
9.67892 333
9.69903 319
9.71915 396
9.73926 363
9.75937 335
9.77949 352
9.7996 333
9.81971 342
9.83983 350
9.85994 375
9.88006 342
9.90017 335
9.92028 313
9.9404 333
9.96051 342
9.98062 364
10.00074 350
10.02085 346
10.04097 367
10.06108 350
10.08119 374
10.10131 314
10.12142 327
10.14153 342
10.16165 322
10.18176 323
10.20187 351
10.22199 317
10.2421 342
10.26222 339
10.28233 307
10.30244 307
10.32256 308
10.34267 356
10.36278 348
10.3829 360
10.40301 365
10.42313 356
10.44324 321
10.46335 359
10.48347 343
10.50358 353
10.52369 319
10.54381 352
10.56392 378
10.58403 334
10.60415 329
10.62426 329
10.64438 331
10.66449 314
10.6846 321
10.70472 324
10.72483 352
10.74494 304
10.76506 356
10.78517 323
10.80529 306
10.8254 332
10.84551 358
10.86563 332
10.88574 346
10.90585 319
10.92597 318
10.94608 380
10.9662 339
10.98631 334
11.00642 351
11.02654 334
11.04665 341
11.06676 335
11.08688 363
11.10699 341
11.1271 347
11.14722 362
11.16733 320
11.18745 353
11.20756 323
11.22767 336
11.24779 335
11.2679 328
11.28801 325
11.30813 365
11.32824 316
11.34836 308
11.36847 352
11.38858 375
11.4087 352
11.42881 367
11.44892 314
11.46904 337
11.48915 348
11.50927 381
11.52938 341
11.54949 376
11.56961 335
11.58972 334
11.60983 340
11.62995 341
11.65006 356
11.67017 375
11.69029 368
11.7104 344
11.73052 358
11.75063 375
11.77074 400
11.79086 322
11.81097 360
11.83108 371
11.8512 337
11.87131 350
11.89143 393
11.91154 378
11.93165 359
11.95177 354
11.97188 358
11.99199 387
12.01211 321
12.03222 382
12.05234 360
12.07245 316
12.09256 339
12.11268 362
12.13279 377
12.1529 350
12.17302 371
12.19313 368
12.21324 359
12.23336 373
12.25347 361
12.27359 328
12.2937 381
12.31381 354
12.33393 337
12.35404 368
12.37415 353
12.39427 349
12.41438 332
12.4345 291
12.45461 362
12.47472 335
12.49484 304
12.51495 328
12.53506 320
12.55518 320
12.57529 307
12.5954 311
12.61552 327
12.63563 348
12.65575 329
12.67586 301
12.69597 286
12.71609 349
12.7362 294
12.75631 349
12.77643 311
12.79654 305
12.81666 262
12.83677 306
12.85688 292
12.877 287
12.89711 309
12.91722 284
12.93734 297
12.95745 331
12.97757 334
12.99768 304
13.01779 305
13.03791 313
13.05802 314
13.07813 281
13.09825 322
13.11836 295
13.13847 316
13.15859 318
13.1787 268
13.19882 288
13.21893 323
13.23904 316
13.25916 309
13.27927 296
13.29938 317
13.3195 285
13.33961 319
13.35973 316
13.37984 290
13.39995 292
13.42007 278
13.44018 268
13.46029 270
13.48041 298
13.50052 331
13.52064 327
13.54075 293
13.56086 326
13.58098 333
13.60109 321
13.6212 321
13.64132 328
13.66143 283
13.68154 331
13.70166 292
13.72177 319
13.74189 348
13.762 286
13.78211 334
13.80223 293
13.82234 300
13.84245 309
13.86257 276
13.88268 269
13.9028 297
13.92291 310
13.94302 249
13.96314 290
13.98325 306
14.00336 334
14.02348 239
14.04359 278
14.06371 281
14.08382 275
14.10393 293
14.12405 264
14.14416 289
14.16427 269
14.18439 253
14.2045 287
14.22461 287
14.24473 266
14.26484 269
14.28496 285
14.30507 277
14.32518 272
14.3453 296
14.36541 244
14.38552 275
14.40564 234
14.42575 283
14.44587 282
14.46598 303
14.48609 298
14.50621 268
14.52632 276
14.54643 281
14.56655 248
14.58666 260
14.60677 271
14.62689 290
14.647 312
14.66712 261
14.68723 283
14.70734 270
14.72746 302
14.74757 264
14.76768 273
14.7878 258
14.80791 282
14.82803 316
14.84814 308
14.86825 307
14.88837 284
14.90848 290
14.92859 297
14.94871 332
14.96882 289
14.98894 286
15.00905 295
15.02916 303
15.04928 275
15.06939 319
15.0895 274
15.10962 317
15.12973 327
15.14984 261
15.16996 311
15.19007 262
15.21019 297
15.2303 277
15.25041 267
15.27053 285
15.29064 278
15.31075 260
15.33087 274
15.35098 263
15.3711 303
15.39121 276
15.41132 248
15.43144 268
15.45155 295
15.47166 251
15.49178 265
15.51189 282
15.53201 275
15.55212 305
15.57223 240
15.59235 277
15.61246 267
15.63257 261
15.65269 282
15.6728 278
15.69291 295
15.71303 306
15.73314 262
15.75326 280
15.77337 275
15.79348 256
15.8136 281
15.83371 271
15.85382 298
15.87394 267
15.89405 248
15.91417 284
15.93428 252
15.95439 275
15.97451 266
15.99462 276
16.01473 272
16.03485 255
16.05496 261
16.07508 256
16.09519 279
16.1153 305
16.13542 269
16.15553 334
16.17564 257
16.19576 245
16.21587 246
16.23598 226
16.2561 271
16.27621 239
16.29633 287
16.31644 291
16.33655 277
16.35667 253
16.37678 245
16.39689 276
16.41701 279
16.43712 250
16.45724 264
16.47735 237
16.49746 264
16.51758 282
16.53769 271
16.5578 261
16.57792 289
16.59803 260
16.61814 278
16.63826 264
16.65837 273
16.67849 268
16.6986 251
16.71871 278
16.73883 248
16.75894 242
16.77905 272
16.79917 287
16.81928 254
16.8394 252
16.85951 282
16.87962 246
16.89974 253
16.91985 283
16.93996 267
16.96008 242
16.98019 242
17.00031 254
17.02042 265
17.04053 269
17.06065 290
17.08076 244
17.10087 260
17.12099 274
17.1411 278
17.16121 253
17.18133 268
17.20144 281
17.22156 271
17.24167 275
17.26178 250
17.2819 281
17.30201 236
17.32212 285
17.34224 283
17.36235 278
17.38247 265
17.40258 276
17.42269 276
17.44281 255
17.46292 257
17.48303 288
17.50315 262
17.52326 275
17.54338 280
17.56349 255
17.5836 289
17.60372 313
17.62383 281
17.64394 286
17.66406 286
17.68417 269
17.70428 268
17.7244 275
17.74451 288
17.76463 269
17.78474 282
17.80485 254
17.82497 287
17.84508 277
17.86519 261
17.88531 277
17.90542 287
17.92554 302
17.94565 304
17.96576 295
17.98588 282
18.00599 257
18.0261 291
18.04622 245
18.06633 264
18.08645 300
18.10656 266
18.12667 265
18.14679 276
18.1669 270
18.18701 301
18.20713 273
18.22724 269
18.24735 295
18.26747 317
18.28758 296
18.3077 273
18.32781 256
18.34792 324
18.36804 251
18.38815 298
18.40826 282
18.42838 295
18.44849 268
18.46861 240
18.48872 249
18.50883 267
18.52895 279
18.54906 267
18.56917 271
18.58929 255
18.6094 313
18.62951 297
18.64963 279
18.66974 264
18.68986 294
18.70997 247
18.73008 297
18.7502 298
18.77031 281
18.79042 296
18.81054 324
18.83065 297
18.85077 295
18.87088 275
18.89099 268
18.91111 290
18.93122 302
18.95133 287
18.97145 282
18.99156 276
19.01168 307
19.03179 326
19.0519 284
19.07202 303
19.09213 284
19.11224 289
19.13236 303
19.15247 300
19.17258 318
19.1927 317
19.21281 322
19.23293 342
19.25304 335
19.27315 307
19.29327 323
19.31338 324
19.33349 358
19.35361 363
19.37372 381
19.39384 355
19.41395 357
19.43406 382
19.45418 432
19.47429 392
19.4944 452
19.51452 512
19.53463 445
19.55475 458
19.57486 488
19.59497 560
19.61509 514
19.6352 569
19.65531 593
19.67543 534
19.69554 642
19.71565 669
19.73577 631
19.75588 757
19.776 681
19.79611 669
19.81622 721
19.83634 729
19.85645 660
19.87656 689
19.89668 666
19.91679 678
19.93691 642
19.95702 657
19.97713 666
19.99725 641
20.01736 611
20.03747 618
20.05759 583
20.0777 612
20.09782 597
20.11793 600
20.13804 576
20.15816 606
20.17827 585
20.19838 634
20.2185 559
20.23861 582
20.25872 629
20.27884 568
20.29895 561
20.31907 550
20.33918 533
20.35929 535
20.37941 576
20.39952 526
20.41963 567
20.43975 540
20.45986 579
20.47998 597
20.50009 597
20.5202 602
20.54032 658
20.56043 614
20.58054 672
20.60066 726
20.62077 822
20.64088 900
20.661 1072
20.68111 1365
20.70123 1714
20.72134 2259
20.74145 2895
20.76157 3549
20.78168 4004
20.80179 4157
20.82191 4060
20.84202 3717
20.86214 2994
20.88225 2364
20.90236 1740
20.92248 1310
20.94259 1091
20.9627 1016
20.98282 929
21.00293 883
21.02305 829
21.04316 818
21.06327 769
21.08339 682
21.1035 626
21.12361 577
21.14373 601
21.16384 569
21.18395 582
21.20407 548
21.22418 507
21.2443 512
21.26441 504
21.28452 511
21.30464 481
21.32475 496
21.34486 479
21.36498 490
21.38509 499
21.40521 486
21.42532 510
21.44543 462
21.46555 456
21.48566 509
21.50577 446
21.52589 445
21.546 468
21.56612 435
21.58623 389
21.60634 477
21.62646 427
21.64657 444
21.66668 413
21.6868 419
21.70691 432
21.72702 415
21.74714 433
21.76725 373
21.78737 426
21.80748 409
21.82759 419
21.84771 434
21.86782 446
21.88793 442
21.90805 492
21.92816 475
21.94828 488
21.96839 469
21.9885 507
22.00862 465
22.02873 480
22.04884 433
22.06896 431
22.08907 453
22.10919 420
22.1293 408
22.14941 439
22.16953 428
22.18964 481
22.20975 366
22.22987 422
22.24998 428
22.27009 473
22.29021 438
22.31032 425
22.33044 476
22.35055 416
22.37066 437
22.39078 406
22.41089 419
22.431 414
22.45112 415
22.47123 396
22.49135 406
22.51146 448
22.53157 450
22.55169 464
22.5718 396
22.59191 429
22.61203 423
22.63214 435
22.65225 374
22.67237 377
22.69248 403
22.7126 396
22.73271 376
22.75282 378
22.77294 355
22.79305 402
22.81316 427
22.83328 365
22.85339 404
22.87351 374
22.89362 440
22.91373 394
22.93385 407
22.95396 438
22.97407 450
22.99419 442
23.0143 437
23.03442 462
23.05453 451
23.07464 492
23.09476 457
23.11487 498
23.13498 450
23.1551 473
23.17521 476
23.19532 466
23.21544 441
23.23555 453
23.25567 458
23.27578 375
23.29589 444
23.31601 425
23.33612 417
23.35623 442
23.37635 454
23.39646 425
23.41658 449
23.43669 442
23.4568 454
23.47692 472
23.49703 526
23.51714 475
23.53726 520
23.55737 495
23.57749 461
23.5976 477
23.61771 432
23.63783 442
23.65794 465
23.67805 456
23.69817 446
23.71828 454
23.73839 437
23.75851 473
23.77862 468
23.79874 435
23.81885 456
23.83896 477
23.85908 460
23.87919 527
23.8993 522
23.91942 540
23.93953 520
23.95965 509
23.97976 484
23.99987 495
24.01999 455
24.0401 397
24.06021 437
24.08033 446
24.10044 462
24.12056 433
24.14067 456
24.16078 450
24.1809 462
24.20101 445
24.22112 463
24.24124 460
24.26135 493
24.28146 490
24.30158 430
24.32169 432
24.34181 448
24.36192 423
24.38203 437
24.40215 375
24.42226 413
24.44237 375
24.46249 422
24.4826 413
24.50272 386
24.52283 424
24.54294 431
24.56306 411
24.58317 445
24.60328 405
24.6234 447
24.64351 432
24.66362 440
24.68374 431
24.70385 467
24.72397 453
24.74408 451
24.76419 467
24.78431 448
24.80442 444
24.82453 438
24.84465 430
24.86476 412
24.88488 426
24.90499 438
24.9251 436
24.94522 475
24.96533 448
24.98544 456
25.00556 437
25.02567 422
25.04579 445
25.0659 425
25.08601 434
25.10613 444
25.12624 451
25.14635 450
25.16647 447
25.18658 492
25.20669 503
25.22681 465
25.24692 455
25.26704 496
25.28715 443
25.30726 485
25.32738 483
25.34749 504
25.3676 500
25.38772 531
25.40783 512
25.42795 542
25.44806 556
25.46817 562
25.48829 603
25.5084 556
25.52851 625
25.54863 638
25.56874 665
25.58886 591
25.60897 626
25.62908 594
25.6492 571
25.66931 637
25.68942 532
25.70954 536
25.72965 551
25.74976 499
25.76988 479
25.78999 532
25.81011 520
25.83022 496
25.85033 516
25.87045 542
25.89056 536
25.91067 501
25.93079 549
25.9509 567
25.97102 529
25.99113 581
26.01124 537
26.03136 549
26.05147 590
26.07158 602
26.0917 693
26.11181 714
26.13193 664
26.15204 727
26.17215 721
26.19227 832
26.21238 842
26.23249 932
26.25261 990
26.27272 1017
26.29283 1149
26.31295 1225
26.33306 1547
26.35318 1627
26.37329 1945
26.3934 2473
26.41352 2985
26.43363 3866
26.45374 5196
26.47386 6992
26.49397 9101
26.51409 11758
26.5342 14396
26.55431 16731
26.57443 17493
26.59454 17243
26.61465 15537
26.63477 13081
26.65488 10155
26.67499 7420
26.69511 5114
26.71522 3405
26.73534 2288
26.75545 1684
26.77556 1350
26.79568 1166
26.81579 1083
26.8359 1042
26.85602 1010
26.87613 912
26.89625 948
26.91636 822
26.93647 882
26.95659 873
26.9767 893
26.99681 861
27.01693 878
27.03704 904
27.05716 850
27.07727 782
27.09738 703
27.1175 663
27.13761 664
27.15772 589
27.17784 622
27.19795 630
27.21806 580
27.23818 645
27.25829 659
27.27841 721
27.29852 778
27.31863 827
27.33875 852
27.35886 951
27.37897 983
27.39909 1025
27.4192 1020
27.43932 989
27.45943 960
27.47954 888
27.49966 750
27.51977 770
27.53988 660
27.56 616
27.58011 624
27.60023 557
27.62034 515
27.64045 541
27.66057 551
27.68068 533
27.70079 555
27.72091 559
27.74102 581
27.76113 535
27.78125 538
27.80136 572
27.82148 547
27.84159 542
27.8617 550
27.88182 550
27.90193 541
27.92204 529
27.94216 554
27.96227 459
27.98239 511
28.0025 478
28.02261 449
28.04273 427
28.06284 422
28.08295 412
28.10307 418
28.12318 412
28.1433 453
28.16341 428
28.18352 409
28.20364 363
28.22375 397
28.24386 418
28.26398 371
28.28409 418
28.3042 387
28.32432 406
28.34443 422
28.36455 340
28.38466 402
28.40477 377
28.42489 363
28.445 381
28.46511 388
28.48523 351
28.50534 370
28.52546 382
28.54557 366
28.56568 380
28.5858 341
28.60591 373
28.62602 332
28.64614 409
28.66625 372
28.68636 350
28.70648 366
28.72659 335
28.74671 393
28.76682 352
28.78693 354
28.80705 377
28.82716 361
28.84727 391
28.86739 371
28.8875 357
28.90762 372
28.92773 397
28.94784 328
28.96796 316
28.98807 380
29.00818 352
29.0283 352
29.04841 333
29.06853 372
29.08864 341
29.10875 338
29.12887 342
29.14898 354
29.16909 357
29.18921 371
29.20932 330
29.22943 376
29.24955 379
29.26966 410
29.28978 382
29.30989 390
29.33 412
29.35012 403
29.37023 403
29.39034 433
29.41046 435
29.43057 438
29.45069 430
29.4708 449
29.49091 414
29.51103 378
29.53114 400
29.55125 406
29.57137 448
29.59148 414
29.6116 415
29.63171 432
29.65182 416
29.67194 391
29.69205 400
29.71216 421
29.73228 413
29.75239 465
29.7725 410
29.79262 423
29.81273 417
29.83285 439
29.85296 390
29.87307 457
29.89319 385
29.9133 473
29.93341 411
29.95353 411
29.97364 372
29.99376 373
30.01387 431
30.03398 400
30.0541 456
30.07421 412
30.09432 423
30.11444 424
30.13455 418
30.15467 433
30.17478 416
30.19489 463
30.21501 403
30.23512 433
30.25523 383
30.27535 400
30.29546 377
30.31557 386
30.33569 389
30.3558 357
30.37592 396
30.39603 408
30.41614 374
30.43626 372
30.45637 377
30.47648 418
30.4966 364
30.51671 377
30.53683 373
30.55694 384
30.57705 360
30.59717 375
30.61728 404
30.63739 394
30.65751 447
30.67762 439
30.69773 427
30.71785 444
30.73796 438
30.75808 468
30.77819 451
30.7983 442
30.81842 392
30.83853 455
30.85864 381
30.87876 355
30.89887 359
30.91899 372
30.9391 350
30.95921 349
30.97933 329
30.99944 334
31.01955 343
31.03967 317
31.05978 331
31.0799 342
31.10001 327
31.12012 315
31.14024 343
31.16035 312
31.18046 322
31.20058 300
31.22069 337
31.2408 309
31.26092 321
31.28103 339
31.30115 340
31.32126 334
31.34137 340
31.36149 308
31.3816 303
31.40171 319
31.42183 304
31.44194 317
31.46206 308
31.48217 316
31.50228 331
31.5224 315
31.54251 310
31.56262 293
31.58274 315
31.60285 297
31.62297 296
31.64308 294
31.66319 302
31.68331 293
31.70342 313
31.72353 320
31.74365 301
31.76376 298
31.78387 296
31.80399 291
31.8241 284
31.84422 308
31.86433 304
31.88444 294
31.90456 334
31.92467 341
31.94478 358
31.9649 336
31.98501 316
32.00513 345
32.02524 290
32.04535 340
32.06547 363
32.08558 321
32.10569 332
32.12581 355
32.14592 320
32.16604 319
32.18615 316
32.20626 340
32.22638 346
32.24649 348
32.2666 327
32.28672 345
32.30683 311
32.32694 351
32.34706 368
32.36717 363
32.38729 350
32.4074 328
32.42751 336
32.44763 365
32.46774 326
32.48785 316
32.50797 360
32.52808 358
32.5482 337
32.56831 320
32.58842 334
32.60854 301
32.62865 324
32.64876 319
32.66888 309
32.68899 272
32.7091 324
32.72922 269
32.74933 304
32.76945 278
32.78956 309
32.80967 294
32.82979 287
32.8499 314
32.87001 324
32.89013 326
32.91024 284
32.93036 257
32.95047 297
32.97058 278
32.9907 308
33.01081 279
33.03092 291
33.05104 269
33.07115 283
33.09127 296
33.11138 304
33.13149 308
33.15161 305
33.17172 296
33.19183 316
33.21195 274
33.23206 323
33.25217 301
33.27229 301
33.2924 305
33.31252 304
33.33263 329
33.35274 322
33.37286 287
33.39297 277
33.41308 295
33.4332 300
33.45331 320
33.47343 311
33.49354 313
33.51365 307
33.53377 313
33.55388 288
33.57399 318
33.59411 290
33.61422 328
33.63434 287
33.65445 329
33.67456 331
33.69468 347
33.71479 295
33.7349 316
33.75502 276
33.77513 308
33.79524 296
33.81536 302
33.83547 295
33.85559 291
33.8757 316
33.89581 311
33.91593 287
33.93604 313
33.95615 307
33.97627 353
33.99638 328
34.0165 305
34.03661 336
34.05672 356
34.07684 347
34.09695 373
34.11706 405
34.13718 404
34.15729 391
34.17741 402
34.19752 399
34.21763 421
34.23775 390
34.25786 385
34.27797 393
34.29809 397
34.3182 403
34.33831 402
34.35843 405
34.37854 406
34.39866 411
34.41877 407
34.43888 431
34.459 424
34.47911 444
34.49922 414
34.51934 439
34.53945 460
34.55957 463
34.57968 476
34.59979 486
34.61991 481
34.64002 466
34.66013 509
34.68025 471
34.70036 487
34.72047 479
34.74059 521
34.7607 511
34.78082 558
34.80093 519
34.82104 547
34.84116 538
34.86127 530
34.88138 580
34.9015 536
34.92161 571
34.94173 533
34.96184 538
34.98195 547
35.00207 531
35.02218 520
35.04229 529
35.06241 547
35.08252 461
35.10264 497
35.12275 520
35.14286 527
35.16298 482
35.18309 490
35.2032 507
35.22332 490
35.24343 484
35.26354 469
35.28366 521
35.30377 505
35.32389 475
35.344 492
35.36411 466
35.38423 466
35.40434 500
35.42445 475
35.44457 515
35.46468 505
35.4848 475
35.50491 484
35.52502 518
35.54514 512
35.56525 474
35.58536 457
35.60548 451
35.62559 443
35.64571 436
35.66582 463
35.68593 441
35.70605 419
35.72616 388
35.74627 401
35.76639 423
35.7865 412
35.80661 454
35.82673 439
35.84684 385
35.86696 468
35.88707 391
35.90718 427
35.9273 414
35.94741 418
35.96752 421
35.98764 428
36.00775 429
36.02787 395
36.04798 452
36.06809 426
36.08821 445
36.10832 411
36.12843 415
36.14855 432
36.16866 471
36.18878 431
36.20889 462
36.229 507
36.24912 496
36.26923 555
36.28934 521
36.30946 602
36.32957 630
36.34968 780
36.3698 789
36.38991 1009
36.41003 1222
36.43014 1340
36.45025 1341
36.47037 1488
36.49048 1451
36.51059 1374
36.53071 1281
36.55082 1115
36.57094 1032
36.59105 886
36.61116 745
36.63128 613
36.65139 596
36.6715 516
36.69162 481
36.71173 472
36.73184 473
36.75196 419
36.77207 466
36.79219 477
36.8123 431
36.83241 452
36.85253 440
36.87264 468
36.89275 466
36.91287 450
36.93298 488
36.9531 398
36.97321 445
36.99332 424
37.01344 386
37.03355 433
37.05366 433
37.07378 438
37.09389 393
37.11401 390
37.13412 391
37.15423 375
37.17435 372
37.19446 372
37.21457 394
37.23469 387
37.2548 399
37.27491 373
37.29503 375
37.31514 385
37.33526 346
37.35537 408
37.37548 379
37.3956 373
37.41571 360
37.43582 396
37.45594 360
37.47605 376
37.49617 368
37.51628 361
37.53639 367
37.55651 346
37.57662 384
37.59673 360
37.61685 391
37.63696 351
37.65708 391
37.67719 363
37.6973 391
37.71742 380
37.73753 381
37.75764 345
37.77776 394
37.79787 355
37.81798 395
37.8381 358
37.85821 378
37.87833 384
37.89844 334
37.91855 382
37.93867 368
37.95878 392
37.97889 350
37.99901 363
38.01912 393
38.03924 347
38.05935 360
38.07946 380
38.09958 369
38.11969 380
38.1398 356
38.15992 346
38.18003 353
38.20015 364
38.22026 367
38.24037 346
38.26049 364
38.2806 343
38.30071 367
38.32083 386
38.34094 368
38.36105 370
38.38117 353
38.40128 387
38.4214 388
38.44151 391
38.46162 403
38.48174 389
38.50185 420
38.52196 408
38.54208 388
38.56219 353
38.58231 371
38.60242 357
38.62253 362
38.64265 341
38.66276 361
38.68287 329
38.70299 384
38.7231 344
38.74321 375
38.76333 338
38.78344 390
38.80356 320
38.82367 324
38.84378 338
38.8639 342
38.88401 331
38.90412 344
38.92424 320
38.94435 343
38.96447 362
38.98458 364
39.00469 303
39.02481 338
39.04492 352
39.06503 380
39.08515 398
39.10526 373
39.12538 380
39.14549 411
39.1656 420
39.18572 424
39.20583 504
39.22594 505
39.24606 618
39.26617 647
39.28628 787
39.3064 878
39.32651 979
39.34663 1206
39.36674 1268
39.38685 1290
39.40697 1310
39.42708 1317
39.44719 1154
39.46731 988
39.48742 897
39.50754 770
39.52765 764
39.54776 652
39.56788 501
39.58799 448
39.6081 392
39.62822 365
39.64833 397
39.66845 382
39.68856 336
39.70867 377
39.72879 322
39.7489 365
39.76901 322
39.78913 343
39.80924 363
39.82935 336
39.84947 336
39.86958 316
39.8897 354
39.90981 365
39.92992 323
39.95004 355
39.97015 380
39.99026 381
40.01038 405
40.03049 481
40.05061 458
40.07072 465
40.09083 499
40.11095 565
40.13106 611
40.15117 719
40.17129 728
40.1914 798
40.21152 778
40.23163 781
40.25174 784
40.27186 755
40.29197 683
40.31208 618
40.3322 538
40.35231 528
40.37242 469
40.39254 427
40.41265 352
40.43277 381
40.45288 349
40.47299 341
40.49311 341
40.51322 357
40.53333 325
40.55345 352
40.57356 305
40.59368 321
40.61379 291
40.6339 306
40.65402 335
40.67413 337
40.69424 334
40.71436 311
40.73447 317
40.75458 322
40.7747 312
40.79481 284
40.81493 345
40.83504 313
40.85515 334
40.87527 312
40.89538 321
40.91549 370
40.93561 323
40.95572 328
40.97584 309
40.99595 292
41.01606 333
41.03618 306
41.05629 314
41.0764 366
41.09652 325
41.11663 302
41.13675 330
41.15686 331
41.17697 308
41.19709 312
41.2172 324
41.23731 315
41.25743 291
41.27754 341
41.29765 324
41.31777 335
41.33788 299
41.358 315
41.37811 311
41.39822 343
41.41834 357
41.43845 302
41.45856 349
41.47868 343
41.49879 353
41.51891 332
41.53902 341
41.55913 395
41.57925 412
41.59936 379
41.61947 373
41.63959 380
41.6597 374
41.67982 385
41.69993 382
41.72004 431
41.74016 403
41.76027 424
41.78038 391
41.8005 402
41.82061 370
41.84072 347
41.86084 311
41.88095 342
41.90107 335
41.92118 348
41.94129 334
41.96141 326
41.98152 339
42.00163 339
42.02175 333
42.04186 373
42.06198 343
42.08209 327
42.1022 313
42.12232 367
42.14243 360
42.16254 389
42.18266 392
42.20277 481
42.22289 447
42.243 515
42.26311 561
42.28323 659
42.30334 812
42.32345 862
42.34357 957
42.36368 1021
42.38379 1079
42.40391 1045
42.42402 918
42.44414 842
42.46425 748
42.48436 669
42.50448 677
42.52459 580
42.5447 481
42.56482 409
42.58493 382
42.60505 353
42.62516 330
42.64527 348
42.66539 332
42.6855 333
42.70561 337
42.72573 306
42.74584 331
42.76595 351
42.78607 287
42.80618 293
42.8263 294
42.84641 291
42.86652 345
42.88664 316
42.90675 283
42.92686 330
42.94698 312
42.96709 293
42.98721 283
43.00732 266
43.02743 282
43.04755 291
43.06766 297
43.08777 291
43.10789 290
43.128 297
43.14812 315
43.16823 289
43.18834 312
43.20846 318
43.22857 269
43.24868 298
43.2688 282
43.28891 283
43.30902 280
43.32914 266
43.34925 274
43.36937 282
43.38948 290
43.40959 271
43.42971 314
43.44982 281
43.46993 287
43.49005 271
43.51016 250
43.53028 309
43.55039 313
43.5705 269
43.59062 294
43.61073 295
43.63084 306
43.65096 275
43.67107 274
43.69119 259
43.7113 272
43.73141 293
43.75153 265
43.77164 277
43.79175 264
43.81187 320
43.83198 263
43.85209 244
43.87221 255
43.89232 263
43.91244 294
43.93255 272
43.95266 269
43.97278 303
43.99289 280
44.013 284
44.03312 302
44.05323 305
44.07335 303
44.09346 300
44.11357 320
44.13369 269
44.1538 331
44.17391 304
44.19403 306
44.21414 279
44.23426 281
44.25437 274
44.27448 288
44.2946 262
44.31471 294
44.33482 272
44.35494 273
44.37505 255
44.39516 282
44.41528 277
44.43539 300
44.45551 286
44.47562 278
44.49573 316
44.51585 295
44.53596 285
44.55607 280
44.57619 284
44.5963 292
44.61642 295
44.63653 286
44.65664 287
44.67676 275
44.69687 282
44.71698 292
44.7371 296
44.75721 278
44.77732 310
44.79744 272
44.81755 268
44.83767 279
44.85778 261
44.87789 291
44.89801 305
44.91812 312
44.93823 280
44.95835 291
44.97846 268
44.99858 314
45.01869 270
45.0388 266
45.05892 307
45.07903 303
45.09914 300
45.11926 297
45.13937 288
45.15949 293
45.1796 294
45.19971 301
45.21983 317
45.23994 301
45.26005 283
45.28017 286
45.30028 314
45.32039 328
45.34051 307
45.36062 339
45.38074 313
45.40085 296
45.42096 303
45.44108 345
45.46119 369
45.4813 355
45.50142 366
45.52153 405
45.54165 441
45.56176 460
45.58187 470
45.60199 520
45.6221 562
45.64221 598
45.66233 689
45.68244 755
45.70256 781
45.72267 812
45.74278 749
45.7629 693
45.78301 652
45.80312 556
45.82324 521
45.84335 509
45.86346 451
45.88358 468
45.90369 384
45.92381 355
45.94392 339
45.96403 337
45.98415 306
46.00426 272
46.02437 312
46.04449 289
46.0646 299
46.08472 345
46.10483 290
46.12494 302
46.14506 288
46.16517 353
46.18528 287
46.2054 269
46.22551 250
46.24563 309
46.26574 273
46.28585 288
46.30597 277
46.32608 298
46.34619 266
46.36631 278
46.38642 301
46.40653 280
46.42665 266
46.44676 286
46.46688 270
46.48699 275
46.5071 294
46.52722 270
46.54733 278
46.56744 290
46.58756 261
46.60767 237
46.62779 273
46.6479 258
46.66801 266
46.68813 272
46.70824 282
46.72835 248
46.74847 263
46.76858 254
46.78869 284
46.80881 269
46.82892 254
46.84904 270
46.86915 250
46.88926 284
46.90938 293
46.92949 274
46.9496 274
46.96972 299
46.98983 275
47.00995 289
47.03006 276
47.05017 295
47.07029 326
47.0904 289
47.11051 338
47.13063 320
47.15074 281
47.17086 304
47.19097 316
47.21108 332
47.2312 319
47.25131 286
47.27142 288
47.29154 316
47.31165 278
47.33176 303
47.35188 289
47.37199 284
47.39211 289
47.41222 273
47.43233 259
47.45245 281
47.47256 256
47.49267 266
47.51279 281
47.5329 306
47.55302 311
47.57313 306
47.59324 261
47.61336 302
47.63347 280
47.65358 269
47.6737 284
47.69381 280
47.71393 286
47.73404 280
47.75415 292
47.77427 261
47.79438 297
47.81449 304
47.83461 290
47.85472 284
47.87483 269
47.89495 306
47.91506 287
47.93518 308
47.95529 298
47.9754 276
47.99552 280
48.01563 259
48.03574 269
48.05586 287
48.07597 264
48.09609 311
48.1162 281
48.13631 282
48.15643 280
48.17654 288
48.19665 276
48.21677 281
48.23688 272
48.257 262
48.27711 262
48.29722 265
48.31734 292
48.33745 264
48.35756 243
48.37768 262
48.39779 266
48.4179 244
48.43802 269
48.45813 267
48.47825 290
48.49836 265
48.51847 286
48.53859 278
48.5587 236
48.57881 293
48.59893 287
48.61904 281
48.63916 267
48.65927 306
48.67938 283
48.6995 267
48.71961 312
48.73972 264
48.75984 299
48.77995 287
48.80006 307
48.82018 280
48.84029 300
48.86041 323
48.88052 270
48.90063 299
48.92075 296
48.94086 299
48.96097 347
48.98109 281
49.0012 288
49.02132 285
49.04143 338
49.06154 339
49.08166 304
49.10177 259
49.12188 306
49.142 306
49.16211 295
49.18223 300
49.20234 304
49.22245 274
49.24257 277
49.26268 297
49.28279 282
49.30291 294
49.32302 271
49.34313 299
49.36325 275
49.38336 287
49.40348 289
49.42359 283
49.4437 271
49.46382 279
49.48393 327
49.50404 276
49.52416 249
49.54427 317
49.56439 310
49.5845 310
49.60461 312
49.62473 304
49.64484 333
49.66495 343
49.68507 318
49.70518 346
49.7253 379
49.74541 404
49.76552 403
49.78564 390
49.80575 462
49.82586 488
49.84598 508
49.86609 587
49.8862 673
49.90632 722
49.92643 879
49.94655 1023
49.96666 1243
49.98677 1363
50.00689 1708
50.027 1833
50.04711 1982
50.06723 1915
50.08734 1768
50.10746 1629
50.12757 1418
50.14768 1372
50.1678 1243
50.18791 1163
50.20802 983
50.22814 912
50.24825 803
50.26837 639
50.28848 506
50.30859 454
50.32871 384
50.34882 387
50.36893 406
50.38905 381
50.40916 400
50.42927 415
50.44939 375
50.4695 393
50.48962 414
50.50973 409
50.52984 405
50.54996 403
50.57007 426
50.59018 417
50.6103 383
50.63041 357
50.65053 368
50.67064 336
50.69075 352
50.71087 332
50.73098 320
50.75109 320
50.77121 313
50.79132 318
50.81143 331
50.83155 303
50.85166 308
50.87178 302
50.89189 304
50.912 315
50.93212 314
50.95223 239
50.97234 286
50.99246 259
51.01257 270
51.03269 272
51.0528 273
51.07291 252
51.09303 306
51.11314 287
51.13325 296
51.15337 257
51.17348 269
51.1936 272
51.21371 280
51.23382 265
51.25394 243
51.27405 279
51.29416 254
51.31428 255
51.33439 257
51.3545 252
51.37462 278
51.39473 288
51.41485 253
51.43496 239
51.45507 259
51.47519 269
51.4953 260
51.51541 256
51.53553 246
51.55564 238
51.57576 242
51.59587 265
51.61598 232
51.6361 247
51.65621 283
51.67632 269
51.69644 260
51.71655 247
51.73667 237
51.75678 261
51.77689 262
51.79701 246
51.81712 261
51.83723 262
51.85735 257
51.87746 247
51.89757 247
51.91769 215
51.9378 247
51.95792 257
51.97803 248
51.99814 268
52.01826 249
52.03837 245
52.05848 277
52.0786 263
52.09871 265
52.11883 261
52.13894 240
52.15905 267
52.17917 235
52.19928 244
52.21939 281
52.23951 243
52.25962 245
52.27974 257
52.29985 245
52.31996 251
52.34008 242
52.36019 259
52.3803 266
52.40042 243
52.42053 250
52.44064 246
52.46076 261
52.48087 274
52.50099 263
52.5211 246
52.54121 245
52.56133 281
52.58144 247
52.60155 288
52.62167 295
52.64178 281
52.6619 284
52.68201 259
52.70212 284
52.72224 256
52.74235 257
52.76246 271
52.78258 275
52.80269 270
52.8228 273
52.84292 261
52.86303 297
52.88315 272
52.90326 264
52.92337 292
52.94349 299
52.9636 271
52.98371 285
53.00383 269
53.02394 261
53.04406 263
53.06417 293
53.08428 270
53.1044 306
53.12451 280
53.14462 283
53.16474 285
53.18485 316
53.20497 297
53.22508 319
53.24519 299
53.26531 307
53.28542 273
53.30553 296
53.32565 286
53.34576 310
53.36587 281
53.38599 337
53.4061 327
53.42622 280
53.44633 314
53.46644 280
53.48656 275
53.50667 315
53.52678 291
53.5469 300
53.56701 303
53.58713 353
53.60724 291
53.62735 305
53.64747 314
53.66758 279
53.68769 269
53.70781 288
53.72792 287
53.74804 300
53.76815 332
53.78826 312
53.80838 298
53.82849 323
53.8486 305
53.86872 310
53.88883 311
53.90894 285
53.92906 301
53.94917 291
53.96929 338
53.9894 299
54.00951 320
54.02963 309
54.04974 295
54.06985 342
54.08997 293
54.11008 304
54.1302 317
54.15031 324
54.17042 264
54.19054 305
54.21065 325
54.23076 318
54.25088 324
54.27099 338
54.29111 315
54.31122 312
54.33133 335
54.35145 341
54.37156 342
54.39167 332
54.41179 323
54.4319 316
54.45201 323
54.47213 307
54.49224 313
54.51236 349
54.53247 361
54.55258 353
54.5727 383
54.59281 400
54.61292 472
54.63304 444
54.65315 474
54.67327 546
54.69338 545
54.71349 618
54.73361 685
54.75372 707
54.77383 772
54.79395 763
54.81406 777
54.83417 708
54.85429 628
54.8744 547
54.89452 587
54.91463 547
54.93474 570
54.95486 535
54.97497 538
54.99508 424
55.0152 451
55.03531 419
55.05543 355
55.07554 366
55.09565 374
55.11577 402
55.13588 454
55.15599 395
55.17611 474
55.19622 475
55.21634 493
55.23645 529
55.25656 519
55.27668 515
55.29679 494
55.3169 447
55.33702 437
55.35713 420
55.37724 410
55.39736 448
55.41747 373
55.43759 352
55.4577 346
55.47781 369
55.49793 314
55.51804 301
55.53815 309
55.55827 314
55.57838 296
55.5985 307
55.61861 318
55.63872 307
55.65884 301
55.67895 298
55.69906 296
55.71918 270
55.73929 297
55.75941 287
55.77952 318
55.79963 294
55.81975 324
55.83986 306
55.85997 276
55.88009 286
55.9002 290
55.92031 271
55.94043 287
55.96054 296
55.98066 295
56.00077 281
56.02088 306
56.041 269
56.06111 310
56.08122 289
56.10134 300
56.12145 275
56.14157 270
56.16168 285
56.18179 270
56.20191 271
56.22202 288
56.24213 265
56.26225 278
56.28236 286
56.30248 279
56.32259 289
56.3427 293
56.36282 244
56.38293 288
56.40304 273
56.42316 254
56.44327 293
56.46338 274
56.4835 287
56.50361 248
56.52373 268
56.54384 290
56.56395 248
56.58407 279
56.60418 296
56.62429 279
56.64441 292
56.66452 298
56.68464 307
56.70475 276
56.72486 306
56.74498 270
56.76509 252
56.7852 260
56.80532 279
56.82543 300
56.84554 249
56.86566 283
56.88577 287
56.90589 300
56.926 285
56.94611 285
56.96623 252
56.98634 255
57.00645 294
57.02657 267
57.04668 254
57.0668 275
57.08691 295
57.10702 275
57.12714 309
57.14725 318
57.16736 285
57.18748 293
57.20759 289
57.22771 271
57.24782 272
57.26793 291
57.28805 298
57.30816 299
57.32827 269
57.34839 297
57.3685 304
57.38861 289
57.40873 284
57.42884 274
57.44896 273
57.46907 272
57.48918 274
57.5093 283
57.52941 261
57.54952 290
57.56964 249
57.58975 276
57.60987 278
57.62998 294
57.65009 238
57.67021 282
57.69032 314
57.71043 250
57.73055 247
57.75066 269
57.77078 257
57.79089 258
57.811 280
57.83112 258
57.85123 261
57.87134 266
57.89146 250
57.91157 278
57.93168 274
57.9518 277
57.97191 265
57.99203 244
58.01214 260
58.03225 288
58.05237 294
58.07248 269
58.09259 267
58.11271 272
58.13282 243
58.15294 252
58.17305 260
58.19316 250
58.21328 266
58.23339 270
58.2535 272
58.27362 270
58.29373 252
58.31385 264
58.33396 283
58.35407 282
58.37419 265
58.3943 247
58.41441 296
58.43453 298
58.45464 272
58.47475 247
58.49487 231
58.51498 286
58.5351 286
58.55521 249
58.57532 274
58.59544 292
58.61555 279
58.63566 267
58.65578 283
58.67589 256
58.69601 254
58.71612 306
58.73623 265
58.75635 270
58.77646 264
58.79657 264
58.81669 262
58.8368 264
58.85691 268
58.87703 267
58.89714 259
58.91726 285
58.93737 285
58.95748 288
58.9776 250
58.99771 273
59.01782 276
59.03794 240
59.05805 276
59.07817 267
59.09828 278
59.11839 277
59.13851 244
59.15862 284
59.17873 306
59.19885 276
59.21896 287
59.23908 270
59.25919 255
59.2793 306
59.29942 286
59.31953 288
59.33964 281
59.35976 294
59.37987 286
59.39998 294
59.4201 302
59.44021 311
59.46033 355
59.48044 308
59.50055 335
59.52067 286
59.54078 348
59.56089 359
59.58101 379
59.60112 407
59.62124 411
59.64135 430
59.66146 467
59.68158 508
59.70169 605
59.7218 612
59.74192 689
59.76203 789
59.78215 908
59.80226 1023
59.82237 1245
59.84249 1256
59.8626 1351
59.88271 1316
59.90283 1239
59.92294 1030
59.94305 975
59.96317 882
59.98328 887
60.0034 797
60.02351 808
60.04362 748
60.06374 747
60.08385 606
60.10396 516
60.12408 441
60.14419 378
60.16431 355
60.18442 343
60.20453 324
60.22465 326
60.24476 308
60.26487 298
60.28499 277
60.3051 318
60.32522 275
60.34533 303
60.36544 286
60.38556 232
60.40567 280
60.42578 288
60.4459 323
60.46601 282
60.48612 274
60.50624 290
60.52635 288
60.54647 292
60.56658 277
60.58669 273
60.60681 285
60.62692 285
60.64703 284
60.66715 282
60.68726 289
60.70738 264
60.72749 301
60.7476 308
60.76772 286
60.78783 276
60.80794 263
60.82806 274
60.84817 300
60.86828 275
60.8884 287
60.90851 282
60.92863 303
60.94874 305
60.96885 269
60.98897 283
61.00908 319
61.02919 322
61.04931 306
61.06942 334
61.08954 312
61.10965 322
61.12976 306
61.14988 319
61.16999 290
61.1901 293
61.21022 320
61.23033 319
61.25045 312
61.27056 324
61.29067 343
61.31079 295
61.3309 330
61.35101 299
61.37113 295
61.39124 314
61.41135 334
61.43147 299
61.45158 326
61.4717 340
61.49181 327
61.51192 326
61.53204 348
61.55215 368
61.57226 328
61.59238 337
61.61249 341
61.63261 370
61.65272 321
61.67283 335
61.69295 382
61.71306 334
61.73317 323
61.75329 346
61.7734 380
61.79352 323
61.81363 364
61.83374 336
61.85386 347
61.87397 345
61.89408 332
61.9142 368
61.93431 385
61.95442 368
61.97454 342
61.99465 329
62.01477 359
62.03488 377
62.05499 355
62.07511 360
62.09522 329
62.11533 378
62.13545 358
62.15556 334
62.17568 342
62.19579 338
62.2159 343
62.23602 309
62.25613 320
62.27624 272
62.29636 352
62.31647 321
62.33659 321
62.3567 314
62.37681 307
62.39693 338
62.41704 321
62.43715 300
62.45727 301
62.47738 280
62.49749 259
62.51761 314
62.53772 317
62.55784 285
62.57795 265
62.59806 292
62.61818 301
62.63829 310
62.6584 261
62.67852 282
62.69863 293
62.71875 303
62.73886 257
62.75897 293
62.77909 271
62.7992 283
62.81931 247
62.83943 245
62.85954 283
62.87965 294
62.89977 302
62.91988 264
62.94 238
62.96011 283
62.98022 285
63.00034 278
63.02045 281
63.04056 288
63.06068 265
63.08079 292
63.10091 265
63.12102 272
63.14113 275
63.16125 283
63.18136 288
63.20147 258
63.22159 286
63.2417 289
63.26182 262
63.28193 266
63.30204 261
63.32216 283
63.34227 277
63.36238 282
63.3825 275
63.40261 301
63.42272 283
63.44284 303
63.46295 298
63.48307 302
63.50318 279
63.52329 288
63.54341 275
63.56352 281
63.58363 282
63.60375 307
63.62386 283
63.64398 284
63.66409 291
63.6842 288
63.70432 298
63.72443 346
63.74454 344
63.76466 322
63.78477 354
63.80489 366
63.825 358
63.84511 358
63.86523 411
63.88534 407
63.90545 444
63.92557 456
63.94568 498
63.96579 499
63.98591 424
64.00602 436
64.02614 377
64.04625 362
64.06636 353
64.08648 388
64.10659 374
64.1267 367
64.14682 338
64.16693 338
64.18705 321
64.20716 300
64.22727 269
64.24739 278
64.2675 266
64.28761 277
64.30773 256
64.32784 231
64.34796 222
64.36807 260
64.38818 249
64.4083 263
64.42841 274
64.44852 230
64.46864 212
64.48875 241
64.50886 241
64.52898 250
64.54909 270
64.56921 247
64.58932 248
64.60943 256
64.62955 238
64.64966 279
64.66977 237
64.68989 237
64.71 248
64.73012 242
64.75023 257
64.77034 261
64.79046 267
64.81057 275
64.83068 252
64.8508 255
64.87091 241
64.89102 253
64.91114 251
64.93125 282
64.95137 229
64.97148 267
64.99159 262
65.01171 259
65.03182 255
65.05193 270
65.07205 266
65.09216 291
65.11228 251
65.13239 277
65.1525 262
65.17262 272
65.19273 255
65.21284 242
65.23296 260
65.25307 232
65.27319 276
65.2933 253
65.31341 236
65.33353 255
65.35364 237
65.37375 286
65.39387 254
65.41398 261
65.43409 243
65.45421 262
65.47432 273
65.49444 262
65.51455 272
65.53466 277
65.55478 281
65.57489 258
65.595 250
65.61512 261
65.63523 289
65.65535 284
65.67546 294
65.69557 275
65.71569 289
65.7358 301
65.75591 303
65.77603 266
65.79614 252
65.81626 228
65.83637 279
65.85648 265
65.8766 291
65.89671 280
65.91682 250
65.93694 258
65.95705 281
65.97716 260
65.99728 231
66.01739 257
66.03751 252
66.05762 234
66.07773 248
66.09785 264
66.11796 264
66.13807 257
66.15819 264
66.1783 258
66.19842 278
66.21853 264
66.23864 267
66.25876 262
66.27887 257
66.29898 275
66.3191 224
66.33921 263
66.35933 228
66.37944 264
66.39955 216
66.41967 250
66.43978 248
66.45989 273
66.48001 249
66.50012 265
66.52023 229
66.54035 269
66.56046 265
66.58058 247
66.60069 259
66.6208 236
66.64092 247
66.66103 262
66.68114 256
66.70126 216
66.72137 235
66.74149 227
66.7616 265
66.78171 229
66.80183 236
66.82194 262
66.84205 264
66.86217 289
66.88228 244
66.90239 225
66.92251 272
66.94262 277
66.96274 261
66.98285 281
67.00296 263
67.02308 274
67.04319 262
67.0633 281
67.08342 264
67.10353 279
67.12365 270
67.14376 263
67.16387 281
67.18399 246
67.2041 280
67.22421 265
67.24433 281
67.26444 277
67.28456 277
67.30467 294
67.32478 295
67.3449 282
67.36501 350
67.38512 357
67.40524 348
67.42535 369
67.44546 403
67.46558 419
67.48569 457
67.50581 472
67.52592 487
67.54603 576
67.56615 659
67.58626 738
67.60637 776
67.62649 851
67.6466 869
67.66672 914
67.68683 836
67.70694 768
67.72706 705
67.74717 676
67.76728 593
67.7874 674
67.80751 640
67.82763 682
67.84774 734
67.86785 752
67.88797 711
67.90808 773
67.92819 720
67.94831 775
67.96842 818
67.98853 939
68.00865 963
68.02876 1074
68.04888 1111
68.06899 1153
68.0891 1103
68.10922 1038
68.12933 1034
68.14944 936
68.16956 997
68.18967 992
68.20979 1052
68.2299 1040
68.25001 999
68.27013 958
68.29024 835
68.31035 695
68.33047 635
68.35058 541
68.3707 559
68.39081 545
68.41092 508
68.43104 504
68.45115 499
68.47126 414
68.49138 378
68.51149 366
68.5316 316
68.55172 288
68.57183 306
68.59195 277
68.61206 259
68.63217 279
68.65229 313
68.6724 292
68.69251 266
68.71263 255
68.73274 264
68.75286 292
68.77297 275
68.79308 242
68.8132 265
68.83331 245
68.85342 253
68.87354 260
68.89365 258
68.91376 263
68.93388 279
68.95399 232
68.97411 238
68.99422 263
69.01433 254
69.03445 239
69.05456 242
69.07467 286
69.09479 272
69.1149 238
69.13502 257
69.15513 259
69.17524 244
69.19536 234
69.21547 245
69.23558 245
69.2557 256
69.27581 229
69.29593 242
69.31604 245
69.33615 239
69.35627 253
69.37638 247
69.39649 273
69.41661 278
69.43672 257
69.45683 277
69.47695 285
69.49706 251
69.51718 245
69.53729 227
69.5574 258
69.57752 267
69.59763 254
69.61774 245
69.63786 262
69.65797 262
69.67809 258
69.6982 274
69.71831 238
69.73843 246
69.75854 264
69.77865 224
69.79877 237
69.81888 222
69.839 232
69.85911 258
69.87922 225
69.89934 224
69.91945 211
69.93956 263
69.95968 211
69.97979 198
69.9999 225
70.02002 265
70.04013 263
70.06025 250
70.08036 244
70.10047 241
70.12059 226
70.1407 232
70.16081 245
70.18093 233
70.20104 264
70.22116 241
70.24127 266
70.26138 224
70.2815 249
70.30161 234
70.32172 254
70.34184 241
70.36195 234
70.38207 246
70.40218 227
70.42229 233
70.44241 239
70.46252 224
70.48263 257
70.50275 273
70.52286 237
70.54297 243
70.56309 217
70.5832 247
70.60332 247
70.62343 235
70.64354 230
70.66366 234
70.68377 244
70.70388 250
70.724 221
70.74411 232
70.76423 243
70.78434 245
70.80445 255
70.82457 245
70.84468 240
70.86479 229
70.88491 230
70.90502 254
70.92513 246
70.94525 250
70.96536 224
70.98548 263
71.00559 242
71.0257 238
71.04582 216
71.06593 230
71.08604 225
71.10616 232
71.12627 217
71.14639 228
71.1665 236
71.18661 253
71.20673 233
71.22684 232
71.24695 222
71.26707 235
71.28718 228
71.3073 225
71.32741 242
71.34752 250
71.36764 234
71.38775 258
71.40786 254
71.42798 253
71.44809 265
71.4682 255
71.48832 217
71.50843 246
71.52855 281
71.54866 247
71.56877 241
71.58889 287
71.609 258
71.62911 240
71.64923 283
71.66934 270
71.68946 240
71.70957 257
71.72968 249
71.7498 247
71.76991 258
71.79002 231
71.81014 246
71.83025 263
71.85037 250
71.87048 252
71.89059 245
71.91071 276
71.93082 261
71.95093 249
71.97105 270
71.99116 271
72.01127 235
72.03139 262
72.0515 235
72.07162 252
72.09173 229
72.11184 273
72.13196 266
72.15207 247
72.17218 286
72.1923 247
72.21241 237
72.23253 254
72.25264 247
72.27275 259
72.29287 303
72.31298 263
72.33309 245
72.35321 241
72.37332 248
72.39344 254
72.41355 250
72.43366 241
72.45378 247
72.47389 229
72.494 250
72.51412 272
72.53423 246
72.55434 248
72.57446 260
72.59457 229
72.61469 244
72.6348 231
72.65491 252
72.67503 278
72.69514 251
72.71525 245
72.73537 253
72.75548 256
72.7756 265
72.79571 275
72.81582 250
72.83594 265
72.85605 278
72.87616 217
72.89628 291
72.91639 271
72.9365 259
72.95662 283
72.97673 259
72.99685 287
73.01696 289
73.03707 279
73.05719 307
73.0773 266
73.09741 307
73.11753 284
73.13764 309
73.15776 316
73.17787 348
73.19798 352
73.2181 311
73.23821 348
73.25832 338
73.27844 378
73.29855 423
73.31867 436
73.33878 451
73.35889 483
73.37901 464
73.39912 468
73.41923 409
73.43935 417
73.45946 387
73.47957 328
73.49969 325
73.5198 351
73.53992 336
73.56003 389
73.58014 386
73.60026 358
73.62037 398
73.64048 349
73.6606 296
73.68071 261
73.70083 283
73.72094 250
73.74105 273
73.76117 254
73.78128 263
73.80139 280
73.82151 283
73.84162 276
73.86174 232
73.88185 257
73.90196 252
73.92208 256
73.94219 266
73.9623 227
73.98242 261
74.00253 249
74.02264 271
74.04276 237
74.06287 240
74.08299 258
74.1031 239
74.12321 251
74.14333 228
74.16344 239
74.18355 268
74.20367 255
74.22378 262
74.2439 235
74.26401 258
74.28412 245
74.30424 248
74.32435 267
74.34446 229
74.36458 229
74.38469 258
74.40481 224
74.42492 261
74.44503 254
74.46515 248
74.48526 238
74.50537 249
74.52549 249
74.5456 260
74.56571 254
74.58583 237
74.60594 267
74.62606 244
74.64617 247
74.66628 235
74.6864 252
74.70651 284
74.72662 243
74.74674 249
74.76685 240
74.78697 246
74.80708 266
74.82719 260
74.84731 254
74.86742 275
74.88753 235
74.90765 259
74.92776 266
74.94787 247
74.96799 242
74.9881 248
75.00822 257
