3.00117 20379
3.02128 19687
3.0414 19487
3.06151 18734
3.08162 18492
3.10174 17661
3.12185 17389
3.14197 16632
3.16208 16436
3.18219 16209
3.20231 15382
3.22242 15011
3.24253 14476
3.26265 14063
3.28276 13907
3.30288 13079
3.32299 12888
3.3431 12383
3.36322 11859
3.38333 11592
3.40344 11145
3.42356 10929
3.44367 10482
3.46379 9974
3.4839 9919
3.50401 9358
3.52413 8985
3.54424 9022
3.56435 8290
3.58447 8481
3.60458 7715
3.62469 7588
3.64481 7153
3.66492 6966
3.68504 6871
3.70515 6422
3.72526 6196
3.74538 6013
3.76549 5790
3.7856 5604
3.80572 5269
3.82583 5021
3.84595 4951
3.86606 4607
3.88617 4669
3.90629 4192
3.9264 4239
3.94651 3941
3.96663 3712
3.98674 3660
4.00686 3285
4.02697 3346
4.04708 3227
4.0672 2925
4.08731 3009
4.10742 2698
4.12754 2714
4.14765 2666
4.16776 2373
4.18788 2482
4.20799 2194
4.22811 2114
4.24822 2132
4.26833 2072
4.28845 1967
4.30856 1856
4.32867 1810
4.34879 1887
4.3689 1728
4.38902 1826
4.40913 1601
4.42924 1677
4.44936 1599
4.46947 1505
4.48958 1535
4.5097 1318
4.52981 1388
4.54992 1401
4.57004 1327
4.59015 1305
4.61027 1206
4.63038 1248
4.65049 1295
4.67061 1208
4.69072 1191
4.71083 1069
4.73095 1097
4.75106 1130
4.77118 1084
4.79129 1095
4.8114 992
4.83152 972
4.85163 920
4.87174 1015
4.89186 906
4.91197 912
4.93209 904
4.9522 893
4.97231 888
4.99243 801
5.01254 752
5.03265 773
5.05277 810
5.07288 792
5.09299 711
5.11311 750
5.13322 745
5.15334 697
5.17345 726
5.19356 664
5.21368 678
5.23379 668
5.2539 590
5.27402 657
5.29413 578
5.31425 608
5.33436 555
5.35447 619
5.37459 615
5.3947 532
5.41481 507
5.43493 516
5.45504 516
5.47516 526
5.49527 453
5.51538 511
5.5355 446
5.55561 497
5.57572 447
5.59584 443
5.61595 471
5.63606 488
5.65618 448
5.67629 420
5.69641 417
5.71652 397
5.73663 407
5.75675 413
5.77686 410
5.79697 411
5.81709 391
5.8372 394
5.85732 447
5.87743 377
5.89754 361
5.91766 376
5.93777 395
5.95788 347
5.978 352
5.99811 333
6.01823 378
6.03834 386
6.05845 336
6.07857 341
6.09868 354
6.11879 342
6.13891 413
6.15902 363
6.17913 385
6.19925 387
6.21936 338
6.23948 330
6.25959 358
6.2797 360
6.29982 331
6.31993 307
6.34004 331
6.36016 375
6.38027 300
6.40039 337
6.4205 327
6.44061 324
6.46073 320
6.48084 308
6.50095 324
6.52107 312
6.54118 329
6.56129 332
6.58141 330
6.60152 264
6.62164 295
6.64175 302
6.66186 345
6.68198 333
6.70209 284
6.7222 332
6.74232 300
6.76243 307
6.78255 283
6.80266 281
6.82277 310
6.84289 335
6.863 301
6.88311 305
6.90323 282
6.92334 331
6.94346 288
6.96357 330
6.98368 291
7.0038 307
7.02391 314
7.04402 294
7.06414 253
7.08425 316
7.10436 318
7.12448 323
7.14459 299
7.16471 297
7.18482 303
7.20493 292
7.22505 304
7.24516 255
7.26527 303
7.28539 322
7.3055 300
7.32562 318
7.34573 315
7.36584 318
7.38596 279
7.40607 271
7.42618 279
7.4463 288
7.46641 318
7.48653 279
7.50664 327
7.52675 287
7.54687 280
7.56698 282
7.58709 319
7.60721 315
7.62732 282
7.64743 276
7.66755 329
7.68766 283
7.70778 301
7.72789 301
7.748 318
7.76812 300
7.78823 286
7.80834 300
7.82846 299
7.84857 302
7.86869 283
7.8888 325
7.90891 299
7.92903 300
7.94914 296
7.96925 313
7.98937 266
8.00948 309
8.0296 291
8.04971 301
8.06982 306
8.08994 331
8.11005 287
8.13016 313
8.15028 303
8.17039 261
8.1905 309
8.21062 292
8.23073 298
8.25085 296
8.27096 321
8.29107 354
8.31119 316
8.3313 346
8.35141 305
8.37153 284
8.39164 298
8.41176 290
8.43187 331
8.45198 296
8.4721 295
8.49221 283
8.51232 334
8.53244 307
8.55255 310
8.57266 335
8.59278 243
8.61289 316
8.63301 293
8.65312 288
8.67323 287
8.69335 313
8.71346 311
8.73357 326
8.75369 336
8.7738 295
8.79392 289
8.81403 321
8.83414 320
8.85426 349
8.87437 308
8.89448 304
8.9146 335
8.93471 305
8.95483 351
8.97494 270
8.99505 302
9.01517 325
9.03528 328
9.05539 310
9.07551 292
9.09562 308
9.11573 304
9.13585 306
9.15596 303
9.17608 311
9.19619 318
9.2163 334
9.23642 300
9.25653 340
9.27664 298
9.29676 317
9.31687 306
9.33699 352
9.3571 335
9.37721 293
9.39733 289
9.41744 340
9.43755 324
9.45767 313
9.47778 312
9.4979 322
9.51801 329
9.53812 311
9.55824 327
9.57835 295
9.59846 345
9.61858 283
9.63869 304
9.6588 316
9.67892 283
9.69903 303
9.71915 297
9.73926 301
9.75937 295
9.77949 295
9.7996 316
9.81971 301
9.83983 319
9.85994 275
9.88006 319
9.90017 320
9.92028 295
9.9404 308
9.96051 264
9.98062 314
10.00074 295
10.02085 328
10.04097 279
10.06108 325
10.08119 263
10.10131 318
10.12142 267
10.14153 320
10.16165 293
10.18176 271
10.20187 288
10.22199 286
10.2421 300
10.26222 268
10.28233 307
10.30244 318
10.32256 344
10.34267 338
10.36278 293
10.3829 274
10.40301 317
10.42313 330
10.44324 314
10.46335 334
10.48347 306
10.50358 301
10.52369 277
10.54381 302
10.56392 322
10.58403 297
10.60415 315
10.62426 290
10.64438 277
10.66449 260
10.6846 312
10.70472 319
10.72483 317
10.74494 313
10.76506 279
10.78517 292
10.80529 278
10.8254 296
10.84551 294
10.86563 329
10.88574 303
10.90585 287
10.92597 321
10.94608 290
10.9662 312
10.98631 306
11.00642 282
11.02654 297
11.04665 323
11.06676 293
11.08688 321
11.10699 313
11.1271 291
11.14722 303
11.16733 334
11.18745 310
11.20756 293
11.22767 315
11.24779 280
11.2679 327
11.28801 303
11.30813 305
11.32824 369
11.34836 320
11.36847 314
11.38858 319
11.4087 307
11.42881 318
11.44892 292
11.46904 302
11.48915 285
11.50927 301
11.52938 296
11.54949 337
11.56961 331
11.58972 333
11.60983 308
11.62995 316
11.65006 326
11.67017 321
11.69029 369
11.7104 357
11.73052 341
11.75063 331
11.77074 356
11.79086 336
11.81097 373
11.83108 386
11.8512 408
11.87131 350
11.89143 364
11.91154 396
11.93165 428
11.95177 402
11.97188 392
11.99199 442
12.01211 433
12.03222 432
12.05234 423
12.07245 503
12.09256 491
12.11268 490
12.13279 564
12.1529 572
12.17302 573
12.19313 601
12.21324 584
12.23336 606
12.25347 659
12.27359 611
12.2937 673
12.31381 585
12.33393 667
12.35404 573
12.37415 553
12.39427 600
12.41438 513
12.4345 487
12.45461 496
12.47472 475
12.49484 462
12.51495 484
12.53506 473
12.55518 377
12.57529 393
12.5954 387
12.61552 396
12.63563 375
12.65575 350
12.67586 359
12.69597 339
12.71609 338
12.7362 367
12.75631 338
12.77643 317
12.79654 317
12.81666 309
12.83677 275
12.85688 289
12.877 282
12.89711 312
12.91722 324
12.93734 325
12.95745 299
12.97757 316
12.99768 278
13.01779 335
13.03791 294
13.05802 293
13.07813 333
13.09825 283
13.11836 251
13.13847 303
13.15859 273
13.1787 262
13.19882 298
13.21893 290
13.23904 314
13.25916 299
13.27927 283
13.29938 298
13.3195 267
13.33961 276
13.35973 300
13.37984 276
13.39995 278
13.42007 284
13.44018 294
13.46029 279
13.48041 259
13.50052 290
13.52064 293
13.54075 255
13.56086 269
13.58098 238
13.60109 273
13.6212 240
13.64132 289
13.66143 281
13.68154 255
13.70166 280
13.72177 281
13.74189 318
13.762 259
13.78211 276
13.80223 297
13.82234 264
13.84245 239
13.86257 265
13.88268 272
13.9028 282
13.92291 270
13.94302 254
13.96314 262
13.98325 261
14.00336 248
14.02348 248
14.04359 239
14.06371 271
14.08382 265
14.10393 267
14.12405 255
14.14416 288
14.16427 267
14.18439 255
14.2045 220
14.22461 256
14.24473 270
14.26484 247
14.28496 251
14.30507 268
14.32518 278
14.3453 250
14.36541 254
14.38552 255
14.40564 254
14.42575 256
14.44587 243
14.46598 261
14.48609 234
14.50621 264
14.52632 259
14.54643 254
14.56655 245
14.58666 247
14.60677 247
14.62689 286
14.647 229
14.66712 249
14.68723 241
14.70734 257
14.72746 272
14.74757 251
14.76768 249
14.7878 269
14.80791 298
14.82803 244
14.84814 254
14.86825 283
14.88837 281
14.90848 290
14.92859 242
14.94871 270
14.96882 265
14.98894 271
15.00905 283
15.02916 248
15.04928 233
15.06939 264
15.0895 262
15.10962 224
15.12973 259
15.14984 248
15.16996 236
15.19007 263
15.21019 268
15.2303 245
15.25041 261
15.27053 259
15.29064 243
15.31075 263
15.33087 235
15.35098 245
15.3711 240
15.39121 206
15.41132 259
15.43144 225
15.45155 236
15.47166 257
15.49178 265
15.51189 237
15.53201 239
15.55212 230
15.57223 240
15.59235 286
15.61246 245
15.63257 277
15.65269 273
15.6728 295
15.69291 207
15.71303 235
15.73314 249
15.75326 245
15.77337 258
15.79348 236
15.8136 236
15.83371 276
15.85382 263
15.87394 247
15.89405 238
15.91417 242
15.93428 253
15.95439 226
15.97451 241
15.99462 225
16.01473 278
16.03485 230
16.05496 246
16.07508 250
16.09519 250
16.1153 265
16.13542 281
16.15553 270
16.17564 226
16.19576 244
16.21587 223
16.23598 273
16.2561 234
16.27621 240
16.29633 239
16.31644 257
16.33655 226
16.35667 249
16.37678 233
16.39689 245
16.41701 261
16.43712 281
16.45724 270
16.47735 219
16.49746 229
16.51758 229
16.53769 236
16.5578 275
16.57792 259
16.59803 225
16.61814 251
16.63826 241
16.65837 254
16.67849 232
16.6986 303
16.71871 237
16.73883 267
16.75894 263
16.77905 239
16.79917 223
16.81928 250
16.8394 242
16.85951 248
16.87962 250
16.89974 264
16.91985 257
16.93996 226
16.96008 237
16.98019 234
17.00031 264
17.02042 264
17.04053 272
17.06065 284
17.08076 224
17.10087 221
17.12099 249
17.1411 243
17.16121 276
17.18133 264
17.20144 234
17.22156 240
17.24167 263
17.26178 263
17.2819 267
17.30201 241
17.32212 225
17.34224 262
17.36235 234
17.38247 221
17.40258 254
17.42269 256
17.44281 253
17.46292 240
17.48303 239
17.50315 251
17.52326 247
17.54338 256
17.56349 207
17.5836 248
17.60372 244
17.62383 255
17.64394 245
17.66406 247
17.68417 254
17.70428 264
17.7244 286
17.74451 239
17.76463 275
17.78474 287
17.80485 257
17.82497 263
17.84508 308
17.86519 252
17.88531 293
17.90542 269
17.92554 258
17.94565 301
17.96576 271
17.98588 260
18.00599 276
18.0261 272
18.04622 282
18.06633 293
18.08645 304
18.10656 345
18.12667 339
18.14679 369
18.1669 362
18.18701 394
18.20713 456
18.22724 470
18.24735 462
18.26747 569
18.28758 525
18.3077 529
18.32781 447
18.34792 421
18.36804 392
18.38815 340
18.40826 336
18.42838 317
18.44849 284
18.46861 302
18.48872 311
18.50883 308
18.52895 250
18.54906 273
18.56917 285
18.58929 264
18.6094 257
18.62951 266
18.64963 268
18.66974 299
18.68986 258
18.70997 253
18.73008 238
18.7502 280
18.77031 309
18.79042 244
18.81054 264
18.83065 259
18.85077 252
18.87088 239
18.89099 264
18.91111 231
18.93122 267
18.95133 248
18.97145 239
18.99156 271
19.01168 272
19.03179 265
19.0519 266
19.07202 251
19.09213 269
19.11224 280
19.13236 288
19.15247 272
19.17258 280
19.1927 255
19.21281 257
19.23293 262
19.25304 270
19.27315 296
19.29327 256
19.31338 266
19.33349 263
19.35361 307
19.37372 263
19.39384 307
19.41395 312
19.43406 281
19.45418 294
19.47429 312
19.4944 282
19.51452 277
19.53463 314
19.55475 287
19.57486 322
19.59497 334
19.61509 381
19.6352 393
19.65531 400
19.67543 417
19.69554 421
19.71565 448
19.73577 494
19.75588 499
19.776 499
19.79611 560
19.81622 558
19.83634 565
19.85645 540
19.87656 559
19.89668 597
19.91679 570
19.93691 551
19.95702 535
19.97713 542
19.99725 523
20.01736 540
20.03747 564
20.05759 532
20.0777 543
20.09782 556
20.11793 532
20.13804 584
20.15816 550
20.17827 595
20.19838 599
20.2185 569
20.23861 649
20.25872 650
20.27884 641
20.29895 601
20.31907 597
20.33918 616
20.35929 635
20.37941 601
20.39952 624
20.41963 651
20.43975 666
20.45986 643
20.47998 617
20.50009 637
20.5202 623
20.54032 683
20.56043 710
20.58054 763
20.60066 769
20.62077 883
20.64088 1014
20.661 1203
20.68111 1516
20.70123 1844
20.72134 2515
20.74145 3120
20.76157 3896
20.78168 4523
20.80179 5040
20.82191 5250
20.84202 5018
20.86214 4383
20.88225 3423
20.90236 2615
20.92248 1840
20.94259 1301
20.9627 939
20.98282 778
21.00293 702
21.02305 678
21.04316 644
21.06327 593
21.08339 581
21.1035 557
21.12361 548
21.14373 532
21.16384 576
21.18395 528
21.20407 569
21.22418 550
21.2443 542
21.26441 503
21.28452 505
21.30464 548
21.32475 529
21.34486 503
21.36498 554
21.38509 512
21.40521 553
21.42532 514
21.44543 532
21.46555 504
21.48566 555
21.50577 514
21.52589 500
21.546 506
21.56612 549
21.58623 478
21.60634 494
21.62646 436
21.64657 438
21.66668 422
21.6868 445
21.70691 456
21.72702 463
21.74714 412
21.76725 464
21.78737 411
21.80748 432
21.82759 450
21.84771 416
21.86782 394
21.88793 432
21.90805 403
21.92816 434
21.94828 436
21.96839 400
21.9885 416
22.00862 367
22.02873 422
22.04884 369
22.06896 410
22.08907 409
22.10919 377
22.1293 369
22.14941 370
22.16953 409
22.18964 414
22.20975 364
22.22987 375
22.24998 380
22.27009 394
22.29021 363
22.31032 385
22.33044 376
22.35055 336
22.37066 340
22.39078 361
22.41089 372
22.431 329
22.45112 366
22.47123 372
22.49135 334
22.51146 399
22.53157 332
22.55169 395
22.5718 341
22.59191 346
22.61203 359
22.63214 345
22.65225 338
22.67237 346
22.69248 360
22.7126 336
22.73271 361
22.75282 331
22.77294 308
22.79305 365
22.81316 340
22.83328 350
22.85339 297
22.87351 341
22.89362 358
22.91373 328
22.93385 298
22.95396 343
22.97407 324
22.99419 343
23.0143 333
23.03442 347
23.05453 329
23.07464 298
23.09476 319
23.11487 322
23.13498 319
23.1551 320
23.17521 277
23.19532 328
23.21544 338
23.23555 336
23.25567 309
23.27578 337
23.29589 337
23.31601 330
23.33612 314
23.35623 320
23.37635 330
23.39646 332
23.41658 320
23.43669 297
23.4568 304
23.47692 329
23.49703 306
23.51714 337
23.53726 290
23.55737 322
23.57749 326
23.5976 329
23.61771 344
23.63783 322
23.65794 329
23.67805 391
23.69817 340
23.71828 353
23.73839 339
23.75851 317
23.77862 342
23.79874 381
23.81885 350
23.83896 382
23.85908 365
23.87919 404
23.8993 399
23.91942 389
23.93953 406
23.95965 395
23.97976 389
23.99987 424
24.01999 411
24.0401 355
24.06021 391
24.08033 367
24.10044 345
24.12056 362
24.14067 327
24.16078 331
24.1809 355
24.20101 388
24.22112 347
24.24124 342
24.26135 315
24.28146 387
24.30158 384
24.32169 342
24.34181 367
24.36192 351
24.38203 368
24.40215 369
24.42226 351
24.44237 378
24.46249 410
24.4826 363
24.50272 393
24.52283 417
24.54294 400
24.56306 420
24.58317 439
24.60328 410
24.6234 438
24.64351 499
24.66362 522
24.68374 442
24.70385 497
24.72397 531
24.74408 524
24.76419 531
24.78431 526
24.80442 583
24.82453 581
24.84465 584
24.86476 545
24.88488 496
24.90499 546
24.9251 548
24.94522 540
24.96533 554
24.98544 532
25.00556 487
25.02567 506
25.04579 503
25.0659 430
25.08601 465
25.10613 501
25.12624 516
25.14635 512
25.16647 518
25.18658 490
25.20669 471
25.22681 435
25.24692 487
25.26704 511
25.28715 495
25.30726 426
25.32738 443
25.34749 410
25.3676 403
25.38772 397
25.40783 399
25.42795 421
25.44806 414
25.46817 383
25.48829 377
25.5084 418
25.52851 388
25.54863 392
25.56874 405
25.58886 394
25.60897 371
25.62908 444
25.6492 427
25.66931 470
25.68942 466
25.70954 434
25.72965 477
25.74976 493
25.76988 474
25.78999 496
25.81011 488
25.83022 530
25.85033 512
25.87045 505
25.89056 529
25.91067 473
25.93079 526
25.9509 549
25.97102 527
25.99113 545
26.01124 575
26.03136 578
26.05147 642
26.07158 662
26.0917 674
26.11181 694
26.13193 726
26.15204 821
26.17215 856
26.19227 888
26.21238 956
26.23249 1008
26.25261 1162
26.27272 1226
26.29283 1292
26.31295 1434
26.33306 1624
26.35318 1902
26.37329 2177
26.3934 2728
26.41352 3634
26.43363 4676
26.45374 6099
26.47386 8004
26.49397 10459
26.51409 13678
26.5342 17256
26.55431 20321
26.57443 22665
26.59454 23383
26.61465 22336
26.63477 19843
26.65488 15931
26.67499 11966
26.69511 8685
26.71522 5900
26.73534 3938
26.75545 2433
26.77556 1829
26.79568 1537
26.81579 1303
26.8359 1232
26.85602 1024
26.87613 1008
26.89625 994
26.91636 821
26.93647 767
26.95659 731
26.9767 675
26.99681 668
27.01693 632
27.03704 577
27.05716 563
27.07727 546
27.09738 520
27.1175 537
27.13761 503
27.15772 449
27.17784 505
27.19795 515
27.21806 439
27.23818 473
27.25829 504
27.27841 446
27.29852 455
27.31863 448
27.33875 450
27.35886 473
27.37897 455
27.39909 442
27.4192 408
27.43932 464
27.45943 432
27.47954 385
27.49966 403
27.51977 404
27.53988 440
27.56 390
27.58011 397
27.60023 383
27.62034 350
27.64045 356
27.66057 391
27.68068 399
27.70079 404
27.72091 383
27.74102 420
27.76113 373
27.78125 355
27.80136 382
27.82148 386
27.84159 378
27.8617 360
27.88182 364
27.90193 387
27.92204 367
27.94216 346
27.96227 378
27.98239 352
28.0025 348
28.02261 325
28.04273 362
28.06284 349
28.08295 396
28.10307 362
28.12318 340
28.1433 325
28.16341 328
28.18352 362
28.20364 346
28.22375 314
28.24386 345
28.26398 305
28.28409 345
28.3042 340
28.32432 363
28.34443 320
28.36455 327
28.38466 328
28.40477 334
28.42489 290
28.445 335
28.46511 333
28.48523 320
28.50534 362
28.52546 288
28.54557 338
28.56568 307
28.5858 342
28.60591 344
28.62602 336
28.64614 329
28.66625 315
28.68636 323
28.70648 332
28.72659 338
28.74671 299
28.76682 324
28.78693 312
28.80705 312
28.82716 312
28.84727 279
28.86739 308
28.8875 315
28.90762 314
28.92773 284
28.94784 297
28.96796 315
28.98807 318
29.00818 274
29.0283 314
29.04841 282
29.06853 291
29.08864 285
29.10875 320
29.12887 312
29.14898 297
29.16909 293
29.18921 289
29.20932 261
29.22943 305
29.24955 320
29.26966 312
29.28978 301
29.30989 262
29.33 284
29.35012 291
29.37023 270
29.39034 277
29.41046 326
29.43057 281
29.45069 311
29.4708 299
29.49091 311
29.51103 293
29.53114 286
29.55125 285
29.57137 301
29.59148 282
29.6116 272
29.63171 294
29.65182 280
29.67194 284
29.69205 279
29.71216 321
29.73228 323
29.75239 297
29.7725 303
29.79262 256
29.81273 322
29.83285 311
29.85296 291
29.87307 310
29.89319 269
29.9133 284
29.93341 280
29.95353 307
29.97364 297
29.99376 294
30.01387 299
30.03398 265
30.0541 288
30.07421 288
30.09432 295
30.11444 317
30.13455 243
30.15467 315
30.17478 288
30.19489 305
30.21501 294
30.23512 263
30.25523 298
30.27535 288
30.29546 286
30.31557 271
30.33569 276
30.3558 291
30.37592 279
30.39603 261
30.41614 288
30.43626 262
30.45637 284
30.47648 274
30.4966 280
30.51671 263
30.53683 283
30.55694 252
30.57705 270
30.59717 283
30.61728 264
30.63739 283
30.65751 262
30.67762 254
30.69773 258
30.71785 264
30.73796 267
30.75808 281
30.77819 246
30.7983 284
30.81842 277
30.83853 255
30.85864 275
30.87876 272
30.89887 248
30.91899 286
30.9391 266
30.95921 275
30.97933 280
30.99944 252
31.01955 263
31.03967 260
31.05978 284
31.0799 254
31.10001 269
31.12012 259
31.14024 243
31.16035 258
31.18046 271
31.20058 269
31.22069 280
31.2408 314
31.26092 270
31.28103 273
31.30115 262
31.32126 285
31.34137 271
31.36149 265
31.3816 231
31.40171 292
31.42183 258
31.44194 259
31.46206 239
31.48217 234
31.50228 276
31.5224 288
31.54251 267
31.56262 274
31.58274 226
31.60285 264
31.62297 255
31.64308 275
31.66319 250
31.68331 288
31.70342 261
31.72353 269
31.74365 263
31.76376 267
31.78387 258
31.80399 232
31.8241 283
31.84422 257
31.86433 272
31.88444 260
31.90456 264
31.92467 224
31.94478 249
31.9649 245
31.98501 266
32.00513 256
32.02524 247
32.04535 260
32.06547 262
32.08558 255
32.10569 261
32.12581 252
32.14592 245
32.16604 266
32.18615 257
32.20626 257
32.22638 233
32.24649 272
32.2666 243
32.28672 265
32.30683 256
32.32694 254
32.34706 265
32.36717 258
32.38729 249
32.4074 262
32.42751 272
32.44763 278
32.46774 272
32.48785 263
32.50797 265
32.52808 256
32.5482 238
32.56831 255
32.58842 272
32.60854 252
32.62865 251
32.64876 286
32.66888 291
32.68899 283
32.7091 275
32.72922 274
32.74933 290
32.76945 277
32.78956 281
32.80967 298
32.82979 246
32.8499 286
32.87001 272
32.89013 304
32.91024 297
32.93036 312
32.95047 311
32.97058 291
32.9907 328
33.01081 290
33.03092 304
33.05104 317
33.07115 323
33.09127 280
33.11138 301
33.13149 332
33.15161 296
33.17172 305
33.19183 319
33.21195 319
33.23206 307
33.25217 301
33.27229 287
33.2924 308
33.31252 279
33.33263 281
33.35274 283
33.37286 259
33.39297 291
33.41308 312
33.4332 280
33.45331 283
33.47343 282
33.49354 290
33.51365 287
33.53377 278
33.55388 299
33.57399 294
33.59411 279
33.61422 296
33.63434 284
33.65445 281
33.67456 291
33.69468 284
33.71479 308
33.7349 299
33.75502 284
33.77513 319
33.79524 292
33.81536 280
33.83547 275
33.85559 275
33.8757 294
33.89581 256
33.91593 286
33.93604 277
33.95615 282
33.97627 272
33.99638 274
34.0165 251
34.03661 251
34.05672 274
34.07684 235
34.09695 240
34.11706 249
34.13718 277
34.15729 245
34.17741 279
34.19752 278
34.21763 279
34.23775 259
34.25786 281
34.27797 285
34.29809 248
34.3182 311
34.33831 290
34.35843 270
34.37854 263
34.39866 277
34.41877 292
34.43888 297
34.459 274
34.47911 272
34.49922 291
34.51934 277
34.53945 304
34.55957 324
34.57968 339
34.59979 339
34.61991 308
34.64002 385
34.66013 385
34.68025 358
34.70036 359
34.72047 399
34.74059 372
34.7607 411
34.78082 423
34.80093 416
34.82104 404
34.84116 382
34.86127 380
34.88138 396
34.9015 427
34.92161 383
34.94173 399
34.96184 402
34.98195 381
35.00207 414
35.02218 394
35.04229 352
35.06241 357
35.08252 382
35.10264 386
35.12275 324
35.14286 349
35.16298 331
35.18309 385
35.2032 357
35.22332 333
35.24343 377
35.26354 377
35.28366 350
35.30377 381
35.32389 396
35.344 371
35.36411 426
35.38423 404
35.40434 391
35.42445 403
35.44457 406
35.46468 406
35.4848 404
35.50491 444
35.52502 383
35.54514 441
35.56525 396
35.58536 446
35.60548 405
35.62559 416
35.64571 434
35.66582 403
35.68593 416
35.70605 441
35.72616 401
35.74627 409
35.76639 411
35.7865 421
35.80661 433
35.82673 442
35.84684 401
35.86696 420
35.88707 417
35.90718 406
35.9273 392
35.94741 418
35.96752 424
35.98764 433
36.00775 428
36.02787 427
36.04798 408
36.06809 385
36.08821 383
36.10832 427
36.12843 414
36.14855 379
36.16866 369
36.18878 403
36.20889 457
36.229 446
36.24912 486
36.26923 545
36.28934 581
36.30946 667
36.32957 711
36.34968 824
36.3698 940
36.38991 1131
36.41003 1291
36.43014 1470
36.45025 1667
36.47037 1795
36.49048 1806
36.51059 1734
36.53071 1629
36.55082 1396
36.57094 1206
36.59105 1089
36.61116 906
36.63128 759
36.65139 636
36.6715 473
36.69162 485
36.71173 430
36.73184 371
36.75196 399
36.77207 338
36.79219 368
36.8123 340
36.83241 356
36.85253 350
36.87264 358
36.89275 353
36.91287 354
36.93298 390
36.9531 350
36.97321 352
36.99332 344
37.01344 345
37.03355 361
37.05366 374
37.07378 361
37.09389 379
37.11401 314
37.13412 362
37.15423 353
37.17435 375
37.19446 365
37.21457 381
37.23469 346
37.2548 368
37.27491 379
37.29503 390
37.31514 371
37.33526 357
37.35537 352
37.37548 366
37.3956 349
37.41571 376
37.43582 411
37.45594 413
37.47605 378
37.49617 368
37.51628 377
37.53639 357
37.55651 408
37.57662 406
37.59673 344
37.61685 433
37.63696 388
37.65708 405
37.67719 394
37.6973 353
37.71742 396
37.73753 351
37.75764 385
37.77776 358
37.79787 384
37.81798 359
37.8381 379
37.85821 344
37.87833 327
37.89844 348
37.91855 312
37.93867 316
37.95878 364
37.97889 339
37.99901 363
38.01912 380
38.03924 369
38.05935 366
38.07946 336
38.09958 375
38.11969 342
38.1398 349
38.15992 411
38.18003 402
38.20015 405
38.22026 370
38.24037 389
38.26049 399
38.2806 440
38.30071 404
38.32083 443
38.34094 413
38.36105 413
38.38117 426
38.40128 402
38.4214 387
38.44151 386
38.46162 414
38.48174 381
38.50185 335
38.52196 383
38.54208 381
38.56219 387
38.58231 361
38.60242 353
38.62253 369
38.64265 397
38.66276 323
38.68287 382
38.70299 349
38.7231 322
38.74321 351
38.76333 331
38.78344 354
38.80356 363
38.82367 329
38.84378 325
38.8639 333
38.88401 364
38.90412 321
38.92424 310
38.94435 340
38.96447 364
38.98458 363
39.00469 344
39.02481 399
39.04492 389
39.06503 357
39.08515 405
39.10526 415
39.12538 449
39.14549 447
39.1656 461
39.18572 503
39.20583 546
39.22594 586
39.24606 653
39.26617 754
39.28628 913
39.3064 947
39.32651 1137
39.34663 1292
39.36674 1461
39.38685 1611
39.40697 1632
39.42708 1576
39.44719 1486
39.46731 1273
39.48742 1175
39.50754 985
39.52765 893
39.54776 820
39.56788 647
39.58799 514
39.6081 429
39.62822 382
39.64833 366
39.66845 310
39.68856 322
39.70867 335
39.72879 295
39.7489 292
39.76901 280
39.78913 335
39.80924 313
39.82935 335
39.84947 291
39.86958 308
39.8897 295
39.90981 340
39.92992 328
39.95004 340
39.97015 350
39.99026 359
40.01038 356
40.03049 392
40.05061 436
40.07072 489
40.09083 510
40.11095 548
40.13106 658
40.15117 679
40.17129 778
40.1914 789
40.21152 899
40.23163 905
40.25174 875
40.27186 866
40.29197 734
40.31208 692
40.3322 581
40.35231 563
40.37242 550
40.39254 485
40.41265 386
40.43277 402
40.45288 374
40.47299 326
40.49311 317
40.51322 313
40.53333 288
40.55345 271
40.57356 306
40.59368 286
40.61379 289
40.6339 297
40.65402 313
40.67413 293
40.69424 309
40.71436 347
40.73447 284
40.75458 318
40.7747 345
40.79481 336
40.81493 319
40.83504 320
40.85515 310
40.87527 344
40.89538 301
40.91549 294
40.93561 282
40.95572 319
40.97584 298
40.99595 324
41.01606 289
41.03618 306
41.05629 284
41.0764 313
41.09652 286
41.11663 283
41.13675 324
41.15686 277
41.17697 306
41.19709 290
41.2172 317
41.23731 287
41.25743 272
41.27754 302
41.29765 291
41.31777 316
41.33788 284
41.358 288
41.37811 281
41.39822 325
41.41834 295
41.43845 314
41.45856 316
41.47868 291
41.49879 272
41.51891 284
41.53902 292
41.55913 286
41.57925 291
41.59936 274
41.61947 291
41.63959 314
41.6597 306
41.67982 278
41.69993 315
41.72004 309
41.74016 301
41.76027 328
41.78038 266
41.8005 330
41.82061 302
41.84072 302
41.86084 316
41.88095 267
41.90107 306
41.92118 306
41.94129 309
41.96141 258
41.98152 310
42.00163 312
42.02175 292
42.04186 312
42.06198 287
42.08209 346
42.1022 338
42.12232 328
42.14243 385
42.16254 418
42.18266 439
42.20277 453
42.22289 488
42.243 578
42.26311 669
42.28323 721
42.30334 808
42.32345 913
42.34357 1096
42.36368 1155
42.38379 1140
42.40391 1185
42.42402 1094
42.44414 1015
42.46425 867
42.48436 786
42.50448 731
42.52459 637
42.5447 552
42.56482 477
42.58493 384
42.60505 329
42.62516 313
42.64527 318
42.66539 293
42.6855 278
42.70561 274
42.72573 297
42.74584 275
42.76595 286
42.78607 255
42.80618 278
42.8263 282
42.84641 265
42.86652 254
42.88664 252
42.90675 254
42.92686 232
42.94698 259
42.96709 275
42.98721 245
43.00732 252
43.02743 242
43.04755 245
43.06766 290
43.08777 223
43.10789 252
43.128 236
43.14812 225
43.16823 204
43.18834 245
43.20846 252
43.22857 247
43.24868 259
43.2688 234
43.28891 273
43.30902 260
43.32914 243
43.34925 242
43.36937 229
43.38948 263
43.40959 258
43.42971 227
43.44982 239
43.46993 238
43.49005 254
43.51016 249
43.53028 223
43.55039 224
43.5705 255
43.59062 277
43.61073 251
43.63084 228
43.65096 287
43.67107 215
43.69119 224
43.7113 228
43.73141 216
43.75153 261
43.77164 245
43.79175 246
43.81187 248
43.83198 245
43.85209 238
43.87221 250
43.89232 237
43.91244 253
43.93255 258
43.95266 235
43.97278 243
43.99289 252
44.013 254
44.03312 249
44.05323 250
44.07335 256
44.09346 283
44.11357 244
44.13369 261
44.1538 259
44.17391 257
44.19403 265
44.21414 234
44.23426 267
44.25437 276
44.27448 259
44.2946 232
44.31471 234
44.33482 241
44.35494 235
44.37505 242
44.39516 226
44.41528 240
44.43539 253
44.45551 268
44.47562 237
44.49573 236
44.51585 249
44.53596 230
44.55607 248
44.57619 234
44.5963 233
44.61642 231
44.63653 240
44.65664 236
44.67676 265
44.69687 248
44.71698 240
44.7371 241
44.75721 266
44.77732 241
44.79744 249
44.81755 223
44.83767 263
44.85778 235
44.87789 246
44.89801 230
44.91812 264
44.93823 264
44.95835 232
44.97846 253
44.99858 274
45.01869 254
45.0388 247
45.05892 270
45.07903 272
45.09914 216
45.11926 257
45.13937 275
45.15949 251
45.1796 238
45.19971 297
45.21983 286
45.23994 258
45.26005 278
45.28017 280
45.30028 284
45.32039 292
45.34051 293
45.36062 284
45.38074 324
45.40085 332
45.42096 312
45.44108 346
45.46119 330
45.4813 392
45.50142 366
45.52153 387
45.54165 407
45.56176 449
45.58187 524
45.60199 483
45.6221 585
45.64221 678
45.66233 707
45.68244 806
45.70256 869
45.72267 915
45.74278 874
45.7629 835
45.78301 731
45.80312 691
45.82324 611
45.84335 557
45.86346 560
45.88358 471
45.90369 396
45.92381 395
45.94392 331
45.96403 274
45.98415 314
46.00426 288
46.02437 264
46.04449 254
46.0646 279
46.08472 263
46.10483 233
46.12494 244
46.14506 280
46.16517 281
46.18528 222
46.2054 261
46.22551 214
46.24563 271
46.26574 235
46.28585 277
46.30597 242
46.32608 250
46.34619 255
46.36631 262
46.38642 231
46.40653 252
46.42665 255
46.44676 258
46.46688 245
46.48699 230
46.5071 224
46.52722 225
46.54733 249
46.56744 261
46.58756 241
46.60767 220
46.62779 242
46.6479 204
46.66801 249
46.68813 255
46.70824 253
46.72835 224
46.74847 270
46.76858 243
46.78869 228
46.80881 251
46.82892 223
46.84904 225
46.86915 238
46.88926 243
46.90938 229
46.92949 258
46.9496 250
46.96972 247
46.98983 265
47.00995 219
47.03006 239
47.05017 238
47.07029 235
47.0904 236
47.11051 276
47.13063 251
47.15074 269
47.17086 276
47.19097 220
47.21108 262
47.2312 234
47.25131 252
47.27142 240
47.29154 227
47.31165 237
47.33176 231
47.35188 240
47.37199 249
47.39211 242
47.41222 249
47.43233 266
47.45245 235
47.47256 248
47.49267 260
47.51279 241
47.5329 213
47.55302 232
47.57313 242
47.59324 241
47.61336 277
47.63347 225
47.65358 240
47.6737 247
47.69381 244
47.71393 246
47.73404 254
47.75415 253
47.77427 242
47.79438 246
47.81449 235
47.83461 234
47.85472 263
47.87483 236
47.89495 291
47.91506 258
47.93518 249
47.95529 271
47.9754 265
47.99552 240
48.01563 262
48.03574 244
48.05586 234
48.07597 269
48.09609 239
48.1162 221
48.13631 257
48.15643 241
48.17654 201
48.19665 240
48.21677 260
48.23688 236
48.257 249
48.27711 208
48.29722 230
48.31734 227
48.33745 239
48.35756 276
48.37768 256
48.39779 234
48.4179 269
48.43802 226
48.45813 258
48.47825 211
48.49836 226
48.51847 251
48.53859 246
48.5587 243
48.57881 246
48.59893 223
48.61904 262
48.63916 264
48.65927 262
48.67938 248
48.6995 225
48.71961 211
48.73972 252
48.75984 242
48.77995 252
48.80006 273
48.82018 257
48.84029 251
48.86041 244
48.88052 242
48.90063 232
48.92075 231
48.94086 257
48.96097 262
48.98109 259
49.0012 230
49.02132 246
49.04143 259
49.06154 244
49.08166 246
49.10177 237
49.12188 245
49.142 270
49.16211 270
49.18223 270
49.20234 244
49.22245 262
49.24257 308
49.26268 265
49.28279 235
49.30291 268
49.32302 293
49.34313 268
49.36325 261
49.38336 248
49.40348 272
49.42359 280
49.4437 281
49.46382 310
49.48393 277
49.50404 273
49.52416 283
49.54427 304
49.56439 310
49.5845 296
49.60461 326
49.62473 290
49.64484 316
49.66495 320
49.68507 325
49.70518 342
49.7253 387
49.74541 379
49.76552 430
49.78564 434
49.80575 452
49.82586 523
49.84598 570
49.86609 603
49.8862 753
49.90632 790
49.92643 1026
49.94655 1199
49.96666 1431
49.98677 1670
50.00689 1941
50.027 2166
50.04711 2325
50.06723 2459
50.08734 2325
50.10746 2212
50.12757 1970
50.14768 1769
50.1678 1563
50.18791 1402
50.20802 1296
50.22814 1181
50.24825 1002
50.26837 814
50.28848 617
50.30859 523
50.32871 432
50.34882 420
50.36893 353
50.38905 353
50.40916 355
50.42927 343
50.44939 350
50.4695 292
50.48962 311
50.50973 354
50.52984 307
50.54996 336
50.57007 325
50.59018 337
50.6103 296
50.63041 326
50.65053 305
50.67064 279
50.69075 272
50.71087 280
50.73098 264
50.75109 300
50.77121 271
50.79132 273
50.81143 285
50.83155 251
50.85166 265
50.87178 253
50.89189 270
50.912 237
50.93212 250
50.95223 219
50.97234 240
50.99246 253
51.01257 246
51.03269 239
51.0528 203
51.07291 219
51.09303 234
51.11314 222
51.13325 212
51.15337 271
51.17348 238
51.1936 250
51.21371 219
51.23382 216
51.25394 235
51.27405 241
51.29416 232
51.31428 214
51.33439 242
51.3545 229
51.37462 228
51.39473 255
51.41485 229
51.43496 229
51.45507 236
51.47519 232
51.4953 260
51.51541 210
51.53553 240
51.55564 257
51.57576 234
51.59587 217
51.61598 217
51.6361 206
51.65621 207
51.67632 227
51.69644 225
51.71655 240
51.73667 219
51.75678 216
51.77689 247
51.79701 223
51.81712 225
51.83723 242
51.85735 241
51.87746 209
51.89757 228
51.91769 217
51.9378 219
51.95792 241
51.97803 246
51.99814 249
52.01826 248
52.03837 213
52.05848 247
52.0786 230
52.09871 242
52.11883 235
52.13894 257
52.15905 253
52.17917 247
52.19928 228
52.21939 224
52.23951 234
52.25962 240
52.27974 243
52.29985 234
52.31996 261
52.34008 201
52.36019 237
52.3803 231
52.40042 221
52.42053 220
52.44064 255
52.46076 210
52.48087 219
52.50099 219
52.5211 218
52.54121 212
52.56133 217
52.58144 226
52.60155 220
52.62167 231
52.64178 218
52.6619 221
52.68201 207
52.70212 220
52.72224 198
52.74235 245
52.76246 238
52.78258 217
52.80269 242
52.8228 215
52.84292 208
52.86303 232
52.88315 237
52.90326 207
52.92337 235
52.94349 248
52.9636 231
52.98371 234
53.00383 224
53.02394 239
53.04406 216
53.06417 213
53.08428 210
53.1044 229
53.12451 211
53.14462 230
53.16474 212
53.18485 228
53.20497 240
53.22508 233
53.24519 243
53.26531 246
53.28542 236
53.30553 259
53.32565 256
53.34576 220
53.36587 216
53.38599 247
53.4061 252
53.42622 222
53.44633 221
53.46644 255
53.48656 248
53.50667 229
53.52678 262
53.5469 235
53.56701 251
53.58713 264
53.60724 282
53.62735 207
53.64747 254
53.66758 272
53.68769 272
53.70781 266
53.72792 262
53.74804 255
53.76815 284
53.78826 260
53.80838 280
53.82849 301
53.8486 284
53.86872 304
53.88883 288
53.90894 319
53.92906 328
53.94917 306
53.96929 291
53.9894 330
54.00951 288
54.02963 343
54.04974 319
54.06985 288
54.08997 297
54.11008 325
54.1302 291
54.15031 320
54.17042 352
54.19054 303
54.21065 335
54.23076 326
54.25088 336
54.27099 374
54.29111 341
54.31122 347
54.33133 304
54.35145 326
54.37156 331
54.39167 368
54.41179 335
54.4319 346
54.45201 372
54.47213 349
54.49224 339
54.51236 353
54.53247 403
54.55258 367
54.5727 390
54.59281 394
54.61292 445
54.63304 474
54.65315 510
54.67327 514
54.69338 566
54.71349 704
54.73361 787
54.75372 759
54.77383 859
54.79395 877
54.81406 918
54.83417 859
54.85429 767
54.8744 753
54.89452 684
54.91463 654
54.93474 658
54.95486 633
54.97497 627
54.99508 512
55.0152 497
55.03531 484
55.05543 414
55.07554 412
55.09565 421
55.11577 465
55.13588 462
55.15599 425
55.17611 504
55.19622 522
55.21634 522
55.23645 535
55.25656 604
55.27668 588
55.29679 546
55.3169 500
55.33702 453
55.35713 452
55.37724 409
55.39736 407
55.41747 404
55.43759 381
55.4577 355
55.47781 370
55.49793 329
55.51804 301
55.53815 313
55.55827 281
55.57838 302
55.5985 281
55.61861 249
55.63872 265
55.65884 233
55.67895 245
55.69906 288
55.71918 256
55.73929 269
55.75941 275
55.77952 290
55.79963 268
55.81975 263
55.83986 264
55.85997 274
55.88009 264
55.9002 255
55.92031 245
55.94043 261
55.96054 251
55.98066 257
56.00077 262
56.02088 272
56.041 263
56.06111 244
56.08122 237
56.10134 268
56.12145 231
56.14157 240
56.16168 215
56.18179 236
56.20191 236
56.22202 237
56.24213 268
56.26225 259
56.28236 234
56.30248 229
56.32259 236
56.3427 240
56.36282 234
56.38293 224
56.40304 262
56.42316 248
56.44327 228
56.46338 233
56.4835 248
56.50361 239
56.52373 243
56.54384 256
56.56395 252
56.58407 259
56.60418 251
56.62429 259
56.64441 239
56.66452 237
56.68464 223
56.70475 249
56.72486 231
56.74498 252
56.76509 241
56.7852 235
56.80532 239
56.82543 256
56.84554 245
56.86566 235
56.88577 223
56.90589 228
56.926 206
56.94611 234
56.96623 223
56.98634 239
57.00645 227
57.02657 259
57.04668 272
57.0668 241
57.08691 257
57.10702 244
57.12714 260
57.14725 253
57.16736 241
57.18748 271
57.20759 263
57.22771 252
57.24782 244
57.26793 277
57.28805 241
57.30816 237
57.32827 235
57.34839 264
57.3685 245
57.38861 234
57.40873 242
57.42884 222
57.44896 219
57.46907 239
57.48918 254
57.5093 232
57.52941 226
57.54952 222
57.56964 231
57.58975 229
57.60987 234
57.62998 250
57.65009 246
57.67021 239
57.69032 227
57.71043 224
57.73055 210
57.75066 249
57.77078 222
57.79089 240
57.811 227
57.83112 237
57.85123 231
57.87134 227
57.89146 218
57.91157 216
57.93168 213
57.9518 215
57.97191 228
57.99203 227
58.01214 230
58.03225 226
58.05237 231
58.07248 229
58.09259 210
58.11271 243
58.13282 220
58.15294 254
58.17305 258
58.19316 223
58.21328 237
58.23339 223
58.2535 230
58.27362 225
58.29373 240
58.31385 234
58.33396 222
58.35407 236
58.37419 213
58.3943 224
58.41441 213
58.43453 226
58.45464 236
58.47475 207
58.49487 209
58.51498 228
58.5351 233
58.55521 226
58.57532 228
58.59544 210
58.61555 201
58.63566 228
58.65578 233
58.67589 215
58.69601 222
58.71612 234
58.73623 227
58.75635 242
58.77646 201
58.79657 218
58.81669 255
58.8368 209
58.85691 198
58.87703 223
58.89714 241
58.91726 214
58.93737 234
58.95748 243
58.9776 220
58.99771 234
59.01782 231
59.03794 236
59.05805 221
59.07817 230
59.09828 231
59.11839 240
59.13851 252
59.15862 232
59.17873 216
59.19885 240
59.21896 235
59.23908 251
59.25919 241
59.2793 235
59.29942 239
59.31953 235
59.33964 254
59.35976 245
59.37987 248
59.39998 266
59.4201 281
59.44021 304
59.46033 288
59.48044 314
59.50055 328
59.52067 332
59.54078 328
59.56089 345
59.58101 349
59.60112 369
59.62124 386
59.64135 438
59.66146 525
59.68158 519
59.70169 586
59.7218 661
59.74192 787
59.76203 892
59.78215 1043
59.80226 1217
59.82237 1297
59.84249 1447
59.8626 1515
59.88271 1528
59.90283 1533
59.92294 1393
59.94305 1294
59.96317 1160
59.98328 1024
60.0034 992
60.02351 927
60.04362 929
60.06374 871
60.08385 733
60.10396 590
60.12408 504
60.14419 446
60.16431 373
60.18442 325
60.20453 305
60.22465 299
60.24476 317
60.26487 286
60.28499 273
60.3051 289
60.32522 276
60.34533 257
60.36544 230
60.38556 235
60.40567 243
60.42578 221
60.4459 270
60.46601 253
60.48612 245
60.50624 251
60.52635 246
60.54647 247
60.56658 271
60.58669 217
60.60681 222
60.62692 230
60.64703 258
60.66715 210
60.68726 228
60.70738 244
60.72749 206
60.7476 249
60.76772 214
60.78783 240
60.80794 196
60.82806 224
60.84817 224
60.86828 219
60.8884 228
60.90851 203
60.92863 220
60.94874 218
60.96885 215
60.98897 243
61.00908 221
61.02919 201
61.04931 218
61.06942 213
61.08954 211
61.10965 219
61.12976 233
61.14988 224
61.16999 212
61.1901 223
61.21022 208
61.23033 224
61.25045 244
61.27056 228
61.29067 234
61.31079 216
61.3309 233
61.35101 219
61.37113 200
61.39124 228
61.41135 258
61.43147 228
61.45158 232
61.4717 247
61.49181 212
61.51192 266
61.53204 213
61.55215 249
61.57226 240
61.59238 254
61.61249 259
61.63261 235
61.65272 271
61.67283 248
61.69295 229
61.71306 226
61.73317 264
61.75329 255
61.7734 244
61.79352 231
61.81363 297
61.83374 267
61.85386 252
61.87397 255
61.89408 283
61.9142 262
61.93431 295
61.95442 280
61.97454 271
61.99465 304
62.01477 285
62.03488 304
62.05499 316
62.07511 304
62.09522 335
62.11533 342
62.13545 306
62.15556 309
62.17568 304
62.19579 337
62.2159 317
62.23602 308
62.25613 328
62.27624 323
62.29636 307
62.31647 328
62.33659 340
62.3567 346
62.37681 308
62.39693 276
62.41704 295
62.43715 285
62.45727 272
62.47738 291
62.49749 301
62.51761 258
62.53772 276
62.55784 274
62.57795 268
62.59806 261
62.61818 253
62.63829 262
62.6584 251
62.67852 246
62.69863 257
62.71875 245
62.73886 246
62.75897 231
62.77909 244
62.7992 248
62.81931 221
62.83943 247
62.85954 241
62.87965 229
62.89977 231
62.91988 227
62.94 230
62.96011 204
62.98022 213
63.00034 217
63.02045 229
63.04056 245
63.06068 241
63.08079 232
63.10091 217
63.12102 233
63.14113 219
63.16125 229
63.18136 240
63.20147 241
63.22159 252
63.2417 228
63.26182 196
63.28193 221
63.30204 218
63.32216 223
63.34227 212
63.36238 252
63.3825 259
63.40261 207
63.42272 224
63.44284 239
63.46295 228
63.48307 254
63.50318 241
63.52329 232
63.54341 240
63.56352 275
63.58363 291
63.60375 226
63.62386 243
63.64398 266
63.66409 261
63.6842 285
63.70432 238
63.72443 290
63.74454 298
63.76466 279
63.78477 327
63.80489 333
63.825 350
63.84511 383
63.86523 404
63.88534 412
63.90545 413
63.92557 438
63.94568 457
63.96579 459
63.98591 436
64.00602 429
64.02614 391
64.04625 360
64.06636 360
64.08648 403
64.10659 338
64.1267 349
64.14682 313
64.16693 350
64.18705 318
64.20716 297
64.22727 286
64.24739 236
64.2675 242
64.28761 243
64.30773 272
64.32784 248
64.34796 232
64.36807 228
64.38818 207
64.4083 258
64.42841 216
64.44852 243
64.46864 226
64.48875 232
64.50886 207
64.52898 223
64.54909 243
64.56921 218
64.58932 234
64.60943 219
64.62955 240
64.64966 227
64.66977 216
64.68989 204
64.71 189
64.73012 230
64.75023 217
64.77034 226
64.79046 208
64.81057 238
64.83068 246
64.8508 214
64.87091 208
64.89102 214
64.91114 234
64.93125 215
64.95137 208
64.97148 233
64.99159 214
65.01171 216
65.03182 239
65.05193 221
65.07205 230
65.09216 197
65.11228 204
65.13239 212
65.1525 210
65.17262 219
65.19273 213
65.21284 214
65.23296 239
65.25307 196
65.27319 191
65.2933 202
65.31341 210
65.33353 202
65.35364 224
65.37375 226
65.39387 215
65.41398 205
65.43409 210
65.45421 208
65.47432 235
65.49444 230
65.51455 224
65.53466 219
65.55478 218
65.57489 230
65.595 232
65.61512 246
65.63523 274
65.65535 278
65.67546 255
65.69557 274
65.71569 265
65.7358 243
65.75591 251
65.77603 273
65.79614 239
65.81626 255
65.83637 246
65.85648 245
65.8766 232
65.89671 246
65.91682 254
65.93694 244
65.95705 231
65.97716 221
65.99728 260
66.01739 211
66.03751 258
66.05762 237
66.07773 198
66.09785 243
66.11796 217
66.13807 223
66.15819 199
66.1783 218
66.19842 188
66.21853 202
66.23864 225
66.25876 212
66.27887 202
66.29898 214
66.3191 236
66.33921 216
66.35933 230
66.37944 196
66.39955 252
66.41967 213
66.43978 223
66.45989 202
66.48001 202
66.50012 233
66.52023 224
66.54035 227
66.56046 222
66.58058 235
66.60069 225
66.6208 227
66.64092 207
66.66103 199
66.68114 213
66.70126 236
66.72137 202
66.74149 214
66.7616 216
66.78171 213
66.80183 246
66.82194 218
66.84205 216
66.86217 220
66.88228 208
66.90239 225
66.92251 218
66.94262 221
66.96274 243
66.98285 219
67.00296 215
67.02308 215
67.04319 216
67.0633 221
67.08342 241
67.10353 255
67.12365 245
67.14376 250
67.16387 241
67.18399 258
67.2041 216
67.22421 247
67.24433 273
67.26444 270
67.28456 281
67.30467 279
67.32478 293
67.3449 294
67.36501 328
67.38512 300
67.40524 338
67.42535 369
67.44546 367
67.46558 460
67.48569 478
67.50581 481
67.52592 546
67.54603 654
67.56615 735
67.58626 816
67.60637 883
67.62649 924
67.6466 1016
67.66672 957
67.68683 964
67.70694 941
67.72706 856
67.74717 770
67.76728 742
67.7874 750
67.80751 726
67.82763 740
67.84774 822
67.86785 816
67.88797 850
67.90808 873
67.92819 886
67.94831 931
67.96842 968
67.98853 1069
68.00865 1142
68.02876 1229
68.04888 1229
68.06899 1252
68.0891 1244
68.10922 1316
68.12933 1315
68.14944 1161
68.16956 1251
68.18967 1156
68.20979 1259
68.2299 1168
68.25001 1136
68.27013 1096
68.29024 978
68.31035 910
68.33047 751
68.35058 724
68.3707 564
68.39081 570
68.41092 540
68.43104 499
68.45115 487
68.47126 440
68.49138 384
68.51149 369
68.5316 358
68.55172 308
68.57183 300
68.59195 248
68.61206 216
68.63217 262
68.65229 235
68.6724 250
68.69251 246
68.71263 256
68.73274 222
68.75286 243
68.77297 201
68.79308 212
68.8132 243
68.83331 216
68.85342 254
68.87354 224
68.89365 218
68.91376 209
68.93388 220
68.95399 229
68.97411 217
68.99422 221
69.01433 230
69.03445 224
69.05456 243
69.07467 238
69.09479 204
69.1149 249
69.13502 215
69.15513 232
69.17524 232
69.19536 216
69.21547 199
69.23558 218
69.2557 214
69.27581 240
69.29593 183
69.31604 205
69.33615 216
69.35627 189
69.37638 209
69.39649 197
69.41661 223
69.43672 229
69.45683 228
69.47695 190
69.49706 201
69.51718 202
69.53729 194
69.5574 202
69.57752 205
69.59763 219
69.61774 206
69.63786 205
69.65797 213
69.67809 185
69.6982 214
69.71831 192
69.73843 231
69.75854 200
69.77865 214
69.79877 194
69.81888 194
69.839 224
69.85911 217
69.87922 199
69.89934 186
69.91945 182
69.93956 204
69.95968 189
69.97979 208
69.9999 209
70.02002 209
70.04013 211
70.06025 193
70.08036 213
70.10047 200
70.12059 209
70.1407 179
70.16081 201
70.18093 205
70.20104 187
70.22116 188
70.24127 206
70.26138 187
70.2815 205
70.30161 191
70.32172 183
70.34184 174
70.36195 192
70.38207 200
70.40218 206
70.42229 217
70.44241 201
70.46252 227
70.48263 197
70.50275 203
70.52286 207
70.54297 187
70.56309 189
70.5832 206
70.60332 165
70.62343 204
70.64354 183
70.66366 182
70.68377 222
70.70388 206
70.724 210
70.74411 228
70.76423 209
70.78434 210
70.80445 183
70.82457 190
70.84468 187
70.86479 196
70.88491 197
70.90502 176
70.92513 185
70.94525 196
70.96536 192
70.98548 198
71.00559 193
71.0257 197
71.04582 181
71.06593 189
71.08604 179
71.10616 196
71.12627 205
71.14639 171
71.1665 177
71.18661 195
71.20673 196
71.22684 184
71.24695 185
71.26707 178
71.28718 197
71.3073 190
71.32741 215
71.34752 192
71.36764 180
71.38775 191
71.40786 209
71.42798 207
71.44809 210
71.4682 197
71.48832 199
71.50843 183
71.52855 160
71.54866 183
71.56877 188
71.58889 194
71.609 174
71.62911 176
71.64923 187
71.66934 176
71.68946 204
71.70957 204
71.72968 214
71.7498 207
71.76991 209
71.79002 209
71.81014 188
71.83025 209
71.85037 214
71.87048 212
71.89059 201
71.91071 194
71.93082 163
71.95093 211
71.97105 210
71.99116 184
72.01127 187
72.03139 198
72.0515 205
72.07162 193
72.09173 200
72.11184 199
72.13196 212
72.15207 148
72.17218 190
72.1923 200
72.21241 202
72.23253 198
72.25264 201
72.27275 194
72.29287 183
72.31298 198
72.33309 182
72.35321 225
72.37332 202
72.39344 194
72.41355 202
72.43366 206
72.45378 200
72.47389 202
72.494 196
72.51412 193
72.53423 210
72.55434 210
72.57446 197
72.59457 214
72.61469 203
72.6348 220
72.65491 191
72.67503 181
72.69514 216
72.71525 216
72.73537 169
72.75548 209
72.7756 215
72.79571 176
72.81582 197
72.83594 211
72.85605 186
72.87616 208
72.89628 217
72.91639 221
72.9365 210
72.95662 231
72.97673 220
72.99685 211
73.01696 204
73.03707 223
73.05719 233
73.0773 223
73.09741 241
73.11753 217
73.13764 241
73.15776 245
73.17787 279
73.19798 255
73.2181 271
73.23821 308
73.25832 304
73.27844 347
73.29855 369
73.31867 409
73.33878 432
73.35889 416
73.37901 472
73.39912 461
73.41923 464
73.43935 409
73.45946 395
73.47957 344
73.49969 322
73.5198 313
73.53992 346
73.56003 337
73.58014 342
73.60026 325
73.62037 329
73.64048 326
73.6606 292
73.68071 258
73.70083 256
73.72094 250
73.74105 227
73.76117 216
73.78128 187
73.80139 214
73.82151 199
73.84162 230
73.86174 206
73.88185 204
73.90196 182
73.92208 201
73.94219 188
73.9623 187
73.98242 211
74.00253 186
74.02264 194
74.04276 208
74.06287 193
74.08299 207
74.1031 181
74.12321 199
74.14333 198
74.16344 181
74.18355 214
74.20367 180
74.22378 195
74.2439 194
74.26401 198
74.28412 208
74.30424 188
74.32435 203
74.34446 185
74.36458 218
74.38469 201
74.40481 182
74.42492 187
74.44503 178
74.46515 191
74.48526 191
74.50537 180
74.52549 205
74.5456 172
74.56571 191
74.58583 181
74.60594 187
74.62606 207
74.64617 208
74.66628 180
74.6864 194
74.70651 190
74.72662 181
74.74674 197
74.76685 195
74.78697 187
74.80708 214
74.82719 179
74.84731 194
74.86742 184
74.88753 193
74.90765 173
74.92776 178
74.94787 224
74.96799 213
74.9881 189
75.00822 225
