3.00117 21181
3.02128 20537
3.0414 19985
3.06151 19841
3.08162 18853
3.10174 18532
3.12185 17941
3.14197 17528
3.16208 17098
3.18219 16494
3.20231 16117
3.22242 15309
3.24253 15311
3.26265 14632
3.28276 13720
3.30288 13609
3.32299 13128
3.3431 12667
3.36322 12538
3.38333 11777
3.40344 11723
3.42356 10848
3.44367 10932
3.46379 10289
3.4839 9957
3.50401 9953
3.52413 9399
3.54424 9090
3.56435 8797
3.58447 8402
3.60458 8173
3.62469 7673
3.64481 7638
3.66492 7347
3.68504 6930
3.70515 6754
3.72526 6330
3.74538 6245
3.76549 5866
3.7856 5598
3.80572 5395
3.82583 5273
3.84595 4942
3.86606 4751
3.88617 4524
3.90629 4385
3.9264 4153
3.94651 4069
3.96663 3854
3.98674 3621
4.00686 3655
4.02697 3361
4.04708 3256
4.0672 3120
4.08731 2900
4.10742 2952
4.12754 2775
4.14765 2554
4.16776 2443
4.18788 2385
4.20799 2332
4.22811 2304
4.24822 2110
4.26833 2054
4.28845 1990
4.30856 1918
4.32867 1871
4.34879 1842
4.3689 1698
4.38902 1614
4.40913 1660
4.42924 1651
4.44936 1468
4.46947 1543
4.48958 1493
4.5097 1559
4.52981 1482
4.54992 1262
4.57004 1229
4.59015 1290
4.61027 1191
4.63038 1258
4.65049 1144
4.67061 1168
4.69072 1117
4.71083 1159
4.73095 1175
4.75106 1022
4.77118 946
4.79129 950
4.8114 967
4.83152 988
4.85163 988
4.87174 927
4.89186 904
4.91197 939
4.93209 891
4.9522 765
4.97231 830
4.99243 772
5.01254 757
5.03265 799
5.05277 742
5.07288 759
5.09299 701
5.11311 661
5.13322 705
5.15334 643
5.17345 670
5.19356 656
5.21368 630
5.23379 659
5.2539 587
5.27402 588
5.29413 576
5.31425 536
5.33436 515
5.35447 488
5.37459 475
5.3947 466
5.41481 513
5.43493 489
5.45504 449
5.47516 455
5.49527 463
5.51538 458
5.5355 474
5.55561 415
5.57572 422
5.59584 358
5.61595 468
5.63606 369
5.65618 402
5.67629 381
5.69641 345
5.71652 391
5.73663 373
5.75675 333
5.77686 325
5.79697 351
5.81709 339
5.8372 309
5.85732 347
5.87743 370
5.89754 338
5.91766 302
5.93777 299
5.95788 293
5.978 309
5.99811 317
6.01823 286
6.03834 300
6.05845 259
6.07857 303
6.09868 271
6.11879 327
6.13891 281
6.15902 289
6.17913 278
6.19925 275
6.21936 287
6.23948 282
6.25959 262
6.2797 261
6.29982 296
6.31993 304
6.34004 259
6.36016 272
6.38027 254
6.40039 309
6.4205 275
6.44061 297
6.46073 259
6.48084 270
6.50095 230
6.52107 250
6.54118 222
6.56129 268
6.58141 240
6.60152 231
6.62164 224
6.64175 271
6.66186 259
6.68198 270
6.70209 268
6.7222 254
6.74232 242
6.76243 233
6.78255 246
6.80266 252
6.82277 236
6.84289 236
6.863 234
6.88311 254
6.90323 242
6.92334 261
6.94346 268
6.96357 260
6.98368 255
7.0038 219
7.02391 257
7.04402 269
7.06414 241
7.08425 245
7.10436 260
7.12448 255
7.14459 260
7.16471 220
7.18482 250
7.20493 245
7.22505 245
7.24516 226
7.26527 248
7.28539 235
7.3055 222
7.32562 277
7.34573 216
7.36584 292
7.38596 237
7.40607 257
7.42618 276
7.4463 228
7.46641 294
7.48653 277
7.50664 242
7.52675 290
7.54687 244
7.56698 258
7.58709 255
7.60721 254
7.62732 241
7.64743 264
7.66755 307
7.68766 261
7.70778 262
7.72789 277
7.748 252
7.76812 252
7.78823 280
7.80834 282
7.82846 247
7.84857 272
7.86869 242
7.8888 261
7.90891 262
7.92903 260
7.94914 319
7.96925 283
7.98937 239
8.00948 272
8.0296 286
8.04971 290
8.06982 273
8.08994 239
8.11005 286
8.13016 284
8.15028 264
8.17039 296
8.1905 286
8.21062 294
8.23073 272
8.25085 297
8.27096 298
8.29107 273
8.31119 248
8.3313 324
8.35141 285
8.37153 279
8.39164 237
8.41176 275
8.43187 280
8.45198 278
8.4721 300
8.49221 296
8.51232 302
8.53244 287
8.55255 318
8.57266 294
8.59278 306
8.61289 274
8.63301 297
8.65312 333
8.67323 270
8.69335 336
8.71346 339
8.73357 339
8.75369 299
8.7738 338
8.79392 317
8.81403 337
8.83414 297
8.85426 338
8.87437 331
8.89448 318
8.9146 302
8.93471 317
8.95483 267
8.97494 306
8.99505 261
9.01517 287
9.03528 276
9.05539 238
9.07551 253
9.09562 268
9.11573 259
9.13585 245
9.15596 248
9.17608 258
9.19619 268
9.2163 281
9.23642 282
9.25653 276
9.27664 261
9.29676 268
9.31687 272
9.33699 278
9.3571 257
9.37721 278
9.39733 248
9.41744 282
9.43755 264
9.45767 234
9.47778 257
9.4979 246
9.51801 264
9.53812 278
9.55824 256
9.57835 254
9.59846 259
9.61858 227
9.63869 233
9.6588 273
9.67892 246
9.69903 240
9.71915 276
9.73926 249
9.75937 262
9.77949 281
9.7996 241
9.81971 238
9.83983 242
9.85994 246
9.88006 262
9.90017 256
9.92028 253
9.9404 249
9.96051 240
9.98062 250
10.00074 245
10.02085 235
10.04097 219
10.06108 248
10.08119 253
10.10131 258
10.12142 266
10.14153 251
10.16165 246
10.18176 247
10.20187 232
10.22199 227
10.2421 244
10.26222 285
10.28233 251
10.30244 249
10.32256 251
10.34267 238
10.36278 251
10.3829 261
10.40301 254
10.42313 270
10.44324 273
10.46335 240
10.48347 264
10.50358 246
10.52369 281
10.54381 240
10.56392 249
10.58403 232
10.60415 292
10.62426 241
10.64438 260
10.66449 233
10.6846 248
10.70472 250
10.72483 205
10.74494 253
10.76506 247
10.78517 226
10.80529 239
10.8254 270
10.84551 254
10.86563 260
10.88574 229
10.90585 279
10.92597 259
10.94608 252
10.9662 244
10.98631 223
11.00642 249
11.02654 255
11.04665 255
11.06676 260
11.08688 243
11.10699 260
11.1271 208
11.14722 283
11.16733 232
11.18745 283
11.20756 220
11.22767 242
11.24779 236
11.2679 222
11.28801 283
11.30813 234
11.32824 245
11.34836 230
11.36847 230
11.38858 214
11.4087 223
11.42881 222
11.44892 246
11.46904 234
11.48915 226
11.50927 240
11.52938 255
11.54949 226
11.56961 233
11.58972 232
11.60983 261
11.62995 260
11.65006 270
11.67017 218
11.69029 236
11.7104 271
11.73052 245
11.75063 238
11.77074 251
11.79086 257
11.81097 268
11.83108 263
11.8512 251
11.87131 267
11.89143 243
11.91154 250
11.93165 246
11.95177 283
11.97188 258
11.99199 277
12.01211 239
12.03222 242
12.05234 224
12.07245 232
12.09256 247
12.11268 245
12.13279 236
12.1529 265
12.17302 259
12.19313 283
12.21324 249
12.23336 239
12.25347 238
12.27359 282
12.2937 232
12.31381 251
12.33393 287
12.35404 246
12.37415 232
12.39427 236
12.41438 231
12.4345 240
12.45461 238
12.47472 250
12.49484 222
12.51495 256
12.53506 252
12.55518 257
12.57529 245
12.5954 254
12.61552 241
12.63563 230
12.65575 236
12.67586 248
12.69597 266
12.71609 253
12.7362 227
12.75631 256
12.77643 230
12.79654 242
12.81666 216
12.83677 221
12.85688 260
12.877 239
12.89711 224
12.91722 249
12.93734 218
12.95745 197
12.97757 180
12.99768 199
13.01779 237
13.03791 235
13.05802 230
13.07813 236
13.09825 198
13.11836 241
13.13847 226
13.15859 209
13.1787 214
13.19882 239
13.21893 209
13.23904 190
13.25916 225
13.27927 212
13.29938 220
13.3195 221
13.33961 234
13.35973 222
13.37984 205
13.39995 205
13.42007 232
13.44018 185
13.46029 202
13.48041 193
13.50052 233
13.52064 247
13.54075 228
13.56086 254
13.58098 228
13.60109 243
13.6212 212
13.64132 237
13.66143 221
13.68154 241
13.70166 195
13.72177 231
13.74189 243
13.762 258
13.78211 239
13.80223 248
13.82234 227
13.84245 204
13.86257 228
13.88268 206
13.9028 225
13.92291 226
13.94302 227
13.96314 217
13.98325 233
14.00336 215
14.02348 238
14.04359 200
14.06371 219
14.08382 211
14.10393 202
14.12405 206
14.14416 214
14.16427 238
14.18439 223
14.2045 206
14.22461 224
14.24473 221
14.26484 246
14.28496 196
14.30507 185
14.32518 197
14.3453 206
14.36541 200
14.38552 188
14.40564 199
14.42575 201
14.44587 243
14.46598 209
14.48609 216
14.50621 229
14.52632 196
14.54643 189
14.56655 223
14.58666 192
14.60677 199
14.62689 215
14.647 182
14.66712 189
14.68723 223
14.70734 203
14.72746 185
14.74757 200
14.76768 204
14.7878 220
14.80791 218
14.82803 216
14.84814 236
14.86825 203
14.88837 203
14.90848 215
14.92859 225
14.94871 220
14.96882 215
14.98894 247
15.00905 205
15.02916 200
15.04928 208
15.06939 199
15.0895 191
15.10962 203
15.12973 192
15.14984 228
15.16996 199
15.19007 202
15.21019 193
15.2303 206
15.25041 196
15.27053 210
15.29064 205
15.31075 202
15.33087 193
15.35098 195
15.3711 186
15.39121 221
15.41132 206
15.43144 185
15.45155 190
15.47166 195
15.49178 206
15.51189 184
15.53201 184
15.55212 203
15.57223 202
15.59235 231
15.61246 196
15.63257 199
15.65269 195
15.6728 213
15.69291 221
15.71303 186
15.73314 192
15.75326 192
15.77337 195
15.79348 207
15.8136 225
15.83371 203
15.85382 221
15.87394 183
15.89405 209
15.91417 222
15.93428 207
15.95439 191
15.97451 195
15.99462 215
16.01473 189
16.03485 189
16.05496 183
16.07508 176
16.09519 183
16.1153 173
16.13542 219
16.15553 189
16.17564 196
16.19576 194
16.21587 207
16.23598 172
16.2561 209
16.27621 190
16.29633 191
16.31644 186
16.33655 194
16.35667 201
16.37678 208
16.39689 182
16.41701 195
16.43712 214
16.45724 173
16.47735 194
16.49746 211
16.51758 193
16.53769 211
16.5578 190
16.57792 196
16.59803 201
16.61814 188
16.63826 163
16.65837 196
16.67849 213
16.6986 194
16.71871 170
16.73883 193
16.75894 201
16.77905 243
16.79917 179
16.81928 175
16.8394 189
16.85951 191
16.87962 203
16.89974 177
16.91985 202
16.93996 200
16.96008 192
16.98019 205
17.00031 189
17.02042 201
17.04053 215
17.06065 206
17.08076 196
17.10087 191
17.12099 200
17.1411 204
17.16121 210
17.18133 177
17.20144 198
17.22156 205
17.24167 179
17.26178 170
17.2819 184
17.30201 185
17.32212 194
17.34224 199
17.36235 194
17.38247 208
17.40258 208
17.42269 207
17.44281 193
17.46292 209
17.48303 186
17.50315 192
17.52326 223
17.54338 210
17.56349 223
17.5836 224
17.60372 233
17.62383 237
17.64394 252
17.66406 233
17.68417 216
17.70428 235
17.7244 219
17.74451 202
17.76463 212
17.78474 221
17.80485 195
17.82497 241
17.84508 207
17.86519 208
17.88531 215
17.90542 236
17.92554 222
17.94565 238
17.96576 217
17.98588 204
18.00599 238
18.0261 212
18.04622 210
18.06633 204
18.08645 184
18.10656 188
18.12667 203
18.14679 203
18.1669 206
18.18701 220
18.20713 215
18.22724 209
18.24735 200
18.26747 206
18.28758 212
18.3077 199
18.32781 178
18.34792 193
18.36804 214
18.38815 195
18.40826 209
18.42838 196
18.44849 175
18.46861 220
18.48872 224
18.50883 201
18.52895 209
18.54906 224
18.56917 227
18.58929 213
18.6094 207
18.62951 185
18.64963 196
18.66974 226
18.68986 238
18.70997 219
18.73008 198
18.7502 216
18.77031 209
18.79042 199
18.81054 189
18.83065 212
18.85077 205
18.87088 205
18.89099 169
18.91111 196
18.93122 183
18.95133 207
18.97145 195
18.99156 226
19.01168 205
19.03179 224
19.0519 188
19.07202 205
19.09213 195
19.11224 217
19.13236 198
19.15247 204
19.17258 196
19.1927 198
19.21281 202
19.23293 212
19.25304 185
19.27315 185
19.29327 233
19.31338 212
19.33349 238
19.35361 217
19.37372 227
19.39384 251
19.41395 229
19.43406 237
19.45418 207
19.47429 254
19.4944 278
19.51452 283
19.53463 315
19.55475 312
19.57486 341
19.59497 382
19.61509 394
19.6352 445
19.65531 474
19.67543 421
19.69554 452
19.71565 440
19.73577 475
19.75588 439
19.776 483
19.79611 500
19.81622 378
19.83634 441
19.85645 420
19.87656 391
19.89668 374
19.91679 419
19.93691 374
19.95702 362
19.97713 361
19.99725 329
20.01736 319
20.03747 349
20.05759 384
20.0777 326
20.09782 336
20.11793 357
20.13804 372
20.15816 351
20.17827 360
20.19838 341
20.2185 341
20.23861 378
20.25872 389
20.27884 378
20.29895 356
20.31907 354
20.33918 382
20.35929 400
20.37941 418
20.39952 427
20.41963 425
20.43975 442
20.45986 467
20.47998 448
20.50009 563
20.5202 517
20.54032 611
20.56043 641
20.58054 732
20.60066 915
20.62077 1004
20.64088 1253
20.661 1652
20.68111 2033
20.70123 2615
20.72134 3296
20.74145 4155
20.76157 4896
20.78168 5353
20.80179 5844
20.82191 5676
20.84202 5217
20.86214 4496
20.88225 3381
20.90236 2444
20.92248 1685
20.94259 1166
20.9627 822
20.98282 650
21.00293 550
21.02305 481
21.04316 444
21.06327 463
21.08339 459
21.1035 438
21.12361 356
21.14373 404
21.16384 336
21.18395 381
21.20407 342
21.22418 379
21.2443 308
21.26441 305
21.28452 324
21.30464 354
21.32475 351
21.34486 295
21.36498 320
21.38509 298
21.40521 285
21.42532 289
21.44543 310
21.46555 322
21.48566 314
21.50577 324
21.52589 302
21.546 308
21.56612 295
21.58623 315
21.60634 302
21.62646 272
21.64657 303
21.66668 295
21.6868 297
21.70691 321
21.72702 301
21.74714 278
21.76725 274
21.78737 293
21.80748 286
21.82759 277
21.84771 302
21.86782 311
21.88793 280
21.90805 347
21.92816 346
21.94828 347
21.96839 354
21.9885 335
22.00862 324
22.02873 334
22.04884 362
22.06896 315
22.08907 303
22.10919 288
22.1293 268
22.14941 285
22.16953 250
22.18964 265
22.20975 272
22.22987 286
22.24998 275
22.27009 279
22.29021 261
22.31032 268
22.33044 250
22.35055 252
22.37066 242
22.39078 230
22.41089 265
22.431 266
22.45112 260
22.47123 259
22.49135 236
22.51146 243
22.53157 269
22.55169 258
22.5718 281
22.59191 253
22.61203 292
22.63214 218
22.65225 278
22.67237 243
22.69248 258
22.7126 281
22.73271 274
22.75282 275
22.77294 286
22.79305 248
22.81316 263
22.83328 250
22.85339 291
22.87351 281
22.89362 288
22.91373 254
22.93385 267
22.95396 268
22.97407 289
22.99419 250
23.0143 266
23.03442 284
23.05453 256
23.07464 302
23.09476 283
23.11487 246
23.13498 272
23.1551 260
23.17521 239
23.19532 250
23.21544 250
23.23555 250
23.25567 281
23.27578 244
23.29589 258
23.31601 225
23.33612 276
23.35623 283
23.37635 235
23.39646 290
23.41658 272
23.43669 294
23.4568 294
23.47692 268
23.49703 318
23.51714 267
23.53726 258
23.55737 277
23.57749 264
23.5976 302
23.61771 286
23.63783 305
23.65794 273
23.67805 303
23.69817 293
23.71828 260
23.73839 285
23.75851 287
23.77862 276
23.79874 283
23.81885 314
23.83896 301
23.85908 308
23.87919 325
23.8993 299
23.91942 312
23.93953 352
23.95965 355
23.97976 309
23.99987 285
24.01999 320
24.0401 325
24.06021 340
24.08033 339
24.10044 346
24.12056 309
24.14067 334
24.16078 326
24.1809 361
24.20101 340
24.22112 301
24.24124 366
24.26135 298
24.28146 362
24.30158 289
24.32169 319
24.34181 351
24.36192 266
24.38203 299
24.40215 299
24.42226 278
24.44237 320
24.46249 271
24.4826 294
24.50272 289
24.52283 277
24.54294 276
24.56306 293
24.58317 269
24.60328 282
24.6234 271
24.64351 234
24.66362 317
24.68374 303
24.70385 272
24.72397 256
24.74408 281
24.76419 291
24.78431 256
24.80442 292
24.82453 298
24.84465 268
24.86476 294
24.88488 271
24.90499 267
24.9251 283
24.94522 264
24.96533 266
24.98544 292
25.00556 291
25.02567 282
25.04579 266
25.0659 254
25.08601 315
25.10613 287
25.12624 317
25.14635 310
25.16647 292
25.18658 297
25.20669 316
25.22681 290
25.24692 325
25.26704 298
25.28715 356
25.30726 322
25.32738 332
25.34749 321
25.3676 337
25.38772 325
25.40783 333
25.42795 320
25.44806 316
25.46817 317
25.48829 320
25.5084 357
25.52851 330
25.54863 355
25.56874 359
25.58886 371
25.60897 377
25.62908 427
25.6492 454
25.66931 428
25.68942 415
25.70954 436
25.72965 486
25.74976 454
25.76988 518
25.78999 471
25.81011 485
25.83022 504
25.85033 562
25.87045 471
25.89056 518
25.91067 511
25.93079 576
25.9509 532
25.97102 583
25.99113 545
26.01124 627
26.03136 627
26.05147 719
26.07158 730
26.0917 763
26.11181 812
26.13193 891
26.15204 938
26.17215 1048
26.19227 1100
26.21238 1101
26.23249 1230
26.25261 1356
26.27272 1618
26.29283 1707
26.31295 1982
26.33306 2445
26.35318 2965
26.37329 3766
26.3934 4806
26.41352 6183
26.43363 7902
26.45374 10080
26.47386 12669
26.49397 15798
26.51409 19083
26.5342 22225
26.55431 24418
26.57443 25568
26.59454 25273
26.61465 23116
26.63477 19966
26.65488 15978
26.67499 12269
26.69511 8654
26.71522 6256
26.73534 4152
26.75545 2855
26.77556 2093
26.79568 1671
26.81579 1473
26.8359 1315
26.85602 1230
26.87613 1061
26.89625 973
26.91636 907
26.93647 810
26.95659 773
26.9767 693
26.99681 647
27.01693 616
27.03704 617
27.05716 584
27.07727 578
27.09738 521
27.1175 518
27.13761 533
27.15772 459
27.17784 482
27.19795 460
27.21806 427
27.23818 472
27.25829 413
27.27841 417
27.29852 435
27.31863 410
27.33875 381
27.35886 415
27.37897 417
27.39909 433
27.4192 403
27.43932 383
27.45943 396
27.47954 398
27.49966 406
27.51977 417
27.53988 406
27.56 371
27.58011 429
27.60023 410
27.62034 391
27.64045 408
27.66057 435
27.68068 426
27.70079 455
27.72091 425
27.74102 467
27.76113 474
27.78125 463
27.80136 455
27.82148 491
27.84159 465
27.8617 479
27.88182 496
27.90193 466
27.92204 434
27.94216 384
27.96227 430
27.98239 392
28.0025 425
28.02261 406
28.04273 403
28.06284 373
28.08295 353
28.10307 355
28.12318 405
28.1433 352
28.16341 375
28.18352 375
28.20364 350
28.22375 359
28.24386 343
28.26398 309
28.28409 329
28.3042 318
28.32432 323
28.34443 311
28.36455 255
28.38466 313
28.40477 291
28.42489 272
28.445 282
28.46511 309
28.48523 305
28.50534 286
28.52546 310
28.54557 311
28.56568 302
28.5858 340
28.60591 258
28.62602 299
28.64614 274
28.66625 283
28.68636 268
28.70648 324
28.72659 280
28.74671 291
28.76682 252
28.78693 300
28.80705 264
28.82716 256
28.84727 280
28.86739 272
28.8875 286
28.90762 270
28.92773 275
28.94784 285
28.96796 284
28.98807 282
29.00818 272
29.0283 297
29.04841 291
29.06853 282
29.08864 303
29.10875 277
29.12887 281
29.14898 306
29.16909 300
29.18921 284
29.20932 307
29.22943 260
29.24955 267
29.26966 296
29.28978 257
29.30989 283
29.33 246
29.35012 281
29.37023 281
29.39034 247
29.41046 282
29.43057 285
29.45069 222
29.4708 295
29.49091 270
29.51103 237
29.53114 271
29.55125 258
29.57137 269
29.59148 230
29.6116 262
29.63171 252
29.65182 278
29.67194 286
29.69205 270
29.71216 263
29.73228 250
29.75239 263
29.7725 259
29.79262 282
29.81273 263
29.83285 278
29.85296 271
29.87307 298
29.89319 299
29.9133 272
29.93341 246
29.95353 259
29.97364 270
29.99376 264
30.01387 266
30.03398 269
30.0541 280
30.07421 271
30.09432 277
30.11444 269
30.13455 266
30.15467 264
30.17478 293
30.19489 249
30.21501 263
30.23512 271
30.25523 264
30.27535 270
30.29546 257
30.31557 264
30.33569 279
30.3558 265
30.37592 265
30.39603 265
30.41614 250
30.43626 259
30.45637 257
30.47648 255
30.4966 250
30.51671 261
30.53683 244
30.55694 221
30.57705 257
30.59717 237
30.61728 229
30.63739 254
30.65751 249
30.67762 271
30.69773 238
30.71785 228
30.73796 249
30.75808 241
30.77819 264
30.7983 235
30.81842 244
30.83853 245
30.85864 248
30.87876 235
30.89887 247
30.91899 227
30.9391 241
30.95921 267
30.97933 238
30.99944 242
31.01955 254
31.03967 267
31.05978 229
31.0799 244
31.10001 216
31.12012 245
31.14024 222
31.16035 245
31.18046 244
31.20058 241
31.22069 243
31.2408 236
31.26092 239
31.28103 247
31.30115 275
31.32126 238
31.34137 268
31.36149 212
31.3816 240
31.40171 213
31.42183 226
31.44194 222
31.46206 252
31.48217 225
31.50228 212
31.5224 209
31.54251 227
31.56262 241
31.58274 245
31.60285 234
31.62297 214
31.64308 247
31.66319 207
31.68331 188
31.70342 224
31.72353 206
31.74365 181
31.76376 257
31.78387 234
31.80399 227
31.8241 212
31.84422 230
31.86433 222
31.88444 208
31.90456 237
31.92467 223
31.94478 207
31.9649 214
31.98501 224
32.00513 228
32.02524 210
32.04535 227
32.06547 238
32.08558 232
32.10569 231
32.12581 220
32.14592 224
32.16604 191
32.18615 202
32.20626 182
32.22638 191
32.24649 204
32.2666 216
32.28672 205
32.30683 181
32.32694 197
32.34706 209
32.36717 224
32.38729 205
32.4074 197
32.42751 212
32.44763 184
32.46774 204
32.48785 200
32.50797 219
32.52808 208
32.5482 222
32.56831 217
32.58842 199
32.60854 228
32.62865 188
32.64876 202
32.66888 239
32.68899 213
32.7091 215
32.72922 167
32.74933 217
32.76945 165
32.78956 218
32.80967 211
32.82979 211
32.8499 190
32.87001 217
32.89013 199
32.91024 204
32.93036 223
32.95047 247
32.97058 222
32.9907 229
33.01081 206
33.03092 222
33.05104 214
33.07115 246
33.09127 252
33.11138 242
33.13149 241
33.15161 216
33.17172 240
33.19183 219
33.21195 219
33.23206 185
33.25217 193
33.27229 199
33.2924 204
33.31252 179
33.33263 175
33.35274 219
33.37286 212
33.39297 214
33.41308 215
33.4332 227
33.45331 210
33.47343 187
33.49354 204
33.51365 217
33.53377 180
33.55388 204
33.57399 184
33.59411 194
33.61422 208
33.63434 183
33.65445 193
33.67456 199
33.69468 188
33.71479 176
33.7349 202
33.75502 182
33.77513 212
33.79524 191
33.81536 187
33.83547 201
33.85559 191
33.8757 209
33.89581 186
33.91593 222
33.93604 188
33.95615 237
33.97627 196
33.99638 224
34.0165 204
34.03661 223
34.05672 189
34.07684 205
34.09695 187
34.11706 175
34.13718 199
34.15729 225
34.17741 204
34.19752 223
34.21763 196
34.23775 223
34.25786 216
34.27797 250
34.29809 238
34.3182 242
34.33831 260
34.35843 267
34.37854 271
34.39866 306
34.41877 301
34.43888 258
34.459 304
34.47911 331
34.49922 324
34.51934 328
34.53945 323
34.55957 289
34.57968 345
34.59979 358
34.61991 352
34.64002 355
34.66013 348
34.68025 401
34.70036 376
34.72047 398
34.74059 341
34.7607 367
34.78082 390
34.80093 431
34.82104 397
34.84116 374
34.86127 365
34.88138 373
34.9015 347
34.92161 374
34.94173 372
34.96184 356
34.98195 337
35.00207 340
35.02218 297
35.04229 345
35.06241 276
35.08252 303
35.10264 313
35.12275 292
35.14286 258
35.16298 283
35.18309 270
35.2032 273
35.22332 250
35.24343 251
35.26354 234
35.28366 236
35.30377 234
35.32389 244
35.344 245
35.36411 259
35.38423 262
35.40434 235
35.42445 271
35.44457 241
35.46468 262
35.4848 307
35.50491 260
35.52502 265
35.54514 256
35.56525 264
35.58536 249
35.60548 271
35.62559 281
35.64571 241
35.66582 267
35.68593 247
35.70605 228
35.72616 234
35.74627 247
35.76639 240
35.7865 261
35.80661 252
35.82673 267
35.84684 222
35.86696 276
35.88707 249
35.90718 262
35.9273 260
35.94741 267
35.96752 260
35.98764 261
36.00775 245
36.02787 267
36.04798 248
36.06809 264
36.08821 286
36.10832 314
36.12843 329
36.14855 337
36.16866 332
36.18878 344
36.20889 377
36.229 442
36.24912 484
36.26923 530
36.28934 611
36.30946 765
36.32957 863
36.34968 989
36.3698 1242
36.38991 1354
36.41003 1513
36.43014 1634
36.45025 1742
36.47037 1811
36.49048 1829
36.51059 1637
36.53071 1494
36.55082 1383
36.57094 1192
36.59105 991
36.61116 776
36.63128 654
36.65139 519
36.6715 423
36.69162 394
36.71173 343
36.73184 336
36.75196 273
36.77207 292
36.79219 309
36.8123 261
36.83241 255
36.85253 220
36.87264 244
36.89275 254
36.91287 252
36.93298 245
36.9531 236
36.97321 230
36.99332 275
37.01344 244
37.03355 253
37.05366 223
37.07378 223
37.09389 212
37.11401 223
37.13412 243
37.15423 242
37.17435 236
37.19446 196
37.21457 214
37.23469 271
37.2548 238
37.27491 250
37.29503 217
37.31514 231
37.33526 264
37.35537 256
37.37548 241
37.3956 257
37.41571 235
37.43582 220
37.45594 222
37.47605 252
37.49617 259
37.51628 253
37.53639 248
37.55651 233
37.57662 258
37.59673 245
37.61685 242
37.63696 270
37.65708 254
37.67719 244
37.6973 249
37.71742 243
37.73753 226
37.75764 254
37.77776 237
37.79787 246
37.81798 251
37.8381 233
37.85821 230
37.87833 235
37.89844 198
37.91855 210
37.93867 222
37.95878 230
37.97889 222
37.99901 232
38.01912 236
38.03924 251
38.05935 233
38.07946 212
38.09958 212
38.11969 194
38.1398 219
38.15992 209
38.18003 233
38.20015 227
38.22026 212
38.24037 230
38.26049 209
38.2806 225
38.30071 210
38.32083 201
38.34094 206
38.36105 233
38.38117 211
38.40128 215
38.4214 239
38.44151 233
38.46162 195
38.48174 223
38.50185 221
38.52196 199
38.54208 236
38.56219 159
38.58231 228
38.60242 213
38.62253 195
38.64265 221
38.66276 226
38.68287 216
38.70299 223
38.7231 229
38.74321 227
38.76333 201
38.78344 199
38.80356 205
38.82367 212
38.84378 235
38.8639 228
38.88401 236
38.90412 253
38.92424 253
38.94435 229
38.96447 245
38.98458 262
39.00469 247
39.02481 239
39.04492 274
39.06503 332
39.08515 297
39.10526 357
39.12538 369
39.14549 385
39.1656 434
39.18572 502
39.20583 583
39.22594 685
39.24606 787
39.26617 917
39.28628 1066
39.3064 1217
39.32651 1406
39.34663 1508
39.36674 1634
39.38685 1635
39.40697 1680
39.42708 1589
39.44719 1452
39.46731 1288
39.48742 1096
39.50754 956
39.52765 851
39.54776 702
39.56788 554
39.58799 432
39.6081 353
39.62822 351
39.64833 282
39.66845 290
39.68856 266
39.70867 253
39.72879 278
39.7489 270
39.76901 278
39.78913 274
39.80924 258
39.82935 284
39.84947 269
39.86958 252
39.8897 312
39.90981 285
39.92992 313
39.95004 321
39.97015 353
39.99026 349
40.01038 361
40.03049 421
40.05061 490
40.07072 505
40.09083 555
40.11095 647
40.13106 695
40.15117 808
40.17129 869
40.1914 931
40.21152 885
40.23163 935
40.25174 887
40.27186 785
40.29197 733
40.31208 652
40.3322 579
40.35231 528
40.37242 440
40.39254 348
40.41265 319
40.43277 294
40.45288 285
40.47299 248
40.49311 265
40.51322 251
40.53333 236
40.55345 219
40.57356 251
40.59368 236
40.61379 243
40.6339 237
40.65402 221
40.67413 226
40.69424 216
40.71436 254
40.73447 233
40.75458 221
40.7747 236
40.79481 213
40.81493 228
40.83504 238
40.85515 237
40.87527 225
40.89538 232
40.91549 240
40.93561 260
40.95572 213
40.97584 226
40.99595 211
41.01606 255
41.03618 235
41.05629 218
41.0764 209
41.09652 225
41.11663 231
41.13675 232
41.15686 235
41.17697 197
41.19709 219
41.2172 210
41.23731 226
41.25743 222
41.27754 227
41.29765 233
41.31777 225
41.33788 210
41.358 199
41.37811 216
41.39822 201
41.41834 205
41.43845 215
41.45856 213
41.47868 232
41.49879 223
41.51891 227
41.53902 220
41.55913 232
41.57925 208
41.59936 203
41.61947 212
41.63959 195
41.6597 196
41.67982 218
41.69993 238
41.72004 234
41.74016 203
41.76027 232
41.78038 268
41.8005 259
41.82061 245
41.84072 229
41.86084 236
41.88095 249
41.90107 245
41.92118 231
41.94129 258
41.96141 251
41.98152 240
42.00163 265
42.02175 272
42.04186 291
42.06198 310
42.08209 315
42.1022 316
42.12232 362
42.14243 369
42.16254 426
42.18266 530
42.20277 552
42.22289 589
42.243 727
42.26311 817
42.28323 933
42.30334 1059
42.32345 1169
42.34357 1163
42.36368 1223
42.38379 1233
42.40391 1174
42.42402 1148
42.44414 1031
42.46425 913
42.48436 845
42.50448 669
42.52459 590
42.5447 507
42.56482 436
42.58493 344
42.60505 325
42.62516 274
42.64527 271
42.66539 227
42.6855 234
42.70561 223
42.72573 243
42.74584 227
42.76595 247
42.78607 214
42.80618 217
42.8263 208
42.84641 218
42.86652 206
42.88664 192
42.90675 217
42.92686 211
42.94698 224
42.96709 196
42.98721 195
43.00732 203
43.02743 198
43.04755 193
43.06766 199
43.08777 186
43.10789 188
43.128 212
43.14812 220
43.16823 205
43.18834 220
43.20846 218
43.22857 208
43.24868 208
43.2688 191
43.28891 197
43.30902 183
43.32914 195
43.34925 190
43.36937 192
43.38948 202
43.40959 185
43.42971 206
43.44982 189
43.46993 183
43.49005 186
43.51016 188
43.53028 202
43.55039 164
43.5705 184
43.59062 194
43.61073 201
43.63084 184
43.65096 177
43.67107 185
43.69119 194
43.7113 193
43.73141 180
43.75153 171
43.77164 186
43.79175 203
43.81187 198
43.83198 195
43.85209 164
43.87221 186
43.89232 183
43.91244 180
43.93255 179
43.95266 174
43.97278 198
43.99289 176
44.013 194
44.03312 189
44.05323 170
44.07335 192
44.09346 188
44.11357 193
44.13369 175
44.1538 167
44.17391 177
44.19403 189
44.21414 198
44.23426 202
44.25437 211
44.27448 193
44.2946 207
44.31471 212
44.33482 193
44.35494 197
44.37505 182
44.39516 201
44.41528 183
44.43539 182
44.45551 179
44.47562 199
44.49573 190
44.51585 196
44.53596 173
44.55607 190
44.57619 179
44.5963 196
44.61642 174
44.63653 165
44.65664 172
44.67676 211
44.69687 170
44.71698 223
44.7371 182
44.75721 187
44.77732 206
44.79744 195
44.81755 195
44.83767 193
44.85778 214
44.87789 199
44.89801 194
44.91812 204
44.93823 189
44.95835 206
44.97846 191
44.99858 193
45.01869 190
45.0388 204
45.05892 195
45.07903 212
45.09914 201
45.11926 196
45.13937 223
45.15949 193
45.1796 225
45.19971 205
45.21983 206
45.23994 185
45.26005 206
45.28017 231
45.30028 213
45.32039 250
45.34051 249
45.36062 262
45.38074 263
45.40085 267
45.42096 259
45.44108 273
45.46119 324
45.4813 297
45.50142 363
45.52153 362
45.54165 443
45.56176 476
45.58187 532
45.60199 582
45.6221 662
45.64221 706
45.66233 757
45.68244 838
45.70256 867
45.72267 883
45.74278 843
45.7629 807
45.78301 666
45.80312 673
45.82324 563
45.84335 492
45.86346 519
45.88358 413
45.90369 371
45.92381 311
45.94392 302
45.96403 261
45.98415 234
46.00426 219
46.02437 194
46.04449 241
46.0646 221
46.08472 181
46.10483 214
46.12494 191
46.14506 196
46.16517 196
46.18528 198
46.2054 197
46.22551 214
46.24563 200
46.26574 193
46.28585 164
46.30597 180
46.32608 184
46.34619 193
46.36631 207
46.38642 182
46.40653 183
46.42665 202
46.44676 167
46.46688 164
46.48699 192
46.5071 178
46.52722 172
46.54733 170
46.56744 173
46.58756 162
46.60767 182
46.62779 158
46.6479 189
46.66801 175
46.68813 166
46.70824 199
46.72835 204
46.74847 172
46.76858 174
46.78869 173
46.80881 184
46.82892 202
46.84904 173
46.86915 162
46.88926 168
46.90938 176
46.92949 177
46.9496 166
46.96972 188
46.98983 191
47.00995 169
47.03006 163
47.05017 179
47.07029 167
47.0904 175
47.11051 161
47.13063 174
47.15074 179
47.17086 163
47.19097 180
47.21108 164
47.2312 185
47.25131 158
47.27142 172
47.29154 173
47.31165 156
47.33176 161
47.35188 168
47.37199 197
47.39211 156
47.41222 166
47.43233 171
47.45245 175
47.47256 174
47.49267 175
47.51279 156
47.5329 170
47.55302 164
47.57313 167
47.59324 166
47.61336 156
47.63347 183
47.65358 172
47.6737 157
47.69381 164
47.71393 165
47.73404 191
47.75415 174
47.77427 186
47.79438 185
47.81449 177
47.83461 173
47.85472 179
47.87483 169
47.89495 202
47.91506 190
47.93518 176
47.95529 169
47.9754 181
47.99552 178
48.01563 191
48.03574 185
48.05586 181
48.07597 179
48.09609 207
48.1162 180
48.13631 182
48.15643 168
48.17654 203
48.19665 191
48.21677 183
48.23688 194
48.257 170
48.27711 206
48.29722 159
48.31734 168
48.33745 156
48.35756 167
48.37768 169
48.39779 152
48.4179 153
48.43802 168
48.45813 162
48.47825 167
48.49836 168
48.51847 163
48.53859 196
48.5587 177
48.57881 180
48.59893 199
48.61904 180
48.63916 158
48.65927 172
48.67938 180
48.6995 167
48.71961 187
48.73972 216
48.75984 185
48.77995 175
48.80006 190
48.82018 186
48.84029 177
48.86041 171
48.88052 191
48.90063 173
48.92075 172
48.94086 165
48.96097 183
48.98109 205
49.0012 183
49.02132 192
49.04143 182
49.06154 195
49.08166 179
49.10177 187
49.12188 201
49.142 183
49.16211 197
49.18223 202
49.20234 178
49.22245 202
49.24257 221
49.26268 209
49.28279 187
49.30291 206
49.32302 195
49.34313 202
49.36325 232
49.38336 214
49.40348 191
49.42359 212
49.4437 237
49.46382 226
49.48393 233
49.50404 262
49.52416 275
49.54427 239
49.56439 270
49.5845 294
49.60461 299
49.62473 309
49.64484 285
49.66495 310
49.68507 377
49.70518 340
49.7253 415
49.74541 482
49.76552 511
49.78564 559
49.80575 645
49.82586 668
49.84598 806
49.86609 956
49.8862 1066
49.90632 1301
49.92643 1456
49.94655 1707
49.96666 1855
49.98677 2142
50.00689 2335
50.027 2579
50.04711 2658
50.06723 2535
50.08734 2511
50.10746 2281
50.12757 2113
50.14768 1866
50.1678 1731
50.18791 1423
50.20802 1337
50.22814 1095
50.24825 982
50.26837 703
50.28848 574
50.30859 494
50.32871 394
50.34882 357
50.36893 334
50.38905 359
50.40916 306
50.42927 310
50.44939 290
50.4695 265
50.48962 255
50.50973 267
50.52984 296
50.54996 249
50.57007 281
50.59018 232
50.6103 226
50.63041 245
50.65053 254
50.67064 248
50.69075 258
50.71087 230
50.73098 197
50.75109 192
50.77121 206
50.79132 204
50.81143 214
50.83155 203
50.85166 193
50.87178 193
50.89189 177
50.912 158
50.93212 166
50.95223 166
50.97234 181
50.99246 184
51.01257 163
51.03269 187
51.0528 214
51.07291 187
51.09303 194
51.11314 195
51.13325 184
51.15337 176
51.17348 188
51.1936 182
51.21371 182
51.23382 154
51.25394 144
51.27405 164
51.29416 182
51.31428 127
51.33439 173
51.3545 179
51.37462 165
51.39473 166
51.41485 171
51.43496 166
51.45507 168
51.47519 160
51.4953 154
51.51541 164
51.53553 160
51.55564 181
51.57576 192
51.59587 185
51.61598 179
51.6361 173
51.65621 155
51.67632 149
51.69644 148
51.71655 177
51.73667 156
51.75678 148
51.77689 179
51.79701 159
51.81712 188
51.83723 140
51.85735 169
51.87746 143
51.89757 156
51.91769 180
51.9378 145
51.95792 186
51.97803 186
51.99814 176
52.01826 171
52.03837 160
52.05848 179
52.0786 154
52.09871 170
52.11883 142
52.13894 158
52.15905 154
52.17917 173
52.19928 176
52.21939 137
52.23951 155
52.25962 168
52.27974 168
52.29985 163
52.31996 158
52.34008 161
52.36019 169
52.3803 158
52.40042 165
52.42053 143
52.44064 179
52.46076 160
52.48087 189
52.50099 172
52.5211 160
52.54121 185
52.56133 153
52.58144 154
52.60155 166
52.62167 171
52.64178 163
52.6619 165
52.68201 182
52.70212 165
52.72224 161
52.74235 169
52.76246 203
52.78258 151
52.80269 203
52.8228 180
52.84292 187
52.86303 190
52.88315 168
52.90326 183
52.92337 167
52.94349 156
52.9636 197
52.98371 188
53.00383 182
53.02394 188
53.04406 188
53.06417 190
53.08428 175
53.1044 205
53.12451 170
53.14462 180
53.16474 174
53.18485 182
53.20497 205
53.22508 197
53.24519 181
53.26531 217
53.28542 186
53.30553 184
53.32565 198
53.34576 200
53.36587 199
53.38599 171
53.4061 188
53.42622 194
53.44633 186
53.46644 185
53.48656 202
53.50667 212
53.52678 188
53.5469 181
53.56701 196
53.58713 170
53.60724 208
53.62735 201
53.64747 188
53.66758 198
53.68769 206
53.70781 187
53.72792 207
53.74804 214
53.76815 190
53.78826 206
53.80838 207
53.82849 200
53.8486 223
53.86872 200
53.88883 216
53.90894 211
53.92906 214
53.94917 216
53.96929 221
53.9894 227
54.00951 228
54.02963 202
54.04974 198
54.06985 200
54.08997 232
54.11008 203
54.1302 200
54.15031 208
54.17042 187
54.19054 229
54.21065 199
54.23076 228
54.25088 211
54.27099 214
54.29111 213
54.31122 202
54.33133 210
54.35145 216
54.37156 225
54.39167 226
54.41179 243
54.4319 242
54.45201 254
54.47213 278
54.49224 314
54.51236 292
54.53247 299
54.55258 374
54.5727 345
54.59281 406
54.61292 453
54.63304 502
54.65315 538
54.67327 601
54.69338 718
54.71349 708
54.73361 813
54.75372 851
54.77383 908
54.79395 867
54.81406 852
54.83417 821
54.85429 765
54.8744 703
54.89452 632
54.91463 669
54.93474 573
54.95486 522
54.97497 492
54.99508 488
55.0152 427
55.03531 384
55.05543 396
55.07554 358
55.09565 384
55.11577 386
55.13588 463
55.15599 455
55.17611 440
55.19622 476
55.21634 497
55.23645 516
55.25656 524
55.27668 487
55.29679 464
55.3169 402
55.33702 396
55.35713 377
55.37724 341
55.39736 353
55.41747 339
55.43759 301
55.4577 293
55.47781 280
55.49793 238
55.51804 251
55.53815 229
55.55827 229
55.57838 218
55.5985 243
55.61861 216
55.63872 225
55.65884 230
55.67895 185
55.69906 215
55.71918 211
55.73929 222
55.75941 206
55.77952 220
55.79963 178
55.81975 180
55.83986 187
55.85997 192
55.88009 216
55.9002 182
55.92031 221
55.94043 202
55.96054 179
55.98066 215
56.00077 166
56.02088 196
56.041 174
56.06111 183
56.08122 200
56.10134 188
56.12145 185
56.14157 185
56.16168 190
56.18179 172
56.20191 172
56.22202 200
56.24213 174
56.26225 199
56.28236 197
56.30248 203
56.32259 180
56.3427 203
56.36282 176
56.38293 211
56.40304 181
56.42316 172
56.44327 179
56.46338 189
56.4835 199
56.50361 163
56.52373 184
56.54384 178
56.56395 179
56.58407 173
56.60418 182
56.62429 165
56.64441 181
56.66452 180
56.68464 192
56.70475 173
56.72486 192
56.74498 182
56.76509 186
56.7852 182
56.80532 192
56.82543 183
56.84554 189
56.86566 186
56.88577 178
56.90589 205
56.926 168
56.94611 169
56.96623 198
56.98634 190
57.00645 199
57.02657 201
57.04668 180
57.0668 199
57.08691 210
57.10702 239
57.12714 214
57.14725 219
57.16736 215
57.18748 216
57.20759 217
57.22771 209
57.24782 219
57.26793 186
57.28805 179
57.30816 196
57.32827 178
57.34839 193
57.3685 181
57.38861 171
57.40873 148
57.42884 179
57.44896 192
57.46907 175
57.48918 192
57.5093 170
57.52941 155
57.54952 170
57.56964 156
57.58975 154
57.60987 180
57.62998 173
57.65009 182
57.67021 171
57.69032 168
57.71043 166
57.73055 180
57.75066 186
57.77078 177
57.79089 177
57.811 157
57.83112 193
57.85123 199
57.87134 183
57.89146 166
57.91157 141
57.93168 169
57.9518 169
57.97191 191
57.99203 169
58.01214 181
58.03225 178
58.05237 176
58.07248 183
58.09259 173
58.11271 157
58.13282 179
58.15294 180
58.17305 163
58.19316 152
58.21328 185
58.23339 158
58.2535 159
58.27362 182
58.29373 156
58.31385 178
58.33396 165
58.35407 197
58.37419 218
58.3943 181
58.41441 170
58.43453 171
58.45464 195
58.47475 160
58.49487 173
58.51498 169
58.5351 184
58.55521 161
58.57532 151
58.59544 186
58.61555 154
58.63566 179
58.65578 184
58.67589 179
58.69601 150
58.71612 171
58.73623 196
58.75635 157
58.77646 193
58.79657 173
58.81669 158
58.8368 182
58.85691 177
58.87703 162
58.89714 193
58.91726 176
58.93737 164
58.95748 187
58.9776 170
58.99771 203
59.01782 171
59.03794 202
59.05805 193
59.07817 163
59.09828 181
59.11839 200
59.13851 197
59.15862 202
59.17873 192
59.19885 191
59.21896 207
59.23908 181
59.25919 197
59.2793 208
59.29942 193
59.31953 214
59.33964 226
59.35976 239
59.37987 223
59.39998 254
59.4201 244
59.44021 292
59.46033 285
59.48044 279
59.50055 299
59.52067 332
59.54078 349
59.56089 379
59.58101 417
59.60112 472
59.62124 525
59.64135 591
59.66146 621
59.68158 703
59.70169 854
59.7218 978
59.74192 1068
59.76203 1192
59.78215 1374
59.80226 1483
59.82237 1610
59.84249 1624
59.8626 1679
59.88271 1640
59.90283 1463
59.92294 1470
59.94305 1328
59.96317 1257
59.98328 1119
60.0034 1013
60.02351 948
60.04362 846
60.06374 755
60.08385 663
60.10396 599
60.12408 496
60.14419 414
60.16431 381
60.18442 305
60.20453 291
60.22465 282
60.24476 232
60.26487 244
60.28499 259
60.3051 198
60.32522 244
60.34533 235
60.36544 210
60.38556 208
60.40567 207
60.42578 220
60.4459 194
60.46601 198
60.48612 232
60.50624 194
60.52635 206
60.54647 182
60.56658 205
60.58669 212
60.60681 200
60.62692 203
60.64703 184
60.66715 198
60.68726 194
60.70738 188
60.72749 191
60.7476 200
60.76772 186
60.78783 171
60.80794 166
60.82806 157
60.84817 179
60.86828 177
60.8884 195
60.90851 162
60.92863 198
60.94874 165
60.96885 175
60.98897 171
61.00908 190
61.02919 188
61.04931 178
61.06942 171
61.08954 176
61.10965 188
61.12976 194
61.14988 177
61.16999 214
61.1901 184
61.21022 194
61.23033 202
61.25045 165
61.27056 212
61.29067 205
61.31079 182
61.3309 202
61.35101 248
61.37113 199
61.39124 198
61.41135 240
61.43147 211
61.45158 233
61.4717 220
61.49181 241
61.51192 231
61.53204 246
61.55215 260
61.57226 254
61.59238 213
61.61249 251
61.63261 257
61.65272 281
61.67283 261
61.69295 252
61.71306 233
61.73317 246
61.75329 225
61.7734 217
61.79352 226
61.81363 242
61.83374 234
61.85386 196
61.87397 218
61.89408 229
61.9142 208
61.93431 183
61.95442 200
61.97454 188
61.99465 226
62.01477 190
62.03488 194
62.05499 181
62.07511 218
62.09522 197
62.11533 172
62.13545 192
62.15556 182
62.17568 200
62.19579 176
62.2159 181
62.23602 172
62.25613 180
62.27624 185
62.29636 184
62.31647 196
62.33659 183
62.3567 170
62.37681 190
62.39693 193
62.41704 174
62.43715 179
62.45727 170
62.47738 181
62.49749 176
62.51761 192
62.53772 169
62.55784 178
62.57795 190
62.59806 162
62.61818 187
62.63829 173
62.6584 171
62.67852 160
62.69863 168
62.71875 171
62.73886 182
62.75897 159
62.77909 178
62.7992 176
62.81931 167
62.83943 174
62.85954 153
62.87965 151
62.89977 141
62.91988 167
62.94 170
62.96011 147
62.98022 157
63.00034 135
63.02045 189
63.04056 167
63.06068 182
63.08079 156
63.10091 167
63.12102 162
63.14113 169
63.16125 171
63.18136 155
63.20147 172
63.22159 153
63.2417 186
63.26182 173
63.28193 136
63.30204 155
63.32216 150
63.34227 150
63.36238 212
63.3825 171
63.40261 167
63.42272 163
63.44284 178
63.46295 173
63.48307 190
63.50318 191
63.52329 173
63.54341 170
63.56352 190
63.58363 182
63.60375 191
63.62386 199
63.64398 221
63.66409 254
63.6842 227
63.70432 233
63.72443 221
63.74454 252
63.76466 273
63.78477 295
63.80489 299
63.825 340
63.84511 370
63.86523 397
63.88534 400
63.90545 416
63.92557 441
63.94568 420
63.96579 420
63.98591 427
64.00602 393
64.02614 351
64.04625 353
64.06636 310
64.08648 337
64.10659 280
64.1267 303
64.14682 275
64.16693 256
64.18705 247
64.20716 210
64.22727 203
64.24739 215
64.2675 194
64.28761 181
64.30773 175
64.32784 178
64.34796 172
64.36807 174
64.38818 173
64.4083 165
64.42841 184
64.44852 152
64.46864 152
64.48875 159
64.50886 167
64.52898 170
64.54909 148
64.56921 160
64.58932 164
64.60943 154
64.62955 141
64.64966 158
64.66977 174
64.68989 165
64.71 142
64.73012 157
64.75023 186
64.77034 151
64.79046 154
64.81057 137
64.83068 162
64.8508 167
64.87091 153
64.89102 165
64.91114 164
64.93125 162
64.95137 163
64.97148 156
64.99159 163
65.01171 154
65.03182 139
65.05193 148
65.07205 161
65.09216 154
65.11228 158
65.13239 170
65.1525 174
65.17262 153
65.19273 162
65.21284 147
65.23296 176
65.25307 183
65.27319 162
65.2933 173
65.31341 172
65.33353 162
65.35364 159
65.37375 155
65.39387 167
65.41398 183
65.43409 176
65.45421 165
65.47432 170
65.49444 183
65.51455 176
65.53466 181
65.55478 222
65.57489 195
65.595 242
65.61512 220
65.63523 229
65.65535 221
65.67546 226
65.69557 223
65.71569 226
65.7358 211
65.75591 182
65.77603 201
65.79614 222
65.81626 186
65.83637 215
65.85648 173
65.8766 179
65.89671 193
65.91682 173
65.93694 184
65.95705 181
65.97716 188
65.99728 183
66.01739 170
66.03751 163
66.05762 149
66.07773 166
66.09785 156
66.11796 161
66.13807 157
66.15819 185
66.1783 169
66.19842 169
66.21853 169
66.23864 154
66.25876 146
66.27887 154
66.29898 149
66.3191 149
66.33921 171
66.35933 172
66.37944 181
66.39955 160
66.41967 164
66.43978 173
66.45989 178
66.48001 168
66.50012 156
66.52023 166
66.54035 159
66.56046 170
66.58058 156
66.60069 177
66.6208 183
66.64092 180
66.66103 174
66.68114 161
66.70126 161
66.72137 178
66.74149 177
66.7616 164
66.78171 178
66.80183 189
66.82194 158
66.84205 164
66.86217 174
66.88228 174
66.90239 180
66.92251 168
66.94262 194
66.96274 184
66.98285 211
67.00296 200
67.02308 200
67.04319 191
67.0633 203
67.08342 206
67.10353 229
67.12365 196
67.14376 213
67.16387 217
67.18399 233
67.2041 253
67.22421 262
67.24433 228
67.26444 238
67.28456 274
67.30467 274
67.32478 304
67.3449 293
67.36501 382
67.38512 354
67.40524 403
67.42535 449
67.44546 480
67.46558 519
67.48569 609
67.50581 674
67.52592 738
67.54603 823
67.56615 917
67.58626 958
67.60637 1022
67.62649 1094
67.6466 1119
67.66672 1055
67.68683 1010
67.70694 972
67.72706 923
67.74717 904
67.76728 887
67.7874 868
67.80751 951
67.82763 908
67.84774 1006
67.86785 979
67.88797 1049
67.90808 1054
67.92819 1094
67.94831 1127
67.96842 1274
67.98853 1348
68.00865 1403
68.02876 1465
68.04888 1477
68.06899 1470
68.0891 1429
68.10922 1440
68.12933 1417
68.14944 1421
68.16956 1367
68.18967 1263
68.20979 1323
68.2299 1267
68.25001 1251
68.27013 1051
68.29024 1047
68.31035 889
68.33047 827
68.35058 727
68.3707 606
68.39081 554
68.41092 511
68.43104 508
68.45115 443
68.47126 427
68.49138 352
68.51149 320
68.5316 297
68.55172 240
68.57183 250
68.59195 238
68.61206 248
68.63217 233
68.65229 208
68.6724 195
68.69251 214
68.71263 209
68.73274 198
68.75286 186
68.77297 220
68.79308 182
68.8132 208
68.83331 193
68.85342 182
68.87354 192
68.89365 169
68.91376 164
68.93388 181
68.95399 174
68.97411 176
68.99422 177
69.01433 190
69.03445 180
69.05456 169
69.07467 181
69.09479 178
69.1149 177
69.13502 187
69.15513 165
69.17524 190
69.19536 191
69.21547 180
69.23558 188
69.2557 180
69.27581 193
69.29593 180
69.31604 175
69.33615 178
69.35627 179
69.37638 186
69.39649 153
69.41661 172
69.43672 177
69.45683 163
69.47695 167
69.49706 157
69.51718 174
69.53729 179
69.5574 149
69.57752 185
69.59763 185
69.61774 193
69.63786 162
69.65797 157
69.67809 151
69.6982 150
69.71831 147
69.73843 155
69.75854 157
69.77865 177
69.79877 167
69.81888 164
69.839 183
69.85911 175
69.87922 156
69.89934 147
69.91945 151
69.93956 180
69.95968 146
69.97979 148
69.9999 150
70.02002 147
70.04013 155
70.06025 151
70.08036 180
70.10047 139
70.12059 150
70.1407 159
70.16081 167
70.18093 169
70.20104 159
70.22116 145
70.24127 159
70.26138 140
70.2815 156
70.30161 178
70.32172 155
70.34184 160
70.36195 158
70.38207 156
70.40218 166
70.42229 161
70.44241 173
70.46252 139
70.48263 143
70.50275 154
70.52286 160
70.54297 158
70.56309 163
70.5832 151
70.60332 166
70.62343 155
70.64354 158
70.66366 151
70.68377 159
70.70388 149
70.724 138
70.74411 155
70.76423 165
70.78434 170
70.80445 163
70.82457 153
70.84468 153
70.86479 162
70.88491 144
70.90502 166
70.92513 160
70.94525 156
70.96536 154
70.98548 162
71.00559 147
71.0257 172
71.04582 148
71.06593 135
71.08604 150
71.10616 153
71.12627 148
71.14639 149
71.1665 124
71.18661 143
71.20673 143
71.22684 159
71.24695 134
71.26707 141
71.28718 151
71.3073 162
71.32741 136
71.34752 139
71.36764 158
71.38775 147
71.40786 148
71.42798 143
71.44809 138
71.4682 143
71.48832 167
71.50843 163
71.52855 146
71.54866 133
71.56877 151
71.58889 147
71.609 140
71.62911 148
71.64923 143
71.66934 152
71.68946 149
71.70957 145
71.72968 149
71.7498 138
71.76991 142
71.79002 147
71.81014 158
71.83025 154
71.85037 152
71.87048 140
71.89059 142
71.91071 145
71.93082 154
71.95093 142
71.97105 177
71.99116 169
72.01127 140
72.03139 137
72.0515 160
72.07162 149
72.09173 141
72.11184 159
72.13196 142
72.15207 146
72.17218 147
72.1923 157
72.21241 165
72.23253 144
72.25264 160
72.27275 149
72.29287 148
72.31298 146
72.33309 142
72.35321 149
72.37332 132
72.39344 144
72.41355 167
72.43366 164
72.45378 170
72.47389 149
72.494 169
72.51412 154
72.53423 173
72.55434 167
72.57446 189
72.59457 171
72.61469 185
72.6348 159
72.65491 186
72.67503 181
72.69514 180
72.71525 174
72.73537 173
72.75548 167
72.7756 186
72.79571 180
72.81582 171
72.83594 173
72.85605 181
72.87616 194
72.89628 176
72.91639 212
72.9365 169
72.95662 193
72.97673 206
72.99685 181
73.01696 173
73.03707 185
73.05719 217
73.0773 207
73.09741 217
73.11753 224
73.13764 262
73.15776 272
73.17787 269
73.19798 295
73.2181 324
73.23821 327
73.25832 300
73.27844 371
73.29855 414
73.31867 400
73.33878 437
73.35889 421
73.37901 448
73.39912 454
73.41923 430
73.43935 379
73.45946 362
73.47957 330
73.49969 354
73.5198 281
73.53992 313
73.56003 301
73.58014 315
73.60026 272
73.62037 309
73.64048 254
73.6606 226
73.68071 226
73.70083 187
73.72094 215
73.74105 186
73.76117 175
73.78128 176
73.80139 165
73.82151 172
73.84162 161
73.86174 174
73.88185 157
73.90196 156
73.92208 159
73.94219 155
73.9623 150
73.98242 170
74.00253 153
74.02264 145
74.04276 155
74.06287 174
74.08299 162
74.1031 180
74.12321 142
74.14333 164
74.16344 142
74.18355 166
74.20367 150
74.22378 158
74.2439 179
74.26401 159
74.28412 154
74.30424 158
74.32435 157
74.34446 146
74.36458 124
74.38469 162
74.40481 166
74.42492 150
74.44503 149
74.46515 132
74.48526 164
74.50537 132
74.52549 148
74.5456 139
74.56571 154
74.58583 154
74.60594 142
74.62606 151
74.64617 147
74.66628 142
74.6864 133
74.70651 168
74.72662 155
74.74674 170
74.76685 142
74.78697 157
74.80708 144
74.82719 151
74.84731 153
74.86742 167
74.88753 161
74.90765 144
74.92776 148
74.94787 155
74.96799 165
74.9881 144
75.00822 186
