3.00117 21972
3.02128 21153
3.0414 21154
3.06151 20162
3.08162 19314
3.10174 19166
3.12185 18322
3.14197 18257
3.16208 17128
3.18219 16721
3.20231 16671
3.22242 16011
3.24253 15653
3.26265 14913
3.28276 14632
3.30288 14313
3.32299 13524
3.3431 13387
3.36322 12826
3.38333 12277
3.40344 12125
3.42356 11342
3.44367 11270
3.46379 10490
3.4839 10456
3.50401 9832
3.52413 9561
3.54424 9421
3.56435 8976
3.58447 8734
3.60458 8388
3.62469 8087
3.64481 7786
3.66492 7326
3.68504 7225
3.70515 6844
3.72526 6409
3.74538 6513
3.76549 6008
3.7856 5505
3.80572 5549
3.82583 5180
3.84595 5171
3.86606 4863
3.88617 4518
3.90629 4302
3.9264 4325
3.94651 4085
3.96663 3676
3.98674 3590
4.00686 3420
4.02697 3246
4.04708 3377
4.0672 3036
4.08731 2834
4.10742 2766
4.12754 2651
4.14765 2504
4.16776 2345
4.18788 2168
4.20799 2242
4.22811 2025
4.24822 2065
4.26833 1790
4.28845 1790
4.30856 1735
4.32867 1679
4.34879 1629
4.3689 1511
4.38902 1503
4.40913 1510
4.42924 1485
4.44936 1359
4.46947 1276
4.48958 1288
4.5097 1238
4.52981 1244
4.54992 1127
4.57004 1183
4.59015 1110
4.61027 1120
4.63038 1077
4.65049 1044
4.67061 917
4.69072 933
4.71083 958
4.73095 924
4.75106 912
4.77118 896
4.79129 860
4.8114 808
4.83152 833
4.85163 793
4.87174 737
4.89186 722
4.91197 750
4.93209 757
4.9522 657
4.97231 636
4.99243 585
5.01254 652
5.03265 632
5.05277 610
5.07288 586
5.09299 547
5.11311 548
5.13322 519
5.15334 514
5.17345 504
5.19356 439
5.21368 441
5.23379 517
5.2539 417
5.27402 448
5.29413 384
5.31425 431
5.33436 403
5.35447 384
5.37459 406
5.3947 368
5.41481 370
5.43493 329
5.45504 346
5.47516 301
5.49527 299
5.51538 346
5.5355 298
5.55561 314
5.57572 268
5.59584 256
5.61595 259
5.63606 269
5.65618 248
5.67629 232
5.69641 313
5.71652 221
5.73663 226
5.75675 236
5.77686 213
5.79697 233
5.81709 222
5.8372 212
5.85732 219
5.87743 203
5.89754 198
5.91766 218
5.93777 193
5.95788 176
5.978 182
5.99811 162
6.01823 195
6.03834 176
6.05845 198
6.07857 186
6.09868 206
6.11879 167
6.13891 181
6.15902 180
6.17913 168
6.19925 153
6.21936 144
6.23948 170
6.25959 155
6.2797 138
6.29982 157
6.31993 168
6.34004 173
6.36016 154
6.38027 170
6.40039 129
6.4205 172
6.44061 137
6.46073 145
6.48084 138
6.50095 153
6.52107 158
6.54118 143
6.56129 154
6.58141 121
6.60152 151
6.62164 141
6.64175 153
6.66186 150
6.68198 174
6.70209 142
6.7222 139
6.74232 153
6.76243 149
6.78255 167
6.80266 142
6.82277 163
6.84289 143
6.863 153
6.88311 120
6.90323 149
6.92334 153
6.94346 157
6.96357 145
6.98368 134
7.0038 128
7.02391 137
7.04402 143
7.06414 159
7.08425 139
7.10436 158
7.12448 136
7.14459 152
7.16471 143
7.18482 139
7.20493 140
7.22505 139
7.24516 162
7.26527 151
7.28539 149
7.3055 123
7.32562 160
7.34573 154
7.36584 130
7.38596 172
7.40607 169
7.42618 134
7.4463 157
7.46641 167
7.48653 193
7.50664 157
7.52675 151
7.54687 137
7.56698 168
7.58709 189
7.60721 164
7.62732 141
7.64743 167
7.66755 189
7.68766 156
7.70778 157
7.72789 141
7.748 189
7.76812 170
7.78823 161
7.80834 183
7.82846 168
7.84857 171
7.86869 165
7.8888 175
7.90891 171
7.92903 159
7.94914 160
7.96925 164
7.98937 172
8.00948 168
8.0296 180
8.04971 164
8.06982 170
8.08994 170
8.11005 159
8.13016 162
8.15028 186
8.17039 193
8.1905 162
8.21062 151
8.23073 157
8.25085 183
8.27096 210
8.29107 172
8.31119 172
8.3313 193
8.35141 180
8.37153 161
8.39164 160
8.41176 180
8.43187 179
8.45198 159
8.4721 181
8.49221 164
8.51232 176
8.53244 156
8.55255 187
8.57266 202
8.59278 177
8.61289 178
8.63301 185
8.65312 181
8.67323 194
8.69335 152
8.71346 208
8.73357 174
8.75369 172
8.7738 200
8.79392 180
8.81403 169
8.83414 184
8.85426 169
8.87437 193
8.89448 182
8.9146 150
8.93471 164
8.95483 179
8.97494 204
8.99505 183
9.01517 182
9.03528 190
9.05539 171
9.07551 200
9.09562 187
9.11573 186
9.13585 177
9.15596 174
9.17608 187
9.19619 178
9.2163 171
9.23642 186
9.25653 194
9.27664 237
9.29676 166
9.31687 190
9.33699 172
9.3571 188
9.37721 194
9.39733 181
9.41744 194
9.43755 171
9.45767 188
9.47778 177
9.4979 174
9.51801 171
9.53812 167
9.55824 210
9.57835 209
9.59846 201
9.61858 225
9.63869 178
9.6588 173
9.67892 183
9.69903 178
9.71915 204
9.73926 167
9.75937 185
9.77949 190
9.7996 184
9.81971 154
9.83983 181
9.85994 185
9.88006 214
9.90017 186
9.92028 185
9.9404 191
9.96051 180
9.98062 177
10.00074 196
10.02085 164
10.04097 157
10.06108 173
10.08119 224
10.10131 186
10.12142 230
10.14153 184
10.16165 198
10.18176 220
10.20187 226
10.22199 185
10.2421 199
10.26222 200
10.28233 188
10.30244 178
10.32256 163
10.34267 165
10.36278 219
10.3829 197
10.40301 195
10.42313 181
10.44324 177
10.46335 187
10.48347 201
10.50358 205
10.52369 203
10.54381 206
10.56392 243
10.58403 213
10.60415 169
10.62426 192
10.64438 184
10.66449 200
10.6846 164
10.70472 192
10.72483 180
10.74494 192
10.76506 193
10.78517 198
10.80529 190
10.8254 206
10.84551 171
10.86563 159
10.88574 189
10.90585 195
10.92597 188
10.94608 189
10.9662 179
10.98631 163
11.00642 167
11.02654 174
11.04665 191
11.06676 199
11.08688 196
11.10699 186
11.1271 199
11.14722 190
11.16733 178
11.18745 199
11.20756 195
11.22767 185
11.24779 210
11.2679 179
11.28801 189
11.30813 189
11.32824 192
11.34836 172
11.36847 209
11.38858 200
11.4087 178
11.42881 203
11.44892 170
11.46904 188
11.48915 195
11.50927 172
11.52938 184
11.54949 177
11.56961 202
11.58972 191
11.60983 165
11.62995 181
11.65006 176
11.67017 185
11.69029 166
11.7104 187
11.73052 181
11.75063 182
11.77074 210
11.79086 193
11.81097 188
11.83108 177
11.8512 168
11.87131 187
11.89143 177
11.91154 161
11.93165 189
11.95177 192
11.97188 207
11.99199 202
12.01211 203
12.03222 208
12.05234 205
12.07245 174
12.09256 170
12.11268 199
12.13279 193
12.1529 211
12.17302 186
12.19313 181
12.21324 183
12.23336 190
12.25347 181
12.27359 188
12.2937 186
12.31381 229
12.33393 192
12.35404 183
12.37415 201
12.39427 225
12.41438 177
12.4345 208
12.45461 183
12.47472 199
12.49484 184
12.51495 179
12.53506 201
12.55518 178
12.57529 184
12.5954 205
12.61552 175
12.63563 212
12.65575 178
12.67586 179
12.69597 175
12.71609 172
12.7362 198
12.75631 167
12.77643 164
12.79654 168
12.81666 161
12.83677 137
12.85688 176
12.877 192
12.89711 188
12.91722 213
12.93734 162
12.95745 196
12.97757 156
12.99768 193
13.01779 173
13.03791 190
13.05802 166
13.07813 193
13.09825 172
13.11836 159
13.13847 188
13.15859 171
13.1787 178
13.19882 164
13.21893 174
13.23904 161
13.25916 195
13.27927 188
13.29938 197
13.3195 182
13.33961 188
13.35973 160
13.37984 171
13.39995 189
13.42007 177
13.44018 191
13.46029 169
13.48041 164
13.50052 140
13.52064 155
13.54075 175
13.56086 183
13.58098 187
13.60109 181
13.6212 197
13.64132 214
13.66143 197
13.68154 210
13.70166 220
13.72177 207
13.74189 185
13.762 214
13.78211 168
13.80223 158
13.82234 195
13.84245 169
13.86257 163
13.88268 173
13.9028 170
13.92291 147
13.94302 176
13.96314 166
13.98325 183
14.00336 162
14.02348 185
14.04359 165
14.06371 143
14.08382 156
14.10393 197
14.12405 190
14.14416 158
14.16427 141
14.18439 160
14.2045 168
14.22461 196
14.24473 167
14.26484 168
14.28496 164
14.30507 153
14.32518 180
14.3453 142
14.36541 172
14.38552 188
14.40564 156
14.42575 173
14.44587 165
14.46598 159
14.48609 165
14.50621 162
14.52632 176
14.54643 178
14.56655 160
14.58666 166
14.60677 161
14.62689 166
14.647 151
14.66712 165
14.68723 153
14.70734 179
14.72746 144
14.74757 151
14.76768 158
14.7878 146
14.80791 137
14.82803 187
14.84814 167
14.86825 175
14.88837 137
14.90848 141
14.92859 171
14.94871 172
14.96882 175
14.98894 162
15.00905 151
15.02916 187
15.04928 184
15.06939 184
15.0895 170
15.10962 174
15.12973 188
15.14984 171
15.16996 168
15.19007 181
15.21019 145
15.2303 175
15.25041 176
15.27053 175
15.29064 188
15.31075 166
15.33087 171
15.35098 164
15.3711 157
15.39121 149
15.41132 145
15.43144 159
15.45155 172
15.47166 152
15.49178 158
15.51189 146
15.53201 181
15.55212 167
15.57223 168
15.59235 158
15.61246 151
15.63257 168
15.65269 157
15.6728 158
15.69291 145
15.71303 162
15.73314 136
15.75326 190
15.77337 143
15.79348 160
15.8136 150
15.83371 152
15.85382 149
15.87394 158
15.89405 166
15.91417 149
15.93428 144
15.95439 152
15.97451 162
15.99462 141
16.01473 156
16.03485 150
16.05496 162
16.07508 174
16.09519 150
16.1153 151
16.13542 168
16.15553 160
16.17564 148
16.19576 145
16.21587 161
16.23598 151
16.2561 157
16.27621 152
16.29633 142
16.31644 133
16.33655 124
16.35667 134
16.37678 160
16.39689 160
16.41701 153
16.43712 128
16.45724 157
16.47735 138
16.49746 137
16.51758 141
16.53769 171
16.5578 148
16.57792 143
16.59803 143
16.61814 149
16.63826 125
16.65837 170
16.67849 148
16.6986 150
16.71871 168
16.73883 146
16.75894 158
16.77905 138
16.79917 134
16.81928 125
16.8394 132
16.85951 157
16.87962 152
16.89974 147
16.91985 127
16.93996 132
16.96008 147
16.98019 142
17.00031 153
17.02042 134
17.04053 146
17.06065 143
17.08076 124
17.10087 165
17.12099 138
17.1411 149
17.16121 148
17.18133 137
17.20144 143
17.22156 123
17.24167 129
17.26178 150
17.2819 150
17.30201 151
17.32212 155
17.34224 149
17.36235 146
17.38247 150
17.40258 150
17.42269 144
17.44281 154
17.46292 152
17.48303 158
17.50315 116
17.52326 147
17.54338 154
17.56349 138
17.5836 177
17.60372 142
17.62383 129
17.64394 152
17.66406 152
17.68417 149
17.70428 147
17.7244 148
17.74451 157
17.76463 135
17.78474 132
17.80485 160
17.82497 163
17.84508 126
17.86519 131
17.88531 164
17.90542 163
17.92554 170
17.94565 144
17.96576 168
17.98588 129
18.00599 125
18.0261 129
18.04622 168
18.06633 147
18.08645 142
18.10656 148
18.12667 139
18.14679 131
18.1669 144
18.18701 154
18.20713 141
18.22724 128
18.24735 154
18.26747 140
18.28758 154
18.3077 143
18.32781 163
18.34792 148
18.36804 141
18.38815 149
18.40826 153
18.42838 150
18.44849 176
18.46861 163
18.48872 149
18.50883 133
18.52895 138
18.54906 130
18.56917 139
18.58929 137
18.6094 165
18.62951 143
18.64963 136
18.66974 131
18.68986 132
18.70997 140
18.73008 143
18.7502 142
18.77031 161
18.79042 166
18.81054 171
18.83065 157
18.85077 158
18.87088 171
18.89099 155
18.91111 163
18.93122 145
18.95133 127
18.97145 161
18.99156 143
19.01168 137
19.03179 161
19.0519 117
19.07202 136
19.09213 147
19.11224 145
19.13236 166
19.15247 148
19.17258 135
19.1927 186
19.21281 142
19.23293 177
19.25304 158
19.27315 146
19.29327 140
19.31338 153
19.33349 162
19.35361 124
19.37372 161
19.39384 136
19.41395 175
19.43406 139
19.45418 153
19.47429 168
19.4944 149
19.51452 156
19.53463 132
19.55475 161
19.57486 157
19.59497 140
19.61509 174
19.6352 162
19.65531 161
19.67543 174
19.69554 155
19.71565 164
19.73577 136
19.75588 173
19.776 179
19.79611 160
19.81622 180
19.83634 190
19.85645 177
19.87656 192
19.89668 161
19.91679 196
19.93691 176
19.95702 214
19.97713 208
19.99725 230
20.01736 238
20.03747 238
20.05759 207
20.0777 203
20.09782 209
20.11793 203
20.13804 199
20.15816 228
20.17827 199
20.19838 211
20.2185 222
20.23861 254
20.25872 200
20.27884 264
20.29895 243
20.31907 232
20.33918 241
20.35929 247
20.37941 274
20.39952 259
20.41963 275
20.43975 251
20.45986 279
20.47998 301
20.50009 298
20.5202 327
20.54032 329
20.56043 309
20.58054 352
20.60066 378
20.62077 428
20.64088 453
20.661 509
20.68111 605
20.70123 730
20.72134 933
20.74145 1270
20.76157 2014
20.78168 2795
20.80179 4175
20.82191 6108
20.84202 8286
20.86214 10263
20.88225 10632
20.90236 9430
20.92248 7210
20.94259 5046
20.9627 2999
20.98282 1633
21.00293 979
21.02305 826
21.04316 739
21.06327 647
21.08339 583
21.1035 506
21.12361 493
21.14373 446
21.16384 435
21.18395 382
21.20407 326
21.22418 294
21.2443 294
21.26441 259
21.28452 245
21.30464 243
21.32475 230
21.34486 242
21.36498 248
21.38509 244
21.40521 217
21.42532 227
21.44543 246
21.46555 243
21.48566 228
21.50577 204
21.52589 227
21.546 212
21.56612 210
21.58623 207
21.60634 212
21.62646 209
21.64657 222
21.66668 227
21.6868 212
21.70691 213
21.72702 199
21.74714 213
21.76725 166
21.78737 214
21.80748 207
21.82759 208
21.84771 191
21.86782 228
21.88793 193
21.90805 215
21.92816 210
21.94828 207
21.96839 205
21.9885 207
22.00862 216
22.02873 196
22.04884 184
22.06896 208
22.08907 190
22.10919 192
22.1293 208
22.14941 196
22.16953 189
22.18964 191
22.20975 158
22.22987 207
22.24998 192
22.27009 188
22.29021 215
22.31032 191
22.33044 210
22.35055 211
22.37066 210
22.39078 179
22.41089 192
22.431 195
22.45112 221
22.47123 235
22.49135 227
22.51146 218
22.53157 217
22.55169 208
22.5718 216
22.59191 184
22.61203 202
22.63214 186
22.65225 169
22.67237 193
22.69248 179
22.7126 178
22.73271 198
22.75282 177
22.77294 182
22.79305 169
22.81316 189
22.83328 162
22.85339 157
22.87351 166
22.89362 155
22.91373 185
22.93385 179
22.95396 155
22.97407 195
22.99419 160
23.0143 170
23.03442 199
23.05453 203
23.07464 206
23.09476 192
23.11487 196
23.13498 227
23.1551 205
23.17521 212
23.19532 223
23.21544 231
23.23555 223
23.25567 229
23.27578 202
23.29589 188
23.31601 213
23.33612 183
23.35623 217
23.37635 191
23.39646 193
23.41658 194
23.43669 191
23.4568 217
23.47692 222
23.49703 217
23.51714 253
23.53726 258
23.55737 259
23.57749 254
23.5976 244
23.61771 276
23.63783 226
23.65794 223
23.67805 248
23.69817 227
23.71828 197
23.73839 222
23.75851 202
23.77862 215
23.79874 208
23.81885 236
23.83896 220
23.85908 200
23.87919 198
23.8993 207
23.91942 235
23.93953 249
23.95965 246
23.97976 251
23.99987 266
24.01999 324
24.0401 297
24.06021 312
24.08033 263
24.10044 186
24.12056 192
24.14067 176
24.16078 203
24.1809 207
24.20101 202
24.22112 182
24.24124 177
24.26135 170
24.28146 168
24.30158 182
24.32169 217
24.34181 188
24.36192 216
24.38203 191
24.40215 196
24.42226 173
24.44237 184
24.46249 199
24.4826 179
24.50272 188
24.52283 196
24.54294 178
24.56306 200
24.58317 178
24.60328 208
24.6234 197
24.64351 184
24.66362 183
24.68374 212
24.70385 179
24.72397 210
24.74408 203
24.76419 211
24.78431 191
24.80442 194
24.82453 180
24.84465 207
24.86476 200
24.88488 174
24.90499 173
24.9251 185
24.94522 189
24.96533 185
24.98544 177
25.00556 207
25.02567 175
25.04579 191
25.0659 178
25.08601 194
25.10613 188
25.12624 189
25.14635 195
25.16647 168
25.18658 206
25.20669 204
25.22681 186
25.24692 193
25.26704 177
25.28715 178
25.30726 221
25.32738 201
25.34749 232
25.3676 208
25.38772 193
25.40783 205
25.42795 194
25.44806 205
25.46817 206
25.48829 237
25.5084 278
25.52851 234
25.54863 274
25.56874 286
25.58886 326
25.60897 340
25.62908 379
25.6492 433
25.66931 415
25.68942 419
25.70954 406
25.72965 380
25.74976 436
25.76988 422
25.78999 397
25.81011 421
25.83022 412
25.85033 417
25.87045 482
25.89056 392
25.91067 404
25.93079 393
25.9509 423
25.97102 457
25.99113 433
26.01124 447
26.03136 448
26.05147 438
26.07158 539
26.0917 526
26.11181 492
26.13193 546
26.15204 571
26.17215 645
26.19227 640
26.21238 678
26.23249 792
26.25261 881
26.27272 838
26.29283 939
26.31295 970
26.33306 1135
26.35318 1266
26.37329 1340
26.3934 1493
26.41352 1816
26.43363 2146
26.45374 2654
26.47386 3456
26.49397 4729
26.51409 6784
26.5342 9582
26.55431 13549
26.57443 19497
26.59454 27517
26.61465 37302
26.63477 45758
26.65488 47587
26.67499 41963
26.69511 32648
26.71522 25022
26.73534 18835
26.75545 11349
26.77556 5648
26.79568 3134
26.81579 2263
26.8359 1973
26.85602 1727
26.87613 1625
26.89625 1452
26.91636 1393
26.93647 1261
26.95659 1245
26.9767 1127
26.99681 1031
27.01693 919
27.03704 859
27.05716 782
27.07727 786
27.09738 768
27.1175 711
27.13761 677
27.15772 645
27.17784 525
27.19795 543
27.21806 508
27.23818 472
27.25829 507
27.27841 439
27.29852 434
27.31863 456
27.33875 465
27.35886 477
27.37897 519
27.39909 540
27.4192 612
27.43932 671
27.45943 735
27.47954 768
27.49966 780
27.51977 695
27.53988 665
27.56 654
27.58011 475
27.60023 448
27.62034 407
27.64045 366
27.66057 332
27.68068 324
27.70079 368
27.72091 320
27.74102 297
27.76113 325
27.78125 307
27.80136 344
27.82148 315
27.84159 316
27.8617 284
27.88182 297
27.90193 288
27.92204 287
27.94216 287
27.96227 274
27.98239 269
28.0025 286
28.02261 312
28.04273 250
28.06284 268
28.08295 258
28.10307 255
28.12318 288
28.1433 246
28.16341 243
28.18352 232
28.20364 284
28.22375 241
28.24386 270
28.26398 253
28.28409 256
28.3042 219
28.32432 267
28.34443 249
28.36455 261
28.38466 225
28.40477 208
28.42489 229
28.445 250
28.46511 248
28.48523 207
28.50534 244
28.52546 229
28.54557 254
28.56568 273
28.5858 206
28.60591 243
28.62602 224
28.64614 273
28.66625 229
28.68636 236
28.70648 205
28.72659 219
28.74671 255
28.76682 212
28.78693 214
28.80705 210
28.82716 236
28.84727 208
28.86739 240
28.8875 217
28.90762 228
28.92773 228
28.94784 201
28.96796 212
28.98807 239
29.00818 206
29.0283 212
29.04841 207
29.06853 204
29.08864 227
29.10875 195
29.12887 217
29.14898 204
29.16909 205
29.18921 189
29.20932 216
29.22943 181
29.24955 174
29.26966 246
29.28978 213
29.30989 211
29.33 208
29.35012 199
29.37023 204
29.39034 215
29.41046 237
29.43057 205
29.45069 237
29.4708 204
29.49091 222
29.51103 216
29.53114 228
29.55125 210
29.57137 230
29.59148 187
29.6116 222
29.63171 204
29.65182 223
29.67194 192
29.69205 209
29.71216 232
29.73228 229
29.75239 233
29.7725 216
29.79262 256
29.81273 253
29.83285 258
29.85296 249
29.87307 246
29.89319 248
29.9133 236
29.93341 240
29.95353 223
29.97364 205
29.99376 171
30.01387 203
30.03398 215
30.0541 214
30.07421 219
30.09432 199
30.11444 195
30.13455 230
30.15467 199
30.17478 232
30.19489 227
30.21501 238
30.23512 224
30.25523 204
30.27535 232
30.29546 204
30.31557 211
30.33569 176
30.3558 197
30.37592 207
30.39603 198
30.41614 174
30.43626 176
30.45637 200
30.47648 172
30.4966 215
30.51671 205
30.53683 196
30.55694 183
30.57705 192
30.59717 189
30.61728 202
30.63739 191
30.65751 205
30.67762 204
30.69773 218
30.71785 223
30.73796 213
30.75808 251
30.77819 248
30.7983 292
30.81842 267
30.83853 250
30.85864 253
30.87876 240
30.89887 215
30.91899 230
30.9391 178
30.95921 178
30.97933 176
30.99944 191
31.01955 158
31.03967 168
31.05978 165
31.0799 154
31.10001 152
31.12012 157
31.14024 156
31.16035 174
31.18046 168
31.20058 154
31.22069 153
31.2408 159
31.26092 155
31.28103 177
31.30115 171
31.32126 166
31.34137 139
31.36149 179
31.3816 150
31.40171 161
31.42183 145
31.44194 149
31.46206 132
31.48217 149
31.50228 177
31.5224 136
31.54251 158
31.56262 150
31.58274 142
31.60285 133
31.62297 147
31.64308 169
31.66319 166
31.68331 155
31.70342 149
31.72353 164
31.74365 153
31.76376 167
31.78387 154
31.80399 151
31.8241 155
31.84422 129
31.86433 135
31.88444 150
31.90456 115
31.92467 165
31.94478 145
31.9649 159
31.98501 141
32.00513 134
32.02524 137
32.04535 128
32.06547 142
32.08558 153
32.10569 166
32.12581 160
32.14592 146
32.16604 154
32.18615 158
32.20626 174
32.22638 170
32.24649 176
32.2666 163
32.28672 168
32.30683 155
32.32694 188
32.34706 197
32.36717 198
32.38729 176
32.4074 151
32.42751 185
32.44763 176
32.46774 156
32.48785 148
32.50797 164
32.52808 146
32.5482 151
32.56831 157
32.58842 124
32.60854 134
32.62865 134
32.64876 167
32.66888 140
32.68899 146
32.7091 149
32.72922 137
32.74933 160
32.76945 156
32.78956 139
32.80967 127
32.82979 141
32.8499 127
32.87001 148
32.89013 133
32.91024 146
32.93036 170
32.95047 161
32.97058 121
32.9907 134
33.01081 152
33.03092 134
33.05104 115
33.07115 132
33.09127 126
33.11138 133
33.13149 131
33.15161 125
33.17172 130
33.19183 158
33.21195 121
33.23206 112
33.25217 134
33.27229 133
33.2924 175
33.31252 136
33.33263 142
33.35274 141
33.37286 111
33.39297 129
33.41308 129
33.4332 147
33.45331 137
33.47343 124
33.49354 134
33.51365 130
33.53377 124
33.55388 135
33.57399 134
33.59411 129
33.61422 146
33.63434 134
33.65445 160
33.67456 158
33.69468 115
33.71479 143
33.7349 143
33.75502 132
33.77513 131
33.79524 129
33.81536 143
33.83547 126
33.85559 140
33.8757 135
33.89581 138
33.91593 123
33.93604 154
33.95615 144
33.97627 145
33.99638 146
34.0165 144
34.03661 124
34.05672 126
34.07684 135
34.09695 143
34.11706 143
34.13718 131
34.15729 129
34.17741 140
34.19752 152
34.21763 172
34.23775 152
34.25786 141
34.27797 160
34.29809 149
34.3182 135
34.33831 169
34.35843 143
34.37854 139
34.39866 170
34.41877 143
34.43888 152
34.459 138
34.47911 151
34.49922 145
34.51934 139
34.53945 168
34.55957 147
34.57968 153
34.59979 152
34.61991 177
34.64002 152
34.66013 139
34.68025 170
34.70036 177
34.72047 189
34.74059 151
34.7607 173
34.78082 172
34.80093 167
34.82104 146
34.84116 185
34.86127 161
34.88138 165
34.9015 171
34.92161 169
34.94173 180
34.96184 166
34.98195 159
35.00207 131
35.02218 150
35.04229 166
35.06241 166
35.08252 197
35.10264 175
35.12275 167
35.14286 187
35.16298 193
35.18309 176
35.2032 166
35.22332 147
35.24343 136
35.26354 138
35.28366 160
35.30377 150
35.32389 178
35.344 178
35.36411 158
35.38423 181
35.40434 192
35.42445 187
35.44457 198
35.46468 177
35.4848 189
35.50491 221
35.52502 209
35.54514 220
35.56525 244
35.58536 247
35.60548 226
35.62559 200
35.64571 211
35.66582 188
35.68593 204
35.70605 175
35.72616 190
35.74627 168
35.76639 163
35.7865 166
35.80661 149
35.82673 157
35.84684 186
35.86696 159
35.88707 138
35.90718 147
35.9273 156
35.94741 161
35.96752 165
35.98764 168
36.00775 167
36.02787 157
36.04798 163
36.06809 144
36.08821 164
36.10832 171
36.12843 190
36.14855 175
36.16866 215
36.18878 190
36.20889 200
36.229 206
36.24912 201
36.26923 217
36.28934 249
36.30946 294
36.32957 326
36.34968 351
36.3698 419
36.38991 569
36.41003 696
36.43014 822
36.45025 1148
36.47037 1523
36.49048 1975
36.51059 2499
36.53071 3004
36.55082 3162
36.57094 2792
36.59105 2192
36.61116 1702
36.63128 1622
36.65139 1434
36.6715 1100
36.69162 704
36.71173 393
36.73184 301
36.75196 272
36.77207 275
36.79219 230
36.8123 207
36.83241 204
36.85253 217
36.87264 181
36.89275 171
36.91287 184
36.93298 166
36.9531 166
36.97321 151
36.99332 170
37.01344 159
37.03355 165
37.05366 166
37.07378 166
37.09389 150
37.11401 162
37.13412 143
37.15423 154
37.17435 159
37.19446 166
37.21457 154
37.23469 143
37.2548 152
37.27491 139
37.29503 141
37.31514 160
37.33526 138
37.35537 150
37.37548 135
37.3956 136
37.41571 127
37.43582 149
37.45594 141
37.47605 132
37.49617 147
37.51628 138
37.53639 136
37.55651 135
37.57662 137
37.59673 133
37.61685 142
37.63696 128
37.65708 141
37.67719 148
37.6973 142
37.71742 167
37.73753 129
37.75764 147
37.77776 134
37.79787 153
37.81798 133
37.8381 122
37.85821 144
37.87833 150
37.89844 128
37.91855 143
37.93867 136
37.95878 125
37.97889 152
37.99901 135
38.01912 132
38.03924 142
38.05935 133
38.07946 152
38.09958 161
38.11969 153
38.1398 148
38.15992 131
38.18003 142
38.20015 120
38.22026 145
38.24037 152
38.26049 156
38.2806 148
38.30071 144
38.32083 129
38.34094 140
38.36105 146
38.38117 147
38.40128 163
38.4214 148
38.44151 152
38.46162 147
38.48174 155
38.50185 163
38.52196 169
38.54208 191
38.56219 179
38.58231 173
38.60242 165
38.62253 177
38.64265 183
38.66276 182
38.68287 165
38.70299 138
38.7231 150
38.74321 130
38.76333 162
38.78344 127
38.80356 138
38.82367 177
38.84378 127
38.8639 153
38.88401 148
38.90412 163
38.92424 155
38.94435 160
38.96447 157
38.98458 153
39.00469 180
39.02481 160
39.04492 159
39.06503 181
39.08515 200
39.10526 190
39.12538 198
39.14549 202
39.1656 218
39.18572 238
39.20583 286
39.22594 278
39.24606 342
39.26617 379
39.28628 432
39.3064 520
39.32651 669
39.34663 849
39.36674 1066
39.38685 1396
39.40697 1843
39.42708 2237
39.44719 2636
39.46731 2814
39.48742 2715
39.50754 2064
39.52765 1649
39.54776 1490
39.56788 1494
39.58799 1324
39.6081 894
39.62822 527
39.64833 350
39.66845 297
39.68856 258
39.70867 245
39.72879 191
39.7489 191
39.76901 221
39.78913 211
39.80924 211
39.82935 167
39.84947 163
39.86958 185
39.8897 195
39.90981 168
39.92992 183
39.95004 184
39.97015 164
39.99026 183
40.01038 206
40.03049 204
40.05061 210
40.07072 248
40.09083 267
40.11095 300
40.13106 342
40.15117 424
40.17129 509
40.1914 618
40.21152 813
40.23163 969
40.25174 1221
40.27186 1326
40.29197 1522
40.31208 1357
40.3322 1044
40.35231 904
40.37242 819
40.39254 797
40.41265 719
40.43277 505
40.45288 331
40.47299 248
40.49311 229
40.51322 172
40.53333 208
40.55345 197
40.57356 180
40.59368 189
40.61379 197
40.6339 159
40.65402 143
40.67413 167
40.69424 158
40.71436 138
40.73447 147
40.75458 144
40.7747 145
40.79481 153
40.81493 135
40.83504 148
40.85515 137
40.87527 144
40.89538 141
40.91549 136
40.93561 134
40.95572 142
40.97584 157
40.99595 147
41.01606 155
41.03618 145
41.05629 146
41.0764 151
41.09652 140
41.11663 151
41.13675 137
41.15686 139
41.17697 172
41.19709 159
41.2172 129
41.23731 190
41.25743 157
41.27754 151
41.29765 155
41.31777 153
41.33788 153
41.358 132
41.37811 132
41.39822 144
41.41834 138
41.43845 139
41.45856 147
41.47868 142
41.49879 127
41.51891 126
41.53902 138
41.55913 146
41.57925 179
41.59936 154
41.61947 141
41.63959 156
41.6597 182
41.67982 163
41.69993 197
41.72004 190
41.74016 184
41.76027 202
41.78038 238
41.8005 217
41.82061 209
41.84072 200
41.86084 161
41.88095 183
41.90107 184
41.92118 186
41.94129 163
41.96141 175
41.98152 173
42.00163 154
42.02175 169
42.04186 167
42.06198 165
42.08209 193
42.1022 178
42.12232 204
42.14243 203
42.16254 248
42.18266 261
42.20277 266
42.22289 278
42.243 322
42.26311 364
42.28323 390
42.30334 522
42.32345 663
42.34357 793
42.36368 1009
42.38379 1224
42.40391 1563
42.42402 1890
42.44414 2016
42.46425 2029
42.48436 1655
42.50448 1265
42.52459 1102
42.5447 1079
42.56482 1095
42.58493 925
42.60505 600
42.62516 364
42.64527 269
42.66539 233
42.6855 255
42.70561 201
42.72573 220
42.74584 205
42.76595 190
42.78607 186
42.80618 161
42.8263 165
42.84641 161
42.86652 152
42.88664 165
42.90675 151
42.92686 145
42.94698 152
42.96709 150
42.98721 147
43.00732 156
43.02743 168
43.04755 140
43.06766 148
43.08777 143
43.10789 130
43.128 143
43.14812 139
43.16823 133
43.18834 144
43.20846 150
43.22857 120
43.24868 145
43.2688 120
43.28891 129
43.30902 127
43.32914 128
43.34925 135
43.36937 129
43.38948 145
43.40959 117
43.42971 132
43.44982 124
43.46993 124
43.49005 127
43.51016 139
43.53028 152
43.55039 144
43.5705 147
43.59062 124
43.61073 132
43.63084 116
43.65096 145
43.67107 133
43.69119 143
43.7113 153
43.73141 149
43.75153 135
43.77164 139
43.79175 155
43.81187 136
43.83198 143
43.85209 143
43.87221 123
43.89232 135
43.91244 130
43.93255 130
43.95266 124
43.97278 148
43.99289 134
44.013 126
44.03312 133
44.05323 128
44.07335 157
44.09346 142
44.11357 151
44.13369 126
44.1538 142
44.17391 157
44.19403 155
44.21414 155
44.23426 143
44.25437 139
44.27448 157
44.2946 139
44.31471 131
44.33482 130
44.35494 124
44.37505 126
44.39516 126
44.41528 129
44.43539 137
44.45551 133
44.47562 123
44.49573 144
44.51585 136
44.53596 103
44.55607 132
44.57619 145
44.5963 146
44.61642 125
44.63653 120
44.65664 118
44.67676 131
44.69687 108
44.71698 121
44.7371 133
44.75721 121
44.77732 135
44.79744 117
44.81755 133
44.83767 124
44.85778 128
44.87789 129
44.89801 132
44.91812 144
44.93823 137
44.95835 142
44.97846 141
44.99858 142
45.01869 141
45.0388 163
45.05892 143
45.07903 145
45.09914 139
45.11926 141
45.13937 154
45.15949 154
45.1796 133
45.19971 131
45.21983 131
45.23994 129
45.26005 140
45.28017 137
45.30028 165
45.32039 127
45.34051 164
45.36062 159
45.38074 133
45.40085 171
45.42096 176
45.44108 157
45.46119 182
45.4813 162
45.50142 180
45.52153 195
45.54165 221
45.56176 241
45.58187 252
45.60199 307
45.6221 322
45.64221 396
45.66233 452
45.68244 520
45.70256 668
45.72267 870
45.74278 1048
45.7629 1225
45.78301 1389
45.80312 1309
45.82324 1160
45.84335 842
45.86346 732
45.88358 729
45.90369 747
45.92381 708
45.94392 548
45.96403 347
45.98415 268
46.00426 230
46.02437 189
46.04449 180
46.0646 154
46.08472 154
46.10483 162
46.12494 155
46.14506 146
46.16517 133
46.18528 149
46.2054 124
46.22551 131
46.24563 148
46.26574 123
46.28585 147
46.30597 123
46.32608 130
46.34619 127
46.36631 136
46.38642 112
46.40653 105
46.42665 117
46.44676 133
46.46688 116
46.48699 111
46.5071 136
46.52722 122
46.54733 100
46.56744 112
46.58756 134
46.60767 117
46.62779 133
46.6479 109
46.66801 132
46.68813 116
46.70824 138
46.72835 112
46.74847 121
46.76858 123
46.78869 117
46.80881 108
46.82892 117
46.84904 115
46.86915 114
46.88926 123
46.90938 123
46.92949 120
46.9496 116
46.96972 137
46.98983 111
47.00995 131
47.03006 113
47.05017 112
47.07029 155
47.0904 157
47.11051 141
47.13063 120
47.15074 155
47.17086 140
47.19097 161
47.21108 136
47.2312 142
47.25131 137
47.27142 131
47.29154 142
47.31165 129
47.33176 132
47.35188 150
47.37199 140
47.39211 139
47.41222 144
47.43233 140
47.45245 137
47.47256 164
47.49267 138
47.51279 150
47.5329 160
47.55302 127
47.57313 128
47.59324 125
47.61336 126
47.63347 118
47.65358 124
47.6737 121
47.69381 110
47.71393 141
47.73404 121
47.75415 120
47.77427 139
47.79438 116
47.81449 111
47.83461 113
47.85472 117
47.87483 116
47.89495 113
47.91506 124
47.93518 139
47.95529 114
47.9754 116
47.99552 122
48.01563 111
48.03574 119
48.05586 108
48.07597 115
48.09609 120
48.1162 128
48.13631 119
48.15643 115
48.17654 130
48.19665 143
48.21677 114
48.23688 125
48.257 122
48.27711 105
48.29722 110
48.31734 125
48.33745 131
48.35756 127
48.37768 125
48.39779 131
48.4179 128
48.43802 111
48.45813 135
48.47825 138
48.49836 130
48.51847 121
48.53859 126
48.5587 124
48.57881 139
48.59893 121
48.61904 144
48.63916 137
48.65927 126
48.67938 110
48.6995 152
48.71961 146
48.73972 148
48.75984 142
48.77995 126
48.80006 143
48.82018 138
48.84029 133
48.86041 128
48.88052 144
48.90063 120
48.92075 149
48.94086 135
48.96097 159
48.98109 147
49.0012 142
49.02132 152
49.04143 131
49.06154 130
49.08166 137
49.10177 134
49.12188 144
49.142 158
49.16211 148
49.18223 137
49.20234 141
49.22245 134
49.24257 152
49.26268 132
49.28279 147
49.30291 128
49.32302 141
49.34313 140
49.36325 154
49.38336 139
49.40348 131
49.42359 146
49.4437 157
49.46382 144
49.48393 169
49.50404 150
49.52416 130
49.54427 144
49.56439 156
49.5845 160
49.60461 163
49.62473 167
49.64484 180
49.66495 199
49.68507 180
49.70518 191
49.7253 208
49.74541 243
49.76552 259
49.78564 249
49.80575 284
49.82586 333
49.84598 369
49.86609 434
49.8862 482
49.90632 572
49.92643 664
49.94655 751
49.96666 918
49.98677 1103
50.00689 1377
50.027 1782
50.04711 2237
50.06723 2854
50.08734 3355
50.10746 4076
50.12757 4387
50.14768 4317
50.1678 3586
50.18791 2571
50.20802 2227
50.22814 2136
50.24825 2211
50.26837 2235
50.28848 1870
50.30859 1342
50.32871 814
50.34882 491
50.36893 434
50.38905 335
50.40916 316
50.42927 301
50.44939 267
50.4695 304
50.48962 267
50.50973 297
50.52984 293
50.54996 346
50.57007 303
50.59018 320
50.6103 328
50.63041 337
50.65053 270
50.67064 282
50.69075 230
50.71087 263
50.73098 237
50.75109 251
50.77121 236
50.79132 198
50.81143 191
50.83155 183
50.85166 168
50.87178 167
50.89189 140
50.912 162
50.93212 156
50.95223 151
50.97234 160
50.99246 149
51.01257 139
51.03269 166
51.0528 130
51.07291 136
51.09303 130
51.11314 128
51.13325 110
51.15337 138
51.17348 143
51.1936 142
51.21371 141
51.23382 123
51.25394 116
51.27405 147
51.29416 128
51.31428 118
51.33439 125
51.3545 120
51.37462 116
51.39473 121
51.41485 122
51.43496 144
51.45507 117
51.47519 129
51.4953 131
51.51541 130
51.53553 128
51.55564 118
51.57576 138
51.59587 113
51.61598 121
51.6361 107
51.65621 139
51.67632 115
51.69644 136
51.71655 138
51.73667 118
51.75678 107
51.77689 115
51.79701 106
51.81712 134
51.83723 122
51.85735 116
51.87746 104
51.89757 119
51.91769 131
51.9378 119
51.95792 108
51.97803 114
51.99814 119
52.01826 109
52.03837 138
52.05848 127
52.0786 121
52.09871 120
52.11883 112
52.13894 116
52.15905 113
52.17917 135
52.19928 125
52.21939 123
52.23951 115
52.25962 115
52.27974 108
52.29985 122
52.31996 114
52.34008 126
52.36019 120
52.3803 118
52.40042 111
52.42053 124
52.44064 107
52.46076 125
52.48087 109
52.50099 97
52.5211 95
52.54121 120
52.56133 115
52.58144 123
52.60155 114
52.62167 112
52.64178 115
52.6619 105
52.68201 118
52.70212 122
52.72224 121
52.74235 120
52.76246 100
52.78258 109
52.80269 136
52.8228 131
52.84292 104
52.86303 115
52.88315 113
52.90326 124
52.92337 109
52.94349 129
52.9636 145
52.98371 126
53.00383 105
53.02394 126
53.04406 119
53.06417 131
53.08428 127
53.1044 137
53.12451 119
53.14462 135
53.16474 132
53.18485 139
53.20497 120
53.22508 146
53.24519 121
53.26531 151
53.28542 159
53.30553 128
53.32565 147
53.34576 149
53.36587 168
53.38599 177
53.4061 156
53.42622 142
53.44633 149
53.46644 152
53.48656 158
53.50667 141
53.52678 152
53.5469 146
53.56701 127
53.58713 147
53.60724 123
53.62735 135
53.64747 121
53.66758 130
53.68769 143
53.70781 124
53.72792 126
53.74804 131
53.76815 137
53.78826 120
53.80838 125
53.82849 130
53.8486 123
53.86872 119
53.88883 130
53.90894 129
53.92906 118
53.94917 125
53.96929 119
53.9894 136
54.00951 116
54.02963 139
54.04974 118
54.06985 124
54.08997 114
54.11008 140
54.1302 118
54.15031 122
54.17042 139
54.19054 126
54.21065 103
54.23076 119
54.25088 120
54.27099 129
54.29111 121
54.31122 142
54.33133 155
54.35145 137
54.37156 135
54.39167 145
54.41179 156
54.4319 140
54.45201 138
54.47213 137
54.49224 142
54.51236 148
54.53247 145
54.55258 182
54.5727 210
54.59281 193
54.61292 227
54.63304 251
54.65315 262
54.67327 331
54.69338 372
54.71349 398
54.73361 482
54.75372 587
54.77383 796
54.79395 880
54.81406 1044
54.83417 1192
54.85429 1338
54.8744 1338
54.89452 1089
54.91463 843
54.93474 667
54.95486 656
54.97497 704
54.99508 706
55.0152 739
55.03531 670
55.05543 518
55.07554 373
55.09565 249
55.11577 275
55.13588 296
55.15599 295
55.17611 283
55.19622 354
55.21634 381
55.23645 442
55.25656 472
55.27668 538
55.29679 629
55.3169 689
55.33702 598
55.35713 462
55.37724 405
55.39736 368
55.41747 335
55.43759 358
55.4577 374
55.47781 340
55.49793 336
55.51804 269
55.53815 171
55.55827 176
55.57838 153
55.5985 146
55.61861 149
55.63872 139
55.65884 172
55.67895 152
55.69906 134
55.71918 147
55.73929 134
55.75941 109
55.77952 127
55.79963 122
55.81975 135
55.83986 123
55.85997 147
55.88009 126
55.9002 117
55.92031 130
55.94043 134
55.96054 135
55.98066 136
56.00077 121
56.02088 105
56.041 116
56.06111 105
56.08122 120
56.10134 114
56.12145 117
56.14157 107
56.16168 114
56.18179 116
56.20191 112
56.22202 112
56.24213 116
56.26225 110
56.28236 135
56.30248 98
56.32259 118
56.3427 102
56.36282 117
56.38293 106
56.40304 103
56.42316 95
56.44327 107
56.46338 136
56.4835 110
56.50361 100
56.52373 105
56.54384 106
56.56395 118
56.58407 106
56.60418 117
56.62429 104
56.64441 113
56.66452 103
56.68464 94
56.70475 105
56.72486 129
56.74498 114
56.76509 128
56.7852 118
56.80532 113
56.82543 102
56.84554 116
56.86566 115
56.88577 132
56.90589 90
56.926 115
56.94611 122
56.96623 116
56.98634 112
57.00645 122
57.02657 116
57.04668 117
57.0668 131
57.08691 158
57.10702 145
57.12714 132
57.14725 154
57.16736 155
57.18748 184
57.20759 184
57.22771 209
57.24782 170
57.26793 175
57.28805 136
57.30816 137
57.32827 137
57.34839 124
57.3685 149
57.38861 138
57.40873 124
57.42884 115
57.44896 120
57.46907 117
57.48918 119
57.5093 111
57.52941 99
57.54952 101
57.56964 107
57.58975 128
57.60987 113
57.62998 111
57.65009 111
57.67021 100
57.69032 117
57.71043 109
57.73055 118
57.75066 134
57.77078 129
57.79089 111
57.811 138
57.83112 122
57.85123 129
57.87134 126
57.89146 105
57.91157 123
57.93168 101
57.9518 117
57.97191 105
57.99203 120
58.01214 109
58.03225 134
58.05237 121
58.07248 123
58.09259 105
58.11271 123
58.13282 127
58.15294 114
58.17305 116
58.19316 112
58.21328 94
58.23339 115
58.2535 106
58.27362 94
58.29373 118
58.31385 125
58.33396 122
58.35407 112
58.37419 107
58.3943 109
58.41441 128
58.43453 112
58.45464 108
58.47475 112
58.49487 115
58.51498 114
58.5351 113
58.55521 122
58.57532 130
58.59544 110
58.61555 106
58.63566 112
58.65578 143
58.67589 121
58.69601 116
58.71612 113
58.73623 121
58.75635 111
58.77646 126
58.79657 121
58.81669 110
58.8368 124
58.85691 151
58.87703 125
58.89714 117
58.91726 110
58.93737 91
58.95748 129
58.9776 119
58.99771 110
59.01782 133
59.03794 124
59.05805 112
59.07817 128
59.09828 121
59.11839 116
59.13851 100
59.15862 116
59.17873 136
59.19885 139
59.21896 134
59.23908 127
59.25919 144
59.2793 137
59.29942 119
59.31953 139
59.33964 150
59.35976 119
59.37987 141
59.39998 114
59.4201 160
59.44021 142
59.46033 147
59.48044 175
59.50055 174
59.52067 209
59.54078 183
59.56089 232
59.58101 233
59.60112 247
59.62124 244
59.64135 290
59.66146 278
59.68158 369
59.70169 405
59.7218 404
59.74192 570
59.76203 623
59.78215 695
59.80226 924
59.82237 1099
59.84249 1345
59.8626 1653
59.88271 1990
59.90283 2288
59.92294 2500
59.94305 2791
59.96317 2549
59.98328 2173
60.0034 1478
60.02351 1251
60.04362 1215
60.06374 1266
60.08385 1360
60.10396 1328
60.12408 1306
60.14419 1016
60.16431 706
60.18442 511
60.20453 339
60.22465 257
60.24476 254
60.26487 208
60.28499 216
60.3051 204
60.32522 187
60.34533 179
60.36544 177
60.38556 150
60.40567 149
60.42578 160
60.4459 124
60.46601 137
60.48612 145
60.50624 135
60.52635 112
60.54647 144
60.56658 137
60.58669 147
60.60681 134
60.62692 124
60.64703 125
60.66715 114
60.68726 121
60.70738 116
60.72749 136
60.7476 131
60.76772 114
60.78783 126
60.80794 124
60.82806 115
60.84817 138
60.86828 102
60.8884 137
60.90851 125
60.92863 119
60.94874 111
60.96885 129
60.98897 124
61.00908 128
61.02919 122
61.04931 127
61.06942 119
61.08954 112
61.10965 130
61.12976 123
61.14988 114
61.16999 98
61.1901 109
61.21022 117
61.23033 109
61.25045 121
61.27056 106
61.29067 118
61.31079 116
61.3309 113
61.35101 102
61.37113 120
61.39124 108
61.41135 111
61.43147 113
61.45158 135
61.4717 118
61.49181 109
61.51192 111
61.53204 101
61.55215 119
61.57226 121
61.59238 117
61.61249 119
61.63261 106
61.65272 125
61.67283 121
61.69295 123
61.71306 119
61.73317 124
61.75329 100
61.7734 108
61.79352 115
61.81363 110
61.83374 119
61.85386 124
61.87397 111
61.89408 109
61.9142 132
61.93431 121
61.95442 121
61.97454 113
61.99465 102
62.01477 105
62.03488 95
62.05499 115
62.07511 129
62.09522 126
62.11533 127
62.13545 135
62.15556 118
62.17568 111
62.19579 110
62.2159 128
62.23602 115
62.25613 110
62.27624 120
62.29636 127
62.31647 112
62.33659 112
62.3567 111
62.37681 97
62.39693 101
62.41704 99
62.43715 105
62.45727 111
62.47738 112
62.49749 97
62.51761 110
62.53772 114
62.55784 115
62.57795 115
62.59806 109
62.61818 100
62.63829 115
62.6584 118
62.67852 116
62.69863 104
62.71875 105
62.73886 114
62.75897 133
62.77909 97
62.7992 134
62.81931 106
62.83943 104
62.85954 94
62.87965 127
62.89977 111
62.91988 110
62.94 110
62.96011 101
62.98022 119
63.00034 118
63.02045 115
63.04056 143
63.06068 112
63.08079 121
63.10091 99
63.12102 129
63.14113 119
63.16125 116
63.18136 91
63.20147 102
63.22159 115
63.2417 113
63.26182 111
63.28193 121
63.30204 114
63.32216 114
63.34227 121
63.36238 123
63.3825 106
63.40261 110
63.42272 109
63.44284 104
63.46295 106
63.48307 109
63.50318 110
63.52329 115
63.54341 105
63.56352 118
63.58363 138
63.60375 115
63.62386 135
63.64398 147
63.66409 137
63.6842 144
63.70432 134
63.72443 128
63.74454 136
63.76466 157
63.78477 165
63.80489 165
63.825 185
63.84511 208
63.86523 233
63.88534 258
63.90545 316
63.92557 340
63.94568 422
63.96579 457
63.98591 518
64.00602 538
64.02614 576
64.04625 577
64.06636 445
64.08648 333
64.10659 275
64.1267 300
64.14682 277
64.16693 305
64.18705 331
64.20716 320
64.22727 284
64.24739 233
64.2675 203
64.28761 163
64.30773 133
64.32784 120
64.34796 118
64.36807 124
64.38818 130
64.4083 120
64.42841 125
64.44852 137
64.46864 123
64.48875 99
64.50886 127
64.52898 110
64.54909 124
64.56921 106
64.58932 99
64.60943 104
64.62955 98
64.64966 113
64.66977 109
64.68989 101
64.71 121
64.73012 104
64.75023 116
64.77034 105
64.79046 128
64.81057 120
64.83068 92
64.8508 122
64.87091 101
64.89102 110
64.91114 108
64.93125 109
64.95137 98
64.97148 106
64.99159 98
65.01171 111
65.03182 108
65.05193 108
65.07205 113
65.09216 105
65.11228 124
65.13239 121
65.1525 108
65.17262 144
65.19273 122
65.21284 103
65.23296 119
65.25307 110
65.27319 108
65.2933 111
65.31341 139
65.33353 116
65.35364 129
65.37375 119
65.39387 135
65.41398 113
65.43409 130
65.45421 134
65.47432 106
65.49444 122
65.51455 124
65.53466 153
65.55478 138
65.57489 136
65.595 128
65.61512 164
65.63523 170
65.65535 175
65.67546 169
65.69557 179
65.71569 222
65.7358 219
65.75591 226
65.77603 230
65.79614 211
65.81626 195
65.83637 172
65.85648 140
65.8766 146
65.89671 168
65.91682 182
65.93694 164
65.95705 163
65.97716 175
65.99728 139
66.01739 125
66.03751 133
66.05762 119
66.07773 115
66.09785 123
66.11796 137
66.13807 109
66.15819 121
66.1783 142
66.19842 115
66.21853 113
66.23864 106
66.25876 134
66.27887 117
66.29898 123
66.3191 120
66.33921 137
66.35933 133
66.37944 120
66.39955 110
66.41967 99
66.43978 111
66.45989 115
66.48001 133
66.50012 127
66.52023 109
66.54035 119
66.56046 131
66.58058 103
66.60069 138
66.6208 136
66.64092 126
66.66103 130
66.68114 117
66.70126 127
66.72137 116
66.74149 127
66.7616 111
66.78171 115
66.80183 125
66.82194 88
66.84205 115
66.86217 122
66.88228 131
66.90239 131
66.92251 126
66.94262 142
66.96274 152
66.98285 140
67.00296 124
67.02308 153
67.04319 142
67.0633 134
67.08342 119
67.10353 137
67.12365 152
67.14376 152
67.16387 149
67.18399 142
67.2041 159
67.22421 158
67.24433 143
67.26444 170
67.28456 170
67.30467 175
67.32478 159
67.3449 194
67.36501 220
67.38512 229
67.40524 215
67.42535 232
67.44546 245
67.46558 293
67.48569 326
67.50581 336
67.52592 391
67.54603 451
67.56615 524
67.58626 613
67.60637 732
67.62649 900
67.6466 1067
67.66672 1181
67.68683 1441
67.70694 1583
67.72706 1534
67.74717 1515
67.76728 1243
67.7874 1053
67.80751 866
67.82763 834
67.84774 846
67.86785 952
67.88797 1028
67.90808 1130
67.92819 1130
67.94831 1101
67.96842 1026
67.98853 998
68.00865 1101
68.02876 1144
68.04888 1345
68.06899 1583
68.0891 1760
68.10922 1983
68.12933 2083
68.14944 1980
68.16956 1781
68.18967 1564
68.20979 1403
68.2299 1534
68.25001 1552
68.27013 1818
68.29024 1928
68.31035 1843
68.33047 1690
68.35058 1380
68.3707 1036
68.39081 878
68.41092 730
68.43104 671
68.45115 674
68.47126 642
68.49138 656
68.51149 617
68.5316 483
68.55172 363
68.57183 323
68.59195 251
68.61206 191
68.63217 208
68.65229 179
68.6724 175
68.69251 191
68.71263 151
68.73274 133
68.75286 165
68.77297 154
68.79308 161
68.8132 143
68.83331 148
68.85342 154
68.87354 109
68.89365 146
68.91376 125
68.93388 129
68.95399 137
68.97411 141
68.99422 137
69.01433 134
69.03445 123
69.05456 129
69.07467 132
69.09479 127
69.1149 108
69.13502 146
69.15513 130
69.17524 124
69.19536 122
69.21547 117
69.23558 105
69.2557 108
69.27581 117
69.29593 121
69.31604 98
69.33615 112
69.35627 106
69.37638 109
69.39649 102
69.41661 99
69.43672 93
69.45683 104
69.47695 128
69.49706 118
69.51718 104
69.53729 116
69.5574 99
69.57752 106
69.59763 113
69.61774 102
69.63786 107
69.65797 111
69.67809 89
69.6982 107
69.71831 114
69.73843 91
69.75854 112
69.77865 100
69.79877 93
69.81888 91
69.839 111
69.85911 117
69.87922 96
69.89934 119
69.91945 113
69.93956 107
69.95968 98
69.97979 111
69.9999 96
70.02002 105
70.04013 94
70.06025 114
70.08036 99
70.10047 123
70.12059 106
70.1407 101
70.16081 106
70.18093 117
70.20104 111
70.22116 100
70.24127 120
70.26138 126
70.2815 118
70.30161 104
70.32172 87
70.34184 94
70.36195 88
70.38207 99
70.40218 89
70.42229 89
70.44241 106
70.46252 100
70.48263 103
70.50275 99
70.52286 107
70.54297 107
70.56309 90
70.5832 91
70.60332 108
70.62343 112
70.64354 130
70.66366 96
70.68377 97
70.70388 118
70.724 93
70.74411 94
70.76423 92
70.78434 103
70.80445 92
70.82457 105
70.84468 84
70.86479 101
70.88491 98
70.90502 101
70.92513 114
70.94525 118
70.96536 95
70.98548 106
71.00559 106
71.0257 107
71.04582 110
71.06593 88
71.08604 96
71.10616 106
71.12627 119
71.14639 94
71.1665 98
71.18661 104
71.20673 93
71.22684 105
71.24695 93
71.26707 97
71.28718 89
71.3073 111
71.32741 99
71.34752 109
71.36764 95
71.38775 99
71.40786 92
71.42798 92
71.44809 105
71.4682 99
71.48832 98
71.50843 107
71.52855 89
71.54866 124
71.56877 89
71.58889 124
71.609 103
71.62911 87
71.64923 103
71.66934 112
71.68946 100
71.70957 102
71.72968 108
71.7498 94
71.76991 91
71.79002 101
71.81014 101
71.83025 95
71.85037 95
71.87048 94
71.89059 125
71.91071 97
71.93082 106
71.95093 113
71.97105 112
71.99116 100
72.01127 97
72.03139 94
72.0515 113
72.07162 105
72.09173 105
72.11184 112
72.13196 79
72.15207 96
72.17218 115
72.1923 106
72.21241 116
72.23253 104
72.25264 88
72.27275 105
72.29287 89
72.31298 104
72.33309 105
72.35321 113
72.37332 112
72.39344 123
72.41355 107
72.43366 114
72.45378 96
72.47389 98
72.494 106
72.51412 100
72.53423 121
72.55434 104
72.57446 91
72.59457 109
72.61469 114
72.6348 110
72.65491 82
72.67503 118
72.69514 110
72.71525 91
72.73537 99
72.75548 93
72.7756 120
72.79571 107
72.81582 119
72.83594 114
72.85605 106
72.87616 125
72.89628 119
72.91639 96
72.9365 114
72.95662 120
72.97673 113
72.99685 130
73.01696 120
73.03707 127
73.05719 147
73.0773 120
73.09741 138
73.11753 159
73.13764 134
73.15776 161
73.17787 149
73.19798 166
73.2181 181
73.23821 199
73.25832 212
73.27844 239
73.29855 227
73.31867 310
73.33878 331
73.35889 378
73.37901 446
73.39912 478
73.41923 550
73.43935 593
73.45946 600
73.47957 505
73.49969 439
73.5198 303
73.53992 279
73.56003 289
73.58014 317
73.60026 310
73.62037 304
73.64048 300
73.6606 362
73.68071 298
73.70083 297
73.72094 203
73.74105 181
73.76117 149
73.78128 127
73.80139 145
73.82151 129
73.84162 126
73.86174 108
73.88185 115
73.90196 107
73.92208 121
73.94219 113
73.9623 112
73.98242 106
74.00253 103
74.02264 95
74.04276 91
74.06287 102
74.08299 93
74.1031 108
74.12321 111
74.14333 108
74.16344 102
74.18355 106
74.20367 98
74.22378 104
74.2439 96
74.26401 109
74.28412 105
74.30424 101
74.32435 98
74.34446 102
74.36458 84
74.38469 96
74.40481 102
74.42492 124
74.44503 112
74.46515 108
74.48526 117
74.50537 111
74.52549 114
74.5456 110
74.56571 101
74.58583 80
74.60594 108
74.62606 89
74.64617 85
74.66628 95
74.6864 95
74.70651 110
74.72662 99
74.74674 85
74.76685 95
74.78697 119
74.80708 107
74.82719 113
74.84731 118
74.86742 121
74.88753 114
74.90765 114
74.92776 92
74.94787 101
74.96799 88
74.9881 113
75.00822 140
