3.00117 8065
3.02128 7738
3.0414 7819
3.06151 7414
3.08162 7226
3.10174 7132
3.12185 6967
3.14197 6645
3.16208 6633
3.18219 6343
3.20231 6313
3.22242 6087
3.24253 6080
3.26265 5780
3.28276 5467
3.30288 5563
3.32299 5283
3.3431 5209
3.36322 5047
3.38333 4887
3.40344 4776
3.42356 4491
3.44367 4485
3.46379 4217
3.4839 4219
3.50401 4089
3.52413 3989
3.54424 3886
3.56435 3743
3.58447 3473
3.60458 3577
3.62469 3444
3.64481 3307
3.66492 3137
3.68504 3116
3.70515 2984
3.72526 2811
3.74538 2795
3.76549 2728
3.7856 2524
3.80572 2430
3.82583 2382
3.84595 2426
3.86606 2282
3.88617 2179
3.90629 2064
3.9264 2050
3.94651 2036
3.96663 1868
3.98674 1721
4.00686 1915
4.02697 1717
4.04708 1642
4.0672 1510
4.08731 1528
4.10742 1446
4.12754 1419
4.14765 1345
4.16776 1306
4.18788 1172
4.20799 1234
4.22811 1207
4.24822 1191
4.26833 1116
4.28845 1080
4.30856 1072
4.32867 1002
4.34879 1007
4.3689 1012
4.38902 928
4.40913 918
4.42924 976
4.44936 835
4.46947 896
4.48958 861
4.5097 821
4.52981 859
4.54992 780
4.57004 797
4.59015 759
4.61027 843
4.63038 852
4.65049 709
4.67061 741
4.69072 725
4.71083 725
4.73095 751
4.75106 681
4.77118 674
4.79129 621
4.8114 645
4.83152 681
4.85163 587
4.87174 589
4.89186 534
4.91197 657
4.93209 513
4.9522 540
4.97231 560
4.99243 538
5.01254 560
5.03265 590
5.05277 497
5.07288 496
5.09299 479
5.11311 483
5.13322 521
5.15334 459
5.17345 464
5.19356 447
5.21368 440
5.23379 425
5.2539 450
5.27402 441
5.29413 454
5.31425 402
5.33436 422
5.35447 433
5.37459 352
5.3947 395
5.41481 435
5.43493 429
5.45504 374
5.47516 390
5.49527 346
5.51538 381
5.5355 333
5.55561 355
5.57572 334
5.59584 356
5.61595 377
5.63606 311
5.65618 335
5.67629 310
5.69641 342
5.71652 337
5.73663 315
5.75675 282
5.77686 288
5.79697 279
5.81709 330
5.8372 284
5.85732 300
5.87743 311
5.89754 254
5.91766 256
5.93777 268
5.95788 263
5.978 314
5.99811 245
6.01823 293
6.03834 300
6.05845 295
6.07857 251
6.09868 254
6.11879 271
6.13891 264
6.15902 232
6.17913 251
6.19925 292
6.21936 266
6.23948 228
6.25959 247
6.2797 259
6.29982 238
6.31993 244
6.34004 254
6.36016 249
6.38027 226
6.40039 247
6.4205 251
6.44061 244
6.46073 205
6.48084 240
6.50095 240
6.52107 256
6.54118 198
6.56129 200
6.58141 273
6.60152 224
6.62164 228
6.64175 223
6.66186 205
6.68198 241
6.70209 227
6.7222 187
6.74232 226
6.76243 236
6.78255 232
6.80266 203
6.82277 214
6.84289 242
6.863 223
6.88311 198
6.90323 222
6.92334 211
6.94346 196
6.96357 222
6.98368 228
7.0038 244
7.02391 227
7.04402 226
7.06414 201
7.08425 212
7.10436 215
7.12448 187
7.14459 204
7.16471 219
7.18482 237
7.20493 199
7.22505 211
7.24516 203
7.26527 208
7.28539 213
7.3055 228
7.32562 218
7.34573 196
7.36584 240
7.38596 227
7.40607 238
7.42618 228
7.4463 231
7.46641 205
7.48653 235
7.50664 216
7.52675 232
7.54687 243
7.56698 233
7.58709 218
7.60721 204
7.62732 186
7.64743 219
7.66755 208
7.68766 219
7.70778 206
7.72789 250
7.748 183
7.76812 215
7.78823 216
7.80834 194
7.82846 207
7.84857 187
7.86869 240
7.8888 206
7.90891 193
7.92903 214
7.94914 202
7.96925 227
7.98937 243
8.00948 205
8.0296 199
8.04971 212
8.06982 202
8.08994 241
8.11005 200
8.13016 216
8.15028 201
8.17039 179
8.1905 226
8.21062 226
8.23073 241
8.25085 213
8.27096 202
8.29107 219
8.31119 197
8.3313 207
8.35141 212
8.37153 213
8.39164 203
8.41176 209
8.43187 237
8.45198 200
8.4721 218
8.49221 209
8.51232 207
8.53244 209
8.55255 218
8.57266 206
8.59278 208
8.61289 217
8.63301 197
8.65312 218
8.67323 237
8.69335 216
8.71346 244
8.73357 232
8.75369 209
8.7738 234
8.79392 220
8.81403 227
8.83414 265
8.85426 199
8.87437 217
8.89448 226
8.9146 211
8.93471 202
8.95483 203
8.97494 215
8.99505 217
9.01517 226
9.03528 193
9.05539 213
9.07551 191
9.09562 227
9.11573 243
9.13585 206
9.15596 221
9.17608 219
9.19619 231
9.2163 228
9.23642 211
9.25653 217
9.27664 215
9.29676 222
9.31687 217
9.33699 191
9.3571 218
9.37721 213
9.39733 240
9.41744 235
9.43755 245
9.45767 251
9.47778 205
9.4979 231
9.51801 205
9.53812 223
9.55824 214
9.57835 194
9.59846 203
9.61858 217
9.63869 233
9.6588 218
9.67892 218
9.69903 203
9.71915 211
9.73926 224
9.75937 227
9.77949 207
9.7996 223
9.81971 214
9.83983 228
9.85994 224
9.88006 207
9.90017 225
9.92028 235
9.9404 236
9.96051 208
9.98062 230
10.00074 234
10.02085 227
10.04097 226
10.06108 219
10.08119 204
10.10131 224
10.12142 197
10.14153 193
10.16165 193
10.18176 232
10.20187 225
10.22199 214
10.2421 214
10.26222 203
10.28233 228
10.30244 209
10.32256 237
10.34267 191
10.36278 188
10.3829 232
10.40301 204
10.42313 214
10.44324 219
10.46335 213
10.48347 211
10.50358 208
10.52369 233
10.54381 216
10.56392 216
10.58403 246
10.60415 223
10.62426 202
10.64438 250
10.66449 226
10.6846 217
10.70472 214
10.72483 223
10.74494 212
10.76506 219
10.78517 270
10.80529 210
10.8254 209
10.84551 221
10.86563 199
10.88574 257
10.90585 223
10.92597 229
10.94608 211
10.9662 237
10.98631 212
11.00642 222
11.02654 239
11.04665 220
11.06676 190
11.08688 214
11.10699 227
11.1271 218
11.14722 213
11.16733 229
11.18745 210
11.20756 190
11.22767 217
11.24779 215
11.2679 218
11.28801 206
11.30813 212
11.32824 194
11.34836 212
11.36847 196
11.38858 214
11.4087 176
11.42881 178
11.44892 205
11.46904 199
11.48915 207
11.50927 215
11.52938 200
11.54949 172
11.56961 195
11.58972 211
11.60983 207
11.62995 218
11.65006 220
11.67017 196
11.69029 207
11.7104 193
11.73052 202
11.75063 204
11.77074 210
11.79086 231
11.81097 202
11.83108 222
11.8512 214
11.87131 210
11.89143 221
11.91154 197
11.93165 225
11.95177 221
11.97188 233
11.99199 214
12.01211 209
12.03222 217
12.05234 192
12.07245 214
12.09256 204
12.11268 226
12.13279 210
12.1529 196
12.17302 210
12.19313 212
12.21324 220
12.23336 205
12.25347 206
12.27359 204
12.2937 194
12.31381 189
12.33393 233
12.35404 202
12.37415 210
12.39427 178
12.41438 203
12.4345 201
12.45461 187
12.47472 200
12.49484 190
12.51495 217
12.53506 229
12.55518 158
12.57529 202
12.5954 177
12.61552 198
12.63563 184
12.65575 206
12.67586 185
12.69597 196
12.71609 184
12.7362 208
12.75631 208
12.77643 206
12.79654 215
12.81666 213
12.83677 189
12.85688 192
12.877 198
12.89711 222
12.91722 177
12.93734 210
12.95745 195
12.97757 216
12.99768 199
13.01779 186
13.03791 177
13.05802 198
13.07813 203
13.09825 179
13.11836 179
13.13847 200
13.15859 210
13.1787 217
13.19882 203
13.21893 189
13.23904 173
13.25916 182
13.27927 180
13.29938 203
13.3195 211
13.33961 195
13.35973 202
13.37984 178
13.39995 189
13.42007 214
13.44018 187
13.46029 196
13.48041 198
13.50052 242
13.52064 193
13.54075 193
13.56086 207
13.58098 219
13.60109 178
13.6212 166
13.64132 207
13.66143 183
13.68154 194
13.70166 188
13.72177 201
13.74189 195
13.762 174
13.78211 197
13.80223 183
13.82234 178
13.84245 158
13.86257 197
13.88268 198
13.9028 178
13.92291 196
13.94302 187
13.96314 196
13.98325 190
14.00336 191
14.02348 199
14.04359 168
14.06371 175
14.08382 165
14.10393 165
14.12405 191
14.14416 190
14.16427 205
14.18439 179
14.2045 174
14.22461 178
14.24473 180
14.26484 184
14.28496 186
14.30507 192
14.32518 174
14.3453 194
14.36541 206
14.38552 161
14.40564 175
14.42575 166
14.44587 190
14.46598 199
14.48609 181
14.50621 202
14.52632 172
14.54643 184
14.56655 190
14.58666 212
14.60677 171
14.62689 180
14.647 177
14.66712 185
14.68723 153
14.70734 200
14.72746 165
14.74757 164
14.76768 182
14.7878 165
14.80791 153
14.82803 160
14.84814 184
14.86825 178
14.88837 151
14.90848 170
14.92859 154
14.94871 178
14.96882 155
14.98894 177
15.00905 176
15.02916 153
15.04928 160
15.06939 177
15.0895 165
15.10962 164
15.12973 180
15.14984 194
15.16996 159
15.19007 181
15.21019 180
15.2303 162
15.25041 172
15.27053 172
15.29064 189
15.31075 183
15.33087 165
15.35098 171
15.3711 154
15.39121 188
15.41132 175
15.43144 170
15.45155 154
15.47166 189
15.49178 166
15.51189 183
15.53201 175
15.55212 176
15.57223 155
15.59235 160
15.61246 174
15.63257 149
15.65269 158
15.6728 148
15.69291 161
15.71303 179
15.73314 196
15.75326 172
15.77337 142
15.79348 166
15.8136 166
15.83371 167
15.85382 177
15.87394 141
15.89405 176
15.91417 184
15.93428 187
15.95439 183
15.97451 171
15.99462 176
16.01473 197
16.03485 152
16.05496 150
16.07508 184
16.09519 146
16.1153 182
16.13542 151
16.15553 156
16.17564 184
16.19576 171
16.21587 151
16.23598 163
16.2561 174
16.27621 152
16.29633 133
16.31644 155
16.33655 178
16.35667 176
16.37678 178
16.39689 149
16.41701 170
16.43712 143
16.45724 180
16.47735 170
16.49746 149
16.51758 146
16.53769 158
16.5578 167
16.57792 164
16.59803 170
16.61814 140
16.63826 158
16.65837 164
16.67849 171
16.6986 158
16.71871 164
16.73883 169
16.75894 145
16.77905 158
16.79917 183
16.81928 170
16.8394 160
16.85951 154
16.87962 172
16.89974 154
16.91985 173
16.93996 160
16.96008 158
16.98019 196
17.00031 152
17.02042 169
17.04053 155
17.06065 182
17.08076 172
17.10087 158
17.12099 192
17.1411 144
17.16121 174
17.18133 158
17.20144 153
17.22156 188
17.24167 171
17.26178 181
17.2819 172
17.30201 142
17.32212 180
17.34224 177
17.36235 167
17.38247 169
17.40258 137
17.42269 156
17.44281 161
17.46292 165
17.48303 181
17.50315 162
17.52326 158
17.54338 162
17.56349 169
17.5836 164
17.60372 151
17.62383 151
17.64394 175
17.66406 153
17.68417 146
17.70428 151
17.7244 170
17.74451 158
17.76463 166
17.78474 168
17.80485 167
17.82497 164
17.84508 149
17.86519 168
17.88531 148
17.90542 179
17.92554 154
17.94565 166
17.96576 159
17.98588 185
18.00599 162
18.0261 159
18.04622 183
18.06633 180
18.08645 165
18.10656 172
18.12667 153
18.14679 148
18.1669 182
18.18701 140
18.20713 168
18.22724 163
18.24735 156
18.26747 140
18.28758 151
18.3077 144
18.32781 165
18.34792 153
18.36804 171
18.38815 159
18.40826 166
18.42838 172
18.44849 157
18.46861 170
18.48872 168
18.50883 154
18.52895 155
18.54906 165
18.56917 184
18.58929 169
18.6094 189
18.62951 165
18.64963 188
18.66974 183
18.68986 144
18.70997 165
18.73008 163
18.7502 161
18.77031 158
18.79042 199
18.81054 177
18.83065 176
18.85077 161
18.87088 164
18.89099 169
18.91111 154
18.93122 184
18.95133 170
18.97145 163
18.99156 188
19.01168 187
19.03179 156
19.0519 166
19.07202 136
19.09213 169
19.11224 147
19.13236 196
19.15247 157
19.17258 173
19.1927 161
19.21281 179
19.23293 177
19.25304 198
19.27315 161
19.29327 154
19.31338 149
19.33349 150
19.35361 171
19.37372 182
19.39384 172
19.41395 160
19.43406 178
19.45418 180
19.47429 198
19.4944 184
19.51452 182
19.53463 199
19.55475 194
19.57486 191
19.59497 190
19.61509 200
19.6352 225
19.65531 220
19.67543 234
19.69554 229
19.71565 222
19.73577 194
19.75588 238
19.776 272
19.79611 258
19.81622 240
19.83634 255
19.85645 263
19.87656 237
19.89668 233
19.91679 246
19.93691 229
19.95702 268
19.97713 249
19.99725 227
20.01736 216
20.03747 224
20.05759 262
20.0777 255
20.09782 253
20.11793 242
20.13804 260
20.15816 285
20.17827 279
20.19838 277
20.2185 244
20.23861 295
20.25872 288
20.27884 294
20.29895 304
20.31907 301
20.33918 285
20.35929 311
20.37941 290
20.39952 312
20.41963 320
20.43975 349
20.45986 320
20.47998 329
20.50009 375
20.5202 363
20.54032 380
20.56043 386
20.58054 421
20.60066 452
20.62077 458
20.64088 502
20.661 604
20.68111 657
20.70123 902
20.72134 1132
20.74145 1700
20.76157 2217
20.78168 3396
20.80179 4739
20.82191 6802
20.84202 8477
20.86214 10087
20.88225 9960
20.90236 8455
20.92248 6202
20.94259 4220
20.9627 2527
20.98282 1370
21.00293 835
21.02305 580
21.04316 609
21.06327 490
21.08339 510
21.1035 477
21.12361 402
21.14373 380
21.16384 336
21.18395 366
21.20407 324
21.22418 287
21.2443 318
21.26441 277
21.28452 280
21.30464 246
21.32475 258
21.34486 279
21.36498 273
21.38509 221
21.40521 205
21.42532 234
21.44543 253
21.46555 244
21.48566 200
21.50577 225
21.52589 224
21.546 212
21.56612 226
21.58623 233
21.60634 221
21.62646 239
21.64657 213
21.66668 181
21.6868 233
21.70691 218
21.72702 191
21.74714 226
21.76725 243
21.78737 196
21.80748 196
21.82759 231
21.84771 224
21.86782 207
21.88793 211
21.90805 218
21.92816 200
21.94828 224
21.96839 206
21.9885 218
22.00862 203
22.02873 213
22.04884 216
22.06896 197
22.08907 220
22.10919 196
22.1293 220
22.14941 194
22.16953 230
22.18964 210
22.20975 227
22.22987 217
22.24998 183
22.27009 212
22.29021 208
22.31032 212
22.33044 219
22.35055 220
22.37066 217
22.39078 232
22.41089 192
22.431 210
22.45112 204
22.47123 201
22.49135 174
22.51146 205
22.53157 209
22.55169 198
22.5718 205
22.59191 192
22.61203 197
22.63214 188
22.65225 187
22.67237 190
22.69248 212
22.7126 187
22.73271 215
22.75282 186
22.77294 205
22.79305 199
22.81316 202
22.83328 183
22.85339 208
22.87351 177
22.89362 194
22.91373 170
22.93385 222
22.95396 201
22.97407 187
22.99419 197
23.0143 182
23.03442 222
23.05453 200
23.07464 199
23.09476 187
23.11487 187
23.13498 210
23.1551 226
23.17521 191
23.19532 207
23.21544 173
23.23555 201
23.25567 195
23.27578 215
23.29589 224
23.31601 200
23.33612 168
23.35623 210
23.37635 200
23.39646 187
23.41658 187
23.43669 194
23.4568 206
23.47692 189
23.49703 204
23.51714 196
23.53726 195
23.55737 178
23.57749 188
23.5976 192
23.61771 197
23.63783 209
23.65794 165
23.67805 169
23.69817 236
23.71828 170
23.73839 200
23.75851 173
23.77862 169
23.79874 201
23.81885 199
23.83896 203
23.85908 192
23.87919 197
23.8993 211
23.91942 218
23.93953 212
23.95965 255
23.97976 275
23.99987 249
24.01999 287
24.0401 295
24.06021 271
24.08033 223
24.10044 236
24.12056 225
24.14067 198
24.16078 185
24.1809 191
24.20101 193
24.22112 182
24.24124 208
24.26135 208
24.28146 177
24.30158 197
24.32169 199
24.34181 201
24.36192 203
24.38203 184
24.40215 206
24.42226 152
24.44237 177
24.46249 195
24.4826 185
24.50272 197
24.52283 182
24.54294 187
24.56306 190
24.58317 196
24.60328 169
24.6234 189
24.64351 180
24.66362 194
24.68374 209
24.70385 188
24.72397 213
24.74408 187
24.76419 212
24.78431 194
24.80442 188
24.82453 198
24.84465 186
24.86476 202
24.88488 204
24.90499 200
24.9251 185
24.94522 195
24.96533 195
24.98544 209
25.00556 174
25.02567 203
25.04579 177
25.0659 223
25.08601 214
25.10613 190
25.12624 195
25.14635 235
25.16647 193
25.18658 181
25.20669 193
25.22681 195
25.24692 222
25.26704 207
25.28715 198
25.30726 196
25.32738 192
25.34749 228
25.3676 218
25.38772 210
25.40783 190
25.42795 215
25.44806 220
25.46817 241
25.48829 226
25.5084 215
25.52851 218
25.54863 231
25.56874 223
25.58886 247
25.60897 242
25.62908 224
25.6492 265
25.66931 294
25.68942 315
25.70954 357
25.72965 412
25.74976 397
25.76988 401
25.78999 405
25.81011 404
25.83022 455
25.85033 431
25.87045 435
25.89056 402
25.91067 455
25.93079 481
25.9509 447
25.97102 440
25.99113 498
26.01124 497
26.03136 501
26.05147 522
26.07158 540
26.0917 594
26.11181 622
26.13193 619
26.15204 620
26.17215 688
26.19227 771
26.21238 741
26.23249 866
26.25261 951
26.27272 980
26.29283 1074
26.31295 1172
26.33306 1273
26.35318 1410
26.37329 1584
26.3934 1777
26.41352 2131
26.43363 2646
26.45374 3387
26.47386 4412
26.49397 5961
26.51409 8336
26.5342 11520
26.55431 16325
26.57443 22958
26.59454 30649
26.61465 39506
26.63477 45724
26.65488 45335
26.67499 38345
26.69511 29231
26.71522 22610
26.73534 16206
26.75545 9389
26.77556 4766
26.79568 2774
26.81579 2019
26.8359 1781
26.85602 1626
26.87613 1393
26.89625 1272
26.91636 1164
26.93647 1105
26.95659 958
26.9767 860
26.99681 762
27.01693 691
27.03704 671
27.05716 596
27.07727 541
27.09738 569
27.1175 527
27.13761 503
27.15772 500
27.17784 473
27.19795 450
27.21806 426
27.23818 396
27.25829 432
27.27841 437
27.29852 378
27.31863 403
27.33875 389
27.35886 397
27.37897 400
27.39909 411
27.4192 390
27.43932 367
27.45943 400
27.47954 395
27.49966 388
27.51977 370
27.53988 353
27.56 323
27.58011 339
27.60023 306
27.62034 351
27.64045 323
27.66057 356
27.68068 330
27.70079 346
27.72091 327
27.74102 301
27.76113 304
27.78125 283
27.80136 306
27.82148 327
27.84159 315
27.8617 301
27.88182 301
27.90193 310
27.92204 258
27.94216 296
27.96227 279
27.98239 274
28.0025 292
28.02261 275
28.04273 312
28.06284 242
28.08295 260
28.10307 290
28.12318 279
28.1433 256
28.16341 265
28.18352 282
28.20364 244
28.22375 260
28.24386 286
28.26398 276
28.28409 284
28.3042 242
28.32432 277
28.34443 288
28.36455 288
28.38466 257
28.40477 226
28.42489 282
28.445 233
28.46511 249
28.48523 242
28.50534 241
28.52546 262
28.54557 231
28.56568 272
28.5858 238
28.60591 254
28.62602 239
28.64614 231
28.66625 238
28.68636 238
28.70648 252
28.72659 218
28.74671 251
28.76682 238
28.78693 212
28.80705 252
28.82716 238
28.84727 242
28.86739 234
28.8875 231
28.90762 239
28.92773 250
28.94784 247
28.96796 233
28.98807 233
29.00818 231
29.0283 215
29.04841 231
29.06853 244
29.08864 265
29.10875 215
29.12887 249
29.14898 224
29.16909 213
29.18921 225
29.20932 234
29.22943 223
29.24955 225
29.26966 205
29.28978 250
29.30989 207
29.33 237
29.35012 234
29.37023 207
29.39034 227
29.41046 248
29.43057 231
29.45069 220
29.4708 211
29.49091 227
29.51103 227
29.53114 222
29.55125 206
29.57137 228
29.59148 230
29.6116 232
29.63171 207
29.65182 217
29.67194 212
29.69205 228
29.71216 205
29.73228 219
29.75239 227
29.7725 211
29.79262 201
29.81273 213
29.83285 231
29.85296 244
29.87307 237
29.89319 206
29.9133 236
29.93341 216
29.95353 191
29.97364 203
29.99376 209
30.01387 210
30.03398 223
30.0541 195
30.07421 224
30.09432 205
30.11444 199
30.13455 218
30.15467 225
30.17478 206
30.19489 197
30.21501 197
30.23512 213
30.25523 201
30.27535 186
30.29546 225
30.31557 200
30.33569 185
30.3558 191
30.37592 188
30.39603 201
30.41614 208
30.43626 184
30.45637 212
30.47648 207
30.4966 207
30.51671 186
30.53683 209
30.55694 190
30.57705 196
30.59717 186
30.61728 204
30.63739 198
30.65751 183
30.67762 209
30.69773 209
30.71785 202
30.73796 200
30.75808 218
30.77819 215
30.7983 217
30.81842 176
30.83853 167
30.85864 203
30.87876 178
30.89887 195
30.91899 202
30.9391 189
30.95921 197
30.97933 200
30.99944 175
31.01955 216
31.03967 192
31.05978 169
31.0799 159
31.10001 165
31.12012 179
31.14024 189
31.16035 200
31.18046 183
31.20058 183
31.22069 182
31.2408 186
31.26092 165
31.28103 168
31.30115 161
31.32126 168
31.34137 197
31.36149 197
31.3816 193
31.40171 164
31.42183 174
31.44194 188
31.46206 167
31.48217 159
31.50228 189
31.5224 166
31.54251 141
31.56262 194
31.58274 182
31.60285 183
31.62297 178
31.64308 166
31.66319 151
31.68331 163
31.70342 188
31.72353 151
31.74365 173
31.76376 171
31.78387 176
31.80399 164
31.8241 153
31.84422 165
31.86433 154
31.88444 159
31.90456 160
31.92467 163
31.94478 188
31.9649 173
31.98501 153
32.00513 165
32.02524 161
32.04535 180
32.06547 153
32.08558 174
32.10569 156
32.12581 163
32.14592 175
32.16604 170
32.18615 179
32.20626 165
32.22638 146
32.24649 150
32.2666 150
32.28672 188
32.30683 135
32.32694 179
32.34706 156
32.36717 161
32.38729 168
32.4074 155
32.42751 173
32.44763 162
32.46774 136
32.48785 154
32.50797 144
32.52808 127
32.5482 147
32.56831 167
32.58842 124
32.60854 153
32.62865 142
32.64876 146
32.66888 144
32.68899 149
32.7091 152
32.72922 157
32.74933 145
32.76945 162
32.78956 146
32.80967 152
32.82979 147
32.8499 169
32.87001 188
32.89013 155
32.91024 177
32.93036 154
32.95047 147
32.97058 177
32.9907 126
33.01081 163
33.03092 152
33.05104 161
33.07115 137
33.09127 168
33.11138 142
33.13149 135
33.15161 130
33.17172 167
33.19183 155
33.21195 153
33.23206 135
33.25217 123
33.27229 139
33.2924 143
33.31252 135
33.33263 147
33.35274 168
33.37286 153
33.39297 152
33.41308 136
33.4332 169
33.45331 152
33.47343 160
33.49354 148
33.51365 144
33.53377 145
33.55388 140
33.57399 141
33.59411 155
33.61422 126
33.63434 138
33.65445 149
33.67456 136
33.69468 152
33.71479 146
33.7349 161
33.75502 153
33.77513 139
33.79524 138
33.81536 152
33.83547 145
33.85559 132
33.8757 133
33.89581 126
33.91593 153
33.93604 139
33.95615 127
33.97627 142
33.99638 151
34.0165 146
34.03661 155
34.05672 141
34.07684 135
34.09695 138
34.11706 161
34.13718 160
34.15729 165
34.17741 177
34.19752 162
34.21763 148
34.23775 137
34.25786 143
34.27797 166
34.29809 140
34.3182 149
34.33831 132
34.35843 152
34.37854 167
34.39866 154
34.41877 166
34.43888 142
34.459 121
34.47911 170
34.49922 148
34.51934 149
34.53945 142
34.55957 145
34.57968 184
34.59979 164
34.61991 190
34.64002 188
34.66013 154
34.68025 165
34.70036 179
34.72047 169
34.74059 173
34.7607 188
34.78082 186
34.80093 182
34.82104 200
34.84116 192
34.86127 175
34.88138 177
34.9015 146
34.92161 192
34.94173 180
34.96184 176
34.98195 175
35.00207 178
35.02218 186
35.04229 191
35.06241 189
35.08252 188
35.10264 185
35.12275 192
35.14286 155
35.16298 157
35.18309 166
35.2032 168
35.22332 190
35.24343 174
35.26354 187
35.28366 170
35.30377 170
35.32389 179
35.344 162
35.36411 176
35.38423 158
35.40434 185
35.42445 211
35.44457 203
35.46468 152
35.4848 182
35.50491 191
35.52502 172
35.54514 171
35.56525 182
35.58536 192
35.60548 145
35.62559 212
35.64571 177
35.66582 157
35.68593 176
35.70605 169
35.72616 186
35.74627 161
35.76639 155
35.7865 176
35.80661 169
35.82673 172
35.84684 181
35.86696 188
35.88707 187
35.90718 175
35.9273 181
35.94741 195
35.96752 182
35.98764 185
36.00775 206
36.02787 173
36.04798 191
36.06809 216
36.08821 187
36.10832 198
36.12843 212
36.14855 217
36.16866 228
36.18878 238
36.20889 259
36.229 246
36.24912 283
36.26923 327
36.28934 327
36.30946 358
36.32957 446
36.34968 483
36.3698 546
36.38991 706
36.41003 867
36.43014 1101
36.45025 1494
36.47037 1845
36.49048 2299
36.51059 2775
36.53071 3184
36.55082 3084
36.57094 2503
36.59105 1965
36.61116 1719
36.63128 1604
36.65139 1317
36.6715 970
36.69162 549
36.71173 382
36.73184 308
36.75196 286
36.77207 220
36.79219 212
36.8123 222
36.83241 190
36.85253 183
36.87264 211
36.89275 216
36.91287 189
36.93298 206
36.9531 168
36.97321 190
36.99332 185
37.01344 185
37.03355 189
37.05366 180
37.07378 176
37.09389 170
37.11401 178
37.13412 191
37.15423 167
37.17435 193
37.19446 154
37.21457 180
37.23469 182
37.2548 138
37.27491 141
37.29503 191
37.31514 141
37.33526 162
37.35537 145
37.37548 171
37.3956 176
37.41571 159
37.43582 161
37.45594 149
37.47605 169
37.49617 165
37.51628 158
37.53639 143
37.55651 154
37.57662 156
37.59673 149
37.61685 152
37.63696 188
37.65708 172
37.67719 182
37.6973 167
37.71742 169
37.73753 163
37.75764 160
37.77776 168
37.79787 146
37.81798 148
37.8381 181
37.85821 149
37.87833 147
37.89844 156
37.91855 180
37.93867 154
37.95878 169
37.97889 165
37.99901 138
38.01912 153
38.03924 181
38.05935 153
38.07946 164
38.09958 152
38.11969 164
38.1398 146
38.15992 179
38.18003 150
38.20015 161
38.22026 164
38.24037 176
38.26049 170
38.2806 178
38.30071 156
38.32083 177
38.34094 171
38.36105 162
38.38117 180
38.40128 175
38.4214 159
38.44151 156
38.46162 151
38.48174 142
38.50185 146
38.52196 164
38.54208 180
38.56219 181
38.58231 174
38.60242 153
38.62253 162
38.64265 176
38.66276 171
38.68287 169
38.70299 179
38.7231 155
38.74321 166
38.76333 176
38.78344 140
38.80356 172
38.82367 175
38.84378 173
38.8639 167
38.88401 177
38.90412 178
38.92424 212
38.94435 177
38.96447 185
38.98458 175
39.00469 186
39.02481 173
39.04492 190
39.06503 197
39.08515 186
39.10526 239
39.12538 213
39.14549 270
39.1656 254
39.18572 312
39.20583 299
39.22594 350
39.24606 383
39.26617 470
39.28628 531
39.3064 659
39.32651 797
39.34663 969
39.36674 1246
39.38685 1596
39.40697 2004
39.42708 2434
39.44719 2708
39.46731 2880
39.48742 2526
39.50754 1899
39.52765 1582
39.54776 1504
39.56788 1434
39.58799 1181
39.6081 789
39.62822 531
39.64833 349
39.66845 297
39.68856 271
39.70867 236
39.72879 256
39.7489 210
39.76901 229
39.78913 236
39.80924 240
39.82935 215
39.84947 202
39.86958 201
39.8897 230
39.90981 185
39.92992 208
39.95004 236
39.97015 221
39.99026 237
40.01038 259
40.03049 252
40.05061 272
40.07072 296
40.09083 301
40.11095 368
40.13106 440
40.15117 484
40.17129 624
40.1914 705
40.21152 898
40.23163 1057
40.25174 1293
40.27186 1401
40.29197 1434
40.31208 1303
40.3322 1051
40.35231 818
40.37242 757
40.39254 675
40.41265 696
40.43277 487
40.45288 345
40.47299 207
40.49311 244
40.51322 198
40.53333 213
40.55345 190
40.57356 212
40.59368 171
40.61379 176
40.6339 169
40.65402 174
40.67413 180
40.69424 167
40.71436 155
40.73447 154
40.75458 161
40.7747 206
40.79481 158
40.81493 168
40.83504 191
40.85515 164
40.87527 140
40.89538 164
40.91549 147
40.93561 145
40.95572 155
40.97584 151
40.99595 204
41.01606 151
41.03618 169
41.05629 183
41.0764 157
41.09652 169
41.11663 176
41.13675 153
41.15686 176
41.17697 163
41.19709 150
41.2172 158
41.23731 142
41.25743 155
41.27754 182
41.29765 168
41.31777 161
41.33788 158
41.358 155
41.37811 165
41.39822 142
41.41834 173
41.43845 164
41.45856 160
41.47868 149
41.49879 132
41.51891 171
41.53902 162
41.55913 170
41.57925 185
41.59936 145
41.61947 165
41.63959 178
41.6597 160
41.67982 179
41.69993 199
41.72004 152
41.74016 159
41.76027 155
41.78038 158
41.8005 183
41.82061 180
41.84072 163
41.86084 168
41.88095 159
41.90107 174
41.92118 171
41.94129 186
41.96141 154
41.98152 204
42.00163 176
42.02175 159
42.04186 167
42.06198 220
42.08209 213
42.1022 196
42.12232 221
42.14243 243
42.16254 268
42.18266 265
42.20277 303
42.22289 306
42.243 393
42.26311 450
42.28323 516
42.30334 589
42.32345 736
42.34357 894
42.36368 1132
42.38379 1417
42.40391 1671
42.42402 1983
42.44414 2040
42.46425 1807
42.48436 1535
42.50448 1147
42.52459 1115
42.5447 1044
42.56482 952
42.58493 789
42.60505 516
42.62516 359
42.64527 299
42.66539 239
42.6855 224
42.70561 205
42.72573 185
42.74584 212
42.76595 199
42.78607 169
42.80618 175
42.8263 181
42.84641 159
42.86652 169
42.88664 154
42.90675 167
42.92686 155
42.94698 164
42.96709 148
42.98721 140
43.00732 164
43.02743 151
43.04755 169
43.06766 150
43.08777 144
43.10789 127
43.128 141
43.14812 170
43.16823 142
43.18834 147
43.20846 160
43.22857 144
43.24868 145
43.2688 158
43.28891 150
43.30902 139
43.32914 140
43.34925 137
43.36937 159
43.38948 158
43.40959 147
43.42971 132
43.44982 141
43.46993 165
43.49005 136
43.51016 154
43.53028 137
43.55039 136
43.5705 147
43.59062 136
43.61073 159
43.63084 138
43.65096 168
43.67107 140
43.69119 144
43.7113 139
43.73141 137
43.75153 134
43.77164 131
43.79175 132
43.81187 128
43.83198 138
43.85209 143
43.87221 119
43.89232 140
43.91244 139
43.93255 157
43.95266 170
43.97278 146
43.99289 150
44.013 121
44.03312 159
44.05323 168
44.07335 164
44.09346 148
44.11357 135
44.13369 153
44.1538 141
44.17391 152
44.19403 132
44.21414 153
44.23426 154
44.25437 141
44.27448 150
44.2946 156
44.31471 150
44.33482 153
44.35494 140
44.37505 140
44.39516 133
44.41528 149
44.43539 160
44.45551 149
44.47562 162
44.49573 137
44.51585 135
44.53596 122
44.55607 145
44.57619 155
44.5963 136
44.61642 153
44.63653 134
44.65664 143
44.67676 141
44.69687 129
44.71698 144
44.7371 142
44.75721 138
44.77732 139
44.79744 150
44.81755 138
44.83767 149
44.85778 156
44.87789 138
44.89801 149
44.91812 140
44.93823 141
44.95835 146
44.97846 149
44.99858 138
45.01869 163
45.0388 157
45.05892 154
45.07903 149
45.09914 152
45.11926 136
45.13937 140
45.15949 144
45.1796 176
45.19971 150
45.21983 142
45.23994 160
45.26005 151
45.28017 154
45.30028 159
45.32039 143
45.34051 169
45.36062 162
45.38074 162
45.40085 185
45.42096 172
45.44108 186
45.46119 181
45.4813 213
45.50142 204
45.52153 245
45.54165 203
45.56176 287
45.58187 295
45.60199 357
45.6221 367
45.64221 483
45.66233 570
45.68244 659
45.70256 787
45.72267 933
45.74278 1122
45.7629 1257
45.78301 1347
45.80312 1260
45.82324 1002
45.84335 808
45.86346 687
45.88358 745
45.90369 689
45.92381 606
45.94392 487
45.96403 336
45.98415 237
46.00426 166
46.02437 215
46.04449 190
46.0646 158
46.08472 179
46.10483 156
46.12494 167
46.14506 159
46.16517 164
46.18528 139
46.2054 131
46.22551 156
46.24563 145
46.26574 146
46.28585 128
46.30597 117
46.32608 144
46.34619 140
46.36631 163
46.38642 144
46.40653 130
46.42665 134
46.44676 156
46.46688 136
46.48699 139
46.5071 128
46.52722 130
46.54733 132
46.56744 149
46.58756 127
46.60767 141
46.62779 144
46.6479 141
46.66801 133
46.68813 124
46.70824 136
46.72835 137
46.74847 132
46.76858 133
46.78869 142
46.80881 144
46.82892 134
46.84904 152
46.86915 124
46.88926 135
46.90938 136
46.92949 129
46.9496 123
46.96972 135
46.98983 129
47.00995 130
47.03006 134
47.05017 124
47.07029 138
47.0904 142
47.11051 135
47.13063 139
47.15074 156
47.17086 152
47.19097 138
47.21108 138
47.2312 148
47.25131 138
47.27142 145
47.29154 135
47.31165 138
47.33176 130
47.35188 127
47.37199 127
47.39211 136
47.41222 130
47.43233 146
47.45245 142
47.47256 121
47.49267 132
47.51279 139
47.5329 141
47.55302 115
47.57313 127
47.59324 120
47.61336 148
47.63347 111
47.65358 143
47.6737 130
47.69381 129
47.71393 133
47.73404 130
47.75415 145
47.77427 127
47.79438 126
47.81449 131
47.83461 137
47.85472 134
47.87483 123
47.89495 127
47.91506 141
47.93518 157
47.95529 128
47.9754 146
47.99552 111
48.01563 137
48.03574 134
48.05586 141
48.07597 123
48.09609 133
48.1162 146
48.13631 129
48.15643 120
48.17654 110
48.19665 126
48.21677 152
48.23688 130
48.257 121
48.27711 144
48.29722 125
48.31734 145
48.33745 142
48.35756 148
48.37768 138
48.39779 135
48.4179 126
48.43802 128
48.45813 144
48.47825 139
48.49836 136
48.51847 167
48.53859 148
48.5587 150
48.57881 162
48.59893 161
48.61904 145
48.63916 135
48.65927 141
48.67938 155
48.6995 139
48.71961 138
48.73972 134
48.75984 135
48.77995 147
48.80006 155
48.82018 146
48.84029 171
48.86041 126
48.88052 125
48.90063 145
48.92075 144
48.94086 137
48.96097 131
48.98109 152
49.0012 166
49.02132 140
49.04143 151
49.06154 145
49.08166 162
49.10177 160
49.12188 153
49.142 153
49.16211 154
49.18223 155
49.20234 159
49.22245 143
49.24257 157
49.26268 161
49.28279 170
49.30291 170
49.32302 158
49.34313 164
49.36325 164
49.38336 177
49.40348 162
49.42359 147
49.4437 164
49.46382 171
49.48393 180
49.50404 162
49.52416 174
49.54427 193
49.56439 198
49.5845 169
49.60461 193
49.62473 193
49.64484 196
49.66495 203
49.68507 206
49.70518 238
49.7253 275
49.74541 276
49.76552 302
49.78564 340
49.80575 350
49.82586 398
49.84598 444
49.86609 509
49.8862 612
49.90632 661
49.92643 738
49.94655 930
49.96666 1120
49.98677 1387
50.00689 1697
50.027 2134
50.04711 2570
50.06723 3090
50.08734 3752
50.10746 4181
50.12757 4487
50.14768 4194
50.1678 3357
50.18791 2513
50.20802 2107
50.22814 2160
50.24825 2235
50.26837 2116
50.28848 1789
50.30859 1135
50.32871 636
50.34882 510
50.36893 393
50.38905 332
50.40916 329
50.42927 298
50.44939 264
50.4695 241
50.48962 266
50.50973 237
50.52984 245
50.54996 245
50.57007 298
50.59018 273
50.6103 252
50.63041 276
50.65053 236
50.67064 212
50.69075 196
50.71087 201
50.73098 198
50.75109 186
50.77121 180
50.79132 182
50.81143 172
50.83155 176
50.85166 158
50.87178 156
50.89189 178
50.912 150
50.93212 181
50.95223 171
50.97234 150
50.99246 159
51.01257 151
51.03269 128
51.0528 140
51.07291 158
51.09303 131
51.11314 148
51.13325 146
51.15337 138
51.17348 148
51.1936 120
51.21371 143
51.23382 143
51.25394 131
51.27405 136
51.29416 118
51.31428 136
51.33439 115
51.3545 107
51.37462 138
51.39473 127
51.41485 127
51.43496 128
51.45507 131
51.47519 149
51.4953 119
51.51541 112
51.53553 133
51.55564 127
51.57576 133
51.59587 101
51.61598 156
51.6361 116
51.65621 147
51.67632 138
51.69644 133
51.71655 139
51.73667 133
51.75678 133
51.77689 123
51.79701 123
51.81712 140
51.83723 113
51.85735 129
51.87746 126
51.89757 131
51.91769 117
51.9378 132
51.95792 130
51.97803 132
51.99814 115
52.01826 138
52.03837 128
52.05848 124
52.0786 131
52.09871 146
52.11883 131
52.13894 124
52.15905 129
52.17917 125
52.19928 124
52.21939 125
52.23951 134
52.25962 140
52.27974 128
52.29985 125
52.31996 120
52.34008 127
52.36019 108
52.3803 137
52.40042 128
52.42053 124
52.44064 132
52.46076 129
52.48087 129
52.50099 131
52.5211 127
52.54121 143
52.56133 133
52.58144 114
52.60155 135
52.62167 133
52.64178 129
52.6619 135
52.68201 143
52.70212 119
52.72224 135
52.74235 122
52.76246 134
52.78258 136
52.80269 147
52.8228 136
52.84292 123
52.86303 135
52.88315 138
52.90326 135
52.92337 133
52.94349 121
52.9636 121
52.98371 128
53.00383 125
53.02394 117
53.04406 121
53.06417 119
53.08428 129
53.1044 122
53.12451 134
53.14462 134
53.16474 125
53.18485 130
53.20497 124
53.22508 142
53.24519 125
53.26531 137
53.28542 136
53.30553 128
53.32565 156
53.34576 129
53.36587 128
53.38599 111
53.4061 125
53.42622 127
53.44633 134
53.46644 150
53.48656 135
53.50667 135
53.52678 133
53.5469 148
53.56701 142
53.58713 130
53.60724 131
53.62735 131
53.64747 133
53.66758 127
53.68769 164
53.70781 155
53.72792 129
53.74804 132
53.76815 153
53.78826 144
53.80838 143
53.82849 147
53.8486 134
53.86872 137
53.88883 149
53.90894 138
53.92906 138
53.94917 144
53.96929 140
53.9894 150
54.00951 155
54.02963 141
54.04974 142
54.06985 141
54.08997 146
54.11008 148
54.1302 125
54.15031 127
54.17042 129
54.19054 136
54.21065 171
54.23076 128
54.25088 157
54.27099 155
54.29111 146
54.31122 161
54.33133 156
54.35145 180
54.37156 162
54.39167 126
54.41179 143
54.4319 172
54.45201 169
54.47213 161
54.49224 169
54.51236 219
54.53247 211
54.55258 218
54.5727 220
54.59281 267
54.61292 279
54.63304 307
54.65315 336
54.67327 363
54.69338 420
54.71349 482
54.73361 567
54.75372 722
54.77383 790
54.79395 933
54.81406 1194
54.83417 1297
54.85429 1403
54.8744 1290
54.89452 1148
54.91463 924
54.93474 710
54.95486 690
54.97497 749
54.99508 762
55.0152 795
55.03531 617
55.05543 494
55.07554 348
55.09565 297
55.11577 297
55.13588 308
55.15599 301
55.17611 331
55.19622 379
55.21634 417
55.23645 444
55.25656 546
55.27668 573
55.29679 665
55.3169 672
55.33702 603
55.35713 482
55.37724 357
55.39736 347
55.41747 352
55.43759 377
55.4577 435
55.47781 386
55.49793 319
55.51804 249
55.53815 186
55.55827 178
55.57838 163
55.5985 148
55.61861 145
55.63872 156
55.65884 135
55.67895 133
55.69906 126
55.71918 162
55.73929 149
55.75941 151
55.77952 136
55.79963 125
55.81975 118
55.83986 129
55.85997 128
55.88009 127
55.9002 138
55.92031 132
55.94043 130
55.96054 139
55.98066 152
56.00077 131
56.02088 123
56.041 135
56.06111 118
56.08122 144
56.10134 154
56.12145 166
56.14157 138
56.16168 146
56.18179 123
56.20191 104
56.22202 115
56.24213 141
56.26225 152
56.28236 138
56.30248 137
56.32259 132
56.3427 106
56.36282 130
56.38293 136
56.40304 134
56.42316 118
56.44327 123
56.46338 113
56.4835 107
56.50361 104
56.52373 136
56.54384 132
56.56395 145
56.58407 126
56.60418 120
56.62429 122
56.64441 125
56.66452 141
56.68464 125
56.70475 128
56.72486 104
56.74498 111
56.76509 128
56.7852 119
56.80532 146
56.82543 124
56.84554 116
56.86566 129
56.88577 150
56.90589 121
56.926 125
56.94611 135
56.96623 134
56.98634 135
57.00645 116
57.02657 146
57.04668 141
57.0668 163
57.08691 162
57.10702 164
57.12714 157
57.14725 180
57.16736 189
57.18748 192
57.20759 212
57.22771 202
57.24782 189
57.26793 153
57.28805 143
57.30816 157
57.32827 170
57.34839 185
57.3685 181
57.38861 168
57.40873 140
57.42884 138
57.44896 133
57.46907 123
57.48918 112
57.5093 124
57.52941 138
57.54952 118
57.56964 122
57.58975 131
57.60987 136
57.62998 144
57.65009 135
57.67021 104
57.69032 140
57.71043 134
57.73055 163
57.75066 141
57.77078 123
57.79089 132
57.811 132
57.83112 128
57.85123 132
57.87134 122
57.89146 130
57.91157 141
57.93168 116
57.9518 120
57.97191 148
57.99203 157
58.01214 137
58.03225 116
58.05237 133
58.07248 135
58.09259 108
58.11271 116
58.13282 124
58.15294 131
58.17305 132
58.19316 122
58.21328 143
58.23339 115
58.2535 142
58.27362 108
58.29373 129
58.31385 111
58.33396 122
58.35407 129
58.37419 130
58.3943 115
58.41441 123
58.43453 142
58.45464 126
58.47475 139
58.49487 136
58.51498 143
58.5351 147
58.55521 138
58.57532 124
58.59544 120
58.61555 139
58.63566 124
58.65578 134
58.67589 113
58.69601 124
58.71612 130
58.73623 124
58.75635 127
58.77646 114
58.79657 130
58.81669 122
58.8368 135
58.85691 131
58.87703 123
58.89714 125
58.91726 135
58.93737 141
58.95748 139
58.9776 150
58.99771 144
59.01782 140
59.03794 121
59.05805 132
59.07817 141
59.09828 138
59.11839 142
59.13851 160
59.15862 160
59.17873 146
59.19885 143
59.21896 144
59.23908 135
59.25919 156
59.2793 162
59.29942 157
59.31953 161
59.33964 157
59.35976 157
59.37987 167
59.39998 185
59.4201 173
59.44021 194
59.46033 180
59.48044 181
59.50055 226
59.52067 230
59.54078 233
59.56089 265
59.58101 282
59.60112 314
59.62124 335
59.64135 352
59.66146 390
59.68158 430
59.70169 489
59.7218 548
59.74192 649
59.76203 740
59.78215 863
59.80226 1033
59.82237 1352
59.84249 1539
59.8626 1811
59.88271 2209
59.90283 2533
59.92294 2839
59.94305 2758
59.96317 2578
59.98328 1981
60.0034 1545
60.02351 1276
60.04362 1337
60.06374 1315
60.08385 1405
60.10396 1379
60.12408 1258
60.14419 974
60.16431 655
60.18442 448
60.20453 374
60.22465 275
60.24476 254
60.26487 254
60.28499 207
60.3051 208
60.32522 201
60.34533 176
60.36544 182
60.38556 206
60.40567 173
60.42578 162
60.4459 162
60.46601 169
60.48612 150
60.50624 144
60.52635 151
60.54647 152
60.56658 156
60.58669 116
60.60681 139
60.62692 167
60.64703 137
60.66715 147
60.68726 144
60.70738 128
60.72749 157
60.7476 164
60.76772 137
60.78783 140
60.80794 158
60.82806 122
60.84817 143
60.86828 160
60.8884 144
60.90851 135
60.92863 138
60.94874 174
60.96885 137
60.98897 127
61.00908 139
61.02919 134
61.04931 142
61.06942 145
61.08954 145
61.10965 150
61.12976 129
61.14988 135
61.16999 157
61.1901 128
61.21022 137
61.23033 163
61.25045 142
61.27056 123
61.29067 138
61.31079 124
61.3309 144
61.35101 136
61.37113 150
61.39124 126
61.41135 136
61.43147 128
61.45158 144
61.4717 129
61.49181 127
61.51192 147
61.53204 129
61.55215 123
61.57226 138
61.59238 113
61.61249 136
61.63261 150
61.65272 161
61.67283 133
61.69295 139
61.71306 166
61.73317 131
61.75329 144
61.7734 149
61.79352 115
61.81363 141
61.83374 141
61.85386 150
61.87397 150
61.89408 150
61.9142 121
61.93431 123
61.95442 149
61.97454 135
61.99465 136
62.01477 128
62.03488 145
62.05499 138
62.07511 137
62.09522 138
62.11533 122
62.13545 128
62.15556 148
62.17568 151
62.19579 120
62.2159 139
62.23602 137
62.25613 108
62.27624 125
62.29636 119
62.31647 142
62.33659 125
62.3567 120
62.37681 135
62.39693 119
62.41704 125
62.43715 133
62.45727 127
62.47738 142
62.49749 138
62.51761 127
62.53772 125
62.55784 118
62.57795 103
62.59806 120
62.61818 113
62.63829 105
62.6584 122
62.67852 133
62.69863 125
62.71875 132
62.73886 140
62.75897 101
62.77909 118
62.7992 120
62.81931 128
62.83943 96
62.85954 126
62.87965 144
62.89977 111
62.91988 130
62.94 125
62.96011 135
62.98022 108
63.00034 113
63.02045 111
63.04056 139
63.06068 120
63.08079 121
63.10091 122
63.12102 142
63.14113 136
63.16125 126
63.18136 125
63.20147 127
63.22159 119
63.2417 125
63.26182 119
63.28193 111
63.30204 120
63.32216 125
63.34227 122
63.36238 100
63.3825 138
63.40261 148
63.42272 104
63.44284 108
63.46295 125
63.48307 126
63.50318 131
63.52329 126
63.54341 132
63.56352 129
63.58363 133
63.60375 132
63.62386 160
63.64398 140
63.66409 168
63.6842 150
63.70432 166
63.72443 175
63.74454 182
63.76466 166
63.78477 193
63.80489 208
63.825 227
63.84511 234
63.86523 282
63.88534 276
63.90545 346
63.92557 379
63.94568 461
63.96579 542
63.98591 562
64.00602 552
64.02614 594
64.04625 509
64.06636 421
64.08648 359
64.10659 326
64.1267 336
64.14682 366
64.16693 345
64.18705 333
64.20716 331
64.22727 276
64.24739 242
64.2675 195
64.28761 179
64.30773 140
64.32784 135
64.34796 125
64.36807 145
64.38818 124
64.4083 118
64.42841 140
64.44852 120
64.46864 123
64.48875 133
64.50886 108
64.52898 135
64.54909 103
64.56921 120
64.58932 124
64.60943 140
64.62955 128
64.64966 123
64.66977 137
64.68989 129
64.71 136
64.73012 116
64.75023 109
64.77034 126
64.79046 127
64.81057 109
64.83068 116
64.8508 120
64.87091 118
64.89102 118
64.91114 118
64.93125 132
64.95137 114
64.97148 126
64.99159 148
65.01171 122
65.03182 107
65.05193 116
65.07205 119
65.09216 134
65.11228 123
65.13239 131
65.1525 118
65.17262 158
65.19273 148
65.21284 128
65.23296 125
65.25307 132
65.27319 127
65.2933 134
65.31341 128
65.33353 124
65.35364 132
65.37375 122
65.39387 134
65.41398 135
65.43409 155
65.45421 133
65.47432 147
65.49444 152
65.51455 125
65.53466 147
65.55478 135
65.57489 156
65.595 156
65.61512 173
65.63523 155
65.65535 202
65.67546 210
65.69557 234
65.71569 254
65.7358 228
65.75591 228
65.77603 228
65.79614 245
65.81626 190
65.83637 190
65.85648 185
65.8766 182
65.89671 174
65.91682 193
65.93694 190
65.95705 190
65.97716 177
65.99728 160
66.01739 136
66.03751 136
66.05762 137
66.07773 140
66.09785 152
66.11796 133
66.13807 122
66.15819 127
66.1783 136
66.19842 141
66.21853 145
66.23864 129
66.25876 149
66.27887 126
66.29898 146
66.3191 126
66.33921 147
66.35933 147
66.37944 114
66.39955 125
66.41967 137
66.43978 140
66.45989 144
66.48001 129
66.50012 147
66.52023 127
66.54035 139
66.56046 115
66.58058 119
66.60069 140
66.6208 146
66.64092 108
66.66103 132
66.68114 147
66.70126 135
66.72137 145
66.74149 118
66.7616 144
66.78171 145
66.80183 132
66.82194 144
66.84205 126
66.86217 141
66.88228 140
66.90239 153
66.92251 131
66.94262 155
66.96274 158
66.98285 142
67.00296 147
67.02308 159
67.04319 143
67.0633 147
67.08342 140
67.10353 160
67.12365 159
67.14376 170
67.16387 145
67.18399 164
67.2041 178
67.22421 188
67.24433 169
67.26444 182
67.28456 180
67.30467 207
67.32478 226
67.3449 241
67.36501 233
67.38512 290
67.40524 275
67.42535 263
67.44546 349
67.46558 331
67.48569 372
67.50581 434
67.52592 478
67.54603 546
67.56615 653
67.58626 769
67.60637 848
67.62649 1013
67.6466 1238
67.66672 1393
67.68683 1529
67.70694 1657
67.72706 1763
67.74717 1562
67.76728 1252
67.7874 1064
67.80751 895
67.82763 931
67.84774 977
67.86785 1009
67.88797 1176
67.90808 1194
67.92819 1277
67.94831 1225
67.96842 1102
67.98853 1128
68.00865 1280
68.02876 1413
68.04888 1611
68.06899 1791
68.0891 2001
68.10922 2243
68.12933 2347
68.14944 2150
68.16956 1935
68.18967 1570
68.20979 1534
68.2299 1696
68.25001 1794
68.27013 2002
68.29024 2101
68.31035 2039
68.33047 1822
68.35058 1420
68.3707 1104
68.39081 826
68.41092 786
68.43104 743
68.45115 709
68.47126 801
68.49138 715
68.51149 618
68.5316 514
68.55172 359
68.57183 329
68.59195 283
68.61206 236
68.63217 207
68.65229 199
68.6724 170
68.69251 188
68.71263 176
68.73274 174
68.75286 145
68.77297 161
68.79308 183
68.8132 169
68.83331 147
68.85342 152
68.87354 144
68.89365 143
68.91376 147
68.93388 161
68.95399 144
68.97411 164
68.99422 127
69.01433 128
69.03445 145
69.05456 131
69.07467 130
69.09479 163
69.1149 146
69.13502 141
69.15513 129
69.17524 143
69.19536 142
69.21547 122
69.23558 148
69.2557 155
69.27581 153
69.29593 139
69.31604 129
69.33615 126
69.35627 138
69.37638 122
69.39649 141
69.41661 120
69.43672 128
69.45683 137
69.47695 123
69.49706 129
69.51718 135
69.53729 143
69.5574 122
69.57752 108
69.59763 129
69.61774 122
69.63786 143
69.65797 135
69.67809 121
69.6982 122
69.71831 116
69.73843 125
69.75854 134
69.77865 121
69.79877 120
69.81888 112
69.839 123
69.85911 133
69.87922 112
69.89934 114
69.91945 113
69.93956 123
69.95968 123
69.97979 112
69.9999 119
70.02002 124
70.04013 106
70.06025 114
70.08036 115
70.10047 113
70.12059 125
70.1407 111
70.16081 124
70.18093 109
70.20104 95
70.22116 106
70.24127 113
70.26138 118
70.2815 130
70.30161 135
70.32172 127
70.34184 127
70.36195 122
70.38207 111
70.40218 130
70.42229 141
70.44241 134
70.46252 121
70.48263 126
70.50275 120
70.52286 114
70.54297 125
70.56309 133
70.5832 119
70.60332 117
70.62343 136
70.64354 102
70.66366 127
70.68377 123
70.70388 103
70.724 124
70.74411 119
70.76423 108
70.78434 124
70.80445 121
70.82457 104
70.84468 144
70.86479 122
70.88491 119
70.90502 115
70.92513 124
70.94525 127
70.96536 148
70.98548 118
71.00559 120
71.0257 135
71.04582 141
71.06593 120
71.08604 124
71.10616 137
71.12627 122
71.14639 110
71.1665 109
71.18661 106
71.20673 115
71.22684 114
71.24695 121
71.26707 126
71.28718 125
71.3073 105
71.32741 113
71.34752 104
71.36764 116
71.38775 105
71.40786 132
71.42798 105
71.44809 113
71.4682 119
71.48832 127
71.50843 110
71.52855 110
71.54866 123
71.56877 105
71.58889 128
71.609 117
71.62911 132
71.64923 118
71.66934 117
71.68946 120
71.70957 120
71.72968 114
71.7498 129
71.76991 127
71.79002 129
71.81014 100
71.83025 107
71.85037 99
71.87048 117
71.89059 126
71.91071 129
71.93082 120
71.95093 126
71.97105 104
71.99116 112
72.01127 135
72.03139 123
72.0515 109
72.07162 134
72.09173 104
72.11184 112
72.13196 126
72.15207 120
72.17218 129
72.1923 132
72.21241 117
72.23253 103
72.25264 149
72.27275 128
72.29287 124
72.31298 111
72.33309 112
72.35321 131
72.37332 116
72.39344 132
72.41355 153
72.43366 103
72.45378 116
72.47389 122
72.494 124
72.51412 133
72.53423 130
72.55434 113
72.57446 110
72.59457 115
72.61469 123
72.6348 116
72.65491 132
72.67503 124
72.69514 113
72.71525 119
72.73537 128
72.75548 118
72.7756 135
72.79571 129
72.81582 139
72.83594 118
72.85605 133
72.87616 121
72.89628 140
72.91639 128
72.9365 145
72.95662 119
72.97673 149
72.99685 149
73.01696 137
73.03707 164
73.05719 157
73.0773 165
73.09741 150
73.11753 169
73.13764 169
73.15776 149
73.17787 194
73.19798 193
73.2181 204
73.23821 233
73.25832 253
73.27844 276
73.29855 279
73.31867 363
73.33878 409
73.35889 462
73.37901 498
73.39912 589
73.41923 617
73.43935 680
73.45946 673
73.47957 543
73.49969 457
73.5198 393
73.53992 335
73.56003 325
73.58014 302
73.60026 334
73.62037 369
73.64048 349
73.6606 373
73.68071 357
73.70083 318
73.72094 242
73.74105 208
73.76117 173
73.78128 182
73.80139 157
73.82151 148
73.84162 151
73.86174 129
73.88185 133
73.90196 134
73.92208 136
73.94219 114
73.9623 104
73.98242 115
74.00253 127
74.02264 135
74.04276 109
74.06287 99
74.08299 109
74.1031 115
74.12321 113
74.14333 119
74.16344 115
74.18355 126
74.20367 108
74.22378 115
74.2439 105
74.26401 121
74.28412 134
74.30424 127
74.32435 119
74.34446 117
74.36458 123
74.38469 122
74.40481 116
74.42492 124
74.44503 119
74.46515 123
74.48526 142
74.50537 111
74.52549 107
74.5456 123
74.56571 135
74.58583 111
74.60594 130
74.62606 99
74.64617 111
74.66628 125
74.6864 108
74.70651 110
74.72662 140
74.74674 117
74.76685 133
74.78697 136
74.80708 112
74.82719 113
74.84731 124
74.86742 112
74.88753 110
74.90765 134
74.92776 118
74.94787 135
74.96799 124
74.9881 121
75.00822 126
