3.00117 21405.1397279998
3.02128 21614.5250399965
3.0414 20553
3.06151 20009.8995838544
3.08162 19610.0060521428
3.10174 18536.5585144595
3.12185 18927.405343466
3.14197 17865.7018370374
3.16208 17360.9748453492
3.18219 17306.3169833184
3.20231 16398.8207369377
3.22242 16516.7148066162
3.24253 15641.8590448773
3.26265 15303.2738383824
3.28276 14786.2628936112
3.30288 14210.4427328837
3.32299 13855.1872242768
3.3431 13451
3.36322 13160.6029448997
3.38333 12588.0087167706
3.40344 12157.0891344875
3.42356 12292.8031228586
3.44367 11380.1385497346
3.46379 11113.0420713882
3.4839 10884
3.50401 10486.87374199
3.52413 10251.259348961
3.54424 9596.13800468173
3.56435 9537.77883854088
3.58447 9425.64977096347
3.60458 8880.31764090407
3.62469 8747.16070974675
3.64481 8201.79011744406
3.66492 8084.02255861107
3.68504 7913.94381613087
3.70515 7322.54028126262
3.72526 7429.36737906151
3.74538 6811.60698676168
3.76549 6493.09121643357
3.7856 6305
3.80572 6169.91483945364
3.82583 6010.45533607146
3.84595 5538.13235446685
3.86606 5398.15005725987
3.88617 5276.20211383604
3.90629 5159.04970074972
3.9264 4986
3.94651 4593.87326232898
3.96663 4524.95749870604
3.98674 4383.47846900703
4.00686 4151.08560303833
4.02697 4180.26116661913
4.04708 3837.19635618851
4.0672 3912
4.08731 3871.83323193742
4.10742 3471.86208807159
4.12754 3504.58098187592
4.14765 3055.66256865566
4.16776 3141.62257649751
4.18788 3150.20631459446
4.20799 2923.00806178815
4.22811 3065.00812430077
4.24822 2852.74127686441
4.26833 2731.03325921285
4.28845 2782.90394527048
4.30856 2658.17136957151
4.32867 2605.22349821985
4.34879 2380.07362932964
4.3689 2371
4.38902 2361.93571555827
4.40913 2302.01757530085
4.42924 2335.88030069107
4.44936 2180.2697488473
4.46947 2130.02109923221
4.48958 2116.99713699299
4.5097 2126
4.52981 2040.90394063768
4.54992 1843.93609946131
4.57004 1920.1745831323
4.59015 1937.02009035891
4.61027 1921.07897332584
4.63038 1839.07361003455
4.65049 1786.02798150259
4.67061 1758.02787490245
4.69072 1837.98827265406
4.71083 1734.88293960764
4.73095 1688.69822061662
4.75106 1522.14722225545
4.77118 1584.89390481745
4.79129 1605.05159370702
4.8114 1463
4.83152 1521.08108155284
4.85163 1530.90314433268
4.87174 1417.73845900129
4.89186 1366.8033181256
4.91197 1499.03025651734
4.93209 1332.06033809164
4.9522 1331
4.97231 1324.04556114526
4.99243 1427.88525242339
5.01254 1231.87779510904
5.03265 1346.8034442034
5.05277 1273.19615213031
5.07288 1198.00003067574
5.09299 1232.99444911996
5.11311 1190.96740100998
5.13322 1152.00801878583
5.15334 1157.86921340187
5.17345 1059.94583781953
5.19356 1124.89313965427
5.21368 1108.04896216705
5.23379 1070.01079008368
5.2539 1063
5.27402 1068.01198509469
5.29413 1055.8952413039
5.31425 959.861774300869
5.33436 970.924957982764
5.35447 975.074651934326
5.37459 927.983208489119
5.3947 1005
5.41481 926.972138120445
5.43493 917.937739423297
5.45504 847.971206162235
5.47516 894.939649934002
5.49527 895.944965854823
5.51538 972.9444294556
5.5355 954
5.55561 877.000330370858
5.57572 903.933842938416
5.59584 794.032037629566
5.61595 922.85455491873
5.63606 853.145858676624
5.65618 841.011515212544
5.67629 801.018126601884
5.69641 806.026033031169
5.71652 872.039952338479
5.73663 861.932540252995
5.75675 817.946676429898
5.77686 830.92456537529
5.79697 854.033142047669
5.81709 823.984939382106
5.8372 873
5.85732 756.937255133837
5.87743 791.072944323059
5.89754 781.885107645224
5.91766 734.971500780801
5.93777 782.99414818372
5.95788 749.98470668832
5.978 817
5.99811 773.955965708958
6.01823 725.062647780884
6.03834 803.016130292656
6.05845 738.087236738719
6.07857 772.936992875137
6.09868 781.00477250656
6.11879 783.995016774611
6.13891 779.980936901609
6.15902 738.005210783255
6.17913 785.048697199805
6.19925 774.937719950536
6.21936 762.996761715762
6.23948 752.049989038926
6.25959 690.009693983826
6.2797 728
6.29982 744.960354580686
6.31993 699.024210534237
6.34004 757.022676250248
6.36016 729.938133616465
6.38027 810.960945766078
6.40039 755.029922246823
6.4205 744
6.44061 747.992583362211
6.46073 720.96582625266
6.48084 707.973290589037
6.50095 691.032821183124
6.52107 692.968149903066
6.54118 722.976428802396
6.56129 708.035328242519
6.58141 631.993822355702
6.60152 681.039699560998
6.62164 687.035199182813
6.64175 705.911575402309
6.66186 646.990754790378
6.68198 711.964935539867
6.70209 683.018631831133
6.7222 686
6.74232 720.002014446095
6.76243 678.901586473379
6.78255 631.994520673311
6.80266 660.95870621064
6.82277 650.040168181059
6.84289 632.000008729856
6.863 657
6.88311 693.997139257492
6.90323 648.926819890622
6.92334 624.990144027917
6.94346 639.91714017847
6.96357 670.039910665786
6.98368 613.015171393924
7.0038 643
7.02391 619.003714444045
7.04402 668.038638173531
7.06414 671.992132622917
7.08425 675.005038511833
7.10436 662.035561740332
7.12448 654.986559896316
7.14459 656.026981707533
7.16471 598.016259986979
7.18482 701.058469482191
7.20493 671.931060994734
7.22505 665.045230967559
7.24516 664.099972089086
7.26527 604.995759098504
7.28539 651.000346110292
7.3055 604
7.32562 651.012523136411
7.34573 607.946678894268
7.36584 641.20049117381
7.38596 713.104664999843
7.40607 589.070135973958
7.42618 642.970351074443
7.4463 614
7.46641 663.008984136532
7.48653 625.941146351706
7.50664 617.003776639637
7.52675 615.995315551615
7.54687 625.9738598512
7.56698 641.99401334083
7.58709 622.026615283008
7.60721 570.997569600471
7.62732 615.051943844599
7.64743 634.98199825174
7.66755 607.937476294366
7.68766 596.00832224509
7.70778 606.961155110365
7.72789 647.998061809282
7.748 617
7.76812 612.989207440708
7.78823 587.971343256433
7.80834 588.025429986346
7.82846 596.015766246208
7.84857 581.998758058373
7.86869 616.966458271194
7.8888 669
7.90891 609.975168219136
7.92903 590.963195779618
7.94914 568.044789353043
7.96925 636.821122702496
7.98937 661.047308609947
8.00948 599.058386892576
8.0296 575
8.04971 612.031946894196
8.06982 648.95692079564
8.08994 566.947753457688
8.11005 604.035069670797
8.13016 567.059621367826
8.15028 596.915643865581
8.17039 662.0121392492
8.1905 571
8.21062 582.043895241243
8.23073 610.008015942332
8.25085 616.090468436703
8.27096 654.037665062304
8.29107 578.111677048318
8.31119 554.989513620693
8.3313 587
8.35141 603.026633762646
8.37153 678.061989202435
8.39164 646.824406247041
8.41176 579.96446224776
8.43187 646.973881413411
8.45198 591.054070150477
8.4721 582
8.49221 582.004060065557
8.51232 585.974692764593
8.53244 565.084797668323
8.55255 632.018078343768
8.57266 569.003568669053
8.59278 630.989437482702
8.61289 561.032042740396
8.63301 572.034832156382
8.65312 643.030161944089
8.67323 619.929010124146
8.69335 582.950103077749
8.71346 576.007886320295
8.73357 575.977531747973
8.75369 598.993721378697
8.7738 608
8.79392 642.997391506884
8.81403 590.893584344505
8.83414 556.053680859592
8.85426 603.001579712182
8.87437 564.000231091237
8.89448 602.998941128257
8.9146 566
8.93471 599.990671828787
8.95483 551.041516697036
8.97494 654.139763879957
8.99505 630.17792936079
9.01517 567.0672821301
9.03528 546.997350693821
9.05539 570.97696743939
9.07551 598.984098797901
9.09562 538.985527166131
9.11573 592.103750180273
9.13585 608.866135636326
9.15596 544.990231377212
9.17608 608.965583776556
9.19619 590.004041366236
9.2163 608
9.23642 579.998681224405
9.25653 598.975517527057
9.27664 546.935562384329
9.29676 555.966315164133
9.31687 564.972055263572
9.33699 589.994981776066
9.3571 584
9.37721 588.997548314616
9.39733 568.965237748151
9.41744 555.998319912056
9.43755 567.941497455783
9.45767 583.018448807138
9.47778 556.009824135549
9.4979 569
9.51801 560.992992270491
9.53812 550.992662814735
9.55824 553.039083903075
9.57835 566.942416732069
9.59846 527.009773788896
9.61858 564.963178908233
9.63869 575.998064212929
9.6588 571
9.67892 522.975476554966
9.69903 544.078203391441
9.71915 586.010100105427
9.73926 562.02919635913
9.75937 579.945263233533
9.77949 612.989618972818
9.7996 607
9.81971 552.977897683597
9.83983 546.050656177456
9.85994 598.087323679972
9.88006 601.088425715928
9.90017 542.05103348198
9.92028 555.954316702481
9.9404 583
9.96051 531.994316509122
9.98062 546.964564542075
10.00074 491.061300019444
10.02085 590.891017127305
10.04097 553.03048950229
10.06108 588.968441069665
10.08119 587.002173756139
10.10131 589.994402715645
10.12142 561.974434814211
10.14153 554.009112351393
10.16165 555.958390732866
10.18176 533.998249939064
10.20187 553.989001746549
10.22199 551.988169654324
10.2421 592
10.26222 571.990449480145
10.28233 572.955272302232
10.30244 533.024509539696
10.32256 579.997042489258
10.34267 530.041049474555
10.36278 553.969912177214
10.3829 570
10.40301 608.012705480352
10.42313 604.964470397081
10.44324 581.983367250599
10.46335 572.102978881391
10.48347 515.039785770982
10.50358 539.948538896303
10.52369 582.988220794422
10.54381 583.992850972322
10.56392 556.955999202918
10.58403 529.0392531895
10.60415 591.102884118373
10.62426 583.059449565488
10.64438 565.996996320451
10.66449 574.004627477973
10.6846 555
10.70472 584.034181414466
10.72483 593.967502646148
10.74494 558.955356661727
10.76506 549.046192981293
10.78517 534.935128594742
10.80529 610.982657137253
10.8254 579
10.84551 561.009223161313
10.86563 580.974093540212
10.88574 552.047143504948
10.90585 605.013910709909
10.92597 542.046765056386
10.94608 563.992391591557
10.9662 552
10.98631 602.992929573319
11.00642 534.974917915936
11.02654 579.086329525018
11.04665 581.026011836612
11.06676 585.961852597419
11.08688 598.01524054345
11.10699 563.013311833269
11.1271 560
11.14722 555.972564491936
11.16733 521.981952320416
11.18745 538.055138874733
11.20756 549.985581658815
11.22767 564.955818933592
11.24779 588.005845406952
11.2679 561
11.28801 586.993420868769
11.30813 551.025975211711
11.32824 607.008058930243
11.34836 548.083874161573
11.36847 547.022464311902
11.38858 518.984603135768
11.4087 570
11.42881 549.995031184212
11.44892 580.047967661137
11.46904 605.970259878488
11.48915 579.971237313861
11.50927 616.001964670852
11.52938 563.056679326871
11.54949 550.98302597996
11.56961 590.000653757417
11.58972 563.999523180209
11.60983 592.010102234123
11.62995 561.91825297225
11.65006 561.931030735665
11.67017 612.92949503397
11.69029 620.024628915176
11.7104 553
11.73052 587.066375868542
11.75063 634.007648282209
11.77074 594.873445514995
11.79086 546.028337369734
11.81097 554.998259162138
11.83108 544.993378920263
11.8512 579
11.87131 609.004425893066
11.89143 598.970539171961
11.91154 593.044031602049
11.93165 621.007184967334
11.95177 586.047205951882
11.97188 593.951944980995
11.99199 639.001357586186
12.01211 596.985967894525
12.03222 606.016620777651
12.05234 612.012653038557
12.07245 612.947353118983
12.09256 581.02882937728
12.11268 590.9866941469
12.13279 604.983602649764
12.1529 627
12.17302 560.984284449164
12.19313 608.065447849836
12.21324 621.040199197112
12.23336 641.051214740909
12.25347 592.006511913427
12.27359 641.977250132929
12.2937 639
12.31381 606.999845278854
12.33393 629.013247218735
12.35404 613.971339275349
12.37415 621.931407394285
12.39427 635.049152291645
12.41438 571.048246165571
12.4345 561
12.45461 567.008674409946
12.47472 591.015449910626
12.49484 594.00276942094
12.51495 599.985488527417
12.53506 579.138571018606
12.55518 524.952158101236
12.57529 621.997108329657
12.5954 534
12.61552 566.002387207774
12.63563 515.970286213857
12.65575 568.208330048361
12.67586 606.090124726376
12.69597 522.061211840393
12.71609 550.978184179176
12.7362 564
12.75631 547.990619449979
12.77643 539.013366328355
12.79654 555.008214717342
12.81666 538.056247001105
12.83677 512.029686575476
12.85688 507.98234799612
12.877 533
12.89711 540.015444044525
12.91722 580.005027556859
12.93734 536.879573655534
12.95745 495.043496246207
12.97757 498.974700338911
12.99768 516.984490520762
13.01779 524.002127002193
13.03791 511.993308528342
13.05802 520.045916083081
13.07813 567.995421708143
13.09825 526.967142774924
13.11836 557.948543299731
13.13847 547.045200582467
13.15859 533.988372289953
13.1787 571
13.19882 549.989942427726
13.21893 575.065596885457
13.23904 578.843037363225
13.25916 474.060913086804
13.27927 529.917560319823
13.29938 531.019067673375
13.3195 524
13.33961 531.002572239776
13.35973 525.972816304247
13.37984 515.03918264621
13.39995 552.949848347887
13.42007 530.082823712572
13.44018 484.00497625094
13.46029 526.967044217749
13.48041 552.973586407161
13.50052 472.984123766434
13.52064 527.078156460394
13.54075 519.99843979077
13.56086 539.001660657995
13.58098 516.008006645392
13.60109 529.99703951851
13.6212 515
13.64132 518.032868094805
13.66143 558.023389724334
13.68154 537.928353108629
13.70166 511.024618643158
13.72177 520.948067796792
13.74189 554.997503297166
13.762 530
13.78211 522.003579955383
13.80223 534.016452586014
13.82234 530.951481455074
13.84245 496.067513976282
13.86257 498.944447363292
13.88268 532.013875709274
13.9028 488
13.92291 514.008241585453
13.94302 507.004783433864
13.96314 524.994536749788
13.98325 498.051322709348
14.00336 496.003147668752
14.02348 508.940368487395
14.04359 571.006637589769
14.06371 505.992406314598
14.08382 564.053422534997
14.10393 539.853955770036
14.12405 459.056425730517
14.14416 553.902750370239
14.16427 516.071207248853
14.18439 517.983142270638
14.2045 539
14.22461 500.995507695214
14.24473 533.05549447373
14.26484 546.996304653762
14.28496 541.011431791657
14.30507 532.029967484987
14.32518 519.977015504484
14.3453 548
14.36541 490.9940569419
14.38552 525.003441020218
14.40564 490.995919079099
14.42575 534.914313169095
14.44587 521.068421912448
14.46598 489.985967646719
14.48609 537.980009950994
14.50621 542.992138155665
14.52632 527.99309078073
14.54643 525.988972494192
14.56655 519.023631429823
14.58666 544.947916059278
14.60677 544.058765324607
14.62689 502.997213882864
14.647 546
14.66712 539.010931718145
14.68723 551.92727051178
14.70734 484.037072901277
14.72746 561.992340432619
14.74757 479.073756114606
14.76768 516.941934519812
14.7878 529
14.80791 485.992501289926
14.82803 500.011054913329
14.84814 494.018533859354
14.86825 520.954989191509
14.88837 512.041513460742
14.90848 494.98481666129
14.92859 525.995716918833
14.94871 500.98426954933
14.96882 487.000941846715
14.98894 502.061544269502
15.00905 531.018408511976
15.02916 516.036822406097
15.04928 518.9694980353
15.06939 535.023494625698
15.0895 475
15.10962 559.013291346248
15.12973 482.91573052684
15.14984 495.041694963786
15.16996 500.947275479111
15.19007 525.055381300245
15.21019 462.995796225857
15.2303 529
15.25041 475.985024707825
15.27053 505.049845835845
15.29064 505.972689580044
15.31075 500.97647839751
15.33087 513.004582176411
15.35098 508.973226520731
15.3711 551
15.39121 512.974169902735
15.41132 488.009467427292
15.43144 511.015820540237
15.45155 499.020624626469
15.47166 510.949932163067
15.49178 538.972595072716
15.51189 541.022532239833
15.53201 491.004885705151
15.55212 553.041989075572
15.57223 540.95688245239
15.59235 519.936179830608
15.61246 496.006497056166
15.63257 510.982167894268
15.65269 519.986307638874
15.6728 537
15.69291 467.99643865073
15.71303 522.041547882597
15.73314 489.922986495137
15.75326 490.932610555721
15.77337 522.00098971994
15.79348 504.989027777315
15.8136 524
15.83371 450.988826229947
15.85382 496.043464351341
15.87394 514.072928498824
15.89405 551.063161175755
15.91417 479.059782182333
15.93428 507.944007947248
15.95439 545.992103870802
15.97451 530.974770651569
15.99462 491.021908034108
16.01473 547.0162471662
16.03485 500.910457024038
16.05496 519.896534537995
16.07508 558.001025251841
16.09519 527.013261632424
16.1153 523
16.13542 515.983147236211
16.15553 502.003149589387
16.17564 536.136785168298
16.19576 585.056427901079
16.21587 503.081686158363
16.23598 518.951343324129
16.2561 540
16.27621 486.987659040641
16.29633 501.018401488114
16.31644 506.06447969407
16.33655 547.010388334985
16.35667 505.028088675495
16.37678 522.992781851044
16.39689 499.013981420644
16.41701 505.025470918153
16.43712 563.015249169283
16.45724 527.912893336648
16.47735 508.994901555695
16.49746 512.98603013426
16.51758 525.975208718379
16.53769 535.020253965458
16.5578 479
16.57792 520.007304595366
16.59803 485.991439483962
16.61814 512.9898130595
16.63826 477.99525984305
16.65837 520.970539178242
16.67849 505.000028689905
16.6986 530
16.71871 516.001543120824
16.73883 529.970297674786
16.75894 489.996520633281
16.77905 526.955956836011
16.79917 516.982322337932
16.81928 546.008184178006
16.8394 494
16.85951 499.028897789593
16.87962 553.995361283284
16.89974 506.96882842646
16.91985 543.907728869638
16.93996 536.091006047226
16.96008 492.009814796317
16.98019 526.971153533482
17.00031 558.989467543962
17.02042 522.011593622785
17.04053 582.065452426143
17.06065 570.899398346626
17.08076 533.057097813887
17.10087 519.995980346623
17.12099 528.997114377751
17.1411 534
17.16121 550.997886606834
17.18133 526.969907660824
17.20144 526.019985832155
17.22156 542.944760367573
17.24167 567.992998183179
17.26178 557.004332983493
17.2819 546
17.30201 488.005334145602
17.32212 554.034437775629
17.34224 533.977278578569
17.36235 554.96527585858
17.38247 538.048297114954
17.40258 524.974593000202
17.42269 557.006447431382
17.44281 496.971374843367
17.46292 485.027153764294
17.48303 522.035045651855
17.50315 521.974151500171
17.52326 518.981981537213
17.54338 530.998805788354
17.56349 522.002387895419
17.5836 537
17.60372 571.007757858967
17.62383 549.957684083076
17.64394 540.025269019432
17.66406 562.967429439498
17.68417 566.000586855162
17.70428 575.975925078712
17.7244 595
17.74451 554.975458135015
17.76463 534.035673348879
17.78474 580.057680898232
17.80485 574.049363579704
17.82497 556.03231715688
17.84508 531.022405547694
17.86519 535.974293233124
17.88531 605.018734345759
17.90542 591.965692713068
17.92554 564.960724865976
17.94565 562.058645475787
17.96576 599.940055512372
17.98588 588.066053292274
18.00599 525.993202019618
18.0261 600
18.04622 589.988367715965
18.06633 607.030510989355
18.08645 607.95972104746
18.10656 600.947839081192
18.12667 658.904068081575
18.14679 687.012573453269
18.1669 651
18.18701 714.02703237568
18.20713 734.027743198181
18.22724 753.982788085146
18.24735 760.760269680016
18.26747 870.043933952824
18.28758 728.076165945121
18.3077 772
18.32781 742.978596291492
18.34792 716.966218844636
18.36804 670.925911527964
18.38815 664.933018260145
18.40826 688.038487179168
18.42838 646.006072689067
18.44849 672.002197290335
18.46861 631.99099483445
18.48872 649.007929543518
18.50883 639.010641152144
18.52895 663.014024588518
18.54906 636.076589431188
18.56917 604.042467907305
18.58929 584.001857800773
18.6094 588
18.62951 583.009642452034
18.64963 620.034572495374
18.66974 617.985568940435
18.68986 619.988472123562
18.70997 609.063947609825
18.73008 569.984312854137
18.7502 618
18.77031 574.986787598232
18.79042 590.015840902739
18.81054 580.961728276309
18.83065 569.004660911754
18.85077 576.977844950862
18.87088 588.997552869013
18.89099 581.006280100867
18.91111 550.967173795905
18.93122 500.033422577004
18.95133 581.03277718398
18.97145 532.942867498955
18.99156 571.914857303256
19.01168 572.031115550186
19.03179 544.0007650632
19.0519 560
19.07202 549.011140845979
19.09213 579.016434771764
19.11224 561.967232254258
19.13236 548.075300133787
19.15247 511.973021334368
19.17258 566.978007711588
19.1927 550
19.21281 590.007910133322
19.23293 565.964982810709
19.25304 556.958357640226
19.27315 531.9867628637
19.29327 559.987004406068
19.31338 552.977133678884
19.33349 601.987464121877
19.35361 596.002651135911
19.37372 609.977662030843
19.39384 559.952898883853
19.41395 578.053712187749
19.43406 580.999569421769
19.45418 582.010550316719
19.47429 576.984958680255
19.4944 636
19.51452 664.024366818417
19.53463 684.996239754042
19.55475 660.941296964925
19.57486 655.980076823802
19.59497 676.952785928498
19.61509 707.990357221167
19.6352 701
19.65531 689.035934177543
19.67543 797.054088284
19.69554 749.930414337255
19.71565 789.795864014047
19.73577 849.990426556649
19.75588 827.99335278875
19.776 870
19.79611 863.997338918149
19.81622 875.009745259126
19.83634 884.052108991772
19.85645 906.053654141967
19.87656 850.083343715291
19.89668 853.967378055236
19.91679 871.013132561181
19.93691 819.985554417095
19.95702 834.03154508991
19.97713 847.979360424016
19.99725 812.901511931307
20.01736 798.94964397497
20.03747 837.979770628927
20.05759 807.027480449773
20.0777 793
20.09782 865.942291368636
20.11793 738.995409940572
20.13804 876.202000189614
20.15816 851.132964913732
20.17827 841.905299143158
20.19838 901.037216611713
20.2185 803
20.23861 869.031052124927
20.25872 868.978481054474
20.27884 866.03015167298
20.29895 870.089046237345
20.31907 825.98778781129
20.33918 872.988383744383
20.35929 831.019721914629
20.37941 819.993963867214
20.39952 814.036975895523
20.41963 863.993450132273
20.43975 815.965237147301
20.45986 869.844983698858
20.47998 912.009957845833
20.50009 858.036595461716
20.5202 823
20.54032 898.044061658973
20.56043 883.952565529014
20.58054 874.021730438561
20.60066 914.839822205439
20.62077 987.987182226132
20.64088 961.973485592021
20.661 1063
20.68111 1148.0464872399
20.70123 1254.13404367509
20.72134 1388.53237523439
20.74145 1730.33540116425
20.76157 1895.72530133139
20.78168 2135.78958383637
20.80179 2234.00777298785
20.82191 2171.97980603109
20.84202 2138.89359473208
20.86214 1940.55191814475
20.88225 1715.34959879688
20.90236 1444.43079710686
20.92248 1303.10758038744
20.94259 1186.06231028558
20.9627 1074
20.98282 1038.99581668529
21.00293 1029.94432323673
21.02305 991.023313213605
21.04316 1034.97063580598
21.06327 1007.03076748262
21.08339 1012.99922382857
21.1035 1008
21.12361 1047.01542514806
21.14373 1044.95449675755
21.16384 1007.94793828463
21.18395 1012.90295125504
21.20407 1059.96122449302
21.22418 1039.06436277242
21.2443 983
21.26441 1025.00731274042
21.28452 1016.03795008236
21.30464 1078.98973985172
21.32475 1031.92454386908
21.34486 1114.02248218237
21.36498 997.08845191133
21.38509 984.011565632199
21.40521 938.002474909504
21.42532 991.024417970475
21.44543 953.917234323194
21.46555 920.968557196712
21.48566 913.033228560193
21.50577 896.988671961156
21.52589 919.996453801163
21.546 911
21.56612 912.948358413368
21.58623 825.920023141101
21.60634 833.053133079882
21.62646 837.040066659268
21.64657 810.022741126738
21.66668 810.0000358069
21.6868 806
21.70691 804.985792182441
21.72702 777.023717887824
21.74714 812.914945263308
21.76725 731.969230138959
21.78737 821.9696405174
21.80748 746.050885932839
21.82759 758.003972764534
21.84771 707.984667240575
21.86782 728.041257382483
21.88793 742.955041370981
21.90805 699.987207904877
21.92816 725.00629871535
21.94828 690.01210927268
21.96839 724.974271440161
21.9885 735
22.00862 659.992429774517
22.02873 723.081545570274
22.04884 717.925740857417
22.06896 690.008315451952
22.08907 700.994973015119
22.10919 668.037394825442
22.1293 607
22.14941 686.033549768393
22.16953 696.977113192113
22.18964 682.969898659544
22.20975 668.02727247929
22.22987 659.019146676967
22.24998 634.03947066128
22.27009 611.984806131205
22.29021 679.026029694173
22.31032 669.934283581131
22.33044 620.069498314357
22.35055 687.952752741183
22.37066 601.031427164737
22.39078 666.980604584229
22.41089 610.017392350237
22.431 642
22.45112 654.988834069971
22.47123 633.963509071183
22.49135 623.032598645065
22.51146 652.942689963301
22.53157 657.039622206481
22.55169 629.995717086457
22.5718 665
22.59191 632.968284567875
22.61203 576.962713589746
22.63214 595.099567082184
22.65225 621.1072354771
22.67237 560.969615632588
22.69248 647.958153032578
22.7126 627
22.73271 664.985033386093
22.75282 579.969544521961
22.77294 623.053477703124
22.79305 605.997462589751
22.81316 633.996314811135
22.83328 614.981184662298
22.85339 660.998338519945
22.87351 606.972082664228
22.89362 599.035139676017
22.91373 627.966998237488
22.93385 584.0196719006
22.95396 638.953515378377
22.97407 617.999479770031
22.99419 650.994535278117
23.0143 623
23.03442 614.998103809505
23.05453 624.059589193445
23.07464 664.984687342307
23.09476 615.071163282394
23.11487 621.967029452612
23.13498 618.04339672616
23.1551 575
23.17521 628.013552366634
23.19532 613.996338980709
23.21544 633.005107633327
23.23555 607.068078941253
23.25567 591.0282395012
23.27578 578.981060894663
23.29589 610.998693113479
23.31601 583.992822787176
23.33612 604.034046217428
23.35623 630.023201198564
23.37635 633.983829639855
23.39646 623.020807532567
23.41658 606.035345392864
23.43669 571.001679710098
23.4568 594
23.47692 581.984709471588
23.49703 591.059197890524
23.51714 619.94178019904
23.53726 560.030340194136
23.55737 593.981041357798
23.57749 571.999648036073
23.5976 605
23.61771 604.012689414598
23.63783 630.938011163021
23.65794 564.040262890775
23.67805 658.890505827972
23.69817 624.024798105027
23.71828 655.986791722033
23.73839 623.019566875238
23.75851 613.00749876892
23.77862 637.020944570088
23.79874 638.957466571343
23.81885 623.055685733813
23.83896 652.057830167996
23.85908 582.029013885458
23.87919 599.006714290948
23.8993 572
23.91942 678.037242105078
23.93953 626.942490416548
23.95965 645.04488647313
23.97976 638.995518632753
23.99987 646.036004778235
24.01999 606.002230112415
24.0401 644
24.06021 656.005237660627
24.08033 673.013308662966
24.10044 662.949567300223
24.12056 644.982962169804
24.14067 658.035341380509
24.16078 610.018462609911
24.1809 635
24.20101 634.989418577035
24.22112 615.999400888244
24.24124 610.903769867817
24.26135 570.853383705443
24.28146 688.907479418556
24.30158 637.045648428819
24.32169 637.009443056828
24.34181 599.003935681116
24.36192 636.987531688422
24.38203 589.017876714597
24.40215 654.039906144325
24.42226 614.00264987625
24.44237 655.011466620732
24.46249 605.995744233618
24.4826 672
24.50272 631.9721402911
24.52283 638.983398648361
24.54294 615.042506529228
24.56306 670.957691925886
24.58317 639.051923248178
24.60328 643.963390714821
24.6234 662
24.64351 591.990764092683
24.66362 636.039791580971
24.68374 640.00487773683
24.70385 658.952758141591
24.72397 666.000816751637
24.74408 656.025593012221
24.76419 634.994778837878
24.78431 674.018723006935
24.80442 687.997883485379
24.82453 677.974351965208
24.84465 660.974751810727
24.86476 666.950827532517
24.88488 689.004731807425
24.90499 664.007237715224
24.9251 663
24.94522 643.011874471473
24.96533 681.032140879138
24.98544 665.94161446439
25.00556 654.964493493379
25.02567 702.896992141929
25.04579 748.007465052283
25.0659 689
25.08601 680.007137796817
25.10613 692.00361157982
25.12624 672.910079919824
25.14635 642.921934033598
25.16647 715.927400445428
25.18658 737.941072182885
25.20669 815.992898723799
25.22681 768.988521340728
25.24692 780.973325813899
25.26704 694.816920773615
25.28715 654.035339928805
25.30726 686.977730707886
25.32738 676.990236266188
25.34749 705.996779710672
25.3676 680
25.38772 673.00109564223
25.40783 676.015279017993
25.42795 693.044802612886
25.44806 691.073940498587
25.46817 642.033313411568
25.48829 648.999916983888
25.5084 632
25.52851 631.991179343363
25.54863 616.04675911652
25.56874 668.001396301235
25.58886 622.031623781112
25.60897 657.950640749485
25.62908 663.990341735261
25.6492 679
25.66931 650.993569899973
25.68942 673.042537565603
25.70954 692.935944769897
25.72965 632.090845742604
25.74976 646.919143956545
25.76988 681.976293673221
25.78999 685.01086990879
25.81011 662.001826111696
25.83022 686.010190770066
25.85033 675.995897579351
25.87045 694.061927595653
25.89056 715.954528063452
25.91067 723.044129132038
25.93079 682.003129759767
25.9509 710
25.97102 694.982744119675
25.99113 693.004191863713
26.01124 683.946371898679
26.03136 670.922548921266
26.05147 738.945838822004
26.07158 722.03056982175
26.0917 719
26.11181 752.007025615649
26.13193 736.956401592003
26.15204 734.097230259594
26.17215 792.996413536176
26.19227 765.938769791497
26.21238 858.968197438831
26.23249 823.997262176907
26.25261 901.035753535688
26.27272 938.048617688762
26.29283 998.035462658684
26.31295 992.044407133072
26.33306 1046.89778678795
26.35318 1112.86161815753
26.37329 1297.92787634777
26.3934 1426
26.41352 1742.30476895367
26.43363 2023.51556600556
26.45374 2527.32362937198
26.47386 3256.62843974032
26.49397 4015.44748738551
26.51409 5269.41116038593
26.5342 6272
26.55431 7340.52961771177
26.57443 8190.75296763537
26.59454 8251.30324889418
26.61465 7630.93901664304
26.63477 6820.22718005893
26.65488 5910.08588348305
26.67499 4667.630597257
26.69511 3551.54752206673
26.71522 2821.37403945274
26.73534 2201.76424125398
26.75545 1657.05849034894
26.77556 1416.43990320319
26.79568 1199.10944697331
26.81579 1163.04901143204
26.8359 990
26.85602 956.971741335381
26.87613 903.967427544501
26.89625 927.064764964137
26.91636 896.210422289256
26.93647 794.002597461145
26.95659 853.008551040714
26.9767 745
26.99681 753.011335702888
27.01693 729.910582099354
27.03704 677.983720374106
27.05716 697.012539698853
27.07727 660.030750615305
27.09738 672.983567614107
27.1175 673
27.13761 668.9986517102
27.15772 665.996302383242
27.17784 659.981215742707
27.19795 648.030766628518
27.21806 646.960176026368
27.23818 680.969062004008
27.25829 675.03001452668
27.27841 606.994251863426
27.29852 648.025608843586
27.31863 627.957281315656
27.33875 612.959694053932
27.35886 606.939577964114
27.37897 657.955652752788
27.39909 639.026343175773
27.4192 592
27.43932 621.061794647322
27.45943 662.970593413409
27.47954 597.895027640099
27.49966 605.881496361329
27.51977 665.972277275246
27.53988 636.043236485822
27.56 623
27.58011 644.982724563893
27.60023 588.01138470298
27.62034 647.021426094843
27.64045 587.132399397833
27.66057 595.926437191505
27.68068 631.012102613263
27.70079 595.001685446537
27.72091 633.015716289479
27.74102 629.981971307766
27.76113 613.975929193371
27.78125 608.041557433009
27.80136 633.981746893064
27.82148 614.035388013765
27.84159 589.000914073114
27.8617 610
27.88182 623.983478341709
27.90193 597.99923263862
27.92204 621.019656345884
27.94216 602.053327311239
27.96227 592.979977908789
27.98239 609.002998495813
28.0025 586
28.02261 600.009981345438
28.04273 598.953615458744
28.06284 561.980356178932
28.08295 588.899736188611
28.10307 611.006766790362
28.12318 603.977114774173
28.1433 637
28.16341 580.97343786048
28.18352 578.04614091147
28.20364 612.928082760788
28.22375 538.951634564534
28.24386 585.934592980034
28.26398 554.066739924758
28.28409 518.982794339684
28.3042 595
28.32432 596.993299380101
28.34443 600.990274881728
28.36455 574.917045087264
28.38466 555.989851315279
28.40477 577.966913485997
28.42489 587.998874601018
28.445 573
28.46511 536.013202815714
28.48523 598.022501720936
28.50534 547.897652796316
28.52546 560.842176729094
28.54557 633.016166380985
28.56568 562.03214530391
28.5858 603
28.60591 606.984167256668
28.62602 578.002545868351
28.64614 604.025307105295
28.66625 593.020951767057
28.68636 593.023960413871
28.70648 566.024129260047
28.72659 561.992033172435
28.74671 577.998068215967
28.76682 565.008438887621
28.78693 590.00905175078
28.80705 571.970342993674
28.82716 577.988716673472
28.84727 573.011506559221
28.86739 577.987482748543
28.8875 593
28.90762 537.986965166649
28.92773 565.002503147638
28.94784 539.018210209843
28.96796 593.904126933378
28.98807 590.073501134425
29.00818 543.003910138036
29.0283 570
29.04841 534.980651982743
29.06853 527.032801191193
29.08864 558.040019528609
29.10875 559.016143390919
29.12887 568.942252289436
29.14898 599.0282803094
29.16909 532.017753623857
29.18921 558.023909717299
29.20932 589.014277986434
29.22943 584.963338716996
29.24955 558.984709363325
29.26966 560.050896196311
29.28978 528.981482152324
29.30989 579.994580656701
29.33 545
29.35012 568.009301081641
29.37023 555.009712755659
29.39034 584.025502087737
29.41046 564.060824291969
29.43057 551.979779763531
29.45069 573.996927228012
29.4708 557
29.49091 541.995388901047
29.51103 529.969073825152
29.53114 529.105951309187
29.55125 605.91263526576
29.57137 575.083858892155
29.59148 546.987323036011
29.6116 571
29.63171 537.994172648083
29.65182 548.987991472678
29.67194 520.011780778702
29.69205 563.076757333214
29.71216 562.006997528585
29.73228 578.96917028352
29.75239 584.027092723956
29.7725 516
29.79262 558.987333859501
29.81273 492.975379595711
29.83285 550.129994448543
29.85296 547.061045665944
29.87307 535.957917661701
29.89319 571.005178157866
29.9133 528
29.93341 563.014056186476
29.95353 559.990094289243
29.97364 560.984792868867
29.99376 539.050790836299
30.01387 540.925544009586
30.03398 597.000322325682
30.0541 535
30.07421 525.0245517213
30.09432 585.0187611676
30.11444 553.924306725539
30.13455 542.981487185837
30.15467 559.96053780256
30.17478 587.978374867013
30.19489 596.002648825196
30.21501 581.99084727317
30.23512 561.977028594879
30.25523 558.057944542282
30.27535 609.022258393274
30.29546 576.041060622182
30.31557 584.00192687607
30.33569 559.012470133546
30.3558 558
30.37592 584.00568427334
30.39603 568.97975994353
30.41614 561.965321750545
30.43626 538.018896819426
30.45637 550.966253094736
30.47648 567.99103154492
30.4966 570
30.51671 570.001726228052
30.53683 569.981668425068
30.55694 550.977272624316
30.57705 554.967830127728
30.59717 564.001958340656
30.61728 565.974759685712
30.63739 597.999138594578
30.65751 564.982494174987
30.67762 553.004097582136
30.69773 554.983177626871
30.71785 531.94493283641
30.73796 535.915047799974
30.75808 592.965906538931
30.77819 583.019204836169
30.7983 559
30.81842 593.998612911303
30.83853 541.904525412087
30.85864 521.076590600702
30.87876 572.994558015326
30.89887 538.993857365556
30.91899 589.98438172119
30.9391 570
30.95921 544.990241642383
30.97933 539.033138840446
30.99944 567.999855655141
31.01955 545.009581674367
31.03967 560.012703650081
31.05978 532.997947223868
31.0799 582
31.10001 611.985377684247
31.12012 557.979539528701
31.14024 579.025571043406
31.16035 565.024366602604
31.18046 567.019261701644
31.20058 542.020219434213
31.22069 537.998043161656
31.2408 543
31.26092 544.986852520536
31.28103 541.058664827293
31.30115 595.015308370536
31.32126 551.067338196495
31.34137 548.0172544377
31.36149 523.001891322696
31.3816 547
31.40171 549.994956430194
31.42183 550.038617881607
31.44194 583.011471024007
31.46206 557.05516671442
31.48217 552.977194868837
31.50228 565.009454522699
31.5224 550
31.54251 576.995046427023
31.56262 547.016818957311
31.58274 593.987027983415
31.60285 529.110456468376
31.62297 554.899527156032
31.64308 590.041853769315
31.66319 519.003321523055
31.68331 568.001244805429
31.70342 529.026333852972
31.72353 619.067191475228
31.74365 571.805453388196
31.76376 531.98564047602
31.78387 555.997106810973
31.80399 532.007332439393
31.8241 552
31.84422 591.011542180341
31.86433 570.948348382662
31.88444 545.983761670185
31.90456 549.991474199671
31.92467 546.013361235851
31.94478 542.9895167242
31.9649 553
31.98501 531.001274796017
32.00513 563.047905291964
32.02524 582.0436700484
32.04535 589.103879973055
32.06547 522.051785058594
32.08558 544.952020357966
32.10569 566.013061916816
32.12581 536.01492579278
32.14592 602.014320622623
32.16604 558.962484136752
32.18615 569.913967319177
32.20626 517.931939540441
32.22638 614.967280202583
32.24649 553.030049189389
32.2666 555
32.28672 573.00548003914
32.30683 565.973422230512
32.32694 548.987449936815
32.34706 563.926740378839
32.36717 595.004628665685
32.38729 568.006023123896
32.4074 572
32.42751 543.003515763258
32.44763 589.060165592141
32.46774 592.963013174629
32.48785 576.012118301591
32.50797 567.059281353336
32.52808 527.980183272154
32.5482 594
32.56831 574.979242248702
32.58842 552.000272436311
32.60854 573.069171726926
32.62865 603.959351743529
32.64876 605.00886018218
32.66888 593.031316162736
32.68899 558.005256925871
32.7091 578
32.72922 603.030740244401
32.74933 615.942827000464
32.76945 556.960462162878
32.78956 590.946453711027
32.80967 589.989329289314
32.82979 615.990360944454
32.8499 607
32.87001 582.00660356876
32.89013 619.024769740838
32.91024 600.954313716408
32.93036 590.023082496981
32.95047 598.905263988031
32.97058 678.975789370285
32.9907 642
33.01081 647.002721153439
33.03092 623.955681419049
33.05104 605.093185661407
33.07115 681.923641893279
33.09127 661.003092899444
33.11138 694.983649092621
33.13149 672.015184441077
33.15161 662.003322896454
33.17172 677.018723753795
33.19183 678.953704373631
33.21195 650.060248684819
33.23206 717.899054798709
33.25217 725.003995866486
33.27229 712.028839370387
33.2924 635
33.31252 653.022179150793
33.33263 660.031430854216
33.35274 687.997131788706
33.37286 660.030073144408
33.39297 673.970083031739
33.41308 682.996088364559
33.4332 671
33.45331 617.990096694452
33.47343 648.082864887616
33.49354 676.949668903404
33.51365 638.953589592281
33.53377 704.948348725677
33.55388 682.027647009696
33.57399 677.00372043337
33.59411 649.980946997099
33.61422 619.98975397888
33.63434 616.961249469442
33.65445 606.114825480862
33.67456 675.977086592746
33.69468 628.02654615699
33.71479 644.000441952635
33.7349 620
33.75502 655.008671361093
33.77513 625.965087382807
33.79524 622.978088973449
33.81536 606.979064252083
33.83547 633.001453033255
33.85559 600.013605898081
33.8757 606
33.89581 625.993914818296
33.91593 586.943995665361
33.93604 572.000973418117
33.95615 576.986145524325
33.97627 586.966922534557
33.99638 615.977421427931
34.0165 612
34.03661 575.00293057368
34.05672 608.002387389893
34.07684 573.96285899184
34.09695 583.999163971525
34.11706 570.983225236626
34.13718 594.004291561826
34.15729 571.994057892502
34.17741 619.015623947355
34.19752 607.970418519475
34.21763 592.009771596244
34.23775 619.091369198685
34.25786 647.971771842444
34.27797 635.068329715362
34.29809 577.021795292562
34.3182 571
34.33831 609.011842026616
34.35843 617.020544163876
34.37854 633.992426403154
34.39866 604.074052251118
34.41877 589.968800160845
34.43888 633.956897204812
34.459 645
34.47911 612.003655158458
34.49922 661.047648440064
34.51934 682.021865838669
34.53945 670.160393382664
34.55957 608.957816060658
34.57968 700.956475049872
34.59979 672.006919723489
34.61991 692.993928589221
34.64002 653.005560699281
34.66013 701.021056275391
34.68025 680.046582912563
34.70036 735.968577244021
34.72047 709.988431676744
34.74059 751.00107133597
34.7607 701
34.78082 724.025292737037
34.80093 718.967470955106
34.82104 711.045355000708
34.84116 749.953667026717
34.86127 746.016841011355
34.88138 747.984223462608
34.9015 756
34.92161 718.993044304946
34.94173 744.063063610882
34.96184 769.995810318916
34.98195 755.002078858562
35.00207 761.032118665067
35.02218 726.996920376429
35.04229 754.006001249073
35.06241 698.980750887828
35.08252 709.031862243097
35.10264 734.031044861427
35.12275 732.943817439126
35.14286 705.024020354629
35.16298 690.057523267776
35.18309 642.971407382119
35.2032 767
35.22332 722.948318165666
35.24343 715.994678305056
35.26354 698.988323078627
35.28366 705.011806650476
35.30377 699.951379246453
35.32389 761.976971792244
35.344 759
35.36411 715.989361596603
35.38423 719.009417131867
35.40434 727.057995192289
35.42445 763.970626803355
35.44457 738.065016337399
35.46468 709.999479729886
35.4848 732
35.50491 755.020523825579
35.52502 789.985740851138
35.54514 742.959983416062
35.56525 770.906507282754
35.58536 780.038357345494
35.60548 761.987313983143
35.62559 777.020323550527
35.64571 723.016871949846
35.66582 806.995429215603
35.68593 716.949174481265
35.70605 773.09813427644
35.72616 748.061286045872
35.74627 756.946829511149
35.76639 774.016838477554
35.7865 714
35.80661 715.988177518952
35.82673 674.006195118626
35.84684 714.003091065715
35.86696 677.002392945538
35.88707 736.892073806238
35.90718 760.038772176323
35.9273 702
35.94741 717.998696917661
35.96752 697.016433949681
35.98764 752.077110473342
36.00775 754.001825759011
36.02787 759.022492216654
36.04798 731.007804892124
36.06809 741.003816679485
36.08821 707.984874629154
36.10832 706.024269413555
36.12843 729.998323332348
36.14855 708.972459518189
36.16866 729.910076739513
36.18878 765.001864609053
36.20889 739.005222755945
36.229 762
36.24912 776.985230441516
36.26923 764.045557588862
36.28934 814.007951098842
36.30946 788.943496866474
36.32957 881.87119894262
36.34968 901.037152940715
36.3698 887
36.38991 1010.02530692441
36.41003 995.062789277722
36.43014 1106.13837573356
36.45025 1116.8877276472
36.47037 1205.92683352494
36.49048 1193.01279472555
36.51059 1196.01373690593
36.53071 1152.00022249796
36.55082 1188.00195711338
36.57094 1128.84551851641
36.59105 1076.9395527622
36.61116 1049.1282112854
36.63128 971.035221334798
36.65139 969.017010085864
36.6715 911
36.69162 954.020023970061
36.71173 924.953630997787
36.73184 899.884925434464
36.75196 832.031827847312
36.77207 869.951601670134
36.79219 865.007243760274
36.8123 874
36.83241 917.009467426132
36.85253 892.914728657589
36.87264 850.016934524092
36.89275 909.817187515846
36.91287 943.035760631589
36.93298 890.03702840738
36.9531 885
36.97321 882.009176457748
36.99332 899.972673981735
37.01344 843.954740559458
37.03355 850.077628142313
37.05366 797.98031404778
37.07378 853.997120824342
37.09389 791.020996028858
37.11401 820.031766923864
37.13412 842.942906101845
37.15423 769.018613921203
37.17435 845.034922795047
37.19446 772.118235582759
37.21457 770.997051408972
37.23469 756.996731528013
37.2548 778
37.27491 746.996316177025
37.29503 760.97900461762
37.31514 717.952995568778
37.33526 723.010636376409
37.35537 702.004286624428
37.37548 723.980447412721
37.3956 721
37.41571 709.005052272206
37.43582 726.99611198171
37.45594 700.962908122802
37.47605 708.939338188971
37.49617 734.96562838212
37.51628 749.993495944277
37.53639 726.03785661987
37.55651 660.013967503574
37.57662 742.011931326278
37.59673 678.970926543898
37.61685 734.105600387571
37.63696 720.054584888213
37.65708 715.986938473388
37.67719 718.015499070458
37.6973 675
37.71742 700.022687806666
37.73753 699.992638123293
37.75764 694.964006941778
37.77776 669.030747076102
37.79787 668.996785234093
37.81798 666.999169767382
37.8381 668
37.85821 659.004592024863
37.87833 676.99790553774
37.89844 650.944597141719
37.91855 648.928616396068
37.93867 678.008873297341
37.95878 649.004632736804
37.97889 661.013216552003
37.99901 622.014978635527
38.01912 702.029186895331
38.03924 655.908827859585
38.05935 659.063092971323
38.07946 657.104150046354
38.09958 605.975059232975
38.11969 680.988211656397
38.1398 637
38.15992 670.049868272468
38.18003 677.923889592228
38.20015 606.911959769035
38.22026 618.968553610789
38.24037 618.987608524374
38.26049 642.988615124899
38.2806 654
38.30071 658.000756761884
38.32083 666.037011604699
38.34094 683.954824419995
38.36105 635.066226465687
38.38117 640.003741958848
38.40128 633.966495649128
38.4214 680
38.44151 630.002030511154
38.46162 691.029139918769
38.48174 676.033001965461
38.50185 721.014346163132
38.52196 659.08857564481
38.54208 658.005519585345
38.56219 632.007112563926
38.58231 644.010294905387
38.60242 646.976567752128
38.62253 609.957320905631
38.64265 613.089950801273
38.66276 648.99845953641
38.68287 618.036663268563
38.70299 623.988878148959
38.7231 637
38.74321 618.99719715708
38.76333 629.009696417355
38.78344 624.995138034264
38.80356 627.999482995096
38.82367 630.971083654743
38.84378 643.03266808446
38.8639 588
38.88401 624.021370719639
38.90412 643.00982400001
38.92424 647.979112605665
38.94435 641.927946182243
38.96447 686.98288022347
38.98458 645.065193269149
39.00469 608.991707493509
39.02481 646.000818400405
39.04492 597.943846848329
39.06503 577.0257266217
39.08515 618.118749860056
39.10526 647.991158608989
39.12538 658.943250732657
39.14549 711.021769778538
39.1656 602
39.18572 642.047407870399
39.20583 652.017750192724
39.22594 696.133297308948
39.24606 738.044055355464
39.26617 700.946211919938
39.28628 802.92800733257
39.3064 816
39.32651 880.039566401961
39.34663 946.077655821493
39.36674 1007.18581527962
39.38685 1086.0153311206
39.40697 1029.00485079883
39.42708 1088.97240765291
39.44719 1032.04895522436
39.46731 956.985087730434
39.48742 942.951583614569
39.50754 849.807712627638
39.52765 794.978838001393
39.54776 787.11483183038
39.56788 696.056953045926
39.58799 685.009709657684
39.6081 653
39.62822 678.976232216443
39.64833 618.980502701648
39.66845 657.026199120656
39.68856 612.099140201075
39.70867 599.973168093961
39.72879 624.991693141247
39.7489 624
39.76901 614.000660769234
39.78913 612.961803191209
39.80924 579.997834359625
39.82935 613.91872046362
39.84947 624.992243080238
39.86958 630.005382316237
39.8897 636
39.90981 699.007137635043
39.92992 655.953169242601
39.95004 643.012062849184
39.97015 661.899199345069
39.99026 685.084275371209
40.01038 615.011387834986
40.03049 668.980187164757
40.05061 671.01006414192
40.07072 715.017291716599
40.09083 691.95975786458
40.11095 708.173500866982
40.13106 799.858511637087
40.15117 806.091127891638
40.17129 750.986773414202
40.1914 838
40.21152 819.978485836592
40.23163 844.080966334433
40.25174 876.951433497972
40.27186 811.109509605431
40.29197 793.010224779681
40.31208 790.977761191246
40.3322 820
40.35231 781.978820426563
40.37242 754.977146851729
40.39254 719.897278161894
40.41265 668.07702298509
40.43277 656.023829829376
40.45288 645.971330975241
40.47299 682.010680675704
40.49311 625.998657739953
40.51322 687.047274636451
40.53333 681.970743932412
40.55345 651.815301573166
40.57356 578.984053474446
40.59368 651.957475947367
40.61379 635.005380246741
40.6339 651
40.65402 620.978921016811
40.67413 624.009535637379
40.69424 635.074957930678
40.71436 657.115376916684
40.73447 579.956576048228
40.75458 688.963454260401
40.7747 630
40.79481 657.986195863473
40.81493 569.934834647742
40.83504 601.063780555165
40.85515 601.971830565684
40.87527 624.012917357508
40.89538 588.018374627511
40.91549 600.993335795248
40.93561 610.015377671636
40.95572 650.009961095878
40.97584 615.894145670248
40.99595 578.974690860634
41.01606 604.879337178055
41.03618 655.004629614488
41.05629 602.025234632206
41.0764 605
41.09652 655.982523779324
41.11663 597.987180439649
41.13675 633.965827980571
41.15686 586.939584393485
41.17697 691.901026396509
41.19709 661.036358253781
41.2172 620
41.23731 655.007066783735
41.25743 640.993900657488
41.27754 641.9268359919
41.29765 597.944561542921
41.31777 667.961752303186
41.33788 625.043173449945
41.358 639
41.37811 695.004884056267
41.39822 646.924073788875
41.41834 608.068826882834
41.43845 676.931454913269
41.45856 643.07986714813
41.47868 628.014030259975
41.49879 618.987811457381
41.51891 668.01790016923
41.53902 658.951660264468
41.55913 617.007935414375
41.57925 655.038837509145
41.59936 635.027497597606
41.61947 653.945348014361
41.63959 676.004843599698
41.6597 640
41.67982 614.985162859413
41.69993 616.040750560887
41.72004 641.973672926709
41.74016 614.954989943263
41.76027 671.980813123049
41.78038 621.055307527706
41.8005 593
41.82061 562.995902692406
41.84072 592.057319870202
41.86084 629.957643222919
41.88095 574.065035053335
41.90107 604.923796409739
41.92118 633.00117310682
41.94129 615.008052116835
41.96141 606.993982301269
41.98152 597.010510555243
42.00163 614.990906266852
42.02175 584.94431059635
42.04186 600.893647254788
42.06198 639.029365778928
42.08209 565.021413519358
42.1022 583
42.12232 606.031519364948
42.14243 638.007069652041
42.16254 615.958478301465
42.18266 624.921331318155
42.20277 666.976636160467
42.22289 641.026801758326
42.243 624
42.26311 723.007965210405
42.28323 663.977422738847
42.30334 746.227471393926
42.32345 814.974611642315
42.34357 797.00440542083
42.36368 829.953792346093
42.38379 850.011852646569
42.40391 811.997526021249
42.42402 832.992858439895
42.44414 788.929355899726
42.46425 773.931352919495
42.48436 731.055100132224
42.50448 713.043980702631
42.52459 658.007163564788
42.5447 664
42.56482 584.97691520809
42.58493 627.041139002713
42.60505 596.872059944663
42.62516 559.05046810232
42.64527 548.985962414824
42.66539 567.992743399895
42.6855 565
42.70561 539.99025792324
42.72573 535.012122975147
42.74584 557.076031842227
42.76595 588.998037392238
42.78607 553.079889516742
42.80618 524.978735167258
42.8263 574
42.84641 567.992326559058
42.86652 565.003964639545
42.88664 555.927198537346
42.90675 520.9738261811
42.92686 563.962883012685
42.94698 547.006724258528
42.96709 563.995851178122
42.98721 551.994247666102
43.00732 542.975062441191
43.02743 521.028060947483
43.04755 563.025065219618
43.06766 530.063717523474
43.08777 537.935682817238
43.10789 584.987859506816
43.128 590
43.14812 602.968292580495
43.16823 533.916209328764
43.18834 530.075173649025
43.20846 572.956851064969
43.22857 567.020832237199
43.24868 569.974980129957
43.2688 589
43.28891 536.979526927414
43.30902 534.020364379499
43.32914 553.01453472401
43.34925 552.982068040388
43.36937 560.022721699016
43.38948 534.003144629032
43.40959 556.99068480426
43.42971 547.985210034325
43.44982 520.992251892121
43.46993 529.005932314206
43.49005 522.994590529996
43.51016 533.96098713926
43.53028 545.010287985064
43.55039 531.992113813454
43.5705 572
43.59062 566.977834695936
43.61073 539.948109582721
43.63084 518.028647758982
43.65096 555.950487157841
43.67107 550.027200750342
43.69119 539.001455887264
43.7113 539
43.73141 537.004637896182
43.75153 547.989246105741
43.77164 528.990771700794
43.79175 545.951229992779
43.81187 548.025144093156
43.83198 534.985184344848
43.85209 559.004900965556
43.87221 520.991367992422
43.89232 549.049180033816
43.91244 577.981212394244
43.93255 555.015087387931
43.95266 584.987822735687
43.97278 563.006622619482
43.99289 581.994312358296
44.013 557
44.03312 507.994893728163
44.05323 547.071424500974
44.07335 571.006439510177
44.09346 559.044084219992
44.11357 548.970003532989
44.13369 573.008194932055
44.1538 526
44.17391 546.013907540281
44.19403 562.028761507603
44.21414 576.976045462602
44.23426 557.966398807127
44.25437 592.015512048672
44.27448 539.03176112992
44.2946 560
44.31471 569.978718315087
44.33482 506.970298990326
44.35494 536.120376710202
44.37505 576.013509255969
44.39516 534.08968418266
44.41528 530.949688431961
44.43539 579.011162865554
44.45551 512.992770887167
44.47562 563.032657785221
44.49573 548.986583189387
44.51585 556.963237687794
44.53596 519.043118735957
44.55607 537.933319901715
44.57619 576.991637384175
44.5963 561
44.61642 530.013620184135
44.63653 579.063182683649
44.65664 584.963671948948
44.67676 553.093359995745
44.69687 505.05020236663
44.71698 511.942041102469
44.7371 578
44.75721 547.986228221256
44.77732 557.028343511
44.79744 581.025354021377
44.81755 575.063082771515
44.83767 551.997344528262
44.85778 571.990994819638
44.87789 557.011390551577
44.89801 555.015709628917
44.91812 595.010557918314
44.93823 567.947415546316
44.95835 537.898779286611
44.97846 501.999411725213
44.99858 537.960393592152
45.01869 558.994296401904
45.0388 565
45.05892 562.016023787373
45.07903 580.982487648694
45.09914 553.00724425359
45.11926 582.993978321883
45.13937 538.090773333989
45.15949 515.980464220692
45.1796 582
45.19971 559.97535065226
45.21983 537.041399438021
45.23994 588.045539933857
45.26005 565.087336584125
45.28017 555.967792903159
45.30028 590.973571098218
45.32039 598.000873602869
45.34051 591.991781345313
45.36062 587.034693782093
45.38074 627.970306871057
45.40085 565.90343397438
45.42096 582.929922463406
45.44108 600.997002198384
45.46119 600.996608951375
45.4813 612
45.50142 610.009344980405
45.52153 621.984730487855
45.54165 595.973614532893
45.56176 604.996512357187
45.58187 595.994588283684
45.60199 625.97681924784
45.6221 659
45.64221 658.026728222925
45.66233 733.012176911401
45.68244 684.988164863324
45.70256 741.916114717812
45.72267 745.970241345035
45.74278 784.99309232829
45.7629 757
45.78301 751.976126903531
45.80312 678.972482947996
45.82324 692.963791873023
45.84335 642.02560082454
45.86346 673.994934116286
45.88358 633.026308466026
45.90369 629.015837877374
45.92381 566.978055974533
45.94392 574.043239357669
45.96403 601.963090331364
45.98415 544.920778941885
46.00426 565.912253008806
46.02437 598.974004157486
46.04449 589.022192908962
46.0646 546
46.08472 582.014969924843
46.10483 569.009690532194
46.12494 588.960444827963
46.14506 534.062703685917
46.16517 548.960692234543
46.18528 558.998860789646
46.2054 564
46.22551 567.984739475966
46.24563 523.982937949647
46.26574 538.979471679913
46.28585 506.99543358635
46.30597 541.982131759035
46.32608 531.974690108769
46.34619 585.991004465894
46.36631 547.975305028983
46.38642 528.006572114713
46.40653 536.985473832686
46.42665 513.97564599902
46.44676 535.909108659092
46.46688 559.037888323683
46.48699 497.005005156271
46.5071 540
46.52722 511.970533623325
46.54733 517.042524703355
46.56744 548.047229023988
46.58756 560.983384167579
46.60767 573.969220858913
46.62779 580.016851659868
46.6479 525
46.66801 539.019397856041
46.68813 570.016451372118
46.70824 560.965650721985
46.72835 555.960240320423
46.74847 583.966722361943
46.76858 590.003084073765
46.78869 587.000426592137
46.80881 575.982340100067
46.82892 530.974937857132
46.84904 536.03265143977
46.86915 543.996323381834
46.88926 545.961499867368
46.90938 569.998017467683
46.92949 542.019496633719
46.9496 514
46.96972 512.001995848931
46.98983 517.021183664711
47.00995 543.085378689382
47.03006 569.985618505311
47.05017 550.063427969286
47.07029 526.983142595785
47.0904 586
47.11051 559.001448423268
47.13063 583.951568165084
47.15074 492.857342128824
47.17086 498.872414846737
47.19097 564.953231696709
47.21108 552.029961543816
47.2312 531
47.25131 525.000196666868
47.27142 523.990285971861
47.29154 532.118933022366
47.31165 601.989414396551
47.33176 541.099759741434
47.35188 539.99010223312
47.37199 544.988927577216
47.39211 578.007440606792
47.41222 566.983905258003
47.43233 558.989215170157
47.45245 553.007702973677
47.47256 567.956840933561
47.49267 595.941873760729
47.51279 609.027118413728
47.5329 539
47.55302 600.997268777571
47.57313 522.931610052698
47.59324 548.054823959602
47.61336 539.032383179902
47.63347 534.006724773411
47.65358 534.977835189018
47.6737 578
47.69381 588.975404198177
47.71393 529.005247782536
47.73404 591.083491347071
47.75415 575.082692635996
47.77427 557.016501920448
47.79438 557.973752554361
47.81449 587.002276658006
47.83461 545.978129901302
47.85472 537.030398775272
47.87483 580.035627850267
47.89495 578.999437711499
47.91506 583.027644362577
47.93518 544.048844375238
47.95529 523.983449109831
47.9754 587
47.99552 584.970392170783
48.01563 551.953940309541
48.03574 540.036447345204
48.05586 556.060344259803
48.07597 514.95840501801
48.09609 601.972039497883
48.1162 574
48.13631 514.992789398784
48.15643 536.029422723411
48.17654 531.973052783243
48.19665 533.929636032728
48.21677 565.001059605492
48.23688 526.048916728184
48.257 506
48.27711 538.001780212626
48.29722 526.025131979846
48.31734 561.935168089925
48.33745 485.961141255386
48.35756 545.906682432351
48.37768 542.004160093533
48.39779 557.997088429705
48.4179 532
48.43802 512.052810889126
48.45813 578.967278892112
48.47825 486.898056488792
48.49836 523.958044988602
48.51847 505.979550638139
48.53859 537.018509587019
48.5587 461
48.57881 549.035893471863
48.59893 540.926727321805
48.61904 514.038395107568
48.63916 560.937230219159
48.65927 544.083288162328
48.67938 488.026962403647
48.6995 503
48.71961 536.003482170893
48.73972 523.99397210285
48.75984 528.992591628314
48.77995 509.059275744485
48.80006 499.975756803129
48.82018 527.968291422354
48.84029 547.997842813462
48.86041 533.984491500974
48.88052 514.018303858062
48.90063 539.963704605621
48.92075 490.016520784707
48.94086 559.885745037935
48.96097 564.022018288473
48.98109 566.988723604204
49.0012 577
49.02132 516.975445346455
49.04143 547.068692990475
49.06154 577.040860257914
49.08166 589.998716776954
49.10177 566.083880957084
49.12188 518.988735261649
49.142 570
49.16211 539.98079578442
49.18223 533.031284775803
49.20234 562.041534644103
49.22245 566.013770375127
49.24257 552.042975814604
49.26268 535.969390883
49.28279 587.993281626842
49.30291 555.987744806898
49.32302 573.04000100178
49.34313 588.944410724567
49.36325 520.881769270472
49.38336 533.875972486663
49.40348 595.976934170077
49.42359 561.036719763048
49.4437 508
49.46382 555.022969237169
49.48393 546.019809065046
49.50404 587.039919886
49.52416 572.030743469876
49.54427 577.978023704373
49.56439 579.011181844488
49.5845 544
49.60461 545.01368395814
49.62473 569.992081834272
49.64484 556.052857539106
49.66495 605.983158231073
49.68507 559.066793274052
49.70518 559.966030049306
49.7253 594
49.74541 585.995898757247
49.76552 591.01093552335
49.78564 587.940715407827
49.80575 563.059921248377
49.82586 620.936064682313
49.84598 622.973189716569
49.86609 683.975634508678
49.8862 708
49.90632 750.020128243149
49.92643 758.054900768045
49.94655 850.33100991888
49.96666 987.762747118559
49.98677 1064.95035705928
50.00689 1094.96564736186
50.027 1207
50.04711 1292.02790926942
50.06723 1301.91638701344
50.08734 1209.84395289202
50.10746 1164.08661781314
50.12757 1123.01147464836
50.14768 1108.09343258122
50.1678 977
50.18791 1012.01135846171
50.20802 973.953935870068
50.22814 923.797550456609
50.24825 794.212414021666
50.26837 771.021613411331
50.28848 728.05443657447
50.30859 668.037623746784
50.32871 615.009109441088
50.34882 664.993523898392
50.36893 598.939362676317
50.38905 613.033310706549
50.40916 598.031599949209
50.42927 596.001271951844
50.44939 585.009797174638
50.4695 560
50.48962 547.019036586911
50.50973 581.02229110763
50.52984 571.991896793782
50.54996 575.032992824912
50.57007 559.948653549262
50.59018 615.00137930952
50.6103 555
50.63041 558.002180915184
50.65053 545.998368682965
50.67064 566.048096553712
50.69075 576.01410104419
50.71087 569.984526625512
50.73098 585.008858853782
50.75109 553.012742775849
50.77121 556.012110919444
50.79132 582.015152565396
50.81143 591.029402536509
50.83155 606.952612026141
50.85166 576.971221001267
50.87178 622.990752384945
50.89189 575.028575232754
50.912 561
50.93212 589.964555113748
50.95223 513.950306400904
50.97234 551.104175665924
50.99246 568.028315578074
51.01257 547.011544904517
51.03269 554.996998492435
51.0528 552
51.07291 549.992335573296
51.09303 535.01799620184
51.11314 565.02463013255
51.13325 554.011364487724
51.15337 572.955553846354
51.17348 585.021469040774
51.1936 548
51.21371 551.997861194772
51.23382 538.005413579326
51.25394 552.971292547885
51.27405 521.989176009248
51.29416 550.023641737771
51.31428 507.998348689294
51.33439 558.98406776595
51.3545 551
51.37462 561.979838550997
51.39473 516.969495918915
51.41485 524.978173691404
51.43496 502.973138347989
51.45507 553.937628249766
51.47519 555.012180399234
51.4953 532
51.51541 538.006221758497
51.53553 538.971168892942
51.55564 515.997373781425
51.57576 529.010746318955
51.59587 505.015071192926
51.61598 516.990406178978
51.6361 519
51.65621 536.998054449666
51.67632 511.981105827634
51.69644 514.021824063189
51.71655 518.017106672626
51.73667 508.997740347923
51.75678 524.978385767174
51.77689 534.006671550502
51.79701 521.009958448605
51.81712 554.996419615638
51.83723 514.964414077911
51.85735 536.105182559572
51.87746 562.008952927975
51.89757 543.005396614672
51.91769 566.983192277338
51.9378 586
51.95792 562.964672751738
51.97803 546.036811696431
51.99814 577.964212457005
52.01826 517.078044579421
52.03837 528.95773354776
52.05848 541.999112795244
52.0786 540
52.09871 550.009158813194
52.11883 561.986788900491
52.13894 549.02767257156
52.15905 571.049131603515
52.17917 509.081708784177
52.19928 498.97751353304
52.21939 529.986472247692
52.23951 550.010773409922
52.25962 568.000187132145
52.27974 544.925293315816
52.29985 526.059854579907
52.31996 565.991652281515
52.34008 541.993132358314
52.36019 580.99350540906
52.3803 545
52.40042 521.00715160496
52.42053 545.031944622776
52.44064 538.922447112269
52.46076 498.012339514153
52.48087 527.95351564578
52.50099 535.003639052963
52.5211 529
52.54121 550.023702199587
52.56133 585.968919566002
52.58144 523.914869705998
52.60155 532.918166730011
52.62167 563.953387808441
52.64178 580.016688303625
52.6619 546
52.68201 553.003778407187
52.70212 536.960693847322
52.72224 522.114527907381
52.74235 600.997758251268
52.76246 533.056730382557
52.78258 572.971661619
52.80269 556.008142819216
52.8228 554
52.84292 518.985526890935
52.86303 541.058828348356
52.88315 570.024530995137
52.90326 560.043472429015
52.92337 561.920162521425
52.94349 621.00473354234
52.9636 558
52.98371 586.006774304976
53.00383 564.99064343491
53.02394 587.029281130002
53.04406 568.086181342505
53.06417 537.982614429564
53.08428 578.970769682797
53.1044 593
53.12451 644.010864739574
53.14462 630.990639888305
53.16474 632.965813769568
53.18485 598.051193123655
53.20497 607.963148284963
53.22508 625.994302133127
53.24519 615.013192117651
53.26531 599.00965898872
53.28542 641.026798522986
53.30553 638.98910930482
53.32565 637.983252699072
53.34576 624.021201005996
53.36587 635.935210053368
53.38599 669.014027764735
53.4061 611
53.42622 665.037824783707
53.44633 658.995700717484
53.46644 672.995260465687
53.48656 658.975294012409
53.50667 684.021228652095
53.52678 644.000209650363
53.5469 695
53.56701 692.978088765569
53.58713 653.003635440519
53.60724 675.967293975845
53.62735 634.976549439132
53.64747 692.955709034072
53.66758 664.04064135506
53.68769 657.985719283986
53.70781 703.021350168157
53.72792 714.970677505078
53.74804 668.945977180989
53.76815 688.143058595682
53.78826 732.028027177233
53.80838 682.019447827447
53.82849 705.992978563151
53.8486 685
53.86872 671.995453751732
53.88883 672.010710462021
53.90894 678.993801656782
53.92906 671.9894818711
53.94917 695.950814683132
53.96929 710.011505697029
53.9894 676
54.00951 700.998737559866
54.02963 660.948356956106
54.04974 662.048178108942
54.06985 671.079853783217
54.08997 617.045801808646
54.11008 629.968543617437
54.1302 657
54.15031 676.004857571878
54.17042 669.97586316731
54.19054 641.97062149297
54.21065 649.942190745023
54.23076 660.048124047661
54.25088 614.033964743997
54.27099 614.987242550315
54.29111 639.003221153511
54.31122 633.002403072788
54.33133 638.975960937817
54.35145 619.049656096519
54.37156 674.912658901363
54.39167 675.041711072821
54.41179 658.990020932639
54.4319 688
54.45201 633.979349414364
54.47213 643.06653524624
54.49224 675.978502835075
54.51236 635.049905396204
54.53247 641.985928241535
54.55258 655.949913358591
54.5727 709
54.59281 647.982923221489
54.61292 672.036297218357
54.63304 687.010612895539
54.65315 695.965142028434
54.67327 707.002258617521
54.69338 700.99291034674
54.71349 721.991077938932
54.73361 749.032429920802
54.75372 815.00034089918
54.77383 780.039087922725
54.79395 844.963229798939
54.81406 768.006129121451
54.83417 838.985931432621
54.85429 759.030311298019
54.8744 767
54.89452 761.996634397913
54.91463 770.006401986451
54.93474 755.936527008361
54.95486 726.016763915296
54.97497 732.00904826847
54.99508 711.012149386285
55.0152 698
55.03531 649.007421915261
55.05543 708.026217253255
55.07554 647.823220757879
55.09565 598.972235340963
55.11577 654.902096270499
55.13588 697.976689514695
55.15599 702.00904827447
55.17611 688.009660932406
55.19622 712.97367397626
55.21634 661.010527563699
55.23645 717.044741389866
55.25656 680.040217909519
55.27668 698.991159937268
55.29679 682.004620525141
55.3169 686
55.33702 655.974455510527
55.35713 659.048661668204
55.37724 683.958809807994
55.39736 634.048617156948
55.41747 644.997256730354
55.43759 631.994423543162
55.4577 666
55.47781 642.978424210435
55.49793 602.952543686473
55.51804 593.041205190414
55.53815 621.9855368569
55.55827 602.025510910728
55.57838 599.006445216284
55.5985 583
55.61861 575.996686836298
55.63872 572.00756924855
55.65884 596.072290200988
55.67895 613.074462020896
55.69906 556.072822322302
55.71918 564.968208418583
55.73929 600.978284310104
55.75941 618.977802473693
55.77952 547.975855800883
55.79963 579.03282702905
55.81975 560.937899560262
55.83986 551.011848528971
55.85997 554.953808377605
55.88009 601.982621164018
55.9002 591
55.92031 526.995414843925
55.94043 566.036762163605
55.96054 563.036677448508
55.98066 588.064455003327
56.00077 521.022319939257
56.02088 573.95055488628
56.041 569
56.06111 535.997666537823
56.08122 560.031415460668
56.10134 580.020608279965
56.12145 563.158246396855
56.14157 505.966503629363
56.16168 583.963942988612
56.18179 556.008511776854
56.20191 568.993594068793
56.22202 534.002491004895
56.24213 590.09874278654
56.26225 596.804696055132
56.28236 501.037062222658
56.30248 566.936580566702
56.32259 559.030989994773
56.3427 502
56.36282 537.033753002202
56.38293 546.008313226217
56.40304 552.983675833678
56.42316 530.040841606121
56.44327 529.967937960518
56.46338 551.002517628084
56.4835 538
56.50361 559.989235789404
56.52373 519.025017830648
56.54384 586.065887739448
56.56395 536.242718018367
56.58407 486.909703435249
56.60418 600.950477068891
56.62429 559.021470687959
56.64441 553.990957737617
56.66452 529.025662624847
56.68464 577.974365061142
56.70475 521.002674599834
56.72486 584.941506754851
56.74498 555.016810370524
56.76509 569.00490294649
56.7852 526
56.80532 535.030204228047
56.82543 550.976316990587
56.84554 528.023835640849
56.86566 557.028085885598
56.88577 512.005471884735
56.90589 558.982914464047
56.926 554
56.94611 561.001275888656
56.96623 546.964792876275
56.98634 532.009601850087
57.00645 544.011692842942
57.02657 525.010441803504
57.04668 539.979535064209
57.0668 557
57.08691 564.985851838919
57.10702 523.994030629455
57.12714 561.08091917065
57.14725 579.972561287024
57.16736 594.966498816529
57.18748 601.015272397551
57.20759 569.016576453352
57.22771 554.003801375598
57.24782 571.008732960679
57.26793 566.994303287583
57.28805 567.993816034256
57.30816 558.026133086511
57.32827 558.958105074011
57.34839 578.019569490373
57.3685 520
57.38861 590.012747196686
57.40873 547.953629074247
57.42884 572.089724175483
57.44896 589.052377183882
57.46907 539.058180993231
57.48918 538.968097024533
57.5093 570
57.52941 561.009799480802
57.54952 600.007668999876
57.56964 563.91690971017
57.58975 549.976419078634
57.60987 562.002898892043
57.62998 540.031419737815
57.65009 524.991409079835
57.67021 561.012631656815
57.69032 563.998092516418
57.71043 581.063217585763
57.73055 608.918983129064
57.75066 550.009850821038
57.77078 591.998298574752
57.79089 539.017260609357
57.811 548
57.83112 543.02654620621
57.85123 581.985674547591
57.87134 532.962851467688
57.89146 567.916498795638
57.91157 573.043771911498
57.93168 538.014356967926
57.9518 553
57.97191 572.004359444315
57.99203 565.965661362111
58.01214 538.968550756656
58.03225 548.912784725081
58.05237 580.997865315707
58.07248 556.019435021945
58.09259 550.008132428968
58.11271 519.988538093389
58.13282 529.045385654894
58.15294 585.070973006835
58.17305 569.836423028732
58.19316 503.036185230618
58.21328 528.983948274097
58.23339 518.999159304485
58.2535 540
58.27362 533.000021012039
58.29373 552.038742777536
58.31385 572.032660440546
58.33396 569.054551956916
58.35407 534.02600178925
58.37419 544.987608411491
58.3943 565
58.41441 557.985651764314
58.43453 519.954648520514
58.45464 520.072833790164
58.47475 563.961052616974
58.49487 539.063415318298
58.51498 518.980731279577
58.5351 556
58.55521 544.997719620384
58.57532 559.011536553172
58.59544 550.952456241081
58.61555 529.014523887006
58.63566 538.97726562219
58.65578 559.947148069081
58.67589 607.009958784137
58.69601 543.989659659958
58.71612 584.034227603481
58.73623 567.932768648535
58.75635 537.011957291867
58.77646 553.037783733789
58.79657 519.969993220986
58.81669 582.98603638569
58.8368 555
58.85691 549.991181603159
58.87703 524.007817270466
58.89714 552.006025200065
58.91726 529.004479306574
58.93737 546.017778787421
58.95748 513.99489479691
58.9776 554
58.99771 548.018066902815
59.01782 600.980759923862
59.03794 527.961715237862
59.05805 579.917651645448
59.07817 553.056938788475
59.09828 559.940818465533
59.11839 626.989058226207
59.13851 597.983435918448
59.15862 598.024209154906
59.17873 617.994014804978
59.19885 582.866792316889
59.21896 550.965300834555
59.23908 597.971043967852
59.25919 591.006837627941
59.2793 597
59.29942 612.988167873289
59.31953 584.98291121465
59.33964 588.97180290107
59.35976 557.031003772843
59.37987 588.885601277003
59.39998 652.006204106386
59.4201 595
59.44021 611.008170668384
59.46033 610.018730917878
59.48044 636.016961020697
59.50055 614.085586488999
59.52067 600.963843773081
59.54078 638.987819927748
59.56089 618.010956979751
59.58101 627.019836524908
59.60112 669.01545151336
59.62124 654.963885088072
59.64135 659.067751999745
59.66146 689.972182438058
59.68158 703.948769560976
59.70169 763.999048172468
59.7218 723
59.74192 789.08057119352
59.76203 827.98931903797
59.78215 816.070962107384
59.80226 897.796606468025
59.82237 968.968976003805
59.84249 965.990519894849
59.8626 993
59.88271 937.998571114365
59.90283 994.059188410373
59.92294 977.927958591837
59.94305 945.102991580209
59.96317 904.02929791366
59.98328 891.042006218187
60.0034 829
60.02351 819.987308145631
60.04362 773.973423721796
60.06374 766.947134907959
60.08385 717.093343102254
60.10396 707.99986054436
60.12408 694.031613742552
60.14419 656.014372565495
60.16431 626.973271398496
60.18442 568.982847585378
60.20453 601.067102440271
60.22465 627.028168688123
60.24476 613.10750912576
60.26487 561.985167778503
60.28499 617.985710664226
60.3051 590
60.32522 585.035402281756
60.34533 611.947001608557
60.36544 535.918463632912
60.38556 556.93172078103
60.40567 570.986973006708
60.42578 579.003173247028
60.4459 579
60.46601 602.981468327341
60.48612 525.961965872634
60.50624 544.026713033643
60.52635 530.008604125292
60.54647 553.954817184922
60.56658 557.036428972356
60.58669 525.983909928361
60.60681 590.002977300109
60.62692 526.94672149589
60.64703 519.99763866958
60.66715 508.007082348491
60.68726 543.877080522129
60.70738 577.043068070971
60.72749 496.01604214441
60.7476 531
60.76772 537.018671113578
60.78783 563.984949087103
60.80794 520.94679543787
60.82806 537.922697352222
60.84817 566.986152100947
60.86828 563.997813513266
60.8884 561
60.90851 508.988692361995
60.92863 536.077874399843
60.94874 572.005903459898
60.96885 549.061944597792
60.98897 541.98991007148
61.00908 549.002221884516
61.02919 546.991436452062
61.04931 572.001143407502
61.06942 547.976613642637
61.08954 551.057406480027
61.10965 574.973089924123
61.12976 534.072267513387
61.14988 527.984681006797
61.16999 541.002178869864
61.1901 526
61.21022 542.02257862769
61.23033 558.013467291124
61.25045 553.943048255812
61.27056 534.972968008245
61.29067 568.979565879582
61.31079 557.001057943883
61.3309 579
61.35101 587.997928078911
61.37113 583.00574491485
61.39124 586.971742793957
61.41135 562.024534566026
61.43147 569.000307317157
61.45158 554.013180596164
61.4717 576
61.49181 645.996263804608
61.51192 574.952918939493
61.53204 600.117677214072
61.55215 628.075427258587
61.57226 565.085556070437
61.59238 564.987124983434
61.61249 585.973070481639
61.63261 649.011146049654
61.65272 622.967247621215
61.67283 602.95717706627
61.69295 586.09147436009
61.71306 643.991202411463
61.73317 594.046028033793
61.75329 607.994696293832
61.7734 600
61.79352 624.012617881502
61.81363 612.973087733907
61.83374 606.010922966908
61.85386 612.013741911933
61.87397 604.971535904172
61.89408 646.96477874623
61.9142 660
61.93431 643.969145300866
61.95442 588.027546650248
61.97454 674.082773710136
61.99465 634.13896789482
62.01477 616.983733672041
62.03488 638.973087358014
62.05499 667.983140705921
62.07511 676.975793307281
62.09522 622.022598646173
62.11533 700.040556276758
62.13545 652.903103046013
62.15556 655.012070075144
62.17568 621.032291866705
62.19579 623.978683096643
62.2159 674
62.23602 667.0063666899
62.25613 679.959018780904
62.27624 627.972465122272
62.29636 651.00833658974
62.31647 612.025962143118
62.33659 641.976870651309
62.3567 665
62.37681 641.996095483658
62.39693 652.003107777182
62.41704 630.933007172565
62.43715 611.968460641883
62.45727 635.007336110511
62.47738 597.037588680232
62.49749 588.991056620992
62.51761 613.006856303481
62.53772 619.016780879469
62.55784 629.939724940125
62.57795 575.937591271756
62.59806 590.972627665485
62.61818 585.002836338159
62.63829 591.99968175344
62.6584 584
62.67852 592.010071411074
62.69863 590.974844610147
62.71875 577.030569358768
62.73886 598.022395106791
62.75897 554.054206375884
62.77909 553.987871359801
62.7992 581
62.81931 578.985955468344
62.83943 548.995870439671
62.85954 564.995035637948
62.87965 541.027604769337
62.89977 562.93897249944
62.91988 574.053237331093
62.94 496
62.96011 525.008212733872
62.98022 510.00334518884
63.00034 556.125888663587
63.02045 593.019275378438
63.04056 557.05890600275
63.06068 563.961241824686
63.08079 591.012116033524
63.10091 541.996352218674
63.12102 581.023746275971
63.14113 569.993571888709
63.16125 584.006147274207
63.18136 565.040726411927
63.20147 551.029044596556
63.22159 541.985403515355
63.2417 580
63.26182 530.981824681799
63.28193 566.063289666813
63.30204 576.973103306006
63.32216 562.000575725542
63.34227 574.986863000793
63.36238 573.001851276259
63.3825 574
63.40261 548.973789876567
63.42272 517.04394266981
63.44284 597.040259304215
63.46295 558.005382873004
63.48307 605.97729582342
63.50318 566.034217187938
63.52329 569.992906106378
63.54341 562.984233250778
63.56352 550.052308966961
63.58363 629.029291739064
63.60375 563.776772704789
63.62386 533.891516287298
63.64398 609.990002941232
63.66409 572.988751010733
63.6842 639
63.70432 540.936444436295
63.72443 581.142951487486
63.74454 651.021444481995
63.76466 621.037460217281
63.78477 636.966228947132
63.80489 639.00879101418
63.825 616
63.84511 612.999594734023
63.86523 612.009167745027
63.88534 614.964679344058
63.90545 594.965463383609
63.92557 629.989249317514
63.94568 627.943817566934
63.96579 706.002661940417
63.98591 607.952854189436
64.00602 593.045507131786
64.02614 648.063540503619
64.04625 635.888301301242
64.06636 601.980459685983
64.08648 633.003044801654
64.10659 597.00617659631
64.1267 614
64.14682 586.999854268351
64.16693 611.998694269183
64.18705 578.948768221754
64.20716 581.018937764207
64.22727 561.988338835336
64.24739 587.001982369224
64.2675 559
64.28761 587.003614450812
64.30773 553.935296739703
64.32784 547.092260201693
64.34796 601.996901887172
64.36807 560.021003592414
64.38818 586.990603599322
64.4083 563
64.42841 575.006371006403
64.44852 574.999288839717
64.46864 575.98617125469
64.48875 561.033172798497
64.50886 555.005126095146
64.52898 551.006350175514
64.54909 550.991987596486
64.56921 575.006915493905
64.58932 568.982310661458
64.60943 560.01825776001
64.62955 576.98236995921
64.64966 553.009647216479
64.66977 578.95139321573
64.68989 575.029545011313
64.71 495
64.73012 521.084446728976
64.75023 595.011001048662
64.77034 553.96847846577
64.79046 590.91317987601
64.81057 604.013263427222
64.83068 580.040701883817
64.8508 543
64.87091 558.008210367674
64.89102 562.001342059982
64.91114 563.992228638483
64.93125 556.009131209978
64.95137 553.021411419554
64.97148 532.010811227045
64.99159 534.998138971898
65.01171 529.99497497686
65.03182 534.033541030337
65.05193 574.010952167585
65.07205 556.006775015459
65.09216 577.018238491552
65.11228 531.040819930921
65.13239 532.979495870841
65.1525 576
65.17262 545.9537931683
65.19273 525.032566752049
65.21284 560.00271745253
65.23296 525.053760114796
65.25307 526.988173381268
65.27319 524.003822302875
65.2933 526
65.31341 555.010621989641
65.33353 551.959230708073
65.35364 527.007691231861
65.37375 538.074522813771
65.39387 474.063818386734
65.41398 482.964423644971
65.43409 525.972332944097
65.45421 568.999864782014
65.47432 533.969516082349
65.49444 527.999856297605
65.51455 545.159346749459
65.53466 602.068263421094
65.55478 510.032000363686
65.57489 559.981771257157
65.595 538
65.61512 536.012786383982
65.63523 544.999912699059
65.65535 545.035749003331
65.67546 566.983211432884
65.69557 551.045168848115
65.71569 535.990207552018
65.7358 576
65.75591 580.003274897825
65.77603 588.979437231605
65.79614 547.90503771128
65.81626 524.974387769812
65.83637 549.000660097396
65.85648 527.004866445074
65.8766 539
65.89671 508.995708520144
65.91682 529.014642751646
65.93694 534.049223581203
65.95705 567.992234077385
65.97716 530.098141562547
65.99728 514.965068225379
66.01739 564.993216597766
66.03751 538.991289438726
66.05762 547.002505553419
66.07773 530.975141430582
66.09785 531.0403187683
66.11796 547.000493656632
66.13807 538.987134983406
66.15819 555.005164871816
66.1783 521
66.19842 530.019447383155
66.21853 523.927960929651
66.23864 469.986785384428
66.25876 505.958909066575
66.27887 506.94806191951
66.29898 564.983197506337
66.3191 529
66.33921 525.00369869218
66.35933 524.991482820323
66.37944 524.024691173624
66.39955 546.94570468663
66.41967 545.055045643222
66.43978 504.003062176622
66.45989 537.986086924118
66.48001 535.993651057965
66.50012 527.99315309657
66.52023 521.997450028478
66.54035 515.944498460769
66.56046 502.93263147541
66.58058 559.981221699229
66.60069 529.015491525485
66.6208 531
66.64092 535.977464722026
66.66103 514.031154092242
66.68114 560.022752353985
66.70126 526.060413547982
66.72137 523.001201632815
66.74149 530.975833390165
66.7616 592
66.78171 550.979020967641
66.80183 544.016987326485
66.82194 547.975376611874
66.84205 530.0093981597
66.86217 548.954426729309
66.88228 560.02824447441
66.90239 521.000397524159
66.92251 552.003695749471
66.94262 533.006928247661
66.96274 557.965749212104
66.98285 509.98115323946
67.00296 555.917797309266
67.02308 557.016792501932
67.04319 542.00780736996
67.0633 544
67.08342 581.973103222802
67.10353 504.925559156776
67.12365 528.161826703215
67.14376 575.001350107934
67.16387 547.008791181742
67.18399 573.989559055662
67.2041 569
67.22421 569.006135720748
67.24433 568.944289257327
67.26444 513.94377871956
67.28456 530.927939143869
67.30467 558.972636051614
67.32478 566.004432325197
67.3449 562
67.36501 576.000130199701
67.38512 570.014315875311
67.40524 601.034371246568
67.42535 597.998956724523
67.44546 604.020002727577
67.46558 595.966231337831
67.48569 655.985028221968
67.50581 651.005379061589
67.52592 692.034618886087
67.54603 705.017781010436
67.56615 740.153493321524
67.58626 780.067457123791
67.60637 715.99776391735
67.62649 793.965553080433
67.6466 799
67.66672 781.009824145509
67.68683 787.935885744335
67.70694 731.023322991206
67.72706 785.026010961251
67.74717 707.047241691457
67.76728 747.971955781559
67.7874 741
67.80751 787.002279126277
67.82763 744.958961833385
67.84774 742.947563174238
67.86785 711.915638582541
67.88797 781.988680395683
67.90808 721.036556076773
67.92819 760.962115464402
67.94831 818.011450290737
67.96842 815.996735495184
67.98853 838.074954518812
68.00865 889.053388206609
68.02876 887.972945448151
68.04888 921.977200426941
68.06899 926.994128558371
68.0891 947
68.10922 935.995794211996
68.12933 934.964315391072
68.14944 883.887823884137
68.16956 870.885852626187
68.18967 939.0117739369
68.20979 860.028897192768
68.2299 878
68.25001 925.011964519211
68.27013 904.891646687581
68.29024 814.872825830582
68.31035 783.092254365011
68.33047 729.067130422525
68.35058 702.02596087165
68.3707 672
68.39081 675.01577833561
68.41092 690.951983304966
68.43104 614.962512735405
68.45115 655.040689367997
68.47126 610.12183778144
68.49138 585.978305012958
68.51149 616.004090455925
68.5316 582
68.55172 611.999383716644
68.57183 574.973171422898
68.59195 572.889608371151
68.61206 509.998516814748
68.63217 567.95995702335
68.65229 540.008792600424
68.6724 561
68.69251 561.996054196626
68.71263 557.999769669566
68.73274 557.993151711524
68.75286 548.031714656
68.77297 528.033820241356
68.79308 519.977565158729
68.8132 558
68.83331 555.998141244263
68.85342 565.013626012496
68.87354 567.969962345546
68.89365 552.973386685848
68.91376 577.995349172214
68.93388 547.037530851622
68.95399 526.003695655773
68.97411 530.008158068272
68.99422 550.013774096579
69.01433 555.004748660395
69.03445 561.01602254881
69.05456 564.998010331563
69.07467 555.042470630445
69.09479 522.007977899805
69.1149 524
69.13502 509.981872675251
69.15513 513.060316508169
69.17524 567.055248854489
69.19536 562.009097077371
69.21547 565.023234744319
69.23558 530.028846392091
69.2557 529
69.27581 553.002016595559
69.29593 533.963062646096
69.31604 518.986069484063
69.33615 516.995503974887
69.35627 517.009230605719
69.37638 501.024880034779
69.39649 486.991927282591
69.41661 520.008450382328
69.43672 513.996755692459
69.45683 522.003151339185
69.47695 508.949521037824
69.49706 502.9561515028
69.51718 540.971981108935
69.53729 540.01174272905
69.5574 519
69.57752 530.995309460943
69.59763 517.018581198856
69.61774 547.006169571387
69.63786 525.001545138331
69.65797 549.986452779055
69.67809 524.019067227039
69.6982 509
69.71831 537.997574850501
69.73843 511.006245757058
69.75854 550.048705221209
69.77865 525.148569230506
69.79877 480.988597774653
69.81888 521.980329340676
69.839 504
69.85911 513.011684998371
69.87922 537.022486528059
69.89934 560.053971733294
69.91945 566.897482063033
69.93956 512.012013077646
69.95968 566.934631074147
69.97979 577.030729515231
69.9999 497
70.02002 537.055161702135
70.04013 559.993258919691
70.06025 538.921507048594
70.08036 520.972446602968
70.10047 546.999441590634
70.12059 527.997063115406
70.1407 559
70.16081 524.968743770511
70.18093 484.021550561062
70.20104 530.040655240732
70.22116 500.095228518261
70.24127 482.95503869937
70.26138 531.977096212301
70.2815 514
70.30161 505.006022004792
70.32172 523.007573100727
70.34184 517.992810945188
70.36195 519.012723330759
70.38207 523.937201286752
70.40218 556.052108298063
70.42229 465.004559245278
70.44241 541.021744413037
70.46252 511.975145417071
70.48263 529.030452677377
70.50275 545.105416883681
70.52286 585.043855763117
70.54297 510.088723927451
70.56309 499.997727798896
70.5832 495
70.60332 510.040905974624
70.62343 554.024645814842
70.64354 527.893537885052
70.66366 484.02407887222
70.68377 504.950183136939
70.70388 521.010379752194
70.724 516
70.74411 571.998701038054
70.76423 510.931059252228
70.78434 507.991521995806
70.80445 494.962045863457
70.82457 541.932743182589
70.84468 540.060085690347
70.86479 480.993163246688
70.88491 548.014496154965
70.90502 510.959641545745
70.92513 506.010832473054
70.94525 517.073643135998
70.96536 540.047158892102
70.98548 493.006885195458
71.00559 534.982006900323
71.0257 537
71.04582 540.001753647021
71.06593 545.033852313756
71.08604 575.025094117287
71.10616 545.144610107639
71.12627 486.978578221495
71.14639 537.004656229785
71.1665 474
71.18661 525.018210873963
71.20673 505.948110971846
71.22684 496.031058861725
71.24695 515.001803277091
71.26707 493.032475003255
71.28718 496.966466915633
71.3073 539
71.32741 524.975669581151
71.34752 477.987894126391
71.36764 495.015380759909
71.38775 483.009290704906
71.40786 489.021490041004
71.42798 485.944203664018
71.44809 560.0003843025
71.4682 489
71.48832 514.037673148654
71.50843 526.004712495725
71.52855 525.963808547446
71.54866 514.956293328498
71.56877 545.02423467468
71.58889 497.005268515015
71.609 531
71.62911 511.994739076232
71.64923 523.002698781312
71.66934 504.964517345988
71.68946 502.981038869441
71.70957 520.95858214047
71.72968 543.997584011762
71.7498 535
71.76991 541.986521476755
71.79002 502.004639251617
71.81014 554.088935482024
71.83025 555.060951190948
71.85037 529.032532814881
71.87048 522.984455950106
71.89059 543.997907953708
71.91071 524.986871907832
71.93082 509.999401232459
71.95093 522.029660331599
71.97105 527.937883269566
71.99116 497.983952289038
72.01127 530.997117232115
72.03139 502.001726934085
72.0515 533
72.07162 520.988837173422
72.09173 527.013526802944
72.11184 533.021806183283
72.13196 540.027662684605
72.15207 515.014007050018
72.17218 527.98479670614
72.1923 541
72.21241 562.992339880857
72.23253 522.972047836861
72.25264 533.001151758797
72.27275 510.055592296117
72.29287 511.961337820451
72.31298 544.976559863132
72.33309 556.992573863489
72.35321 555.974968497022
72.37332 491.991320510224
72.39344 534.038740884834
72.41355 518.020961114108
72.43366 551.004472896958
72.45378 506.035320134292
72.47389 506.993938090036
72.494 515
72.51412 536.019811553432
72.53423 544.994886033864
72.55434 534.981529238894
72.57446 524.044257601877
72.59457 499.014282614904
72.61469 514.983406492276
72.6348 556
72.65491 584.994156675437
72.67503 533.901161953782
72.69514 501.04938403206
72.71525 545.993017472182
72.73537 505.036041679118
72.75548 528.957619954275
72.7756 548
72.79571 507.98189184224
72.81582 498.012896164221
72.83594 524.064970295492
72.85605 545.00685218547
72.87616 537.959961585473
72.89628 576.982129206331
72.91639 546.033742103883
72.9365 485
72.95662 502.025937817104
72.97673 507.980869451619
72.99685 511.130053226952
73.01696 576.979421927631
73.03707 528.064411051084
73.05719 523.998449260278
73.0773 520
73.09741 535.001669386779
73.11753 525.996900194115
73.13764 525.956220681602
73.15776 501.963857982468
73.17787 556.936633948614
73.19798 556.025649494922
73.2181 544
73.23821 583.009783511231
73.25832 580.007462697091
73.27844 604.026678604274
73.29855 583.128886997619
73.31867 551.943219802863
73.33878 623.977968567794
73.35889 591.004628532114
73.37901 628.013416896102
73.39912 613.970406125231
73.41923 587.958198138201
73.43935 582.114270108103
73.45946 643.976195899004
73.47957 601.055607734815
73.49969 587.016949297229
73.5198 538
73.53992 563.023712256125
73.56003 569.019399531464
73.58014 592.022406102851
73.60026 583.031770748046
73.62037 567.033331649794
73.64048 553.981787419655
73.6606 598
73.68071 607.988024111248
73.70083 567.946756041802
73.72094 550.9918562537
73.74105 544.049103764341
73.76117 516.032461542739
73.78128 508.998341731203
73.80139 502.013404417683
73.82151 463.985661259479
73.84162 469.043127236522
73.86174 525.076696065923
73.88185 537.015423978145
73.90196 542.024615965632
73.92208 513.028534309439
73.94219 507.987533698493
73.9623 538
73.98242 515.98560403291
74.00253 523.014402984927
74.02264 517.963757932295
74.04276 499.017159031677
74.06287 505.974790113374
74.08299 517.002484860737
74.1031 502
74.12321 506.003717081216
74.14333 506.990982496968
74.16344 506.033248889875
74.18355 525.017060917716
74.20367 500.010908375383
74.22378 522.970225387249
74.2439 529
74.26401 509.014795682767
74.28412 561.002496741438
74.30424 499.866449423603
74.32435 475.972016993902
74.34446 497.967204068265
74.36458 507.981180944886
74.38469 535.98914191929
74.40481 522.969540162309
74.42492 454.98016189197
74.44503 489.058637120218
74.46515 498.986641777703
74.48526 499.970022479425
74.50537 518.992418510169
74.52549 515.993659288954
74.5456 533
74.56571 494.990361444118
74.58583 504.006941124428
74.60594 498.019232344268
74.62606 518.002845893705
74.64617 494.023966692076
74.66628 495.003420481986
74.6864 489
74.70651 518.006480252571
74.72662 510.99899018956
74.74674 519.994171560588
74.76685 506.005513441696
74.78697 519.982395742402
74.80708 516.014845555071
74.82719 492.017936954486
74.84731 469.009056396584
74.86742 516.035157592819
74.88753 521.998976472712
74.90765 513.903779703596
74.92776 466.024440106042
74.94787 504.908722069195
74.96799 542.002205556469
74.9881 510
75.00822 505.006615151758
