3.00117 23353.6386181782
3.02128 22796.8108122575
3.0414 21968
3.06151 21788.8300618991
3.08162 21086.1923832091
3.10174 20508.5010655452
3.12185 20281.4920240496
3.14197 19276.5590342847
3.16208 18648.1180332617
3.18219 18667.1529531155
3.20231 17967.6564898398
3.22242 17474.4967569228
3.24253 16928.3974520743
3.26265 16629.978805525
3.28276 15976.6069484054
3.30288 15274.4197422761
3.32299 15074.1043248272
3.3431 14664
3.36322 14112.6065033437
3.38333 13763.181663381
3.40344 13077.9755124692
3.42356 12865.1700817658
3.44367 12661.5860876225
3.46379 12134.2662852315
3.4839 11714
3.50401 11464.8791491474
3.52413 11109.2036109751
3.54424 10474.8241270838
3.56435 10220.4216718586
3.58447 10471.5242532387
3.60458 9633.58384180247
3.62469 9511.09130668367
3.64481 9020.74387013813
3.66492 8690.78473095469
3.68504 8471.46928232255
3.70515 8130.01069333024
3.72526 7732.71067919322
3.74538 7455.1953439621
3.76549 7248.15422178013
3.7856 6948
3.80572 6989.87396714633
3.82583 6599.3215515989
3.84595 6205.99512300744
3.86606 5911.98091713325
3.88617 6056.12509845805
3.90629 5702.15023506463
3.9264 5537
3.94651 5122.81369450988
3.96663 4901.78882659777
3.98674 4793.9079454111
4.00686 4724.40930607729
4.02697 4453.22765806365
4.04708 4410.12660165928
4.0672 4160
4.08731 4045.95173113455
4.10742 3912.8645271835
4.12754 3760.57510963559
4.14765 3522.44753043582
4.16776 3461.92313985575
4.18788 3503.03224173144
4.20799 3364.10077682824
4.22811 3181.94024360754
4.24822 3092.87075237925
4.26833 2916.76778838579
4.28845 2850.05934499332
4.30856 2868.17138875935
4.32867 2704.17471249715
4.34879 2655.04238853529
4.3689 2525
4.38902 2523.00564469168
4.40913 2504.99441277197
4.42924 2469.70180503026
4.44936 2298.03283072861
4.46947 2399.98885213292
4.48958 2299.0094431096
4.5097 2378
4.52981 2207.94087178916
4.54992 2196.96907635587
4.57004 2130.01803545702
4.59015 2236.71677868596
4.61027 2248.16578592485
4.63038 2097.08821830668
4.65049 2094.9968629175
4.67061 2041.94944962678
4.69072 1974.03706912802
4.71083 2080.10007986275
4.73095 2056.85793049829
4.75106 1989.22001252313
4.77118 1904.95582477714
4.79129 2023.98143153602
4.8114 1926
4.83152 1868.01655893155
4.85163 1892.94774558845
4.87174 1823.98212528822
4.89186 1897.83039888672
4.91197 1913.09760751999
4.93209 1795.06566525397
4.9522 1730
4.97231 1801.98762903659
4.99243 1720.03730343066
5.01254 1833.03750742631
5.03265 1736.12902769328
5.05277 1778.96015733368
5.07288 1765.9649699702
5.09299 1839.99243252761
5.11311 1769.95828687045
5.13322 1754.06213259557
5.15334 1823.99232769722
5.17345 1776.04545748636
5.19356 1876.82281457886
5.21368 1872.08666217982
5.23379 1764.03940424869
5.2539 1760
5.27402 1842.04158317796
5.29413 1858.08777039871
5.31425 1913.84821230175
5.33436 1798.98327202749
5.35447 1950.79269580945
5.37459 1977.0147089405
5.3947 1955
5.41481 1956.00004693965
5.43493 1982.13303503236
5.45504 2087.07295618922
5.47516 2039.12829462859
5.49527 2024.94716755827
5.51538 2072.97557752887
5.5355 2108
5.55561 2274.05775454718
5.57572 2311.02868545118
5.59584 2410.35212368048
5.61595 2576.85139198045
5.63606 2517.19164885786
5.65618 2482.95670401716
5.67629 2600.91354613376
5.69641 2763.05033697401
5.71652 2784.97339655698
5.73663 2811.22377883917
5.75675 3008.24014317673
5.77686 2975.08903234113
5.79697 3008.87321808617
5.81709 3122.92607340189
5.8372 3222
5.85732 3121.00734114159
5.87743 3257.17428280142
5.89754 3267.93204958129
5.91766 3219.18609985812
5.93777 3085.2087391187
5.95788 2952.14731288624
5.978 2819
5.99811 2776.94346954653
6.01823 2585.73308472126
6.03834 2465.79389046734
6.05845 2360.20734587468
6.07857 2290.13379988567
6.09868 2178.1033851876
6.11879 2095.03970803513
6.13891 2005.95380396228
6.15902 1896.85789887451
6.17913 1778.97486722822
6.19925 1806.85231079123
6.21936 1684.06002609518
6.23948 1746.9992177532
6.25959 1633.06251454075
6.2797 1567
6.29982 1526.96034780315
6.31993 1482.9186866688
6.34004 1426.9158801705
6.36016 1389.11487745914
6.38027 1348.94072291135
6.40039 1405.02675559728
6.4205 1263
6.44061 1298.03096409457
6.46073 1297.90772499195
6.48084 1235.99782055053
6.50095 1284.93288465401
6.52107 1253.08338001188
6.54118 1196.06997977495
6.56129 1128.018786257
6.58141 1123.00113024939
6.60152 1103.95679674008
6.62164 1052.92308633458
6.64175 1036.99316905309
6.66186 1061.84836549457
6.68198 1114.07104743931
6.70209 978.020882362611
6.7222 1039
6.74232 986.009926222214
6.76243 1054.99184659888
6.78255 963.863731901042
6.80266 988.946599271616
6.82277 972.042300317797
6.84289 951.013648449317
6.863 925
6.88311 941.004523843304
6.90323 918.923041903531
6.92334 881.034156622636
6.94346 917.045992111257
6.96357 851.022198240055
6.98368 909.939227482608
7.0038 900
7.02391 810.985843863603
7.04402 831.992373734424
7.06414 783.956086707113
7.08425 820.844360394704
7.10436 863.977005670396
7.12448 842.045181683276
7.14459 786.031732329355
7.16471 752.015227945667
7.18482 808.007390772063
7.20493 766.976703553907
7.22505 797.055534295332
7.24516 785.039211777523
7.26527 777.005274362697
7.28539 769.00705373167
7.3055 749
7.32562 736.010104217886
7.34573 764.042135378046
7.36584 758.891989397042
7.38596 681.118029217207
7.40607 678.921958529652
7.42618 747.949468236203
7.4463 748
7.46641 703.003722697199
7.48653 744.009566777933
7.50664 712.993037190524
7.52675 750.929619225084
7.54687 730.087634744123
7.56698 665.05090347331
7.58709 645.994409319009
7.60721 674.016475317702
7.62732 688.985306444447
7.64743 648.926560093867
7.66755 621.019178944381
7.68766 648.963610996954
7.70778 654.979172534747
7.72789 691.986608592176
7.748 688
7.76812 670.025322883391
7.78823 702.959521220377
7.80834 619.865712422733
7.82846 621.892518877049
7.84857 671.988651876097
7.86869 637.019415343834
7.8888 628
7.90891 645.999898324387
7.92903 624.963005399983
7.94914 617.024791327797
7.96925 633.002730009567
7.98937 615.021056979221
8.00948 615.993551787371
8.0296 625
8.04971 659.024809821316
8.06982 680.950527327423
8.08994 597.93198199309
8.11005 619.002796355533
8.13016 600.923427519285
8.15028 669.005194193557
8.17039 599.011561026811
8.1905 651
8.21062 645.988129174384
8.23073 639.956345277155
8.25085 604.007106319638
8.27096 628.035795584665
8.29107 577.017774806356
8.31119 617.982487419374
8.3313 612
8.35141 592.992812644291
8.37153 582.992137331278
8.39164 585.023032786244
8.41176 596.998246443333
8.43187 581.040564379234
8.45198 576.952408975919
8.4721 641
8.49221 598.978068963112
8.51232 599.034733798129
8.53244 616.917168943329
8.55255 550.037360552173
8.57266 583.993883084533
8.59278 539.029642847805
8.61289 562.973633319028
8.63301 593.99138275445
8.65312 561.010185656017
8.67323 626.10848383413
8.69335 645.884814893641
8.71346 572.097458669451
8.73357 558.031428664477
8.75369 539.98144856683
8.7738 621
8.79392 611.93588648156
8.81403 556.002940716234
8.83414 591.993889183676
8.85426 544.050399912186
8.87437 570.937861994054
8.89448 584.021100260104
8.9146 547
8.93471 543.006326267547
8.95483 551.989146207917
8.97494 539.008527765851
8.99505 561.950429222243
9.01517 557.044920833399
9.03528 524.013302370997
9.05539 545.974909571375
9.07551 600.019672041887
9.09562 590.926616323612
9.11573 509.978107996112
9.13585 562.114374089939
9.15596 565.009010840687
9.17608 572.995194979399
9.19619 559.016298406436
9.2163 537
9.23642 566.983682351527
9.25653 516.980710751094
9.27664 545.004874855743
9.29676 515.999472449593
9.31687 555.955877707565
9.33699 566.982767312192
9.3571 608
9.37721 548.980092033697
9.39733 577.11855767051
9.41744 630.936795976861
9.43755 548.096731907663
9.45767 578.952741145014
9.47778 564.039503277553
9.4979 538
9.51801 558.002322438988
9.53812 537.977115212481
9.55824 536.042649023641
9.57835 574.113168828131
9.59846 602.011306440409
9.61858 588.978226274019
9.63869 625.006468515871
9.6588 575
9.67892 626.062623030524
9.69903 652.990724047066
9.71915 635.979536970738
9.73926 639.999613441508
9.75937 624.042489575048
9.77949 622.968795992278
9.7996 713
9.81971 686.975938052474
9.83983 657.976294628784
9.85994 633.906214753731
9.88006 592.980678423845
9.90017 638.964681937355
9.92028 612.046842655677
9.9404 582
9.96051 604.023971677529
9.98062 612.906892525695
10.00074 478.902246067723
10.02085 527.912683035087
10.04097 501.037420181152
10.06108 509.98892189741
10.08119 504.00519717623
10.10131 520.030197173464
10.12142 587.016592905683
10.14153 549.943708327028
10.16165 541.998392331263
10.18176 529.044755516305
10.20187 510.007843289526
10.22199 515.997817510302
10.2421 508
10.26222 495.005820783834
10.28233 517.032842329236
10.30244 525.998119433436
10.32256 525.982689484119
10.34267 544.965535214042
10.36278 548.034854373711
10.3829 505
10.40301 537.006492861535
10.42313 511.957387560382
10.44324 505.010556986773
10.46335 505.033731491973
10.48347 501.940392446992
10.50358 561.975615630919
10.52369 531.025233990204
10.54381 510.011175243285
10.56392 549.014838668535
10.58403 532.980166882625
10.60415 525.923530212749
10.62426 495.949714060993
10.64438 552.989276971185
10.66449 498.030907583188
10.6846 483
10.70472 523.025963076794
10.72483 521.977202573473
10.74494 515.021912381941
10.76506 523.051106067866
10.78517 486.988517062348
10.80529 519.008700648668
10.8254 468
10.84551 521.0010147507
10.86563 464.966225245791
10.88574 510.111551164228
10.90585 518.10578737915
10.92597 473.991114409449
10.94608 526.954924698917
10.9662 533
10.98631 519.987058260237
11.00642 507.035969816085
11.02654 561.008974846136
11.04665 520.037519464195
11.06676 543.990304419595
11.08688 515.018989219572
11.10699 527.98835291744
11.1271 541
11.14722 549.025854467387
11.16733 580.014489793819
11.18745 563.950187062183
11.20756 544.074082124857
11.22767 515.962344954187
11.24779 565.000567080644
11.2679 521
11.28801 555.998216739232
11.30813 512.993799664972
11.32824 554.029145114712
11.34836 525.036302617903
11.36847 528.029155759728
11.38858 497.984531890205
11.4087 535
11.42881 474.000121965806
11.44892 535.021048587456
11.46904 494.955928303096
11.48915 518.951842932276
11.50927 514.992898687119
11.52938 539.975598113879
11.54949 553.992953018784
11.56961 569.00288970658
11.58972 559.980649459353
11.60983 533.950650671704
11.62995 511.011853209745
11.65006 538.942599483795
11.67017 553.987137272385
11.69029 552.01207113771
11.7104 526
11.73052 541.976308264087
11.75063 507.050149208146
11.77074 592.079446832296
11.79086 540.186530316013
11.81097 490.951797021387
11.83108 559.976166662909
11.8512 533
11.87131 570.00658792889
11.89143 551.004107373391
11.91154 572.970096251393
11.93165 535.969052621478
11.95177 574.047348464697
11.97188 489.025901667406
11.99199 544.975889849912
12.01211 539.992649283889
12.03222 522.944955275622
12.05234 464.016018070044
12.07245 523.059306015861
12.09256 500.98531534838
12.11268 550.969711695238
12.13279 533.01643274348
12.1529 520
12.17302 520.962242588422
12.19313 468.984966667947
12.21324 508.078912972874
12.23336 514.027099699354
12.25347 503.000565554621
12.27359 500.013405368922
12.2937 475
12.31381 527.005488276878
12.33393 480.924637921109
12.35404 473.058176775616
12.37415 510.942157309778
12.39427 505.039613330936
12.41438 481.006920596745
12.4345 489
12.45461 478.988011047556
12.47472 457.997160700151
12.49484 480.076923965712
12.51495 502.04942005165
12.53506 463.020532817141
12.55518 487.981351268444
12.57529 482.003792619845
12.5954 495
12.61552 524.00252910559
12.63563 491.922199870385
12.65575 454.997564618224
12.67586 477.972028015746
12.69597 482.957322109158
12.71609 510.016232551716
12.7362 436
12.75631 463.023587431295
12.77643 469.927067855314
12.79654 417.019638718037
12.81666 489.863230658506
12.83677 494.081064868628
12.85688 429.033923024935
12.877 442
12.89711 461.997567070591
12.91722 440.982128711461
12.93734 450.081345799288
12.95745 509.848912044429
12.97757 530.066311569212
12.99768 469.005551961066
13.01779 502.008735455739
13.03791 445.002011999464
13.05802 507.016541790739
13.07813 460.965835066037
13.09825 489.052931915115
13.11836 474.046163326112
13.13847 454.049911608346
13.15859 427.990517675947
13.1787 484
13.19882 487.972683286739
13.21893 456.972678056869
13.23904 446.95574861621
13.25916 425.971400403585
13.27927 465.967336735366
13.29938 463.98779038719
13.3195 502
13.33961 501.977105950572
13.35973 445.968897575978
13.37984 470.067207242974
13.39995 479.038007393337
13.42007 452.039911281802
13.44018 439.994818450507
13.46029 459.98516836826
13.48041 469.982827132872
13.50052 429.015160574848
13.52064 475.9835381763
13.54075 420.983076422765
13.56086 482.888260348537
13.58098 486.023008169172
13.60109 457.020642314889
13.6212 439
13.64132 523.04665895129
13.66143 493.893816193902
13.68154 454.061175180118
13.70166 517.960626158832
13.72177 482.039352792788
13.74189 488.002239098651
13.762 472
13.78211 514.012460115122
13.80223 488.904917646548
13.82234 441.021462043652
13.84245 482.993838804141
13.86257 452.977242847099
13.88268 507.988856213592
13.9028 466
13.92291 469.978983553896
13.94302 410.021533366293
13.96314 506.127493527608
13.98325 487.116714264297
14.00336 472.951448255122
14.02348 507.988091509102
14.04359 479.026928855052
14.06371 431.988375577845
14.08382 443.039497118689
14.10393 463.941113232567
14.12405 399.972286858376
14.14416 458.863219452141
14.16427 482.027072565908
14.18439 455.003921538217
14.2045 468
14.22461 455.990221458238
14.24473 442.994053743759
14.26484 445.005276273637
14.28496 442.019022730624
14.30507 431.009513457181
14.32518 435.983091123757
14.3453 447
14.36541 428.00681249891
14.38552 459.997958468024
14.40564 423.964867384561
14.42575 443.938891545611
14.44587 451.99497865842
14.46598 451.016883700526
14.48609 434.993244626448
14.50621 470.009721670974
14.52632 460.98621417443
14.54643 453.981943196767
14.56655 433.953208221222
14.58666 427.981256811643
14.60677 442.987721936234
14.62689 446.99266558627
14.647 465
14.66712 446.99019720345
14.68723 454.011542121074
14.70734 451.987786982404
14.72746 444.026006255445
14.74757 441.957489985826
14.76768 480.990121566432
14.7878 452
14.80791 420.981147886049
14.82803 397.036788071305
14.84814 459.106824361712
14.86825 461.117699134489
14.88837 416.98578810399
14.90848 481.92859176862
14.92859 509.010222137272
14.94871 458.970929808449
14.96882 431.020285340099
14.98894 489.133562178369
15.00905 508.862710191105
15.02916 440.980544110773
15.04928 512.971652671649
15.06939 469.019658075378
15.0895 486
15.10962 508.965362775675
15.12973 433.902124949305
15.14984 425.09051052957
15.16996 472.999257882439
15.19007 422.084110622033
15.21019 420.965695296114
15.2303 487
15.25041 405.992456567028
15.27053 468.042526948112
15.29064 438.999309827791
15.31075 478.985830624231
15.33087 436.046824908924
15.35098 440.994357789725
15.3711 443
15.39121 481.999217688629
15.41132 447.991512329514
15.43144 476.035555089743
15.45155 457.088923640435
15.47166 423.067106055638
15.49178 406.97952556959
15.51189 456.973529164978
15.53201 463.968926406273
15.55212 394.007576200581
15.57223 471.079743856587
15.59235 464.978292854714
15.61246 477.995100022738
15.63257 456.04190034258
15.65269 441.999087720692
15.6728 456
15.69291 466.99522451842
15.71303 448.995079575785
15.73314 454.973931484729
15.75326 430.002262219481
15.77337 458.955537696043
15.79348 467.006927231167
15.8136 468
15.83371 489.987758105957
15.85382 436.980305539695
15.87394 449.968018979464
15.89405 408.999396791522
15.91417 458.937169813163
15.93428 458.021397589719
15.95439 441.004971577334
15.97451 443.008190831419
15.99462 472.036986327288
16.01473 478.914520231069
16.03485 406.991815591213
16.05496 468.919738670742
16.07508 451.026169043211
16.09519 455.987108391697
16.1153 475
16.13542 442.956946088713
16.15553 425.042693944261
16.17564 479.073910755635
16.19576 474.059999789038
16.21587 451.000918530676
16.23598 467.985646419299
16.2561 459
16.27621 435.009374310978
16.29633 477.017477658131
16.31644 451.970089042111
16.33655 460.998947135047
16.35667 452.975470988518
16.37678 487.985414947672
16.39689 464.020854460514
16.41701 438.001535494573
16.43712 459.014551481559
16.45724 451.960812965127
16.47735 445.055210976518
16.49746 471.024074926955
16.51758 435.003908402254
16.53769 474.98027877218
16.5578 473
16.57792 431.994000601079
16.59803 468.074634825708
16.61814 485.936037256695
16.63826 431.063645876773
16.65837 443.948431248623
16.67849 481.976793177355
16.6986 519
16.71871 495.990049454643
16.73883 495.006289241249
16.75894 486.952381619213
16.77905 464.995912711539
16.79917 478.01417283911
16.81928 450.00845039233
16.8394 464
16.85951 460.016511770437
16.87962 505.992002133874
16.89974 450.943724102565
16.91985 471.952363708254
16.93996 465.012391155791
16.96008 467.009255310341
16.98019 445.008214519116
17.00031 451.013601951045
17.02042 465.970251696072
17.04053 426.025575894448
17.06065 481.016626724581
17.08076 436.027678400775
17.10087 470.971539899714
17.12099 451.008522668403
17.1411 467
17.16121 492.996586861806
17.18133 463.971508715649
17.20144 470.028703395699
17.22156 484.951891184771
17.24167 508.991582588526
17.26178 497.010518426451
17.2819 502
17.30201 510.995057135052
17.32212 499.015041640793
17.34224 538.060885668916
17.36235 533.088122218671
17.38247 491.044509615112
17.40258 488.977544514857
17.42269 511.998786217833
17.44281 486.980962829746
17.46292 470.024580378604
17.48303 514.030746740019
17.50315 494.919391776225
17.52326 479.985765064343
17.54338 486.022861544326
17.56349 451.999560500642
17.5836 497
17.60372 517.987750461627
17.62383 493.981817351678
17.64394 503.032242858969
17.66406 502.056723750179
17.68417 471.992805590889
17.70428 501.991104932669
17.7244 483
17.74451 488.990927558639
17.76463 469.057332412327
17.78474 542.047754144259
17.80485 510.028311929124
17.82497 529.026245970863
17.84508 475.022885721479
17.86519 496.993343659995
17.88531 475.986328181536
17.90542 465.000619232394
17.92554 466.996039678308
17.94565 461.99575692087
17.96576 470.958839832875
17.98588 489.000139978328
18.00599 487.984599033654
18.0261 518
18.04622 444.987344956884
18.06633 504.068849443793
18.08645 501.997264813458
18.10656 501.100333931836
18.12667 427.032815908227
18.14679 463.986647603054
18.1669 464
18.18701 510.004354467281
18.20713 479.981060098384
18.22724 489.964658470663
18.24735 453.985359089804
18.26747 502.950442747948
18.28758 493.021419066977
18.3077 489
18.32781 502.002370996856
18.34792 501.005957331976
18.36804 510.996618261519
18.38815 495.042397514111
18.40826 477.063578075193
18.42838 445.005007958919
18.44849 455.006989990355
18.46861 432.011121341065
18.48872 496.047552369927
18.50883 491.949596032717
18.52895 450.880988509047
18.54906 414.01680223062
18.56917 447.891105385144
18.58929 507.002309409457
18.6094 455
18.62951 464.004255965453
18.64963 453.993971799387
18.66974 465.021353551192
18.68986 475.946485449186
18.70997 507.984344903384
18.73008 488.032464903111
18.7502 459
18.77031 448.01012927543
18.79042 500.068242503302
18.81054 533.926611470162
18.83065 472.011971698014
18.85077 537.898138735035
18.87088 543.05479506613
18.89099 494.988414139968
18.91111 558.003298546752
18.93122 507.989010369757
18.95133 562.074474400412
18.97145 574.022961414914
18.99156 585.035451755037
19.01168 554.994986167549
19.03179 584.002738539557
19.0519 540
19.07202 556.033047705929
19.09213 567.968599594726
19.11224 541.011554027398
19.13236 576.951183278257
19.15247 583.96304906044
19.17258 624.979814468885
19.1927 622
19.21281 660.025761327076
19.23293 688.978405718506
19.25304 673.089461686793
19.27315 748.96474120863
19.29327 693.062564673712
19.31338 701.987721943847
19.33349 689.009659926421
19.35361 683.004155757796
19.37372 715.06374976778
19.39384 758.926887497071
19.41395 660.801117398693
19.43406 679.762663867891
19.45418 789.013139470379
19.47429 691.016326963491
19.4944 754
19.51452 743.031570670274
19.53463 829.088335797955
19.55475 822.928039055846
19.57486 798.071865277559
19.59497 775.951144231883
19.61509 855.960852701177
19.6352 889
19.65531 867.995742248525
19.67543 896.09534335842
19.69554 963.075910350143
19.71565 950.135116403813
19.73577 911.960918810432
19.75588 980.958125544111
19.776 966
19.79611 949.997127017562
19.81622 962.043238356924
19.83634 1004.99394267149
19.85645 974.980880740203
19.87656 1000.08485182768
19.89668 918.00732218972
19.91679 987.982239209279
19.93691 939.965514939241
19.95702 908.001736022903
19.97713 930.048473447448
19.99725 935.881043717823
20.01736 863.082952132438
20.03747 867.983238293709
20.05759 858.009059383811
20.0777 855
20.09782 878.990592215734
20.11793 831.919305508218
20.13804 798.971782801841
20.15816 803.946779333888
20.17827 832.986336942818
20.19838 820.015100242511
20.2185 810
20.23861 781.985571838012
20.25872 773.02240934059
20.27884 808.033818933048
20.29895 796.053346565612
20.31907 782.013706474844
20.33918 780.986944681679
20.35929 802.990236599772
20.37941 800.984263719194
20.39952 776.025792787232
20.41963 830.02260412837
20.43975 780.820918425541
20.45986 737.011323209222
20.47998 767.943987482799
20.50009 808.003280207368
20.5202 770
20.54032 778.011671230896
20.56043 788.046015207213
20.58054 815.958199008177
20.60066 765.030785957588
20.62077 785.0144826591
20.64088 750.987528855798
20.661 801
20.68111 774.01365460806
20.70123 858.080723133892
20.72134 856.003424737041
20.74145 913.736105987933
20.76157 1034.83573892344
20.78168 1137.87486464745
20.80179 1239.99908736517
20.82191 1184.00263194156
20.84202 1257.02815425374
20.86214 1196.84097806726
20.88225 1160.00161235056
20.90236 1145.15519711424
20.92248 1035.06288094814
20.94259 996.057921897617
20.9627 822
20.98282 815.012909995813
21.00293 780.902552341218
21.02305 728.975637569942
21.04316 750.971027842551
21.06327 745.000746458408
21.08339 751.006284616638
21.1035 716
21.12361 706.010645930937
21.14373 733.001980248931
21.16384 687.838652964625
21.18395 633.934596056571
21.20407 700.977291620681
21.22418 664.99378567827
21.2443 722
21.26441 680.975983789876
21.28452 673.023613380767
21.30464 685.936930016952
21.32475 648.922814182113
21.34486 713.022610819273
21.36498 652.972825565947
21.38509 762.974279928341
21.40521 692.943329074777
21.42532 630.005162174968
21.44543 673.049892256842
21.46555 669.952379937274
21.48566 662.973870947003
21.50577 678.013835402606
21.52589 660.990967233457
21.546 686
21.56612 607.98079083608
21.58623 655.035980188066
21.60634 618.91134530586
21.62646 622.884828411594
21.64657 683.987960036702
21.66668 655.990763247361
21.6868 689
21.70691 620.002290043458
21.72702 705.060004182094
21.74714 699.987824696477
21.76725 710.051565871046
21.78737 658.05476863035
21.80748 680.920121120372
21.82759 752.00132379127
21.84771 709.007294697866
21.86782 795.072928644522
21.88793 810.996848999215
21.90805 820.025272156978
21.92816 831.951765133684
21.94828 867.963551245784
21.96839 910.967057542482
21.9885 963
22.00862 883.919457388371
22.02873 844.979977782352
22.04884 819.885795185262
22.06896 751.076210546235
22.08907 730.087441334683
22.10919 660.000013702447
22.1293 705
22.14941 639.001449838909
22.16953 709.025261438077
22.18964 652.941687748511
22.20975 689.893072899075
22.22987 709.957801906119
22.24998 731.03291213722
22.27009 679.99288400057
22.29021 740.001288169881
22.31032 671.951298654356
22.33044 685.056678138094
22.35055 686.949849411218
22.37066 671.973862819084
22.39078 688.029109310078
22.41089 654.973597709681
22.431 745
22.45112 653.993229778401
22.47123 753.095840033035
22.49135 706.77164189741
22.51146 648.022738770339
22.53157 670.954814192547
22.55169 664.030666601893
22.5718 604
22.59191 684.029747095382
22.61203 668.910663665424
22.63214 612.933474868942
22.65225 623.854768955441
22.67237 687.963147855464
22.69248 667.027662295027
22.7126 668
22.73271 699.008812640643
22.75282 684.953772835209
22.77294 631.934458067348
22.79305 637.907571897022
22.81316 680.937799382732
22.83328 668.071572559718
22.85339 592.005099227893
22.87351 649.027710007334
22.89362 646.952458956094
22.91373 611.031943593207
22.93385 657.98863327132
22.95396 602.059662071154
22.97407 637.903418026865
22.99419 665.019883709266
23.0143 592
23.03442 615.060285386986
23.05453 661.01080257328
23.07464 641.982467379169
23.09476 653.986207426197
23.11487 638.046114402335
23.13498 607.024134247993
23.1551 603
23.17521 626.996377849209
23.19532 610.027084971261
23.21544 658.989050558253
23.23555 599.094167001163
23.25567 617.949093194767
23.27578 627.014566134608
23.29589 602.011656918383
23.31601 603.018098963053
23.33612 645.006890435592
23.35623 622.993641058162
23.37635 633.943334451551
23.39646 603.923927165093
23.41658 683.980250165023
23.43669 643.000165010614
23.4568 712
23.47692 710.943073944379
23.49703 667.042536511005
23.51714 724.97135435507
23.53726 651.036778180567
23.55737 717.898966333202
23.57749 737.995591186437
23.5976 770
23.61771 819.011124095613
23.63783 811.975439350779
23.65794 819.08676498137
23.67805 860.035129515727
23.69817 799.070449150225
23.71828 797.983324725437
23.73839 788.02630507522
23.75851 723.986519584096
23.77862 728.984458757823
23.79874 687.963107817185
23.81885 697.992841375926
23.83896 675.017580312947
23.85908 684.003660843765
23.87919 660.010639816256
23.8993 668
23.91942 709.003420192149
23.93953 675.953429340918
23.95965 674.041183423259
23.97976 689.98631881539
23.99987 675.061455991507
24.01999 650.97960771507
24.0401 718
24.06021 651.969066862664
24.08033 636.999689481554
24.10044 622.952099585047
24.12056 615.933491192196
24.14067 669.953153033718
24.16078 653.047453818239
24.1809 618
24.20101 653.016705244632
24.22112 658.985154311837
24.24124 635.950322078041
24.26135 633.901365911388
24.28146 679.009339738303
24.30158 630.032109659298
24.32169 665.952910809016
24.34181 738.990257106029
24.36192 654.950713071558
24.38203 672.025472069042
24.40215 671.072635086602
24.42226 743.838023263248
24.44237 771.082716034061
24.46249 693.006008919383
24.4826 741
24.50272 695.966889670466
24.52283 692.963777932163
24.54294 642.942554888461
24.56306 649.978548585922
24.58317 642.025577476701
24.60328 625.017092140417
24.6234 614
24.64351 631.013824271889
24.66362 621.911337818899
24.68374 531.056967562551
24.70385 647.870659859238
24.72397 593.076059540088
24.74408 611.956498121431
24.76419 634.999003627386
24.78431 627.998179218273
24.80442 631.000663560421
24.82453 622.97902978502
24.84465 610.988890454916
24.86476 619.954603812163
24.88488 644.984977465484
24.90499 640.011509902923
24.9251 618
24.94522 632.013074041795
24.96533 641.029714198889
24.98544 656.964648317135
25.00556 614.0586386269
25.02567 613.989538026237
25.04579 619.990346840515
25.0659 648
25.08601 654.006571902617
25.10613 661.957860366432
25.12624 611.94721151065
25.14635 630.897604600747
25.16647 664.969011761601
25.18658 660.036870734587
25.20669 621.002186691111
25.22681 642.00024862859
25.24692 635.044117761264
25.26704 697.980549232672
25.28715 624.910212226916
25.30726 646.00319058351
25.32738 618.975411803972
25.34749 684.990290547983
25.3676 639
25.38772 642.021978213096
25.40783 655.003336726951
25.42795 635.877590399662
25.44806 597.952775749727
25.46817 649.009499798015
25.48829 593.006324506255
25.5084 653
25.52851 678.997021743001
25.54863 661.972778223926
25.56874 656.019941038371
25.58886 667.013656404759
25.60897 646.018854448048
25.62908 637.032506042318
25.6492 618
25.66931 697.988931716868
25.68942 595.963469579122
25.70954 646.026878688075
25.72965 591.079712022063
25.74976 617.938888607312
25.76988 612.027518717607
25.78999 603.98108959483
25.81011 667.020121603565
25.83022 648.935325240414
25.85033 604.045623004474
25.87045 670.015146670604
25.89056 608.085144790403
25.91067 635.905561345735
25.93079 690.980850012538
25.9509 705
25.97102 676.960475101383
25.99113 639.961324281131
26.01124 642.076762578282
26.03136 683.993396422786
26.05147 664.975047788999
26.07158 713.980596970559
26.0917 683
26.11181 675.012730164537
26.13193 699.983742474128
26.15204 678.053316876431
26.17215 731.008708470144
26.19227 683.992377611241
26.21238 730.020190844344
26.23249 651.011221403418
26.25261 731.05638076423
26.27272 792.995039892681
26.29283 742.913899551608
26.31295 734.146878122578
26.33306 812.938234211499
26.35318 803.974049354547
26.37329 889.95251174184
26.3934 958
26.41352 997.009135588532
26.43363 1021.14658365578
26.45374 1183.31159632088
26.47386 1322.64341233386
26.49397 1583.5118063858
26.51409 1932.82986177667
26.5342 2292
26.55431 2730.1656479738
26.57443 2998.53301766564
26.59454 3420.61556681941
26.61465 3515.11234696528
26.63477 3393.31519769649
26.65488 3087.39130205141
26.67499 2629.25238592815
26.69511 2143.79783867324
26.71522 1823.71935079019
26.73534 1494.17878867914
26.75545 1120.56121094292
26.77556 1088.19940512869
26.79568 886.125227827351
26.81579 885.002871902183
26.8359 821
26.85602 811.971073126369
26.87613 762.982330359515
26.89625 781.966851023073
26.91636 731.060869519277
26.93647 731.025284727827
26.95659 686.018130621162
26.9767 684
26.99681 688.979359566079
27.01693 623.946570271936
27.03704 653.153613746577
27.05716 714.00683541004
27.07727 657.077697418895
27.09738 643.998489746881
27.1175 632
27.13761 611.00786096413
27.15772 651.022825024937
27.17784 647.000625454995
27.19795 662.970960798115
27.21806 655.045842264433
27.23818 628.024274895358
27.25829 618.993735611337
27.27841 640.004950722717
27.29852 634.995568418039
27.31863 639.007317466085
27.33875 639.999559754528
27.35886 631.055731964299
27.37897 620.917530228187
27.39909 699.993309110823
27.4192 655
27.43932 714.055916482757
27.45943 725.992322849219
27.47954 735.05455116802
27.49966 757.023137923408
27.51977 726.012090748709
27.53988 762.938548629121
27.56 807
27.58011 781.989777097904
27.60023 794.058730366875
27.62034 833.032261532921
27.64045 837.931617946589
27.66057 877.987314034921
27.68068 872.95650491036
27.70079 953.977922301136
27.72091 936.985527698744
27.74102 947.05089832156
27.76113 1011.06954782987
27.78125 1017.93820550235
27.80136 972.126783077664
27.82148 923.004706473409
27.84159 956.981403090895
27.8617 946
27.88182 846.936244006256
27.90193 846.048467769064
27.92204 880.066248943712
27.94216 895.037338479339
27.96227 884.915683909016
27.98239 957.010820363049
28.0025 882
28.02261 981.003398626194
28.04273 874.895085170692
28.06284 891.010134140742
28.08295 817.305910479952
28.10307 719.042352234826
28.12318 745.977205105279
28.1433 715
28.16341 644.987516214163
28.18352 667.031530465576
28.20364 671.958651867722
28.22375 641.940923526214
28.24386 638.966491305064
28.26398 649.022391564397
28.28409 608.00978117739
28.3042 629
28.32432 658.005246755927
28.34443 648.996609680038
28.36455 659.017157679294
28.38466 668.9315572818
28.40477 702.023365068394
28.42489 668.985752119621
28.445 734
28.46511 668.99179598063
28.48523 720.040506887189
28.50534 677.869390047622
28.52546 640.008424211548
28.54557 655.974504403132
28.56568 653.024917030929
28.5858 632
28.60591 653.991638386711
28.62602 594.945168368828
28.64614 586.066589980761
28.66625 621.002274494723
28.68636 593.017939763608
28.70648 606.008257768312
28.72659 589.983439982775
28.74671 640.990014851455
28.76682 552.936058821863
28.78693 560.051445378358
28.80705 586.063239478073
28.82716 614.943418623342
28.84727 625.033553717626
28.86739 593.002116134011
28.8875 609
28.90762 584.011512378724
28.92773 633.051555274109
28.94784 631.988072370666
28.96796 617.115847684976
28.98807 558.969971713193
29.00818 631.977996837732
29.0283 595
29.04841 642.004346673093
29.06853 594.947933215506
29.08864 595.986296981779
29.10875 585.912165697596
29.12887 635.026196118443
29.14898 576.991673626903
29.16909 642.996171197801
29.18921 575.979146627304
29.20932 604.043045492407
29.22943 611.965279465525
29.24955 590.01923721037
29.26966 632.890627821411
29.28978 661.014900696345
29.30989 613.027269443492
29.33 590
29.35012 645.065495082847
29.37023 690.022929241855
29.39034 674.925288193197
29.41046 645.993972276435
29.43057 679.939267463984
29.45069 695.009341439006
29.4708 682
29.49091 734.988367851544
29.51103 662.993947205223
29.53114 740.110191182348
29.55125 714.159577260566
29.57137 681.959379215637
29.59148 740.964342721302
29.6116 716
29.63171 668.009355466533
29.65182 744.076944708021
29.67194 781.021279681311
29.69205 787.021822846663
29.71216 809.918691356245
29.73228 838.019405426057
29.75239 801.993343860006
29.7725 883
29.79262 933.979216318005
29.81273 875.942464347761
29.83285 872.98092362784
29.85296 836.100179813707
29.87307 809.969612429576
29.89319 840.009680574965
29.9133 779
29.93341 772.980159409512
29.95353 706.968525200692
29.97364 739.045236754639
29.99376 725.031315714711
30.01387 722.0160856234
30.03398 688.051779645093
30.0541 651
30.07421 685.009413790882
30.09432 683.01415460494
30.11444 709.998456523658
30.13455 665.160735212291
30.15467 634.948346965249
30.17478 705.951553443476
30.19489 709.003579359762
30.21501 707.993086444195
30.23512 705.050546662544
30.25523 775.017709080297
30.27535 722.888617217392
30.29546 731.923817350752
30.31557 759.000359073477
30.33569 720.036346183654
30.3558 674
30.37592 743.994567207945
30.39603 656.899559767912
30.41614 673.123773334268
30.43626 721.973922071363
30.45637 684.122529697894
30.47648 612.014419167258
30.4966 645
30.51671 632.993339351576
30.53683 631.98787731302
30.55694 609.953744628909
30.57705 588.075963173584
30.59717 564.983963489997
30.61728 606.955946514929
30.63739 620.011344752974
30.65751 605.020446177328
30.67762 668.002488864517
30.69773 595.882796806998
30.71785 566.014639619197
30.73796 588.932655775858
30.75808 625.961736967122
30.77819 647.006786452964
30.7983 616
30.81842 620.990816815421
30.83853 594.981465758528
30.85864 606.028022354644
30.87876 595.086864991626
30.89887 562.952844960466
30.91899 621.002617171193
30.9391 554
30.95921 581.017409882282
30.97933 575.945244630512
30.99944 536.959534766207
31.01955 539.974919218817
31.03967 540.016267350716
31.05978 533.984508446961
31.0799 549
31.10001 495.984316039365
31.12012 524.075411419653
31.14024 578.954791279999
31.16035 518.999455842115
31.18046 566.033760073762
31.20058 495.003530039603
31.22069 569.978695292598
31.2408 529
31.26092 494.994883573861
31.28103 504.016870459164
31.30115 511.019685078547
31.32126 525.954588607575
31.34137 542.009503384809
31.36149 521.0060481747
31.3816 530
31.40171 540.998100411167
31.42183 525.976503118024
31.44194 532.079459040343
31.46206 578.970896381097
31.48217 561.01774376306
31.50228 578.967360212591
31.5224 591
31.54251 544.991439171635
31.56262 560.005288515821
31.58274 538.955874602699
31.60285 540.934560136966
31.62297 559.034399377233
31.64308 509.029654770821
31.66319 519.987508291441
31.68331 533.000657731176
31.70342 525.987646659066
31.72353 524.031905827239
31.74365 543.952565281199
31.76376 509.974401665773
31.78387 569.931758157847
31.80399 553.033083040733
31.8241 503
31.84422 574.051364717087
31.86433 555.899494377424
31.88444 500.997333176136
31.90456 531.004612734809
31.92467 498.993305317862
31.94478 542.980059509638
31.9649 524
31.98501 551.02082083925
32.00513 575.996990051187
32.02524 546.908414693617
32.04535 512.013857066404
32.06547 525.99159871944
32.08558 514.01081173675
32.10569 514.997606225788
32.12581 521.006275856678
32.14592 540.019653527381
32.16604 548.984716696192
32.18615 531.96722863049
32.20626 536.951640172981
32.22638 567.976220398487
32.24649 575.002909426617
32.2666 548
32.28672 485.980907725414
32.30683 511.039558134297
32.32694 508.964191442229
32.34706 502.95740467137
32.36717 514.078348261042
32.38729 440.998459943068
32.4074 530
32.42751 543.977128267323
32.44763 483.937208372312
32.46774 497.146584890331
32.48785 566.017304556851
32.50797 501.051013521017
32.52808 534.94989280673
32.5482 541
32.56831 480.988497240446
32.58842 506.034741982829
32.60854 512.958873683132
32.62865 492.978121189385
32.64876 512.034603540276
32.66888 478.980936329282
32.68899 544.980353258248
32.7091 523
32.72922 479.94596351741
32.74933 453.078155051422
32.76945 558.197390185897
32.78956 564.073931451681
32.80967 526.040434495151
32.82979 515.000794362432
32.8499 520
32.87001 520.979007870031
32.89013 464.982608664195
32.91024 516.147950692931
32.93036 563.978592959736
32.95047 547.037305200695
32.97058 523.033566436376
32.9907 490
33.01081 500.004358451433
33.03092 504.017858877146
33.05104 523.982980513778
33.07115 513.885609097655
33.09127 584.989092585357
33.11138 522.050430820709
33.13149 521.996869168715
33.15161 512.999257437967
33.17172 524.005704954354
33.19183 525.021685846287
33.21195 543.99052426423
33.23206 511.081648037926
33.25217 493.972864465527
33.27229 522.997993870258
33.2924 492
33.31252 483.036908261281
33.33263 531.013428275882
33.35274 508.003207525141
33.37286 529.042667792601
33.39297 478.00876084074
33.41308 523.97065157194
33.4332 525
33.45331 574.002161241215
33.47343 524.930515585313
33.49354 517.022221017632
33.51365 538.891620824911
33.53377 573.026550193488
33.55388 515.043781850755
33.57399 506.003643454661
33.59411 501.01558414518
33.61422 557.034941564998
33.63434 544.92032676583
33.65445 521.042423184169
33.67456 553.008308046875
33.69468 526.982603537362
33.71479 595.968650560162
33.7349 614
33.75502 589.95328246553
33.77513 556.033353936831
33.79524 616.071553500802
33.81536 600.067800460281
33.83547 574.038275640072
33.85559 553.002165759828
33.8757 570
33.89581 599.009096540801
33.91593 596.965344763005
33.93604 572.993101834344
33.95615 596.908400410424
33.97627 603.080535275373
33.99638 540.988662320924
34.0165 617
34.03661 597.980036448122
34.05672 601.062425682611
34.07684 666.99245511382
34.09695 600.12478663029
34.11706 610.926959855635
34.13718 642.967974832794
34.15729 666.000212113751
34.17741 633.971433085628
34.19752 594.014104521077
34.21763 643.041725784212
34.23775 641.036789527191
34.25786 665.041938438782
34.27797 617.003840831203
34.29809 670.97567456086
34.3182 687
34.33831 702.989695844688
34.35843 669.017767293628
34.37854 713.006885190596
34.39866 680.979473572623
34.41877 743.927911621241
34.43888 733.04701145501
34.459 696
34.47911 723.014824863293
34.49922 735.000888093978
34.51934 735.005202642113
34.53945 738.005853660458
34.55957 732.998806658768
34.57968 743.982989633374
34.59979 764.986673799007
34.61991 778.990406926773
34.64002 739.975402889839
34.66013 747.033322223252
34.68025 768.048391652404
34.70036 780.99663983924
34.72047 799.896242526391
34.74059 867.011015014031
34.7607 777
34.78082 796.008026449689
34.80093 770.998847173041
34.82104 816.110186507537
34.84116 854.938778109201
34.86127 869.029818799622
34.88138 833.016516210488
34.9015 842
34.92161 825.987371548255
34.94173 814.018444812949
34.96184 838.024063943911
34.98195 840.950078129982
35.00207 861.035173515196
35.02218 811.015408864671
35.04229 840.987419249071
35.06241 809.955881331231
35.08252 729.996497399747
35.10264 797.127664207508
35.12275 800.898959438892
35.14286 765.989254458187
35.16298 780.043413808332
35.18309 714.991852267918
35.2032 802
35.22332 759.943350478908
35.24343 746.024028593678
35.26354 771.051102645854
35.28366 780.033585660584
35.30377 757.000438172164
35.32389 782.986654329747
35.344 796
35.36411 817.017577570026
35.38423 853.029396317781
35.40434 847.957576324847
35.42445 842.911896717484
35.44457 897.955982413666
35.46468 898.985253013193
35.4848 940
35.50491 937.976949868055
35.52502 912.063956442926
35.54514 1018.05860939784
35.56525 952.153672701032
35.58536 941.026176282977
35.60548 915.99353505721
35.62559 929.024357769474
35.64571 841.983879325975
35.66582 867.995829627797
35.68593 822.987969311399
35.70605 858.016795247372
35.72616 813.096889403347
35.74627 788.032368946592
35.76639 767.001277630049
35.7865 785
35.80661 803.009404247969
35.82673 800.924443275435
35.84684 736.970867871695
35.86696 771.95616439434
35.88707 754.033717375609
35.90718 741.024543418816
35.9273 716
35.94741 738.994674752731
35.96752 692.966536509811
35.98764 703.074520183518
36.00775 730.013257121406
36.02787 705.015393521291
36.04798 714.998544885113
36.06809 688.023111998926
36.08821 656.003705555732
36.10832 685.007693638158
36.12843 675.027630033458
36.14855 710.990948019197
36.16866 655.126497128341
36.18878 625.996665075181
36.20889 657.970670319247
36.229 698
36.24912 654.022047343718
36.26923 733.059730416385
36.28934 702.928816601664
36.30946 711.920665970756
36.32957 741.014418838736
36.34968 692.060571741528
36.3698 680
36.38991 790.036824246629
36.41003 780.905187424152
36.43014 725.97616860866
36.45025 759.880211476842
36.47037 794.961050153722
36.49048 818.975594706413
36.51059 827.014021574727
36.53071 795.008141372023
36.55082 838.998842955694
36.57094 782.904495713537
36.59105 762.914004597645
36.61116 712.052224459171
36.63128 722.980117294329
36.65139 724.008820863732
36.6715 702
36.69162 696.984813618197
36.71173 673.983572628506
36.73184 682.028730271899
36.75196 683.039148705407
36.77207 667.966860302346
36.79219 712.989785103333
36.8123 689
36.83241 662.997357483983
36.85253 680.053153347984
36.87264 694.917970167732
36.89275 623.102340837299
36.91287 638.942931604787
36.93298 664.986013894169
36.9531 672
36.97321 671.994291541493
36.99332 652.984346673688
37.01344 656.05274236733
37.03355 672.082594081924
37.05366 616.027168402873
37.07378 649.978860054497
37.09389 639.999641816502
37.11401 666.011854602878
37.13412 657.958057561606
37.15423 631.059399433399
37.17435 700.023039972679
37.19446 653.021812017039
37.21457 683.024284767425
37.23469 625.003723520548
37.2548 678
37.27491 642.968619469959
37.29503 605.003400754766
37.31514 630.030272188834
37.33526 614.071470351012
37.35537 585.009602286149
37.37548 619.921005385986
37.3956 687
37.41571 613.962227793637
37.43582 584.00019571667
37.45594 596.042261892023
37.47605 623.914281405697
37.49617 644.023019450158
37.51628 622.975663450232
37.53639 674.994853083824
37.55651 624.970301183547
37.57662 606.021502322156
37.59673 642.036388599857
37.61685 634.919495416838
37.63696 608.987678274414
37.65708 635.989237830159
37.67719 619.009636894439
37.6973 622
37.71742 640.986679916686
37.73753 597.935348698473
37.75764 587.049441355781
37.77776 633.897659190419
37.79787 652.053761494338
37.81798 595.023840978115
37.8381 619
37.85821 626.994707920116
37.87833 605.956549866812
37.89844 583.996234750955
37.91855 591.020490417944
37.93867 580.961362059449
37.95878 625.990611410239
37.97889 585.025569594436
37.99901 559.999096970643
38.01912 571.016595833777
38.03924 591.055979179445
38.05935 613.999506968357
38.07946 592.048203698213
38.09958 580.004717251466
38.11969 591.978547384217
38.1398 625
38.15992 554.977425851177
38.18003 594.046248816353
38.20015 584.971379954425
38.22026 592.976127631239
38.24037 596.005179564729
38.26049 590.003516556997
38.2806 586
38.30071 584.9925677597
38.32083 571.019456223031
38.34094 594.985979778474
38.36105 564.014220392184
38.38117 587.986644210752
38.40128 571.00890180479
38.4214 591
38.44151 612.995943328502
38.46162 587.987867134711
38.48174 598.023955427111
38.50185 600.0000332081
38.52196 602.000134658538
38.54208 590.029511219787
38.56219 564.996130354953
38.58231 593.003690761956
38.60242 576.998455713398
38.62253 600.029733091494
38.64265 596.954521037306
38.66276 575.042897653978
38.68287 565.982449739245
38.70299 578.008274599181
38.7231 543
38.74321 551.997649078171
38.76333 535.013517038195
38.78344 573.063234796891
38.80356 583.978883869807
38.82367 598.994751663597
38.84378 585.021448237991
38.8639 577
38.88401 587.981871072113
38.90412 541.020883490283
38.92424 612.049239032021
38.94435 575.044610956841
38.96447 603.965890408385
38.98458 580.058062487392
39.00469 549.975786426451
39.02481 626.000673123268
39.04492 556.966810301958
39.06503 590.036448012712
39.08515 573.966244717255
39.10526 591.928988781967
39.12538 609.024145591284
39.14549 574.994736548361
39.1656 617
39.18572 567.945427030102
39.20583 557.050459183881
39.22594 614.115198831908
39.24606 643.015316404041
39.26617 608.067840253607
39.28628 590.966680638937
39.3064 649
39.32651 639.988361510862
39.34663 641.052922037391
39.36674 701.128964253647
39.38685 750.913828913002
39.40697 761.035820414966
39.42708 721.028242437776
39.44719 719.992815242792
39.46731 715.977881134802
39.48742 662.992404939649
39.50754 704.0781110874
39.52765 706.955974928178
39.54776 676.103619004322
39.56788 621.031385345065
39.58799 616.999449767404
39.6081 604
39.62822 593.022431473778
39.64833 611.936955848366
39.66845 528.885684879778
39.68856 552.902224601145
39.70867 592.938217648935
39.72879 612.018754112682
39.7489 549
39.76901 565.99476856423
39.78913 520.970817482589
39.80924 561.147667307878
39.82935 610.02637410355
39.84947 574.985389026419
39.86958 619.001868962225
39.8897 562
39.90981 570.009338084849
39.92992 575.00480152675
39.95004 579.983912133626
39.97015 566.991180630776
39.99026 584.98224768176
40.01038 581.994121042863
40.03049 591.007254881762
40.05061 558.99179871972
40.07072 583.056384558267
40.09083 618.954887956307
40.11095 553.942505146273
40.13106 593.905278975684
40.15117 608.008101048076
40.17129 602.000877800297
40.1914 604
40.21152 608.017793893992
40.23163 626.99555586305
40.25174 604.969847184468
40.27186 609.975023525584
40.29197 613.016444376252
40.31208 602.989451828583
40.3322 609
40.35231 547.99925378854
40.37242 598.016588822794
40.39254 566.983274369194
40.41265 592.995215628064
40.43277 566.998811965413
40.45288 598.987382771172
40.47299 564.03002957097
40.49311 541.027309427242
40.51322 626.026749483144
40.53333 578.92710051214
40.55345 576.046653136523
40.57356 594.956966483024
40.59368 597.042275383123
40.61379 536.014155709221
40.6339 547
40.65402 540.015585906111
40.67413 576.027302369657
40.69424 560.948087837025
40.71436 553.960127395593
40.73447 578.004401876798
40.75458 550.019903719674
40.7747 564
40.79481 601.004674198326
40.81493 574.931979849124
40.83504 556.075670756101
40.85515 606.034002945992
40.87527 535.069235358429
40.89538 545.981123912676
40.91549 562.972898910033
40.93561 608.97608733649
40.95572 522.014557054155
40.97584 620.045681462608
40.99595 545.911369788988
41.01606 601.870104681673
41.03618 607.042398892615
41.05629 551.023661552926
41.0764 535
41.09652 563.016131249829
41.11663 557.980892848123
41.13675 545.960130428989
41.15686 532.001915712721
41.17697 543.979094758885
41.19709 559.985606697922
41.2172 584
41.23731 552.994596821407
41.25743 553.94506955815
41.27754 491.949811137986
41.29765 519.911630542525
41.31777 531.995401265016
41.33788 537.993816811226
41.358 534
41.37811 514.004756652391
41.39822 548.025637376222
41.41834 554.014501515831
41.43845 554.091352383309
41.45856 517.936891586889
41.47868 589.98296979548
41.49879 532.028797205077
41.51891 530.017125439335
41.53902 554.989182417459
41.55913 520.972996049511
41.57925 531.028470298536
41.59936 529.007404745858
41.61947 531.990483817728
41.63959 537.997413985833
41.6597 542
41.67982 544.001455337976
41.69993 542.991497434234
41.72004 521.910883485974
41.74016 490.942356712196
41.76027 560.931145553658
41.78038 554.024074166274
41.8005 538
41.82061 516.993218214373
41.84072 527.039693599285
41.86084 558.960248733593
41.88095 513.004578095518
41.90107 563.936762326058
41.92118 553.047245933828
41.94129 530.975778740272
41.96141 599.996739792168
41.98152 534.98934818906
42.00163 584.002570092845
42.02175 517.881401172322
42.04186 530.940036842828
42.06198 558.950001772645
42.08209 596.018005608788
42.1022 527
42.12232 593.032021458417
42.14243 563.974820766582
42.16254 595.08282758434
42.18266 600.082643094488
42.20277 550.015818190441
42.22289 592.96889627876
42.243 639
42.26311 639.984467360321
42.28323 611.020160321086
42.30334 665.104633873832
42.32345 685.005215002784
42.34357 673.030610583457
42.36368 658.993860819625
42.38379 680.990191244774
42.40391 686.999489752131
42.42402 672.960555461883
42.44414 645.066988181121
42.46425 693.921405534399
42.48436 605.053670503558
42.50448 656.971198699424
42.52459 620.021741017745
42.5447 599
42.56482 572.012199741452
42.58493 607.004871008443
42.60505 563.87644339276
42.62516 538.022237466648
42.64527 532.001773588692
42.66539 533.99806490594
42.6855 540
42.70561 544.995327882044
42.72573 529.996925913767
42.74584 535.981548917458
42.76595 521.962361883126
42.78607 548.022822870773
42.80618 502.013590145589
42.8263 539
42.84641 543.984483292683
42.86652 517.016003109596
42.88664 557.011904645161
42.90675 520.076592185594
42.92686 518.993403524664
42.94698 520.979578131945
42.96709 563.975381475826
42.98721 587.991291128566
43.00732 549.978586597966
43.02743 534.917374121195
43.04755 473.02953688523
43.06766 532.996157814076
43.08777 473.029599228116
43.10789 512.991580108285
43.128 487
43.14812 520.027406597456
43.16823 530.036661741898
43.18834 546.910848394892
43.20846 473.031505146309
43.22857 525.931809665109
43.24868 526.007700150145
43.2688 532
43.28891 517.98538092965
43.30902 502.024184727387
43.32914 538.990509867541
43.34925 492.086852748197
43.36937 499.958784948103
43.38948 510.021531054042
43.40959 484.992991306334
43.42971 514.99010675771
43.44982 457.984380793178
43.46993 521.15087877916
43.49005 582.965588888993
43.51016 511.149944128644
43.53028 481.987239424274
43.55039 508.991136383664
43.5705 503
43.59062 493.018395565779
43.61073 519.997304628955
43.63084 492.977113563251
43.65096 507.976679040971
43.67107 498.030432074427
43.69119 489.992098596737
43.7113 510
43.73141 484.998990231268
43.75153 502.991574059303
43.77164 481.02469891459
43.79175 528.916420740197
43.81187 520.044828018142
43.83198 495.015241362596
43.85209 490.997888146026
43.87221 494.999158264253
43.89232 482.978596385292
43.91244 460.971594064528
43.93255 481.181346451743
43.95266 563.938219586092
43.97278 532.044614026567
43.99289 506.012741754061
44.013 477
44.03312 479.015431196987
44.05323 497.023440749204
44.07335 502.984075217316
44.09346 500.956694492598
44.11357 523.030821355532
44.13369 477.005364057849
44.1538 521
44.17391 542.988979767177
44.19403 498.947525889475
44.21414 498.055796609665
44.23426 528.974620742355
44.25437 514.046775632977
44.27448 493.99236877902
44.2946 524
44.31471 541.005627164554
44.33482 543.984316909354
44.35494 517.965522787727
44.37505 515.997099895232
44.39516 510.022294099153
44.41528 509.974473690673
44.43539 533.011205135005
44.45551 483.993343218311
44.47562 520.037049092578
44.49573 512.927233576132
44.51585 460.951914451
44.53596 480.940106408726
44.55607 493.007615852107
44.57619 487.994312424802
44.5963 501
44.61642 476.019217842673
44.63653 530.03979498582
44.65664 501.903736259324
44.67676 483.942530481663
44.69687 534.952155649179
44.71698 542.980016301465
44.7371 565
44.75721 508.984019192487
44.77732 525.030967019463
44.79744 524.911420186501
44.81755 477.984667509966
44.83767 518.001379518538
44.85778 480.993202105188
44.87789 538.981928421802
44.89801 530.99898776512
44.91812 555.019840063347
44.93823 546.955442260408
44.95835 511.926336842795
44.97846 493.026585224766
44.99858 490.97976499269
45.01869 520.992089723807
45.0388 515
45.05892 504.983756645811
45.07903 490.003257317494
45.09914 508.033314850616
45.11926 511.012310811823
45.13937 497.037376041879
45.15949 476.997797655668
45.1796 501
45.19971 493.984808024098
45.21983 474.032749196741
45.23994 521.04786710125
45.26005 512.010518766237
45.28017 517.028762474333
45.30028 482.008474759422
45.32039 499.998914870223
45.34051 476.992467814051
45.36062 483.007432574666
45.38074 484.012422539825
45.40085 497.023989773819
45.42096 498.005706956828
45.44108 494.007182730653
45.46119 494.988684565902
45.4813 533
45.50142 526.940756844079
45.52153 460.983407957828
45.54165 506.103168611968
45.56176 515.980356994187
45.58187 533.995965684334
45.60199 522.001258976263
45.6221 542
45.64221 555.989476141771
45.66233 517.97190851955
45.68244 531.043207360913
45.70256 540.998253224843
45.72267 538.006541147091
45.74278 539.986426114975
45.7629 574
45.78301 618.996173771909
45.80312 574.976027694882
45.82324 575.950574334749
45.84335 523.07984922339
45.86346 524.998808995701
45.88358 507.018101269532
45.90369 508.987981307827
45.92381 529.995256996829
45.94392 488.954099675718
45.96403 476.048049900537
45.98415 515.996250651767
46.00426 478.040013075066
46.02437 492.980421778751
46.04449 485.005612689228
46.0646 482
46.08472 476.991164196102
46.10483 481.050054059148
46.12494 521.013655444143
46.14506 488.078990421271
46.16517 474.978901451508
46.18528 488.016925428885
46.2054 456
46.22551 484.008284834448
46.24563 471.976443923145
46.26574 475.039015482318
46.28585 495.977151617662
46.30597 492.008240554272
46.32608 492.99611787568
46.34619 492.005020214918
46.36631 486.007715163175
46.38642 516.020010570867
46.40653 497.910245697389
46.42665 445.018417637246
46.44676 498.933564057788
46.46688 485.021128643143
46.48699 480.002684361567
46.5071 469
46.52722 469.996136393313
46.54733 468.026427513047
46.56744 488.980369629692
46.58756 460.004178890361
46.60767 481.008263382916
46.62779 459.987809251511
46.6479 509
46.66801 449.989954365361
46.68813 486.030547478202
46.70824 471.001995235272
46.72835 493.008843095863
46.74847 463.015994243594
46.76858 473.013653635642
46.78869 437.006097827614
46.80881 465.019237848676
46.82892 494.028378844792
46.84904 517.006381369084
46.86915 490.873984722748
46.88926 453.978809268197
46.90938 488.000581625505
46.92949 454.004052543537
46.9496 480
46.96972 468.013747988808
46.98983 510.038570134995
47.00995 487.856890796025
47.03006 455.915809401995
47.05017 530.973760658048
47.07029 480.019917741035
47.0904 489
47.11051 490.001793482921
47.13063 498.998485284599
47.15074 484.97081944123
47.17086 481.982714135389
47.19097 500.958298058504
47.21108 515.021352417404
47.2312 473
47.25131 478.006995524319
47.27142 484.002606713351
47.29154 478.9570312558
47.31165 447.066920175796
47.33176 447.927486335952
47.35188 489.990223690098
47.37199 462.016696395129
47.39211 446.997727129355
47.41222 453.024728280297
47.43233 490.051109401341
47.45245 488.865475948665
47.47256 433.971667555174
47.49267 501.945472145612
47.51279 477.015410699767
47.5329 472
47.55302 458.987249064506
47.57313 459.022213158483
47.59324 476.008637719081
47.61336 457.075600577959
47.63347 426.998793013858
47.65358 461.950777579208
47.6737 491
47.69381 464.993297706208
47.71393 454.929254663821
47.73404 414.099449816119
47.75415 508.977526071079
47.77427 431.052777308044
47.79438 478.958196845238
47.81449 475.998802816896
47.83461 490.992193771145
47.85472 463.021185204785
47.87483 518.017538342535
47.89495 476.933587514004
47.91506 490.971867453703
47.93518 477.029583731155
47.95529 461.99111520412
47.9754 486
47.99552 449.0024053805
48.01563 493.039428967293
48.03574 469.909582761945
48.05586 441.994923518167
48.07597 460.987189638482
48.09609 451.004853525239
48.1162 453
48.13631 463.009913217932
48.15643 477.983287107466
48.17654 440.917660976224
48.19665 424.955689646438
48.21677 459.959349215199
48.23688 464.009613982624
48.257 465
48.27711 499.004341990153
48.29722 474.968671806048
48.31734 465.030470401835
48.33745 485.000942042716
48.35756 456.08667683166
48.37768 456.910416959394
48.39779 559.00397283201
48.4179 464
48.43802 505.995994530241
48.45813 440.975253123411
48.47825 478.97448542343
48.49836 422.99283338759
48.51847 488.961144462545
48.53859 453.00858739968
48.5587 487
48.57881 474.967704768019
48.59893 418.023464485801
48.61904 488.082782118319
48.63916 461.105215835878
48.65927 442.947893876401
48.67938 485.015035376084
48.6995 431
48.71961 477.015700059719
48.73972 460.973852204535
48.75984 454.009213905142
48.77995 455.025301731284
48.80006 441.999834320548
48.82018 456.984410816144
48.84029 461.002861571594
48.86041 453.999191529291
48.88052 453.991304116678
48.90063 431.955985196363
48.92075 428.121563096689
48.94086 482.032049953843
48.96097 410.057916047599
48.98109 446.967220549
49.0012 492
49.02132 489.978772726786
49.04143 460.956975836474
49.06154 451.039305621629
49.08166 474.022378999517
49.10177 448.971596897321
49.12188 494.005189470248
49.142 445
49.16211 489.014711113038
49.18223 472.963310359879
49.20234 473.041634130538
49.22245 490.020266550156
49.24257 461.036368243719
49.26268 452.008394602404
49.28279 459.972594020953
49.30291 510.982521548455
49.32302 435.010228648647
49.34313 533.090349878481
49.36325 510.937849727679
49.38336 521.987131594074
49.40348 502.027593687794
49.42359 488.99726608452
49.4437 488
49.46382 438.989851091642
49.48393 478.070765759945
49.50404 491.958951138039
49.52416 459.043060615271
49.54427 456.00072339981
49.56439 452.997224397097
49.5845 476
49.60461 499.991431655207
49.62473 456.960734156547
49.64484 472.077184583168
49.66495 496.02970697567
49.68507 462.031567276422
49.70518 475.963791984259
49.7253 510
49.74541 521.010288271724
49.76552 533.969925892373
49.78564 485.990299955199
49.80575 524.050432056361
49.82586 503.050060695179
49.84598 502.982727303672
49.86609 533.97581843958
49.8862 577
49.90632 564.000756408415
49.92643 576.980441729808
49.94655 550.023726720464
49.96666 617.806419563935
49.98677 687.978071284904
50.00689 669.001283215347
50.027 698
50.04711 706.00551688887
50.06723 725.016475772389
50.08734 719.973382322074
50.10746 710.998945037996
50.12757 705.05012439773
50.14768 649.051706532548
50.1678 616
50.18791 600.003667991343
50.20802 615.99615921397
50.22814 583.920233963688
50.24825 561.993958591572
50.26837 570.016965104878
50.28848 533.043567294076
50.30859 499.013172685736
50.32871 490.010294475593
50.34882 512.985784927905
50.36893 473.982516782764
50.38905 493.003416575478
50.40916 464.047042234196
50.42927 460.008415369344
50.44939 451.994911385239
50.4695 475
50.48962 467.999054945594
50.50973 487.045125900043
50.52984 502.97007147489
50.54996 476.005838361718
50.57007 483.049198529619
50.59018 430.999918989507
50.6103 488
50.63041 484.986404210278
50.65053 468.003095023135
50.67064 476.990309315102
50.69075 471.927246049366
50.71087 512.010890158315
50.73098 465.020591530482
50.75109 484.995574288713
50.77121 472.003072111134
50.79132 505.026384039508
50.81143 505.984533148621
50.83155 493.954941086854
50.85166 476.01394248492
50.87178 467.034463713033
50.89189 431.99320651156
50.912 483
50.93212 459.959031648402
50.95223 438.002868751128
50.97234 450.007197194878
50.99246 453.937498652291
51.01257 493.00058221713
51.03269 458.008693230322
51.0528 474
51.07291 464.992710106812
51.09303 465.027449549804
51.11314 483.996300467749
51.13325 466.019578110033
51.15337 475.986010451296
51.17348 475.002591851433
51.1936 480
51.21371 487.99472468118
51.23382 460.972456030535
51.25394 452.026717942005
51.27405 481.908873548621
51.29416 491.08593700536
51.31428 430.019283465177
51.33439 461.983344285067
51.3545 467
51.37462 480.034545594953
51.39473 499.945707537617
51.41485 447.028830637024
51.43496 518.906984165226
51.45507 501.055183056688
51.47519 481.006362467771
51.4953 460
51.51541 442.017644652521
51.53553 508.055361557953
51.55564 488.91382938653
51.57576 461.009241221393
51.59587 483.929577340317
51.61598 519.010146416559
51.6361 467
51.65621 436.996388264672
51.67632 444.017109446266
51.69644 464.038816861593
51.71655 470.042859939117
51.73667 449.988964351944
51.75678 470.012468420279
51.77689 431.007007729482
51.79701 449.002870821486
51.81712 427.981976331744
51.83723 436.041501594774
51.85735 458.999749997824
51.87746 445.000918694641
51.89757 459.992560955672
51.91769 452.997692460969
51.9378 463
51.95792 426.975725741375
51.97803 437.051246183693
51.99814 477.073954767662
52.01826 496.01236899033
52.03837 475.027670866884
52.05848 470.994711160931
52.0786 485
52.09871 505.995384824492
52.11883 470.951958456994
52.13894 451.952521603544
52.15905 444.876955675982
52.17917 510.995823874475
52.19928 454.032982607701
52.21939 487.969858268278
52.23951 510.980938531516
52.25962 452.98767895203
52.27974 501.11574699447
52.29985 519.951316554898
52.31996 493.007664603098
52.34008 504.012748967216
52.36019 471.005366826736
52.3803 496
52.40042 490.943389484069
52.42053 442.05021991597
52.44064 522.031498126217
52.46076 461.078753360926
52.48087 481.96603392007
52.50099 476.003167234618
52.5211 480
52.54121 467.997720180208
52.56133 473.000914460223
52.58144 463.980198056119
52.60155 473.89570368193
52.62167 509.034249363682
52.64178 449.02458109298
52.6619 484
52.68201 492.985366736233
52.70212 464.01109953998
52.72224 495.987856886347
52.74235 450.070790408668
52.76246 469.916293042033
52.78258 500.986985827422
52.80269 498.005111175524
52.8228 489
52.84292 484.000134021683
52.86303 491.020093911394
52.88315 502.000021266494
52.90326 491.026732696905
52.92337 478.027108229721
52.94349 461.001928803493
52.9636 469
52.98371 471.003645288382
53.00383 477.986625448326
53.02394 464.014788888805
53.04406 489.970101213687
53.06417 492.971292695239
53.08428 515.016980095752
53.1044 469
53.12451 482.004475821972
53.14462 484.031553800311
53.16474 526.998414721869
53.18485 486.055559891884
53.20497 502.972802186058
53.22508 496.020423127249
53.24519 481.999537697988
53.26531 494.005351754487
53.28542 506.027895248945
53.30553 535.000197560014
53.32565 503.913371705623
53.34576 496.94979728087
53.36587 538.941784053836
53.38599 557.000583945186
53.4061 538
53.42622 499.979285723198
53.44633 511.059238827749
53.46644 534.934427499929
53.48656 483.977447001656
53.50667 556.919540486992
53.52678 547.037472186155
53.5469 522
53.56701 533.014067718611
53.58713 542.937243107181
53.60724 483.98536932052
53.62735 528.92730602936
53.64747 521.993498724177
53.66758 552.974878094577
53.68769 539.02699576531
53.70781 480.988036937757
53.72792 509.060318910216
53.74804 557.018953379257
53.76815 530.917510613992
53.78826 509.040914053532
53.80838 500.974379722435
53.82849 544.987367353942
53.8486 535
53.86872 511.976786105398
53.88883 496.002401528111
53.90894 516.057823327802
53.92906 530.031667663241
53.94917 506.988927827281
53.96929 545.983112959085
53.9894 548
54.00951 531.000960302787
54.02963 545.005235334967
54.04974 535.997842568185
54.06985 558.894316955066
54.08997 588.019566225226
54.11008 542.040502484414
54.1302 533
54.15031 543.000101139498
54.17042 531.985364245402
54.19054 509.919561621825
54.21065 473.000787525208
54.23076 506.934516620421
54.25088 518.993231994834
54.27099 525.003020034958
54.29111 511.9982727418
54.31122 516.99601429503
54.33133 501.984226274971
54.35145 498.980918802034
54.37156 493.965793773683
54.39167 529.952440340829
54.41179 536.00923294809
54.4319 507
54.45201 503.012820607448
54.47213 543.047006946049
54.49224 556.01412471746
54.51236 552.065194631806
54.53247 507.034223258605
54.55258 521.965936701161
54.5727 547
54.59281 525.977174563847
54.61292 491.009592592657
54.63304 534.062696695497
54.65315 531.039125631606
54.67327 521.011494688481
54.69338 528.959732072881
54.71349 581.985741198857
54.73361 569.984061183374
54.75372 551.006524628349
54.77383 572.017777456786
54.79395 571.014198800165
54.81406 586.979811408181
54.83417 583.015517191542
54.85429 575.002251438509
54.8744 571
54.89452 573.028475845708
54.91463 609.010621806483
54.93474 576.909642831658
54.95486 552.98662883978
54.97497 569.007659140446
54.99508 534.042763360317
55.0152 516
55.03531 551.010792491629
55.05543 536.937387447774
55.07554 497.974257903249
55.09565 513.938808140457
55.11577 527.993330383528
55.13588 520.024252624778
55.15599 501.992492156764
55.17611 528.995457801134
55.19622 498.009286902095
55.21634 547.051725430965
55.23645 533.985705370299
55.25656 547.005977529799
55.27668 522.018093461671
55.29679 524.995172959968
55.3169 537
55.33702 554.982905273648
55.35713 515.971947470056
55.37724 528.023094989591
55.39736 520.030880033686
55.41747 508.01417286062
55.43759 505.99429210048
55.4577 510
55.47781 468.999656464116
55.49793 520.094536800677
55.51804 540.926508541897
55.53815 478.102277795315
55.55827 496.895854230023
55.57838 560.989368425907
55.5985 509
55.61861 468.007543580065
55.63872 510.01851438687
55.65884 482.910796712966
55.67895 461.958128347662
55.69906 496.960859481638
55.71918 500.978402966201
55.73929 528.006741891466
55.75941 479.984903282359
55.77952 496.03891563345
55.79963 523.00430415513
55.81975 495.873371848863
55.83986 458.982112888268
55.85997 497.968173748023
55.88009 482.012465754651
55.9002 476
55.92031 495.006067018129
55.94043 484.948031059634
55.96054 456.020004859105
55.98066 486.004964372006
56.00077 464.960141803735
56.02088 514.0205740715
56.041 432
56.06111 478.041256469202
56.08122 529.001717836115
56.10134 502.970140547974
56.12145 511.981823874041
56.14157 491.074742795035
56.16168 459.963050583049
56.18179 537.979017527563
56.20191 505.96630605585
56.22202 470.02475140909
56.24213 518.006595120055
56.26225 481.982903284974
56.28236 510.99573484748
56.30248 481.004679751276
56.32259 519.97834078534
56.3427 526
56.36282 492.010319806492
56.38293 525.98978886151
56.40304 476.94352386756
56.42316 500.910222930832
56.44327 528.994309784379
56.46338 522.994217995838
56.4835 542
56.50361 541.000364846173
56.52373 544.991354379162
56.54384 525.954867110864
56.56395 512.998400415848
56.58407 514.023468788204
56.60418 491.003615646928
56.62429 501.004402065704
56.64441 485.010509004312
56.66452 539.038288075923
56.68464 527.907867942531
56.70475 484.961702438578
56.72486 500.946517094267
56.74498 516.996191649376
56.76509 516.997074535568
56.7852 523
56.80532 500.983680088034
56.82543 491.973177067638
56.84554 469.99051974523
56.86566 496.897180381024
56.88577 529.037522693592
56.90589 476.006780420389
56.926 505
56.94611 471.985702955026
56.96623 479.043992883315
56.98634 505.019618011343
57.00645 501.007361681756
57.02657 505.992664120549
57.04668 501.016595552943
57.0668 487
57.08691 499.997119367901
57.10702 472.97635033928
57.12714 467.003871047139
57.14725 468.99012555037
57.16736 476.975889834909
57.18748 480.019341995296
57.20759 462.988191912648
57.22771 509.005639056409
57.24782 483.993810754429
57.26793 500.984594645825
57.28805 464.975896204989
57.30816 485.991706876649
57.32827 472.97465951121
57.34839 510.998690195417
57.3685 463
57.38861 442.010050859195
57.40873 483.054746600504
57.42884 489.953958014333
57.44896 460.025682265762
57.46907 471.968609370912
57.48918 477.020127003764
57.5093 449
57.52941 460.002557904573
57.54952 440.964513598591
57.56964 425.064906338404
57.58975 479.945709673041
57.60987 463.009299521096
57.62998 475.011917514002
57.65009 449.99240495739
57.67021 487.99489223757
57.69032 432.974746420373
57.71043 470.086730828843
57.73055 497.969650829541
57.75066 476.976956786812
57.77078 509.998074630437
57.79089 472.016993507468
57.811 478
57.83112 503.975443059652
57.85123 451.972876113627
57.87134 480.051240838088
57.89146 479.007676583468
57.91157 481.011089654232
57.93168 466.005316679112
57.9518 482
57.97191 491.978279542591
57.99203 416.92215524231
58.01214 425.102989132218
58.03225 476.938544250116
58.05237 474.006060813186
58.07248 482.990515440739
58.09259 485.999034711266
58.11271 478.985419165926
58.13282 441.983347735595
58.15294 450.018666232854
58.17305 452.022745236579
58.19316 475.936813453393
58.21328 493.013341602626
58.23339 463.008436563844
58.2535 474
58.27362 485.989159926041
58.29373 458.961600388511
58.31385 459.082045795225
58.33396 485.056042987157
58.35407 429.015671239789
58.37419 465.993681970174
58.3943 429
58.41441 424.011190508919
58.43453 453.033315751389
58.45464 458.986256058532
58.47475 451.994268837524
58.49487 478.913987032338
58.51498 526.010924549235
58.5351 460
58.55521 433.006712106195
58.57532 467.037256765288
58.59544 477.9434772601
58.61555 436.041134704705
58.63566 458.924836785866
58.65578 487.978722573789
58.67589 497.004600668659
58.69601 477.992870420184
58.71612 475.000611959463
58.73623 472.995319496855
58.75635 473.014797050522
58.77646 485.963808737308
58.79657 490.041493677723
58.81669 444.016276890891
58.8368 445
58.85691 476.016958274886
58.87703 490.967043805501
58.89714 452.970211502735
58.91726 463.998038839168
58.93737 444.023762170486
58.95748 454.964584707812
58.9776 487
58.99771 463.990909270342
59.01782 464.001716699725
59.03794 458.992733055534
59.05805 465.953337176215
59.07817 482.003702558565
59.09828 473.984791228863
59.11839 493.012820118874
59.13851 447.003475312376
59.15862 496.006964106035
59.17873 453.978711358333
59.19885 486.050695012774
59.21896 474.014621112218
59.23908 485.991127677925
59.25919 473.015568999998
59.2793 448
59.29942 468.006972051565
59.31953 453.98137629449
59.33964 460.037849777069
59.35976 475.001414701535
59.37987 465.00200396295
59.39998 482.970177042989
59.4201 500
59.44021 467.989780759678
59.46033 478.044570588421
59.48044 501.000177664897
59.50055 487.007964320752
59.52067 490.030223082485
59.54078 459.996666760448
59.56089 492.992210882209
59.58101 482.000050602943
59.60112 499.00200948136
59.62124 482.989525624831
59.64135 501.062883093174
59.66146 528.916981757515
59.68158 560.015498411195
59.70169 521.001583025626
59.7218 549
59.74192 521.022360429897
59.76203 590.057084628404
59.78215 594.107711880712
59.80226 657.021206590096
59.82237 601.965873936535
59.84249 692.986849794355
59.8626 635
59.88271 669.009758584101
59.90283 648.9894831145
59.92294 663.987635234879
59.94305 629.069106917491
59.96317 619.026021468701
59.98328 596.998452349007
60.0034 639
60.02351 680.983138987261
60.04362 619.004400738755
60.06374 687.068694717415
60.08385 659.055953035829
60.10396 667.009237895948
60.12408 634.033536234626
60.14419 631.982865090486
60.16431 656.982475269192
60.18442 589.980439943708
60.20453 629.045059181358
60.22465 619.971780905838
60.24476 623.999542297939
60.26487 615.006729691513
60.28499 626.986698547483
60.3051 650
60.32522 627.966377968145
60.34533 602.987595038275
60.36544 600.972384112359
60.38556 588.956587730191
60.40567 619.028804023503
60.42578 563.02210532032
60.4459 585
60.46601 564.000756752542
60.48612 598.026971189381
60.50624 593.960009088182
60.52635 571.06819957883
60.54647 547.016273195775
60.56658 542.015984419012
60.58669 527.990941835076
60.60681 589.041861798484
60.62692 630.954295969492
60.64703 539.928738438345
60.66715 561.068222712452
60.68726 550.063419292094
60.70738 533.981066560957
60.72749 566.996726514843
60.7476 535
60.76772 518.015487580557
60.78783 547.024041453777
60.80794 547.013669981987
60.82806 564.979639770762
60.84817 555.035688479957
60.86828 530.019402551183
60.8884 518
60.90851 509.998009718063
60.92863 513.015154521877
60.94874 524.010764850146
60.96885 523.004509370428
60.98897 527.979413590799
61.00908 538.00836057446
61.02919 519.003524934583
61.04931 526.000345267145
61.06942 525.022176055657
61.08954 554.994410663438
61.10965 521.949133089071
61.12976 532.96298504452
61.14988 539.999927922211
61.16999 539.000422464622
61.1901 544
61.21022 565.017453770123
61.23033 567.979752929408
61.25045 548.971764650384
61.27056 536.072981272446
61.29067 495.005513434941
61.31079 523.99248824391
61.3309 514
61.35101 544.021752847763
61.37113 575.011568102763
61.39124 567.994264467408
61.41135 578.961085478125
61.43147 572.071194331811
61.45158 527.97771995399
61.4717 590
61.49181 546.993883103688
61.51192 576.998605076609
61.53204 539.993526604038
61.55215 574.979299069632
61.57226 550.994166419382
61.59238 591.969600036891
61.61249 596.993580605146
61.63261 614.993422330746
61.65272 564.944130416014
61.67283 541.023808445792
61.69295 574.048610772529
61.71306 557.091481216668
61.73317 516.014243330017
61.75329 539.983658878362
61.7734 555
61.79352 548.010725246999
61.81363 571.014733681724
61.83374 561.983249592987
61.85386 558.030027075909
61.87397 526.058289642206
61.89408 513.960929114379
61.9142 566
61.93431 521.989038190121
61.95442 550.03840629271
61.97454 559.963211255959
61.99465 536.016191443063
62.01477 553.960248111032
62.03488 556.039824971961
62.05499 507.003649616332
62.07511 542.013539196969
62.09522 542.003336663859
62.11533 558.011096278223
62.13545 546.954664056837
62.15556 534.012698753097
62.17568 526.018955504088
62.19579 507.997698351515
62.2159 532
62.23602 541.02037226289
62.25613 559.975599683345
62.27624 522.9814722533
62.29636 540.012728205566
62.31647 511.001653700497
62.33659 536.999232590924
62.3567 516
62.37681 552.001771906498
62.39693 510.941302064808
62.41704 512.067741147503
62.43715 545.980252436001
62.45727 537.982201755036
62.47738 564.001764408174
62.49749 522.026192725039
62.51761 504.016133024573
62.53772 545.994982248903
62.55784 507.999163287632
62.57795 557.100281345578
62.59806 550.069310292336
62.61818 521.009024965623
62.63829 523.004971559768
62.6584 495
62.67852 491.029595440991
62.69863 537.053827154268
62.71875 534.894830641971
62.73886 488.02717905263
62.75897 512.953239937812
62.77909 516.013745849015
62.7992 497
62.81931 549.000705596491
62.83943 504.980526497214
62.85954 535.018270287233
62.87965 507.043522112375
62.89977 507.034539302968
62.91988 466.012712316408
62.94 480
62.96011 464.017203845109
62.98022 526.006685429046
63.00034 472.930830554239
63.02045 481.998811556548
63.04056 465.975998724702
63.06068 497.004038759405
63.08079 461.00530155259
63.10091 492.015715206127
63.12102 484.956367722786
63.14113 440.986206673859
63.16125 464.045005107706
63.18136 459.018281173467
63.20147 461.981240332684
63.22159 476.993610616316
63.2417 476
63.26182 449.993981091959
63.28193 470.042228458838
63.30204 474.935845683158
63.32216 445.942885122169
63.34227 505.984137844325
63.36238 445.073335419121
63.3825 416
63.40261 440.000926917346
63.42272 424.002291158262
63.44284 449.031911160588
63.46295 446.001307563774
63.48307 466.940465948511
63.50318 490.026965089861
63.52329 436.012051518177
63.54341 454.007901525807
63.56352 444.987639762372
63.58363 449.028170955501
63.60375 470.02977839514
63.62386 460.06694420165
63.64398 430.994331658496
63.66409 465.985738222764
63.6842 472
63.70432 473.984766789446
63.72443 450.993300938497
63.74454 455.958954948411
63.76466 421.005493753343
63.78477 456.947918171886
63.80489 461.008320965792
63.825 456
63.84511 504.014602416421
63.86523 494.955810061676
63.88534 477.016147107079
63.90545 500.962699431246
63.92557 495.021207887943
63.94568 480.020984731925
63.96579 458.006170857283
63.98591 467.015764472599
64.00602 501.014581095345
64.02614 495.993217383319
64.04625 492.937834856709
64.06636 458.020698525861
64.08648 481.966324198994
64.10659 485.021891989384
64.1267 438
64.14682 490.01760573635
64.16693 445.914225515033
64.18705 427.058194678863
64.20716 464.958797102813
64.22727 459.015736447525
64.24739 465.987834510631
64.2675 486
64.28761 458.989983845524
64.30773 452.981920868899
64.32784 429.963152640416
64.34796 428.97177014338
64.36807 457.931698789677
64.38818 498.987381792296
64.4083 475
64.42841 434.988367031522
64.44852 436.021801238955
64.46864 462.033392294026
64.48875 455.079377237669
64.50886 417.047800548967
64.52898 418.980325573212
64.54909 445.98416852954
64.56921 461.990995896617
64.58932 434.004518288913
64.60943 458.986679174874
64.62955 418.964957714067
64.64966 437.995222609388
64.66977 413.020106129085
64.68989 435.977457657916
64.71 470
64.73012 451.99021579488
64.75023 450.969060262331
64.77034 417.981332192937
64.79046 436.967876823994
64.81057 436.997432367581
64.83068 442.008003262058
64.8508 428
64.87091 451.01039727315
64.89102 444.963965242681
64.91114 411.007885457121
64.93125 445.942374161775
64.95137 433.045865883173
64.97148 414.993184306109
64.99159 434.995422820675
65.01171 428.999200941808
65.03182 430.985325763433
65.05193 413.018741648489
65.07205 448.039092240777
65.09216 434.024836212315
65.11228 444.974964535838
65.13239 458.008071546694
65.1525 430
65.17262 454.024808213192
65.19273 464.010977635673
65.21284 463.951434606324
65.23296 426.046501224012
65.25307 433.957889277504
65.27319 454.002789788412
65.2933 429
65.31341 431.009693787298
65.33353 444.986175610799
65.35364 418.962964014324
65.37375 430.896794919681
65.39387 459.040977465045
65.41398 402.018172752353
65.43409 432.988924260623
65.45421 428.003615214806
65.47432 452.005725991889
65.49444 427.939428490372
65.51455 422.065109763666
65.53466 452.998726588395
65.55478 437.981079594366
65.57489 480.996445687244
65.595 449
65.61512 465.002771159238
65.63523 440.968907253811
65.65535 448.073949847184
65.67546 470.022197824966
65.69557 446.982599059842
65.71569 482.998410192644
65.7358 446
65.75591 457.014119145205
65.77603 472.992258654072
65.79614 461.008487926908
65.81626 480.97619143373
65.83637 468.046609417355
65.85648 446.989027097456
65.8766 480
65.89671 472.987679421342
65.91682 449.986211614676
65.93694 453.040381197469
65.95705 472.003543838775
65.97716 445.076914231248
65.99728 435.95222030677
66.01739 504.986921781083
66.03751 475.98357393362
66.05762 472.006883536244
66.07773 469.981075980918
66.09785 443.899700456513
66.11796 422.934321192642
66.13807 476.988824779174
66.15819 434.014669761089
66.1783 450
66.19842 462.998547635615
66.21853 460.009470802115
66.23864 463.958391669679
66.25876 432.01287699363
66.27887 445.014796978798
66.29898 417.995706965151
66.3191 456
66.33921 448.993468506945
66.35933 447.000159542419
66.37944 443.995379953938
66.39955 443.006941683526
66.41967 436.015617866435
66.43978 435.976479256765
66.45989 466.995625030372
66.48001 436.972262150089
66.50012 398.007258069649
66.52023 438.044464613828
66.54035 437.983433372878
66.56046 439.994358883539
66.58058 445.980766454765
66.60069 459.011542457038
66.6208 422
66.64092 457.010779066348
66.66103 434.990835697483
66.68114 455.015782811767
66.70126 437.038636487315
66.72137 441.954048776826
66.74149 472.997968132247
66.7616 451
66.78171 444.996099929761
66.80183 436.009590492616
66.82194 451.000482963659
66.84205 433.040417997136
66.86217 433.97937036431
66.88228 446.997138478821
66.90239 436.009581649849
66.92251 425.004079733459
66.94262 437.992511207288
66.96274 414.983735382607
66.98285 428.02603325264
67.00296 437.930304541722
67.02308 470.024684101438
67.04319 415.002247476659
67.0633 468
67.08342 449.962748696205
67.10353 428.994198906047
67.12365 435.020128879277
67.14376 442.973378942052
67.16387 458.984693542773
67.18399 461.998676196953
67.2041 462
67.22421 446.999957703491
67.24433 466.036244022469
67.26444 471.955902988013
67.28456 437.044435817407
67.30467 446.945111579388
67.32478 478.001905127408
67.3449 451
67.36501 456.001790661489
67.38512 446.990522111482
67.40524 464.11671215446
67.42535 520.015962011219
67.44546 464.066241693093
67.46558 476.989890418647
67.48569 465.002166830414
67.50581 470.994635066341
67.52592 463.041272627991
67.54603 521.997044862516
67.56615 479.035050827666
67.58626 561.870345821494
67.60637 554.074953023999
67.62649 517.998027265723
67.6466 554
67.66672 556.976122211848
67.68683 527.975670847957
67.70694 522.974735830301
67.72706 506.991644140214
67.74717 528.979096002683
67.76728 533.979250631661
67.7874 569
67.80751 550.970250826855
67.82763 494.992198307719
67.84774 542.107839159131
67.86785 549.122980984641
67.88797 490.018571216567
67.90808 530.955418647443
67.92819 537.012802673109
67.94831 514.003608287666
67.96842 567.086439413549
67.98853 605.882234664789
68.00865 491.000755448757
68.02876 601.869698463453
68.04888 573.016637166844
68.06899 598.005280173476
68.0891 548
68.10922 590.049262792009
68.12933 596.946942180348
68.14944 550.95123669197
68.16956 553.990722454493
68.18967 547.009001905376
68.20979 549.996303347623
68.2299 558
68.25001 565.000200730425
68.27013 547.938849029713
68.29024 507.984917063581
68.31035 535.912764479093
68.33047 539.059403094609
68.35058 486.025435749295
68.3707 491
68.39081 482.010987846869
68.41092 523.009804272517
68.43104 496.966808097546
68.45115 501.985338861168
68.47126 466.10410493221
68.49138 436.979596886647
68.51149 485.985059998602
68.5316 472
68.55172 446.995320972261
68.57183 460.02758938684
68.59195 468.991828571588
68.61206 451.063950617054
68.63217 436.94630683245
68.65229 494.990137130451
68.6724 466
68.69251 468.005977041384
68.71263 465.97028441562
68.73274 444.99715219295
68.75286 457.002742686577
68.77297 427.070189985985
68.79308 396.990509219399
68.8132 435
68.83331 439.994455934419
68.85342 432.002933692329
68.87354 441.004744365773
68.89365 433.023439945454
68.91376 424.031087896923
68.93388 416.976172207827
68.95399 462.981756631023
68.97411 461.982282887336
68.99422 433.015737640534
69.01433 477.026178050433
69.03445 452.934621185936
69.05456 447.998514712706
69.07467 454.956067853493
69.09479 482.008285332209
69.1149 443
69.13502 471.981503461108
69.15513 412.974271718865
69.17524 460.103580385136
69.19536 471.033968787135
69.21547 443.052229625476
69.23558 421.99000516363
69.2557 460
69.27581 484.998198510209
69.29593 458.948944207584
69.31604 445.040925023923
69.33615 466.067092740282
69.35627 415.003877543734
69.37638 453.001989537699
69.39649 406.008038615856
69.41661 446.022644440569
69.43672 450.969076910176
69.45683 423.014560255723
69.47695 459.040530228763
69.49706 435.077232835806
69.51718 418.981034210278
69.53729 453.990357692329
69.5574 443
69.57752 426.997824646761
69.59763 442.04534172597
69.61774 463.983415458853
69.63786 433.047346212133
69.65797 429.997367003505
69.67809 438.982732825661
69.6982 481
69.71831 460.991016264601
69.73843 458.99093824975
69.75854 435.934749413967
69.77865 413.993993879595
69.79877 440.942883940037
69.81888 464.005498508551
69.839 441
69.85911 437.995787465446
69.87922 423.998852230632
69.89934 440.038152963466
69.91945 444.968554582686
69.93956 426.020889414904
69.95968 427.996219992844
69.97979 428.997867676642
69.9999 438
70.02002 439.992545258677
70.04013 433.008822357343
70.06025 446.004762501646
70.08036 436.00909961693
70.10047 439.006838299346
70.12059 415.019902399287
70.1407 399
70.16081 465.005632352091
70.18093 417.950639311803
70.20104 435.062430208906
70.22116 447.010937633618
70.24127 438.996412155809
70.26138 445.010141402478
70.2815 426
70.30161 438.997169404376
70.32172 416.99625492112
70.34184 435.017611170603
70.36195 421.048562844878
70.38207 426.932491074308
70.40218 474.002633851045
70.42229 427.017091671097
70.44241 423.995026715777
70.46252 410.023176927344
70.48263 456.019376916918
70.50275 436.006268473569
70.52286 453.063360808865
70.54297 395.992706342689
70.56309 472.964345374883
70.5832 474
70.60332 418.996923050408
70.62343 456.024265127949
70.64354 429.941786008832
70.66366 424.984459113584
70.68377 423.034023288641
70.70388 403.979615945791
70.724 455
70.74411 452.990070332076
70.76423 428.948080691387
70.78434 411.06600803038
70.80445 464.975609575134
70.82457 424.050120197882
70.84468 428.983670106461
70.86479 437.995077414557
70.88491 451.004976940156
70.90502 458.010027303265
70.92513 457.956188239453
70.94525 428.043018749917
70.96536 470.00759399656
70.98548 422.020072104255
71.00559 453.981910098996
71.0257 460
71.04582 454.008774244106
71.06593 470.009055554792
71.08604 463.993654238653
71.10616 467.004599314972
71.12627 459.999336412198
71.14639 466.00126346952
71.1665 455
71.18661 463.007280059677
71.20673 475.010040367189
71.22684 468.952969551482
71.24695 448.97541297897
71.26707 477.98335264064
71.28718 465.006316373855
71.3073 474
71.32741 463.997332197521
71.34752 472.013251863771
71.36764 477.988172673494
71.38775 467.011139937836
71.40786 472.982274805908
71.42798 469.025002936176
71.44809 442.999152668059
71.4682 465
71.48832 455.009346158153
71.50843 485.024392315649
71.52855 468.917912888606
71.54866 439.043791532276
71.56877 439.948718131129
71.58889 476.002326175324
71.609 432
71.62911 435.019880244936
71.64923 474.008483842419
71.66934 446.946256327571
71.68946 444.969451092682
71.70957 460.988515587135
71.72968 458.007012507667
71.7498 466
71.76991 492.985048478014
71.79002 430.979704926509
71.81014 465.055545461717
71.83025 453.062657992501
71.85037 441.994329808242
71.87048 451.993155305926
71.89059 443.014068170688
71.91071 429.018572459669
71.93082 480.99304445439
71.95093 426.976614746322
71.97105 463.039901849374
71.99116 434.054582417451
72.01127 431.998863896655
72.03139 422.005769964505
72.0515 419
72.07162 435.023905292086
72.09173 468.066124787505
72.11184 496.969558309508
72.13196 438.144216166847
72.15207 409.933277543429
72.17218 480.977970412248
72.1923 451
72.21241 482.01026598995
72.23253 457.922751031627
72.25264 415.976912807326
72.27275 433.935166459592
72.29287 443.017485108581
72.31298 437.96725648658
72.33309 480.004526025526
72.35321 432.994372613437
72.37332 474.036371297094
72.39344 472.970006353904
72.41355 455.924595015631
72.43366 433.961394014243
72.45378 475.98722368744
72.47389 453.006772605755
72.494 462
72.51412 445.994316311392
72.53423 461.030438406978
72.55434 473.010155424701
72.57446 468.039252169533
72.59457 443.024058608114
72.61469 448.986521267398
72.6348 469
72.65491 440.001608845822
72.67503 464.984191241111
72.69514 435.047506650253
72.71525 490.025063171711
72.73537 422.033671846361
72.75548 470.957302890697
72.7756 467
72.79571 465.999030280558
72.81582 462.006728165012
72.83594 470.979916450436
72.85605 439.087197506618
72.87616 428.951171051241
72.89628 460.00041193773
72.91639 429.011301567133
72.9365 444
72.95662 475.990653248659
72.97673 436.959875112202
72.99685 437.000278004612
73.01696 427.00698968973
73.03707 446.934455025681
73.05719 480.006616475301
73.0773 443
73.09741 471.999833362756
73.11753 435.974421070044
73.13764 463.084081969222
73.15776 481.033782673574
73.17787 448.029211019
73.19798 449.000875866826
73.2181 446
73.23821 480.012630450412
73.25832 476.974369500135
73.27844 452.993315187069
73.29855 476.903154013655
73.31867 491.057524731265
73.33878 438.00140323364
73.35889 483.988616596251
73.37901 470.00298258694
73.39912 493.983323179109
73.41923 450.001287815036
73.43935 498.063877978159
73.45946 481.021324790055
73.47957 492.001323879984
73.49969 464.018198691003
73.5198 446
73.53992 467.008484980126
73.56003 467.029198447802
73.58014 493.98870375499
73.60026 466.993558941557
73.62037 503.965915143018
73.64048 483.046137876317
73.6606 455
73.68071 475.981235190958
73.70083 416.027063953669
73.72094 502.087334000521
73.74105 456.182249070732
73.76117 419.995047691366
73.78128 448.961529011415
73.80139 479.98905636402
73.82151 468.966834718094
73.84162 402.010603153868
73.86174 472.06637548875
73.88185 429.848570759361
73.90196 416.910195036076
73.92208 469.99944004382
73.94219 427.008513380839
73.9623 450
73.98242 428.991929359035
74.00253 448.028078072865
74.02264 445.96763558037
74.04276 428.027018312432
74.06287 428.970511944915
74.08299 456.989352526785
74.1031 452
74.12321 425.013968642731
74.14333 483.025493406101
74.16344 440.902638144427
74.18355 432.928795314712
74.20367 468.972329496058
74.22378 457.030449606434
74.2439 431
74.26401 429.99490651629
74.28412 419.014916504481
74.30424 455.050518527713
74.32435 454.02886705717
74.34446 438.05973093396
74.36458 413.988284427763
74.38469 444.998138811945
74.40481 415.98973528786
74.42492 424.015830352386
74.44503 431.002934237868
74.46515 432.000511572405
74.48526 433.987733359645
74.50537 434.028156950918
74.52549 398.019170922833
74.5456 388
74.56571 436.006166732274
74.58583 422.025913495526
74.60594 462.998872330494
74.62606 415.071062443559
74.64617 427.9422585238
74.66628 448.020035676593
74.6864 402
74.70651 407.020308948455
74.72662 450.01654201322
74.74674 437.97119249319
74.76685 435.009028431783
74.78697 439.947654446891
74.80708 481.995871286285
74.82719 441.024095500868
74.84731 428.013742972673
74.86742 478.048746511918
74.88753 481.907780106311
74.90765 396.887748849246
74.92776 411.935333511456
74.94787 417.036866154779
74.96799 397.987807403605
74.9881 446
75.00822 397.921613017875
