3.00117 19132
3.02128 18701
3.0414 18360
3.06151 17675
3.08162 17063
3.10174 16856
3.12185 15885
3.14197 15798
3.16208 15340
3.18219 15264
3.20231 14539
3.22242 13823
3.24253 13979
3.26265 13243
3.28276 13055
3.30288 12744
3.32299 11748
3.3431 11608
3.36322 11066
3.38333 10837
3.40344 10822
3.42356 10115
3.44367 9907
3.46379 9592
3.4839 9285
3.50401 9235
3.52413 8545
3.54424 8445
3.56435 7931
3.58447 7799
3.60458 7615
3.62469 7118
3.64481 7164
3.66492 6587
3.68504 6446
3.70515 6409
3.72526 5785
3.74538 5820
3.76549 5701
3.7856 5201
3.80572 5291
3.82583 4848
3.84595 4613
3.86606 4505
3.88617 4334
3.90629 4356
3.9264 4059
3.94651 3901
3.96663 3650
3.98674 3569
4.00686 3591
4.02697 3101
4.04708 3213
4.0672 3032
4.08731 2951
4.10742 2859
4.12754 2576
4.14765 2644
4.16776 2362
4.18788 2364
4.20799 2466
4.22811 2133
4.24822 2225
4.26833 2058
4.28845 2089
4.30856 2175
4.32867 1898
4.34879 1862
4.3689 1859
4.38902 1917
4.40913 1815
4.42924 1738
4.44936 1712
4.46947 1679
4.48958 1692
4.5097 1740
4.52981 1527
4.54992 1571
4.57004 1535
4.59015 1464
4.61027 1528
4.63038 1327
4.65049 1368
4.67061 1310
4.69072 1290
4.71083 1331
4.73095 1231
4.75106 1319
4.77118 1213
4.79129 1275
4.8114 1183
4.83152 1150
4.85163 1168
4.87174 1136
4.89186 1148
4.91197 1048
4.93209 1058
4.9522 1045
4.97231 1007
4.99243 1099
5.01254 991
5.03265 961
5.05277 984
5.07288 930
5.09299 885
5.11311 870
5.13322 826
5.15334 881
5.17345 859
5.19356 837
5.21368 811
5.23379 785
5.2539 764
5.27402 814
5.29413 778
5.31425 767
5.33436 764
5.35447 652
5.37459 773
5.3947 702
5.41481 680
5.43493 713
5.45504 693
5.47516 682
5.49527 688
5.51538 623
5.5355 660
5.55561 636
5.57572 701
5.59584 655
5.61595 570
5.63606 562
5.65618 636
5.67629 618
5.69641 589
5.71652 570
5.73663 593
5.75675 571
5.77686 557
5.79697 603
5.81709 577
5.8372 543
5.85732 511
5.87743 540
5.89754 551
5.91766 561
5.93777 509
5.95788 509
5.978 547
5.99811 595
6.01823 528
6.03834 547
6.05845 541
6.07857 505
6.09868 548
6.11879 548
6.13891 567
6.15902 523
6.17913 538
6.19925 507
6.21936 509
6.23948 546
6.25959 508
6.2797 526
6.29982 487
6.31993 517
6.34004 463
6.36016 486
6.38027 503
6.40039 549
6.4205 476
6.44061 476
6.46073 497
6.48084 461
6.50095 515
6.52107 446
6.54118 432
6.56129 461
6.58141 483
6.60152 478
6.62164 473
6.64175 472
6.66186 429
6.68198 472
6.70209 419
6.7222 480
6.74232 457
6.76243 448
6.78255 448
6.80266 442
6.82277 451
6.84289 424
6.863 425
6.88311 411
6.90323 442
6.92334 465
6.94346 436
6.96357 423
6.98368 444
7.0038 413
7.02391 425
7.04402 440
7.06414 435
7.08425 445
7.10436 468
7.12448 439
7.14459 383
7.16471 418
7.18482 452
7.20493 454
7.22505 405
7.24516 424
7.26527 396
7.28539 395
7.3055 429
7.32562 383
7.34573 404
7.36584 429
7.38596 414
7.40607 389
7.42618 427
7.4463 423
7.46641 460
7.48653 395
7.50664 393
7.52675 440
7.54687 446
7.56698 410
7.58709 379
7.60721 402
7.62732 411
7.64743 438
7.66755 424
7.68766 406
7.70778 424
7.72789 386
7.748 353
7.76812 410
7.78823 371
7.80834 395
7.82846 379
7.84857 384
7.86869 438
7.8888 428
7.90891 389
7.92903 362
7.94914 422
7.96925 405
7.98937 422
8.00948 382
8.0296 400
8.04971 413
8.06982 433
8.08994 367
8.11005 391
8.13016 430
8.15028 412
8.17039 390
8.1905 386
8.21062 381
8.23073 391
8.25085 399
8.27096 390
8.29107 396
8.31119 374
8.3313 415
8.35141 384
8.37153 412
8.39164 409
8.41176 430
8.43187 363
8.45198 438
8.4721 418
8.49221 427
8.51232 400
8.53244 408
8.55255 377
8.57266 375
8.59278 408
8.61289 421
8.63301 380
8.65312 443
8.67323 422
8.69335 403
8.71346 406
8.73357 401
8.75369 368
8.7738 409
8.79392 351
8.81403 391
8.83414 428
8.85426 397
8.87437 428
8.89448 395
8.9146 422
8.93471 403
8.95483 389
8.97494 427
8.99505 332
9.01517 386
9.03528 390
9.05539 405
9.07551 376
9.09562 388
9.11573 387
9.13585 377
9.15596 374
9.17608 405
9.19619 382
9.2163 392
9.23642 422
9.25653 371
9.27664 406
9.29676 395
9.31687 366
9.33699 397
9.3571 357
9.37721 407
9.39733 375
9.41744 408
9.43755 402
9.45767 417
9.47778 365
9.4979 375
9.51801 361
9.53812 372
9.55824 366
9.57835 438
9.59846 372
9.61858 386
9.63869 384
9.6588 403
9.67892 366
9.69903 386
9.71915 358
9.73926 385
9.75937 360
9.77949 384
9.7996 381
9.81971 395
9.83983 337
9.85994 392
9.88006 375
9.90017 379
9.92028 393
9.9404 393
9.96051 386
9.98062 375
10.00074 381
10.02085 364
10.04097 381
10.06108 359
10.08119 387
10.10131 375
10.12142 402
10.14153 398
10.16165 424
10.18176 396
10.20187 384
10.22199 406
10.2421 369
10.26222 408
10.28233 375
10.30244 375
10.32256 371
10.34267 352
10.36278 406
10.3829 380
10.40301 366
10.42313 375
10.44324 387
10.46335 370
10.48347 417
10.50358 376
10.52369 356
10.54381 407
10.56392 399
10.58403 382
10.60415 384
10.62426 405
10.64438 364
10.66449 368
10.6846 396
10.70472 380
10.72483 417
10.74494 352
10.76506 352
10.78517 380
10.80529 358
10.8254 383
10.84551 435
10.86563 332
10.88574 402
10.90585 379
10.92597 389
10.94608 382
10.9662 361
10.98631 374
11.00642 354
11.02654 401
11.04665 391
11.06676 399
11.08688 397
11.10699 393
11.1271 402
11.14722 363
11.16733 402
11.18745 385
11.20756 376
11.22767 397
11.24779 389
11.2679 395
11.28801 421
11.30813 418
11.32824 366
11.34836 387
11.36847 379
11.38858 382
11.4087 391
11.42881 402
11.44892 403
11.46904 452
11.48915 425
11.50927 421
11.52938 480
11.54949 446
11.56961 400
11.58972 446
11.60983 417
11.62995 422
11.65006 430
11.67017 410
11.69029 422
11.7104 421
11.73052 482
11.75063 449
11.77074 470
11.79086 447
11.81097 444
11.83108 469
11.8512 516
11.87131 502
11.89143 570
11.91154 535
11.93165 495
11.95177 500
11.97188 554
11.99199 561
12.01211 530
12.03222 572
12.05234 580
12.07245 524
12.09256 608
12.11268 631
12.13279 615
12.1529 638
12.17302 605
12.19313 632
12.21324 644
12.23336 701
12.25347 679
12.27359 686
12.2937 707
12.31381 636
12.33393 673
12.35404 660
12.37415 659
12.39427 593
12.41438 589
12.4345 551
12.45461 598
12.47472 550
12.49484 533
12.51495 531
12.53506 499
12.55518 472
12.57529 513
12.5954 432
12.61552 454
12.63563 450
12.65575 416
12.67586 434
12.69597 425
12.71609 410
12.7362 369
12.75631 428
12.77643 432
12.79654 379
12.81666 405
12.83677 390
12.85688 375
12.877 374
12.89711 330
12.91722 370
12.93734 390
12.95745 373
12.97757 392
12.99768 364
13.01779 369
13.03791 361
13.05802 340
13.07813 333
13.09825 340
13.11836 347
13.13847 291
13.15859 342
13.1787 346
13.19882 367
13.21893 375
13.23904 338
13.25916 330
13.27927 375
13.29938 330
13.3195 349
13.33961 331
13.35973 351
13.37984 317
13.39995 303
13.42007 345
13.44018 322
13.46029 329
13.48041 361
13.50052 325
13.52064 334
13.54075 322
13.56086 314
13.58098 330
13.60109 347
13.6212 333
13.64132 312
13.66143 315
13.68154 311
13.70166 321
13.72177 348
13.74189 303
13.762 339
13.78211 324
13.80223 338
13.82234 306
13.84245 329
13.86257 275
13.88268 330
13.9028 366
13.92291 318
13.94302 318
13.96314 324
13.98325 327
14.00336 319
14.02348 306
14.04359 297
14.06371 352
14.08382 300
14.10393 339
14.12405 340
14.14416 348
14.16427 291
14.18439 307
14.2045 303
14.22461 328
14.24473 320
14.26484 308
14.28496 335
14.30507 298
14.32518 319
14.3453 285
14.36541 291
14.38552 275
14.40564 335
14.42575 337
14.44587 320
14.46598 324
14.48609 314
14.50621 308
14.52632 334
14.54643 315
14.56655 304
14.58666 297
14.60677 297
14.62689 316
14.647 323
14.66712 308
14.68723 297
14.70734 304
14.72746 309
14.74757 339
14.76768 304
14.7878 330
14.80791 360
14.82803 309
14.84814 307
14.86825 313
14.88837 280
14.90848 315
14.92859 317
14.94871 288
14.96882 342
14.98894 315
15.00905 337
15.02916 307
15.04928 320
15.06939 321
15.0895 322
15.10962 326
15.12973 304
15.14984 306
15.16996 289
15.19007 284
15.21019 323
15.2303 296
15.25041 319
15.27053 304
15.29064 283
15.31075 332
15.33087 341
15.35098 304
15.3711 312
15.39121 302
15.41132 334
15.43144 309
15.45155 311
15.47166 303
15.49178 315
15.51189 302
15.53201 290
15.55212 308
15.57223 275
15.59235 254
15.61246 310
15.63257 333
15.65269 307
15.6728 266
15.69291 324
15.71303 282
15.73314 315
15.75326 324
15.77337 275
15.79348 302
15.8136 269
15.83371 315
15.85382 300
15.87394 335
15.89405 312
15.91417 316
15.93428 316
15.95439 300
15.97451 313
15.99462 357
16.01473 337
16.03485 329
16.05496 298
16.07508 318
16.09519 294
16.1153 325
16.13542 338
16.15553 324
16.17564 311
16.19576 310
16.21587 309
16.23598 294
16.2561 299
16.27621 318
16.29633 291
16.31644 284
16.33655 294
16.35667 344
16.37678 324
16.39689 309
16.41701 307
16.43712 308
16.45724 327
16.47735 336
16.49746 313
16.51758 303
16.53769 342
16.5578 315
16.57792 324
16.59803 326
16.61814 333
16.63826 317
16.65837 322
16.67849 290
16.6986 298
16.71871 305
16.73883 333
16.75894 328
16.77905 313
16.79917 336
16.81928 330
16.8394 306
16.85951 317
16.87962 276
16.89974 342
16.91985 309
16.93996 317
16.96008 323
16.98019 325
17.00031 290
17.02042 342
17.04053 317
17.06065 346
17.08076 331
17.10087 339
17.12099 323
17.1411 329
17.16121 355
17.18133 343
17.20144 341
17.22156 270
17.24167 322
17.26178 340
17.2819 333
17.30201 329
17.32212 353
17.34224 307
17.36235 358
17.38247 325
17.40258 319
17.42269 352
17.44281 346
17.46292 324
17.48303 344
17.50315 397
17.52326 349
17.54338 372
17.56349 320
17.5836 327
17.60372 337
17.62383 378
17.64394 361
17.66406 371
17.68417 412
17.70428 402
17.7244 415
17.74451 398
17.76463 398
17.78474 400
17.80485 414
17.82497 387
17.84508 412
17.86519 479
17.88531 420
17.90542 453
17.92554 434
17.94565 470
17.96576 498
17.98588 493
18.00599 561
18.0261 573
18.04622 583
18.06633 596
18.08645 670
18.10656 706
18.12667 832
18.14679 884
18.1669 985
18.18701 1070
18.20713 1163
18.22724 1321
18.24735 1392
18.26747 1363
18.28758 1375
18.3077 1322
18.32781 1251
18.34792 1198
18.36804 1053
18.38815 956
18.40826 826
18.42838 774
18.44849 682
18.46861 646
18.48872 644
18.50883 565
18.52895 529
18.54906 514
18.56917 495
18.58929 527
18.6094 488
18.62951 482
18.64963 502
18.66974 492
18.68986 465
18.70997 448
18.73008 437
18.7502 437
18.77031 424
18.79042 388
18.81054 377
18.83065 394
18.85077 356
18.87088 423
18.89099 380
18.91111 383
18.93122 433
18.95133 401
18.97145 394
18.99156 353
19.01168 373
19.03179 395
19.0519 389
19.07202 381
19.09213 369
19.11224 382
19.13236 377
19.15247 392
19.17258 383
19.1927 397
19.21281 410
19.23293 403
19.25304 405
19.27315 376
19.29327 431
19.31338 375
19.33349 435
19.35361 393
19.37372 405
19.39384 416
19.41395 458
19.43406 421
19.45418 432
19.47429 449
19.4944 464
19.51452 421
19.53463 467
19.55475 469
19.57486 464
19.59497 498
19.61509 505
19.6352 498
19.65531 532
19.67543 528
19.69554 605
19.71565 621
19.73577 667
19.75588 702
19.776 718
19.79611 785
19.81622 753
19.83634 740
19.85645 821
19.87656 845
19.89668 851
19.91679 857
19.93691 814
19.95702 822
19.97713 826
19.99725 884
20.01736 839
20.03747 947
20.05759 950
20.0777 933
20.09782 954
20.11793 990
20.13804 1054
20.15816 1037
20.17827 1148
20.19838 1141
20.2185 1107
20.23861 1126
20.25872 1183
20.27884 1175
20.29895 1133
20.31907 1084
20.33918 1088
20.35929 1085
20.37941 1031
20.39952 1053
20.41963 1015
20.43975 1030
20.45986 1073
20.47998 1020
20.50009 1060
20.5202 1056
20.54032 1054
20.56043 995
20.58054 1019
20.60066 1144
20.62077 1222
20.64088 1343
20.661 1530
20.68111 1770
20.70123 2184
20.72134 2595
20.74145 3218
20.76157 3658
20.78168 4236
20.80179 4568
20.82191 4623
20.84202 4285
20.86214 3503
20.88225 2645
20.90236 1991
20.92248 1415
20.94259 1105
20.9627 896
20.98282 843
21.00293 826
21.02305 739
21.04316 724
21.06327 783
21.08339 696
21.1035 673
21.12361 666
21.14373 673
21.16384 596
21.18395 651
21.20407 681
21.22418 660
21.2443 648
21.26441 582
21.28452 621
21.30464 659
21.32475 621
21.34486 628
21.36498 619
21.38509 624
21.40521 584
21.42532 599
21.44543 594
21.46555 631
21.48566 585
21.50577 585
21.52589 585
21.546 569
21.56612 571
21.58623 568
21.60634 538
21.62646 607
21.64657 569
21.66668 543
21.6868 582
21.70691 568
21.72702 522
21.74714 574
21.76725 567
21.78737 518
21.80748 534
21.82759 556
21.84771 533
21.86782 542
21.88793 537
21.90805 536
21.92816 535
21.94828 536
21.96839 539
21.9885 530
22.00862 540
22.02873 502
22.04884 496
22.06896 514
22.08907 533
22.10919 513
22.1293 517
22.14941 532
22.16953 498
22.18964 490
22.20975 464
22.22987 498
22.24998 487
22.27009 533
22.29021 497
22.31032 505
22.33044 549
22.35055 508
22.37066 514
22.39078 416
22.41089 466
22.431 475
22.45112 520
22.47123 477
22.49135 494
22.51146 490
22.53157 478
22.55169 477
22.5718 458
22.59191 489
22.61203 507
22.63214 493
22.65225 505
22.67237 481
22.69248 488
22.7126 473
22.73271 440
22.75282 454
22.77294 504
22.79305 465
22.81316 480
22.83328 496
22.85339 494
22.87351 451
22.89362 460
22.91373 485
22.93385 434
22.95396 489
22.97407 467
22.99419 437
23.0143 462
23.03442 413
23.05453 420
23.07464 489
23.09476 445
23.11487 424
23.13498 409
23.1551 423
23.17521 442
23.19532 418
23.21544 504
23.23555 463
23.25567 398
23.27578 445
23.29589 392
23.31601 438
23.33612 421
23.35623 463
23.37635 464
23.39646 462
23.41658 446
23.43669 454
23.4568 419
23.47692 456
23.49703 481
23.51714 440
23.53726 418
23.55737 442
23.57749 436
23.5976 487
23.61771 454
23.63783 457
23.65794 463
23.67805 457
23.69817 463
23.71828 431
23.73839 430
23.75851 473
23.77862 451
23.79874 465
23.81885 475
23.83896 475
23.85908 496
23.87919 473
23.8993 512
23.91942 481
23.93953 514
23.95965 472
23.97976 465
23.99987 485
24.01999 463
24.0401 501
24.06021 468
24.08033 507
24.10044 466
24.12056 440
24.14067 490
24.16078 475
24.1809 460
24.20101 470
24.22112 471
24.24124 507
24.26135 487
24.28146 449
24.30158 505
24.32169 517
24.34181 506
24.36192 480
24.38203 492
24.40215 513
24.42226 503
24.44237 499
24.46249 547
24.4826 523
24.50272 537
24.52283 525
24.54294 576
24.56306 588
24.58317 575
24.60328 551
24.6234 569
24.64351 596
24.66362 586
24.68374 601
24.70385 563
24.72397 610
24.74408 634
24.76419 674
24.78431 630
24.80442 674
24.82453 643
24.84465 624
24.86476 662
24.88488 606
24.90499 628
24.9251 592
24.94522 592
24.96533 557
24.98544 584
25.00556 615
25.02567 595
25.04579 581
25.0659 596
25.08601 605
25.10613 608
25.12624 611
25.14635 660
25.16647 710
25.18658 707
25.20669 716
25.22681 693
25.24692 710
25.26704 671
25.28715 657
25.30726 684
25.32738 614
25.34749 637
25.3676 555
25.38772 559
25.40783 542
25.42795 473
25.44806 516
25.46817 460
25.48829 488
25.5084 521
25.52851 499
25.54863 523
25.56874 505
25.58886 484
25.60897 519
25.62908 544
25.6492 552
25.66931 536
25.68942 569
25.70954 575
25.72965 549
25.74976 571
25.76988 574
25.78999 599
25.81011 577
25.83022 571
25.85033 553
25.87045 633
25.89056 608
25.91067 632
25.93079 667
25.9509 653
25.97102 628
25.99113 646
26.01124 694
26.03136 705
26.05147 701
26.07158 739
26.0917 803
26.11181 764
26.13193 812
26.15204 879
26.17215 963
26.19227 938
26.21238 1052
26.23249 1128
26.25261 1206
26.27272 1219
26.29283 1484
26.31295 1695
26.33306 1909
26.35318 2276
26.37329 2643
26.3934 3295
26.41352 4124
26.43363 5187
26.45374 6525
26.47386 8331
26.49397 10245
26.51409 12862
26.5342 14820
26.55431 16892
26.57443 18534
26.59454 18488
26.61465 17247
26.63477 14833
26.65488 11225
26.67499 8527
26.69511 6062
26.71522 3998
26.73534 2658
26.75545 1874
26.77556 1456
26.79568 1372
26.81579 1267
26.8359 1151
26.85602 1030
26.87613 1071
26.89625 953
26.91636 887
26.93647 778
26.95659 805
26.9767 708
26.99681 716
27.01693 672
27.03704 649
27.05716 606
27.07727 586
27.09738 579
27.1175 586
27.13761 592
27.15772 601
27.17784 581
27.19795 553
27.21806 551
27.23818 519
27.25829 565
27.27841 553
27.29852 536
27.31863 554
27.33875 550
27.35886 544
27.37897 577
27.39909 513
27.4192 550
27.43932 544
27.45943 510
27.47954 456
27.49966 477
27.51977 488
27.53988 478
27.56 474
27.58011 474
27.60023 460
27.62034 480
27.64045 502
27.66057 443
27.68068 502
27.70079 465
27.72091 481
27.74102 496
27.76113 446
27.78125 469
27.80136 471
27.82148 513
27.84159 489
27.8617 455
27.88182 465
27.90193 449
27.92204 490
27.94216 445
27.96227 441
27.98239 443
28.0025 455
28.02261 445
28.04273 414
28.06284 457
28.08295 391
28.10307 434
28.12318 402
28.1433 422
28.16341 399
28.18352 390
28.20364 398
28.22375 379
28.24386 416
28.26398 374
28.28409 373
28.3042 399
28.32432 372
28.34443 394
28.36455 393
28.38466 453
28.40477 397
28.42489 405
28.445 381
28.46511 375
28.48523 422
28.50534 400
28.52546 365
28.54557 376
28.56568 406
28.5858 370
28.60591 407
28.62602 349
28.64614 364
28.66625 401
28.68636 400
28.70648 400
28.72659 377
28.74671 382
28.76682 344
28.78693 372
28.80705 353
28.82716 350
28.84727 365
28.86739 387
28.8875 367
28.90762 338
28.92773 371
28.94784 345
28.96796 395
28.98807 376
29.00818 398
29.0283 348
29.04841 333
29.06853 349
29.08864 321
29.10875 365
29.12887 365
29.14898 363
29.16909 320
29.18921 364
29.20932 344
29.22943 361
29.24955 363
29.26966 316
29.28978 308
29.30989 351
29.33 365
29.35012 363
29.37023 369
29.39034 331
29.41046 395
29.43057 344
29.45069 370
29.4708 364
29.49091 341
29.51103 360
29.53114 331
29.55125 341
29.57137 338
29.59148 329
29.6116 307
29.63171 335
29.65182 347
29.67194 330
29.69205 314
29.71216 357
29.73228 351
29.75239 333
29.7725 295
29.79262 326
29.81273 317
29.83285 340
29.85296 299
29.87307 335
29.89319 312
29.9133 337
29.93341 344
29.95353 306
29.97364 333
29.99376 286
30.01387 326
30.03398 302
30.0541 330
30.07421 316
30.09432 321
30.11444 327
30.13455 311
30.15467 336
30.17478 325
30.19489 304
30.21501 325
30.23512 306
30.25523 311
30.27535 321
30.29546 318
30.31557 297
30.33569 320
30.3558 299
30.37592 339
30.39603 283
30.41614 309
30.43626 310
30.45637 330
30.47648 336
30.4966 314
30.51671 302
30.53683 309
30.55694 321
30.57705 348
30.59717 271
30.61728 299
30.63739 330
30.65751 337
30.67762 302
30.69773 302
30.71785 314
30.73796 298
30.75808 309
30.77819 296
30.7983 291
30.81842 300
30.83853 320
30.85864 304
30.87876 285
30.89887 320
30.91899 313
30.9391 300
30.95921 289
30.97933 309
30.99944 249
31.01955 310
31.03967 292
31.05978 323
31.0799 306
31.10001 288
31.12012 308
31.14024 284
31.16035 282
31.18046 289
31.20058 275
31.22069 274
31.2408 301
31.26092 265
31.28103 273
31.30115 268
31.32126 296
31.34137 285
31.36149 285
31.3816 295
31.40171 301
31.42183 281
31.44194 292
31.46206 311
31.48217 276
31.50228 264
31.5224 302
31.54251 283
31.56262 290
31.58274 301
31.60285 302
31.62297 274
31.64308 304
31.66319 285
31.68331 305
31.70342 267
31.72353 303
31.74365 304
31.76376 317
31.78387 296
31.80399 290
31.8241 279
31.84422 264
31.86433 304
31.88444 278
31.90456 289
31.92467 281
31.94478 297
31.9649 266
31.98501 289
32.00513 290
32.02524 277
32.04535 309
32.06547 282
32.08558 322
32.10569 281
32.12581 299
32.14592 298
32.16604 259
32.18615 281
32.20626 275
32.22638 320
32.24649 273
32.2666 282
32.28672 267
32.30683 268
32.32694 255
32.34706 300
32.36717 296
32.38729 327
32.4074 277
32.42751 256
32.44763 309
32.46774 273
32.48785 274
32.50797 270
32.52808 274
32.5482 296
32.56831 299
32.58842 311
32.60854 265
32.62865 253
32.64876 262
32.66888 301
32.68899 267
32.7091 279
32.72922 278
32.74933 274
32.76945 261
32.78956 297
32.80967 273
32.82979 266
32.8499 275
32.87001 265
32.89013 269
32.91024 283
32.93036 284
32.95047 276
32.97058 299
32.9907 293
33.01081 265
33.03092 281
33.05104 280
33.07115 277
33.09127 306
33.11138 268
33.13149 270
33.15161 274
33.17172 296
33.19183 302
33.21195 257
33.23206 246
33.25217 270
33.27229 284
33.2924 233
33.31252 301
33.33263 278
33.35274 292
33.37286 290
33.39297 303
33.41308 293
33.4332 280
33.45331 305
33.47343 251
33.49354 266
33.51365 262
33.53377 267
33.55388 324
33.57399 264
33.59411 290
33.61422 276
33.63434 255
33.65445 286
33.67456 292
33.69468 270
33.71479 271
33.7349 291
33.75502 304
33.77513 285
33.79524 261
33.81536 267
33.83547 261
33.85559 268
33.8757 283
33.89581 284
33.91593 309
33.93604 251
33.95615 291
33.97627 297
33.99638 276
34.0165 294
34.03661 274
34.05672 332
34.07684 262
34.09695 266
34.11706 295
34.13718 281
34.15729 286
34.17741 287
34.19752 280
34.21763 275
34.23775 274
34.25786 237
34.27797 282
34.29809 284
34.3182 287
34.33831 305
34.35843 270
34.37854 283
34.39866 294
34.41877 293
34.43888 313
34.459 296
34.47911 318
34.49922 344
34.51934 297
34.53945 339
34.55957 326
34.57968 324
34.59979 312
34.61991 360
34.64002 343
34.66013 330
34.68025 333
34.70036 336
34.72047 366
34.74059 371
34.7607 358
34.78082 402
34.80093 385
34.82104 418
34.84116 371
34.86127 409
34.88138 400
34.9015 404
34.92161 443
34.94173 424
34.96184 425
34.98195 399
35.00207 432
35.02218 377
35.04229 387
35.06241 368
35.08252 389
35.10264 403
35.12275 442
35.14286 416
35.16298 406
35.18309 422
35.2032 420
35.22332 393
35.24343 400
35.26354 383
35.28366 424
35.30377 407
35.32389 401
35.344 475
35.36411 376
35.38423 411
35.40434 419
35.42445 434
35.44457 397
35.46468 377
35.4848 403
35.50491 411
35.52502 384
35.54514 413
35.56525 368
35.58536 419
35.60548 425
35.62559 401
35.64571 411
35.66582 412
35.68593 417
35.70605 409
35.72616 444
35.74627 430
35.76639 428
35.7865 458
35.80661 440
35.82673 458
35.84684 426
35.86696 455
35.88707 451
35.90718 454
35.9273 483
35.94741 494
35.96752 509
35.98764 502
36.00775 446
36.02787 460
36.04798 430
36.06809 496
36.08821 519
36.10832 479
36.12843 503
36.14855 471
36.16866 546
36.18878 500
36.20889 588
36.229 596
36.24912 696
36.26923 676
36.28934 757
36.30946 812
36.32957 852
36.34968 979
36.3698 1092
36.38991 1147
36.41003 1395
36.43014 1471
36.45025 1621
36.47037 1650
36.49048 1565
36.51059 1592
36.53071 1489
36.55082 1272
36.57094 1100
36.59105 983
36.61116 889
36.63128 805
36.65139 694
36.6715 585
36.69162 547
36.71173 503
36.73184 499
36.75196 493
36.77207 512
36.79219 495
36.8123 498
36.83241 447
36.85253 467
36.87264 444
36.89275 458
36.91287 459
36.93298 501
36.9531 439
36.97321 466
36.99332 436
37.01344 443
37.03355 419
37.05366 484
37.07378 456
37.09389 448
37.11401 474
37.13412 498
37.15423 471
37.17435 468
37.19446 430
37.21457 450
37.23469 468
37.2548 435
37.27491 482
37.29503 467
37.31514 446
37.33526 512
37.35537 480
37.37548 509
37.3956 520
37.41571 496
37.43582 491
37.45594 512
37.47605 490
37.49617 543
37.51628 568
37.53639 546
37.55651 556
37.57662 547
37.59673 524
37.61685 519
37.63696 550
37.65708 523
37.67719 531
37.6973 513
37.71742 471
37.73753 477
37.75764 487
37.77776 509
37.79787 464
37.81798 459
37.8381 473
37.85821 461
37.87833 470
37.89844 465
37.91855 445
37.93867 414
37.95878 414
37.97889 414
37.99901 392
38.01912 450
38.03924 410
38.05935 451
38.07946 428
38.09958 436
38.11969 414
38.1398 427
38.15992 421
38.18003 407
38.20015 445
38.22026 453
38.24037 419
38.26049 424
38.2806 407
38.30071 466
38.32083 411
38.34094 451
38.36105 410
38.38117 433
38.40128 428
38.4214 467
38.44151 393
38.46162 417
38.48174 438
38.50185 437
38.52196 437
38.54208 414
38.56219 397
38.58231 404
38.60242 372
38.62253 430
38.64265 392
38.66276 411
38.68287 395
38.70299 431
38.7231 372
38.74321 380
38.76333 363
38.78344 376
38.80356 380
38.82367 340
38.84378 397
38.8639 396
38.88401 396
38.90412 390
38.92424 401
38.94435 375
38.96447 379
38.98458 399
39.00469 440
39.02481 432
39.04492 433
39.06503 467
39.08515 502
39.10526 500
39.12538 476
39.14549 516
39.1656 568
39.18572 575
39.20583 597
39.22594 656
39.24606 735
39.26617 794
39.28628 829
39.3064 987
39.32651 1134
39.34663 1267
39.36674 1330
39.38685 1446
39.40697 1403
39.42708 1315
39.44719 1278
39.46731 1126
39.48742 999
39.50754 795
39.52765 826
39.54776 683
39.56788 565
39.58799 471
39.6081 404
39.62822 408
39.64833 374
39.66845 330
39.68856 342
39.70867 363
39.72879 434
39.7489 348
39.76901 375
39.78913 366
39.80924 374
39.82935 393
39.84947 406
39.86958 410
39.8897 398
39.90981 407
39.92992 374
39.95004 404
39.97015 446
39.99026 442
40.01038 423
40.03049 447
40.05061 523
40.07072 553
40.09083 547
40.11095 581
40.13106 702
40.15117 785
40.17129 763
40.1914 848
40.21152 913
40.23163 889
40.25174 784
40.27186 751
40.29197 681
40.31208 603
40.3322 619
40.35231 549
40.37242 527
40.39254 436
40.41265 391
40.43277 370
40.45288 361
40.47299 323
40.49311 370
40.51322 337
40.53333 349
40.55345 324
40.57356 302
40.59368 328
40.61379 310
40.6339 336
40.65402 331
40.67413 326
40.69424 292
40.71436 313
40.73447 337
40.75458 300
40.7747 340
40.79481 308
40.81493 322
40.83504 301
40.85515 323
40.87527 303
40.89538 329
40.91549 316
40.93561 319
40.95572 331
40.97584 316
40.99595 329
41.01606 321
41.03618 335
41.05629 311
41.0764 322
41.09652 332
41.11663 334
41.13675 368
41.15686 348
41.17697 365
41.19709 336
41.2172 351
41.23731 335
41.25743 329
41.27754 328
41.29765 324
41.31777 340
41.33788 330
41.358 337
41.37811 345
41.39822 349
41.41834 357
41.43845 336
41.45856 361
41.47868 348
41.49879 365
41.51891 350
41.53902 364
41.55913 356
41.57925 319
41.59936 372
41.61947 338
41.63959 319
41.6597 387
41.67982 309
41.69993 358
41.72004 366
41.74016 321
41.76027 272
41.78038 332
41.8005 352
41.82061 350
41.84072 336
41.86084 336
41.88095 359
41.90107 306
41.92118 326
41.94129 342
41.96141 341
41.98152 361
42.00163 321
42.02175 345
42.04186 320
42.06198 331
42.08209 366
42.1022 375
42.12232 399
42.14243 405
42.16254 468
42.18266 436
42.20277 467
42.22289 522
42.243 592
42.26311 692
42.28323 722
42.30334 835
42.32345 865
42.34357 954
42.36368 943
42.38379 954
42.40391 1021
42.42402 969
42.44414 842
42.46425 786
42.48436 690
42.50448 590
42.52459 533
42.5447 483
42.56482 419
42.58493 365
42.60505 327
42.62516 316
42.64527 306
42.66539 307
42.6855 324
42.70561 326
42.72573 305
42.74584 289
42.76595 307
42.78607 283
42.80618 296
42.8263 304
42.84641 281
42.86652 271
42.88664 318
42.90675 282
42.92686 293
42.94698 304
42.96709 300
42.98721 271
43.00732 315
43.02743 282
43.04755 305
43.06766 281
43.08777 273
43.10789 273
43.128 325
43.14812 286
43.16823 309
43.18834 272
43.20846 274
43.22857 260
43.24868 262
43.2688 273
43.28891 297
43.30902 270
43.32914 271
43.34925 296
43.36937 281
43.38948 261
43.40959 300
43.42971 253
43.44982 287
43.46993 241
43.49005 293
43.51016 255
43.53028 288
43.55039 267
43.5705 272
43.59062 319
43.61073 273
43.63084 289
43.65096 266
43.67107 275
43.69119 284
43.7113 303
43.73141 289
43.75153 299
43.77164 292
43.79175 256
43.81187 268
43.83198 311
43.85209 310
43.87221 320
43.89232 317
43.91244 304
43.93255 296
43.95266 307
43.97278 284
43.99289 311
44.013 327
44.03312 301
44.05323 337
44.07335 348
44.09346 357
44.11357 356
44.13369 350
44.1538 371
44.17391 346
44.19403 373
44.21414 324
44.23426 334
44.25437 358
44.27448 348
44.2946 349
44.31471 332
44.33482 311
44.35494 369
44.37505 372
44.39516 332
44.41528 320
44.43539 311
44.45551 300
44.47562 310
44.49573 337
44.51585 272
44.53596 300
44.55607 333
44.57619 365
44.5963 291
44.61642 274
44.63653 275
44.65664 294
44.67676 314
44.69687 295
44.71698 316
44.7371 299
44.75721 308
44.77732 305
44.79744 312
44.81755 331
44.83767 273
44.85778 327
44.87789 303
44.89801 294
44.91812 302
44.93823 309
44.95835 286
44.97846 297
44.99858 303
45.01869 290
45.0388 299
45.05892 305
45.07903 334
45.09914 325
45.11926 325
45.13937 353
45.15949 312
45.1796 308
45.19971 311
45.21983 369
45.23994 376
45.26005 365
45.28017 366
45.30028 354
45.32039 361
45.34051 352
45.36062 358
45.38074 357
45.40085 407
45.42096 390
45.44108 379
45.46119 391
45.4813 423
45.50142 456
45.52153 435
45.54165 451
45.56176 516
45.58187 487
45.60199 579
45.6221 601
45.64221 672
45.66233 705
45.68244 718
45.70256 764
45.72267 775
45.74278 791
45.7629 732
45.78301 686
45.80312 599
45.82324 500
45.84335 498
45.86346 499
45.88358 457
45.90369 422
45.92381 357
45.94392 327
45.96403 261
45.98415 322
46.00426 325
46.02437 304
46.04449 276
46.0646 325
46.08472 311
46.10483 263
46.12494 304
46.14506 297
46.16517 282
46.18528 286
46.2054 280
46.22551 295
46.24563 278
46.26574 274
46.28585 285
46.30597 282
46.32608 295
46.34619 296
46.36631 258
46.38642 291
46.40653 301
46.42665 283
46.44676 270
46.46688 302
46.48699 269
46.5071 269
46.52722 268
46.54733 270
46.56744 294
46.58756 271
46.60767 267
46.62779 234
46.6479 275
46.66801 284
46.68813 297
46.70824 261
46.72835 246
46.74847 263
46.76858 264
46.78869 253
46.80881 296
46.82892 269
46.84904 265
46.86915 292
46.88926 270
46.90938 294
46.92949 285
46.9496 286
46.96972 287
46.98983 257
47.00995 262
47.03006 298
47.05017 295
47.07029 262
47.0904 281
47.11051 315
47.13063 302
47.15074 262
47.17086 275
47.19097 301
47.21108 307
47.2312 307
47.25131 332
47.27142 296
47.29154 289
47.31165 341
47.33176 337
47.35188 292
47.37199 302
47.39211 305
47.41222 328
47.43233 268
47.45245 279
47.47256 280
47.49267 283
47.51279 295
47.5329 319
47.55302 299
47.57313 279
47.59324 277
47.61336 299
47.63347 289
47.65358 277
47.6737 264
47.69381 303
47.71393 266
47.73404 279
47.75415 290
47.77427 304
47.79438 324
47.81449 304
47.83461 330
47.85472 310
47.87483 295
47.89495 289
47.91506 302
47.93518 335
47.95529 286
47.9754 308
47.99552 286
48.01563 312
48.03574 247
48.05586 275
48.07597 286
48.09609 256
48.1162 279
48.13631 256
48.15643 279
48.17654 242
48.19665 242
48.21677 273
48.23688 272
48.257 251
48.27711 251
48.29722 263
48.31734 254
48.33745 248
48.35756 280
48.37768 274
48.39779 256
48.4179 241
48.43802 235
48.45813 257
48.47825 287
48.49836 274
48.51847 256
48.53859 273
48.5587 258
48.57881 242
48.59893 263
48.61904 254
48.63916 222
48.65927 247
48.67938 263
48.6995 271
48.71961 233
48.73972 251
48.75984 257
48.77995 242
48.80006 281
48.82018 243
48.84029 256
48.86041 241
48.88052 284
48.90063 255
48.92075 253
48.94086 259
48.96097 250
48.98109 252
49.0012 247
49.02132 240
49.04143 239
49.06154 257
49.08166 277
49.10177 238
49.12188 286
49.142 258
49.16211 269
49.18223 258
49.20234 245
49.22245 249
49.24257 255
49.26268 271
49.28279 252
49.30291 275
49.32302 263
49.34313 241
49.36325 246
49.38336 263
49.40348 257
49.42359 288
49.4437 292
49.46382 240
49.48393 282
49.50404 279
49.52416 308
49.54427 296
49.56439 288
49.5845 295
49.60461 311
49.62473 309
49.64484 336
49.66495 379
49.68507 361
49.70518 382
49.7253 414
49.74541 435
49.76552 442
49.78564 473
49.80575 536
49.82586 560
49.84598 636
49.86609 730
49.8862 793
49.90632 908
49.92643 1023
49.94655 1142
49.96666 1313
49.98677 1537
50.00689 1705
50.027 1903
50.04711 1902
50.06723 1972
50.08734 1907
50.10746 1764
50.12757 1601
50.14768 1354
50.1678 1231
50.18791 1122
50.20802 1079
50.22814 938
50.24825 885
50.26837 664
50.28848 550
50.30859 418
50.32871 409
50.34882 385
50.36893 349
50.38905 372
50.40916 386
50.42927 363
50.44939 344
50.4695 346
50.48962 324
50.50973 357
50.52984 390
50.54996 361
50.57007 332
50.59018 333
50.6103 350
50.63041 362
50.65053 339
50.67064 359
50.69075 313
50.71087 312
50.73098 312
50.75109 280
50.77121 285
50.79132 296
50.81143 263
50.83155 269
50.85166 306
50.87178 283
50.89189 237
50.912 263
50.93212 293
50.95223 285
50.97234 275
50.99246 270
51.01257 272
51.03269 283
51.0528 267
51.07291 248
51.09303 269
51.11314 267
51.13325 258
51.15337 256
51.17348 247
51.1936 284
51.21371 284
51.23382 247
51.25394 261
51.27405 255
51.29416 255
51.31428 254
51.33439 230
51.3545 244
51.37462 251
51.39473 244
51.41485 273
51.43496 254
51.45507 249
51.47519 238
51.4953 263
51.51541 257
51.53553 242
51.55564 254
51.57576 248
51.59587 226
51.61598 250
51.6361 265
51.65621 243
51.67632 247
51.69644 239
51.71655 225
51.73667 242
51.75678 254
51.77689 253
51.79701 271
51.81712 266
51.83723 256
51.85735 232
51.87746 264
51.89757 271
51.91769 260
51.9378 275
51.95792 270
51.97803 262
51.99814 258
52.01826 257
52.03837 276
52.05848 293
52.0786 313
52.09871 287
52.11883 303
52.13894 274
52.15905 310
52.17917 275
52.19928 283
52.21939 279
52.23951 293
52.25962 306
52.27974 285
52.29985 274
52.31996 279
52.34008 270
52.36019 270
52.3803 295
52.40042 278
52.42053 242
52.44064 255
52.46076 277
52.48087 246
52.50099 248
52.5211 267
52.54121 229
52.56133 276
52.58144 237
52.60155 217
52.62167 256
52.64178 266
52.6619 247
52.68201 221
52.70212 224
52.72224 269
52.74235 230
52.76246 241
52.78258 267
52.80269 257
52.8228 216
52.84292 271
52.86303 217
52.88315 243
52.90326 219
52.92337 246
52.94349 229
52.9636 224
52.98371 221
53.00383 227
53.02394 215
53.04406 251
53.06417 273
53.08428 255
53.1044 257
53.12451 246
53.14462 235
53.16474 242
53.18485 249
53.20497 242
53.22508 255
53.24519 229
53.26531 269
53.28542 257
53.30553 238
53.32565 231
53.34576 262
53.36587 234
53.38599 258
53.4061 253
53.42622 275
53.44633 280
53.46644 261
53.48656 290
53.50667 252
53.52678 303
53.5469 239
53.56701 278
53.58713 288
53.60724 299
53.62735 286
53.64747 288
53.66758 274
53.68769 329
53.70781 299
53.72792 300
53.74804 319
53.76815 290
53.78826 316
53.80838 307
53.82849 303
53.8486 345
53.86872 310
53.88883 309
53.90894 310
53.92906 375
53.94917 347
53.96929 337
53.9894 343
54.00951 391
54.02963 362
54.04974 354
54.06985 358
54.08997 310
54.11008 361
54.1302 367
54.15031 387
54.17042 345
54.19054 319
54.21065 350
54.23076 372
54.25088 364
54.27099 375
54.29111 365
54.31122 333
54.33133 336
54.35145 350
54.37156 350
54.39167 378
54.41179 369
54.4319 395
54.45201 356
54.47213 375
54.49224 375
54.51236 405
54.53247 362
54.55258 427
54.5727 429
54.59281 472
54.61292 449
54.63304 495
54.65315 529
54.67327 593
54.69338 630
54.71349 676
54.73361 705
54.75372 778
54.77383 835
54.79395 806
54.81406 825
54.83417 739
54.85429 720
54.8744 662
54.89452 599
54.91463 606
54.93474 623
54.95486 532
54.97497 545
54.99508 465
55.0152 506
55.03531 470
55.05543 431
55.07554 419
55.09565 408
55.11577 407
55.13588 441
55.15599 451
55.17611 479
55.19622 463
55.21634 527
55.23645 498
55.25656 494
55.27668 478
55.29679 498
55.3169 445
55.33702 463
55.35713 389
55.37724 399
55.39736 405
55.41747 410
55.43759 359
55.4577 334
55.47781 338
55.49793 349
55.51804 312
55.53815 311
55.55827 299
55.57838 297
55.5985 294
55.61861 302
55.63872 276
55.65884 292
55.67895 286
55.69906 283
55.71918 269
55.73929 278
55.75941 266
55.77952 282
55.79963 266
55.81975 254
55.83986 259
55.85997 258
55.88009 267
55.9002 251
55.92031 255
55.94043 300
55.96054 242
55.98066 233
56.00077 272
56.02088 273
56.041 242
56.06111 293
56.08122 256
56.10134 269
56.12145 260
56.14157 277
56.16168 253
56.18179 252
56.20191 264
56.22202 243
56.24213 266
56.26225 252
56.28236 241
56.30248 285
56.32259 225
56.3427 252
56.36282 256
56.38293 248
56.40304 250
56.42316 248
56.44327 244
56.46338 252
56.4835 235
56.50361 240
56.52373 251
56.54384 269
56.56395 249
56.58407 265
56.60418 274
56.62429 226
56.64441 272
56.66452 265
56.68464 248
56.70475 275
56.72486 239
56.74498 253
56.76509 215
56.7852 250
56.80532 251
56.82543 243
56.84554 222
56.86566 231
56.88577 236
56.90589 233
56.926 252
56.94611 268
56.96623 264
56.98634 234
57.00645 248
57.02657 239
57.04668 241
57.0668 262
57.08691 251
57.10702 256
57.12714 253
57.14725 261
57.16736 235
57.18748 274
57.20759 235
57.22771 278
57.24782 259
57.26793 245
57.28805 232
57.30816 254
57.32827 248
57.34839 233
57.3685 244
57.38861 255
57.40873 244
57.42884 228
57.44896 234
57.46907 222
57.48918 233
57.5093 221
57.52941 259
57.54952 243
57.56964 239
57.58975 244
57.60987 246
57.62998 266
57.65009 223
57.67021 250
57.69032 248
57.71043 243
57.73055 230
57.75066 232
57.77078 215
57.79089 239
57.811 260
57.83112 224
57.85123 231
57.87134 228
57.89146 221
57.91157 251
57.93168 260
57.9518 225
57.97191 236
57.99203 247
58.01214 254
58.03225 236
58.05237 253
58.07248 262
58.09259 270
58.11271 243
58.13282 241
58.15294 256
58.17305 234
58.19316 257
58.21328 224
58.23339 236
58.2535 222
58.27362 252
58.29373 230
58.31385 220
58.33396 238
58.35407 228
58.37419 259
58.3943 224
58.41441 247
58.43453 259
58.45464 274
58.47475 223
58.49487 231
58.51498 257
58.5351 242
58.55521 262
58.57532 243
58.59544 259
58.61555 232
58.63566 224
58.65578 244
58.67589 215
58.69601 239
58.71612 252
58.73623 238
58.75635 261
58.77646 238
58.79657 219
58.81669 244
58.8368 242
58.85691 247
58.87703 221
58.89714 253
58.91726 258
58.93737 252
58.95748 241
58.9776 240
58.99771 222
59.01782 241
59.03794 260
59.05805 232
59.07817 220
59.09828 231
59.11839 246
59.13851 228
59.15862 230
59.17873 264
59.19885 239
59.21896 228
59.23908 250
59.25919 230
59.2793 256
59.29942 250
59.31953 245
59.33964 282
59.35976 286
59.37987 280
59.39998 258
59.4201 299
59.44021 282
59.46033 305
59.48044 290
59.50055 314
59.52067 339
59.54078 371
59.56089 352
59.58101 386
59.60112 425
59.62124 457
59.64135 453
59.66146 522
59.68158 594
59.70169 647
59.7218 704
59.74192 826
59.76203 885
59.78215 994
59.80226 1077
59.82237 1196
59.84249 1205
59.8626 1336
59.88271 1336
59.90283 1245
59.92294 1154
59.94305 1018
59.96317 918
59.98328 825
60.0034 776
60.02351 745
60.04362 733
60.06374 684
60.08385 637
60.10396 556
60.12408 420
60.14419 392
60.16431 336
60.18442 312
60.20453 308
60.22465 273
60.24476 280
60.26487 290
60.28499 260
60.3051 235
60.32522 259
60.34533 223
60.36544 255
60.38556 242
60.40567 245
60.42578 243
60.4459 242
60.46601 241
60.48612 232
60.50624 220
60.52635 243
60.54647 231
60.56658 238
60.58669 224
60.60681 227
60.62692 234
60.64703 218
60.66715 219
60.68726 214
60.70738 251
60.72749 217
60.7476 249
60.76772 226
60.78783 244
60.80794 229
60.82806 229
60.84817 231
60.86828 241
60.8884 233
60.90851 212
60.92863 238
60.94874 224
60.96885 222
60.98897 238
61.00908 235
61.02919 242
61.04931 227
61.06942 244
61.08954 232
61.10965 248
61.12976 222
61.14988 223
61.16999 210
61.1901 208
61.21022 237
61.23033 237
61.25045 223
61.27056 219
61.29067 233
61.31079 254
61.3309 248
61.35101 245
61.37113 253
61.39124 245
61.41135 228
61.43147 214
61.45158 245
61.4717 235
61.49181 221
61.51192 231
61.53204 225
61.55215 232
61.57226 239
61.59238 238
61.61249 234
61.63261 238
61.65272 268
61.67283 236
61.69295 231
61.71306 250
61.73317 247
61.75329 219
61.7734 263
61.79352 271
61.81363 256
61.83374 267
61.85386 280
61.87397 261
61.89408 248
61.9142 278
61.93431 299
61.95442 283
61.97454 298
61.99465 294
62.01477 290
62.03488 318
62.05499 306
62.07511 302
62.09522 294
62.11533 348
62.13545 329
62.15556 342
62.17568 316
62.19579 326
62.2159 346
62.23602 328
62.25613 354
62.27624 299
62.29636 306
62.31647 331
62.33659 346
62.3567 316
62.37681 327
62.39693 308
62.41704 310
62.43715 315
62.45727 313
62.47738 321
62.49749 305
62.51761 320
62.53772 307
62.55784 295
62.57795 304
62.59806 300
62.61818 296
62.63829 303
62.6584 271
62.67852 280
62.69863 266
62.71875 288
62.73886 268
62.75897 266
62.77909 266
62.7992 256
62.81931 287
62.83943 235
62.85954 264
62.87965 286
62.89977 256
62.91988 258
62.94 249
62.96011 297
62.98022 270
63.00034 240
63.02045 244
63.04056 236
63.06068 249
63.08079 251
63.10091 260
63.12102 264
63.14113 251
63.16125 255
63.18136 239
63.20147 253
63.22159 255
63.2417 277
63.26182 254
63.28193 251
63.30204 264
63.32216 239
63.34227 255
63.36238 283
63.3825 252
63.40261 278
63.42272 268
63.44284 260
63.46295 282
63.48307 284
63.50318 275
63.52329 289
63.54341 292
63.56352 306
63.58363 293
63.60375 327
63.62386 306
63.64398 329
63.66409 322
63.6842 325
63.70432 337
63.72443 349
63.74454 366
63.76466 356
63.78477 356
63.80489 388
63.825 411
63.84511 378
63.86523 413
63.88534 445
63.90545 454
63.92557 469
63.94568 454
63.96579 454
63.98591 434
64.00602 419
64.02614 369
64.04625 378
64.06636 348
64.08648 365
64.10659 351
64.1267 342
64.14682 347
64.16693 345
64.18705 311
64.20716 267
64.22727 252
64.24739 297
64.2675 283
64.28761 289
64.30773 244
64.32784 239
64.34796 277
64.36807 250
64.38818 238
64.4083 276
64.42841 229
64.44852 274
64.46864 243
64.48875 241
64.50886 259
64.52898 258
64.54909 256
64.56921 254
64.58932 229
64.60943 261
64.62955 258
64.64966 247
64.66977 259
64.68989 249
64.71 253
64.73012 227
64.75023 237
64.77034 212
64.79046 244
64.81057 235
64.83068 232
64.8508 200
64.87091 212
64.89102 232
64.91114 249
64.93125 243
64.95137 201
64.97148 234
64.99159 221
65.01171 221
65.03182 214
65.05193 198
65.07205 213
65.09216 214
65.11228 235
65.13239 223
65.1525 220
65.17262 206
65.19273 224
65.21284 215
65.23296 213
65.25307 217
65.27319 222
65.2933 246
65.31341 220
65.33353 215
65.35364 253
65.37375 239
65.39387 242
65.41398 244
65.43409 243
65.45421 226
65.47432 242
65.49444 228
65.51455 229
65.53466 238
65.55478 237
65.57489 236
65.595 265
65.61512 272
65.63523 250
65.65535 260
65.67546 273
65.69557 292
65.71569 271
65.7358 283
65.75591 283
65.77603 282
65.79614 244
65.81626 272
65.83637 248
65.85648 246
65.8766 273
65.89671 233
65.91682 234
65.93694 242
65.95705 238
65.97716 267
65.99728 282
66.01739 243
66.03751 257
66.05762 255
66.07773 259
66.09785 258
66.11796 277
66.13807 264
66.15819 243
66.1783 265
66.19842 262
66.21853 254
66.23864 223
66.25876 261
66.27887 237
66.29898 253
66.3191 261
66.33921 255
66.35933 251
66.37944 264
66.39955 235
66.41967 242
66.43978 233
66.45989 212
66.48001 243
66.50012 240
66.52023 220
66.54035 242
66.56046 221
66.58058 227
66.60069 247
66.6208 244
66.64092 242
66.66103 260
66.68114 225
66.70126 271
66.72137 237
66.74149 246
66.7616 240
66.78171 246
66.80183 233
66.82194 212
66.84205 259
66.86217 230
66.88228 263
66.90239 255
66.92251 249
66.94262 268
66.96274 255
66.98285 245
67.00296 220
67.02308 235
67.04319 238
67.0633 215
67.08342 273
67.10353 261
67.12365 251
67.14376 285
67.16387 266
67.18399 251
67.2041 265
67.22421 305
67.24433 263
67.26444 278
67.28456 314
67.30467 330
67.32478 317
67.3449 336
67.36501 296
67.38512 392
67.40524 371
67.42535 422
67.44546 462
67.46558 452
67.48569 502
67.50581 512
67.52592 587
67.54603 643
67.56615 698
67.58626 762
67.60637 847
67.62649 945
67.6466 859
67.66672 920
67.68683 885
67.70694 858
67.72706 783
67.74717 714
67.76728 715
67.7874 708
67.80751 728
67.82763 777
67.84774 803
67.86785 789
67.88797 811
67.90808 799
67.92819 843
67.94831 885
67.96842 928
67.98853 1028
68.00865 1029
68.02876 1137
68.04888 1182
68.06899 1191
68.0891 1143
68.10922 1128
68.12933 1086
68.14944 992
68.16956 1036
68.18967 1015
68.20979 1052
68.2299 1066
68.25001 1012
68.27013 918
68.29024 833
68.31035 719
68.33047 637
68.35058 580
68.3707 569
68.39081 464
68.41092 507
68.43104 482
68.45115 442
68.47126 394
68.49138 352
68.51149 346
68.5316 319
68.55172 285
68.57183 299
68.59195 250
68.61206 275
68.63217 253
68.65229 293
68.6724 251
68.69251 246
68.71263 222
68.73274 276
68.75286 264
68.77297 250
68.79308 238
68.8132 228
68.83331 231
68.85342 263
68.87354 265
68.89365 222
68.91376 248
68.93388 234
68.95399 242
68.97411 239
68.99422 247
69.01433 225
69.03445 227
69.05456 276
69.07467 228
69.09479 224
69.1149 218
69.13502 229
69.15513 242
69.17524 219
69.19536 208
69.21547 230
69.23558 237
69.2557 222
69.27581 212
69.29593 247
69.31604 240
69.33615 212
69.35627 201
69.37638 237
69.39649 205
69.41661 214
69.43672 203
69.45683 213
69.47695 188
69.49706 200
69.51718 212
69.53729 176
69.5574 222
69.57752 202
69.59763 204
69.61774 194
69.63786 205
69.65797 236
69.67809 205
69.6982 226
69.71831 218
69.73843 213
69.75854 201
69.77865 224
69.79877 214
69.81888 207
69.839 207
69.85911 196
69.87922 212
69.89934 212
69.91945 220
69.93956 201
69.95968 198
69.97979 214
69.9999 219
70.02002 229
70.04013 220
70.06025 219
70.08036 212
70.10047 203
70.12059 239
70.1407 210
70.16081 200
70.18093 199
70.20104 189
70.22116 223
70.24127 221
70.26138 216
70.2815 203
70.30161 192
70.32172 212
70.34184 194
70.36195 202
70.38207 210
70.40218 211
70.42229 219
70.44241 228
70.46252 203
70.48263 216
70.50275 207
70.52286 194
70.54297 183
70.56309 227
70.5832 232
70.60332 198
70.62343 221
70.64354 199
70.66366 186
70.68377 195
70.70388 194
70.724 199
70.74411 193
70.76423 192
70.78434 224
70.80445 196
70.82457 217
70.84468 199
70.86479 225
70.88491 205
70.90502 206
70.92513 212
70.94525 216
70.96536 212
70.98548 198
71.00559 185
71.0257 194
71.04582 212
71.06593 227
71.08604 180
71.10616 205
71.12627 200
71.14639 182
71.1665 190
71.18661 211
71.20673 198
71.22684 211
71.24695 183
71.26707 206
71.28718 203
71.3073 220
71.32741 213
71.34752 199
71.36764 190
71.38775 179
71.40786 206
71.42798 207
71.44809 215
71.4682 188
71.48832 185
71.50843 205
71.52855 190
71.54866 196
71.56877 192
71.58889 193
71.609 214
71.62911 203
71.64923 212
71.66934 205
71.68946 184
71.70957 205
71.72968 202
71.7498 206
71.76991 192
71.79002 190
71.81014 181
71.83025 164
71.85037 219
71.87048 209
71.89059 186
71.91071 210
71.93082 220
71.95093 196
71.97105 216
71.99116 205
72.01127 182
72.03139 194
72.0515 221
72.07162 185
72.09173 180
72.11184 199
72.13196 169
72.15207 187
72.17218 184
72.1923 203
72.21241 208
72.23253 213
72.25264 181
72.27275 190
72.29287 201
72.31298 199
72.33309 167
72.35321 190
72.37332 193
72.39344 186
72.41355 180
72.43366 209
72.45378 191
72.47389 206
72.494 190
72.51412 197
72.53423 194
72.55434 211
72.57446 203
72.59457 211
72.61469 186
72.6348 208
72.65491 190
72.67503 196
72.69514 209
72.71525 205
72.73537 200
72.75548 207
72.7756 181
72.79571 211
72.81582 203
72.83594 213
72.85605 211
72.87616 220
72.89628 210
72.91639 228
72.9365 219
72.95662 216
72.97673 216
72.99685 220
73.01696 197
73.03707 220
73.05719 238
73.0773 256
73.09741 234
73.11753 242
73.13764 237
73.15776 267
73.17787 250
73.19798 258
73.2181 294
73.23821 313
73.25832 357
73.27844 342
73.29855 365
73.31867 405
73.33878 449
73.35889 413
73.37901 442
73.39912 461
73.41923 400
73.43935 386
73.45946 334
73.47957 338
73.49969 309
73.5198 283
73.53992 339
73.56003 366
73.58014 328
73.60026 270
73.62037 293
73.64048 262
73.6606 300
73.68071 257
73.70083 240
73.72094 220
73.74105 210
73.76117 212
73.78128 224
73.80139 208
73.82151 218
73.84162 198
73.86174 190
73.88185 208
73.90196 188
73.92208 206
73.94219 207
73.9623 200
73.98242 209
74.00253 191
74.02264 211
74.04276 207
74.06287 191
74.08299 198
74.1031 204
74.12321 235
74.14333 181
74.16344 219
74.18355 183
74.20367 170
74.22378 218
74.2439 203
74.26401 203
74.28412 205
74.30424 188
74.32435 181
74.34446 174
74.36458 207
74.38469 219
74.40481 186
74.42492 204
74.44503 177
74.46515 222
74.48526 207
74.50537 222
74.52549 215
74.5456 188
74.56571 193
74.58583 215
74.60594 197
74.62606 211
74.64617 206
74.66628 206
74.6864 199
74.70651 225
74.72662 191
74.74674 230
74.76685 187
74.78697 224
74.80708 218
74.82719 201
74.84731 210
74.86742 231
74.88753 214
74.90765 191
74.92776 217
74.94787 233
74.96799 234
74.9881 225
75.00822 222
