3.00117 18625
3.02128 17694
3.0414 17727
3.06151 17158
3.08162 16661
3.10174 16425
3.12185 15661
3.14197 15327
3.16208 14847
3.18219 14639
3.20231 14102
3.22242 13459
3.24253 13431
3.26265 12456
3.28276 12651
3.30288 12207
3.32299 11631
3.3431 11337
3.36322 10825
3.38333 10700
3.40344 10250
3.42356 9765
3.44367 9572
3.46379 9225
3.4839 9063
3.50401 8533
3.52413 8222
3.54424 8229
3.56435 7706
3.58447 7467
3.60458 7139
3.62469 6713
3.64481 6625
3.66492 6423
3.68504 6232
3.70515 5810
3.72526 5609
3.74538 5550
3.76549 5152
3.7856 5079
3.80572 4874
3.82583 4539
3.84595 4420
3.86606 4187
3.88617 4058
3.90629 3836
3.9264 3646
3.94651 3516
3.96663 3420
3.98674 3286
4.00686 3067
4.02697 2993
4.04708 2907
4.0672 2790
4.08731 2627
4.10742 2588
4.12754 2354
4.14765 2334
4.16776 2332
4.18788 2114
4.20799 1964
4.22811 1917
4.24822 1978
4.26833 1958
4.28845 1812
4.30856 1683
4.32867 1710
4.34879 1703
4.3689 1631
4.38902 1562
4.40913 1541
4.42924 1468
4.44936 1493
4.46947 1469
4.48958 1321
4.5097 1340
4.52981 1203
4.54992 1283
4.57004 1331
4.59015 1188
4.61027 1157
4.63038 1132
4.65049 1153
4.67061 1110
4.69072 1022
4.71083 1009
4.73095 1081
4.75106 1066
4.77118 1038
4.79129 978
4.8114 936
4.83152 872
4.85163 880
4.87174 926
4.89186 921
4.91197 846
4.93209 834
4.9522 809
4.97231 851
4.99243 754
5.01254 808
5.03265 768
5.05277 752
5.07288 714
5.09299 664
5.11311 647
5.13322 708
5.15334 612
5.17345 672
5.19356 589
5.21368 646
5.23379 623
5.2539 614
5.27402 635
5.29413 527
5.31425 509
5.33436 574
5.35447 552
5.37459 514
5.3947 489
5.41481 479
5.43493 538
5.45504 489
5.47516 492
5.49527 471
5.51538 487
5.5355 453
5.55561 463
5.57572 463
5.59584 417
5.61595 427
5.63606 417
5.65618 394
5.67629 424
5.69641 390
5.71652 396
5.73663 411
5.75675 396
5.77686 329
5.79697 378
5.81709 334
5.8372 352
5.85732 399
5.87743 380
5.89754 376
5.91766 381
5.93777 351
5.95788 338
5.978 354
5.99811 348
6.01823 359
6.03834 358
6.05845 339
6.07857 350
6.09868 327
6.11879 325
6.13891 349
6.15902 327
6.17913 337
6.19925 346
6.21936 305
6.23948 308
6.25959 315
6.2797 295
6.29982 343
6.31993 303
6.34004 316
6.36016 308
6.38027 293
6.40039 294
6.4205 303
6.44061 327
6.46073 273
6.48084 332
6.50095 293
6.52107 311
6.54118 308
6.56129 280
6.58141 312
6.60152 288
6.62164 258
6.64175 303
6.66186 293
6.68198 306
6.70209 269
6.7222 306
6.74232 300
6.76243 267
6.78255 284
6.80266 301
6.82277 280
6.84289 283
6.863 257
6.88311 280
6.90323 287
6.92334 280
6.94346 309
6.96357 305
6.98368 326
7.0038 306
7.02391 292
7.04402 317
7.06414 320
7.08425 271
7.10436 278
7.12448 309
7.14459 284
7.16471 292
7.18482 291
7.20493 303
7.22505 293
7.24516 283
7.26527 274
7.28539 300
7.3055 303
7.32562 319
7.34573 295
7.36584 276
7.38596 300
7.40607 264
7.42618 325
7.4463 289
7.46641 271
7.48653 276
7.50664 282
7.52675 318
7.54687 314
7.56698 346
7.58709 337
7.60721 267
7.62732 289
7.64743 301
7.66755 276
7.68766 284
7.70778 300
7.72789 321
7.748 307
7.76812 276
7.78823 271
7.80834 282
7.82846 303
7.84857 297
7.86869 305
7.8888 288
7.90891 282
7.92903 301
7.94914 298
7.96925 325
7.98937 311
8.00948 310
8.0296 320
8.04971 295
8.06982 313
8.08994 303
8.11005 293
8.13016 308
8.15028 276
8.17039 290
8.1905 300
8.21062 333
8.23073 327
8.25085 312
8.27096 321
8.29107 321
8.31119 297
8.3313 316
8.35141 273
8.37153 277
8.39164 318
8.41176 302
8.43187 276
8.45198 307
8.4721 258
8.49221 271
8.51232 289
8.53244 286
8.55255 284
8.57266 301
8.59278 311
8.61289 330
8.63301 291
8.65312 294
8.67323 316
8.69335 321
8.71346 301
8.73357 308
8.75369 330
8.7738 342
8.79392 331
8.81403 324
8.83414 302
8.85426 337
8.87437 328
8.89448 319
8.9146 276
8.93471 296
8.95483 298
8.97494 311
8.99505 299
9.01517 313
9.03528 303
9.05539 327
9.07551 321
9.09562 287
9.11573 308
9.13585 301
9.15596 263
9.17608 296
9.19619 287
9.2163 310
9.23642 341
9.25653 310
9.27664 316
9.29676 321
9.31687 338
9.33699 284
9.3571 304
9.37721 300
9.39733 319
9.41744 293
9.43755 319
9.45767 310
9.47778 323
9.4979 318
9.51801 264
9.53812 353
9.55824 330
9.57835 287
9.59846 279
9.61858 309
9.63869 302
9.6588 301
9.67892 318
9.69903 301
9.71915 316
9.73926 329
9.75937 302
9.77949 307
9.7996 317
9.81971 260
9.83983 298
9.85994 305
9.88006 281
9.90017 309
9.92028 287
9.9404 293
9.96051 296
9.98062 291
10.00074 281
10.02085 291
10.04097 316
10.06108 303
10.08119 345
10.10131 327
10.12142 270
10.14153 312
10.16165 328
10.18176 325
10.20187 306
10.22199 285
10.2421 317
10.26222 323
10.28233 331
10.30244 314
10.32256 295
10.34267 296
10.36278 287
10.3829 241
10.40301 301
10.42313 282
10.44324 313
10.46335 290
10.48347 296
10.50358 340
10.52369 307
10.54381 318
10.56392 305
10.58403 283
10.60415 329
10.62426 303
10.64438 320
10.66449 283
10.6846 324
10.70472 314
10.72483 334
10.74494 303
10.76506 291
10.78517 282
10.80529 329
10.8254 314
10.84551 308
10.86563 326
10.88574 306
10.90585 292
10.92597 302
10.94608 282
10.9662 354
10.98631 334
11.00642 315
11.02654 293
11.04665 309
11.06676 300
11.08688 322
11.10699 361
11.1271 338
11.14722 318
11.16733 284
11.18745 278
11.20756 315
11.22767 270
11.24779 264
11.2679 329
11.28801 357
11.30813 277
11.32824 331
11.34836 335
11.36847 324
11.38858 319
11.4087 295
11.42881 318
11.44892 334
11.46904 320
11.48915 308
11.50927 340
11.52938 308
11.54949 280
11.56961 335
11.58972 321
11.60983 285
11.62995 322
11.65006 326
11.67017 321
11.69029 325
11.7104 356
11.73052 318
11.75063 339
11.77074 334
11.79086 336
11.81097 335
11.83108 320
11.8512 365
11.87131 346
11.89143 332
11.91154 368
11.93165 384
11.95177 366
11.97188 400
11.99199 393
12.01211 407
12.03222 407
12.05234 433
12.07245 440
12.09256 454
12.11268 462
12.13279 443
12.1529 527
12.17302 525
12.19313 544
12.21324 625
12.23336 705
12.25347 724
12.27359 723
12.2937 757
12.31381 819
12.33393 858
12.35404 868
12.37415 734
12.39427 726
12.41438 684
12.4345 536
12.45461 530
12.47472 471
12.49484 464
12.51495 404
12.53506 394
12.55518 398
12.57529 388
12.5954 354
12.61552 325
12.63563 362
12.65575 324
12.67586 354
12.69597 321
12.71609 276
12.7362 322
12.75631 327
12.77643 314
12.79654 305
12.81666 302
12.83677 273
12.85688 282
12.877 279
12.89711 294
12.91722 313
12.93734 313
12.95745 281
12.97757 310
12.99768 280
13.01779 295
13.03791 245
13.05802 263
13.07813 281
13.09825 280
13.11836 272
13.13847 259
13.15859 284
13.1787 270
13.19882 288
13.21893 301
13.23904 274
13.25916 283
13.27927 259
13.29938 276
13.3195 266
13.33961 293
13.35973 274
13.37984 263
13.39995 285
13.42007 295
13.44018 299
13.46029 272
13.48041 259
13.50052 309
13.52064 281
13.54075 282
13.56086 272
13.58098 299
13.60109 262
13.6212 281
13.64132 272
13.66143 254
13.68154 251
13.70166 257
13.72177 269
13.74189 273
13.762 279
13.78211 270
13.80223 258
13.82234 242
13.84245 265
13.86257 255
13.88268 248
13.9028 271
13.92291 276
13.94302 256
13.96314 245
13.98325 271
14.00336 268
14.02348 282
14.04359 267
14.06371 272
14.08382 246
14.10393 280
14.12405 257
14.14416 261
14.16427 300
14.18439 280
14.2045 257
14.22461 286
14.24473 293
14.26484 293
14.28496 243
14.30507 238
14.32518 229
14.3453 282
14.36541 258
14.38552 231
14.40564 283
14.42575 257
14.44587 271
14.46598 284
14.48609 248
14.50621 257
14.52632 268
14.54643 291
14.56655 270
14.58666 278
14.60677 279
14.62689 279
14.647 257
14.66712 235
14.68723 280
14.70734 243
14.72746 265
14.74757 264
14.76768 230
14.7878 268
14.80791 249
14.82803 243
14.84814 244
14.86825 279
14.88837 265
14.90848 281
14.92859 266
14.94871 284
14.96882 272
14.98894 272
15.00905 289
15.02916 258
15.04928 250
15.06939 248
15.0895 277
15.10962 247
15.12973 246
15.14984 267
15.16996 255
15.19007 244
15.21019 242
15.2303 280
15.25041 235
15.27053 235
15.29064 271
15.31075 246
15.33087 259
15.35098 252
15.3711 259
15.39121 246
15.41132 255
15.43144 288
15.45155 271
15.47166 252
15.49178 257
15.51189 225
15.53201 250
15.55212 260
15.57223 262
15.59235 232
15.61246 252
15.63257 268
15.65269 254
15.6728 272
15.69291 263
15.71303 269
15.73314 256
15.75326 260
15.77337 244
15.79348 275
15.8136 289
15.83371 257
15.85382 253
15.87394 245
15.89405 241
15.91417 239
15.93428 248
15.95439 257
15.97451 246
15.99462 254
16.01473 230
16.03485 276
16.05496 278
16.07508 269
16.09519 255
16.1153 240
16.13542 235
16.15553 281
16.17564 245
16.19576 259
16.21587 263
16.23598 277
16.2561 265
16.27621 244
16.29633 247
16.31644 268
16.33655 222
16.35667 247
16.37678 245
16.39689 247
16.41701 233
16.43712 236
16.45724 247
16.47735 257
16.49746 255
16.51758 235
16.53769 243
16.5578 238
16.57792 258
16.59803 208
16.61814 252
16.63826 241
16.65837 261
16.67849 266
16.6986 259
16.71871 272
16.73883 238
16.75894 222
16.77905 248
16.79917 261
16.81928 282
16.8394 291
16.85951 247
16.87962 260
16.89974 233
16.91985 265
16.93996 270
16.96008 250
16.98019 277
17.00031 251
17.02042 238
17.04053 250
17.06065 268
17.08076 261
17.10087 256
17.12099 237
17.1411 233
17.16121 249
17.18133 240
17.20144 250
17.22156 265
17.24167 244
17.26178 269
17.2819 265
17.30201 262
17.32212 234
17.34224 275
17.36235 273
17.38247 256
17.40258 243
17.42269 272
17.44281 289
17.46292 245
17.48303 258
17.50315 240
17.52326 247
17.54338 273
17.56349 228
17.5836 234
17.60372 266
17.62383 243
17.64394 252
17.66406 266
17.68417 244
17.70428 265
17.7244 260
17.74451 256
17.76463 247
17.78474 263
17.80485 262
17.82497 264
17.84508 253
17.86519 236
17.88531 270
17.90542 284
17.92554 280
17.94565 291
17.96576 265
17.98588 293
18.00599 225
18.0261 249
18.04622 267
18.06633 270
18.08645 267
18.10656 268
18.12667 243
18.14679 274
18.1669 251
18.18701 258
18.20713 262
18.22724 233
18.24735 260
18.26747 239
18.28758 259
18.3077 273
18.32781 250
18.34792 251
18.36804 240
18.38815 270
18.40826 253
18.42838 281
18.44849 263
18.46861 275
18.48872 268
18.50883 271
18.52895 241
18.54906 221
18.56917 289
18.58929 259
18.6094 263
18.62951 231
18.64963 248
18.66974 248
18.68986 289
18.70997 258
18.73008 296
18.7502 293
18.77031 275
18.79042 284
18.81054 239
18.83065 260
18.85077 244
18.87088 270
18.89099 244
18.91111 264
18.93122 267
18.95133 271
18.97145 233
18.99156 262
19.01168 248
19.03179 246
19.0519 264
19.07202 236
19.09213 272
19.11224 234
19.13236 252
19.15247 271
19.17258 276
19.1927 257
19.21281 285
19.23293 289
19.25304 285
19.27315 281
19.29327 267
19.31338 266
19.33349 266
19.35361 272
19.37372 285
19.39384 254
19.41395 274
19.43406 280
19.45418 285
19.47429 286
19.4944 329
19.51452 283
19.53463 290
19.55475 314
19.57486 323
19.59497 309
19.61509 354
19.6352 393
19.65531 359
19.67543 364
19.69554 391
19.71565 427
19.73577 460
19.75588 486
19.776 474
19.79611 528
19.81622 566
19.83634 593
19.85645 633
19.87656 615
19.89668 582
19.91679 584
19.93691 595
19.95702 562
19.97713 524
19.99725 556
20.01736 541
20.03747 517
20.05759 513
20.0777 545
20.09782 542
20.11793 543
20.13804 517
20.15816 539
20.17827 518
20.19838 535
20.2185 519
20.23861 537
20.25872 550
20.27884 546
20.29895 598
20.31907 559
20.33918 636
20.35929 610
20.37941 586
20.39952 586
20.41963 504
20.43975 604
20.45986 552
20.47998 585
20.50009 539
20.5202 583
20.54032 611
20.56043 584
20.58054 673
20.60066 702
20.62077 740
20.64088 847
20.661 952
20.68111 1144
20.70123 1480
20.72134 1945
20.74145 2801
20.76157 3509
20.78168 4324
20.80179 5086
20.82191 5531
20.84202 5268
20.86214 4554
20.88225 3598
20.90236 2652
20.92248 1845
20.94259 1258
20.9627 891
20.98282 712
21.00293 702
21.02305 696
21.04316 676
21.06327 586
21.08339 604
21.1035 600
21.12361 592
21.14373 572
21.16384 620
21.18395 579
21.20407 590
21.22418 591
21.2443 563
21.26441 545
21.28452 533
21.30464 521
21.32475 514
21.34486 534
21.36498 484
21.38509 535
21.40521 503
21.42532 478
21.44543 510
21.46555 508
21.48566 495
21.50577 490
21.52589 447
21.546 491
21.56612 458
21.58623 398
21.60634 450
21.62646 420
21.64657 410
21.66668 431
21.6868 405
21.70691 436
21.72702 464
21.74714 411
21.76725 411
21.78737 440
21.80748 412
21.82759 428
21.84771 416
21.86782 406
21.88793 379
21.90805 412
21.92816 410
21.94828 404
21.96839 375
21.9885 388
22.00862 366
22.02873 399
22.04884 426
22.06896 411
22.08907 356
22.10919 357
22.1293 384
22.14941 380
22.16953 383
22.18964 406
22.20975 395
22.22987 364
22.24998 373
22.27009 376
22.29021 323
22.31032 377
22.33044 364
22.35055 354
22.37066 352
22.39078 354
22.41089 359
22.431 387
22.45112 388
22.47123 360
22.49135 355
22.51146 366
22.53157 363
22.55169 349
22.5718 348
22.59191 315
22.61203 379
22.63214 338
22.65225 379
22.67237 369
22.69248 367
22.7126 346
22.73271 340
22.75282 340
22.77294 369
22.79305 351
22.81316 345
22.83328 341
22.85339 397
22.87351 374
22.89362 359
22.91373 356
22.93385 359
22.95396 335
22.97407 383
22.99419 347
23.0143 367
23.03442 366
23.05453 399
23.07464 343
23.09476 374
23.11487 357
23.13498 388
23.1551 354
23.17521 369
23.19532 356
23.21544 357
23.23555 356
23.25567 335
23.27578 371
23.29589 368
23.31601 356
23.33612 340
23.35623 315
23.37635 342
23.39646 323
23.41658 325
23.43669 348
23.4568 374
23.47692 363
23.49703 345
23.51714 361
23.53726 361
23.55737 316
23.57749 347
23.5976 340
23.61771 337
23.63783 350
23.65794 327
23.67805 367
23.69817 337
23.71828 363
23.73839 351
23.75851 371
23.77862 388
23.79874 357
23.81885 350
23.83896 374
23.85908 385
23.87919 359
23.8993 422
23.91942 393
23.93953 427
23.95965 400
23.97976 424
23.99987 432
24.01999 382
24.0401 394
24.06021 384
24.08033 340
24.10044 380
24.12056 330
24.14067 368
24.16078 387
24.1809 366
24.20101 378
24.22112 359
24.24124 388
24.26135 367
24.28146 367
24.30158 354
24.32169 370
24.34181 380
24.36192 365
24.38203 347
24.40215 363
24.42226 385
24.44237 380
24.46249 381
24.4826 369
24.50272 384
24.52283 375
24.54294 398
24.56306 387
24.58317 391
24.60328 423
24.6234 435
24.64351 462
24.66362 447
24.68374 472
24.70385 500
24.72397 581
24.74408 599
24.76419 634
24.78431 655
24.80442 702
24.82453 710
24.84465 727
24.86476 726
24.88488 683
24.90499 644
24.9251 605
24.94522 588
24.96533 559
24.98544 534
25.00556 495
25.02567 473
25.04579 489
25.0659 462
25.08601 446
25.10613 491
25.12624 449
25.14635 478
25.16647 484
25.18658 520
25.20669 482
25.22681 484
25.24692 453
25.26704 563
25.28715 511
25.30726 533
25.32738 473
25.34749 430
25.3676 452
25.38772 455
25.40783 452
25.42795 406
25.44806 340
25.46817 423
25.48829 392
25.5084 428
25.52851 392
25.54863 408
25.56874 400
25.58886 372
25.60897 475
25.62908 429
25.6492 453
25.66931 467
25.68942 449
25.70954 480
25.72965 502
25.74976 507
25.76988 467
25.78999 480
25.81011 459
25.83022 504
25.85033 495
25.87045 516
25.89056 517
25.91067 548
25.93079 521
25.9509 516
25.97102 515
25.99113 496
26.01124 546
26.03136 550
26.05147 554
26.07158 553
26.0917 646
26.11181 617
26.13193 572
26.15204 685
26.17215 681
26.19227 731
26.21238 801
26.23249 838
26.25261 898
26.27272 945
26.29283 967
26.31295 1048
26.33306 1176
26.35318 1328
26.37329 1559
26.3934 1898
26.41352 2359
26.43363 3037
26.45374 4231
26.47386 5911
26.49397 8169
26.51409 11314
26.5342 15310
26.55431 19322
26.57443 22527
26.59454 24061
26.61465 23171
26.63477 20550
26.65488 16524
26.67499 12521
26.69511 9007
26.71522 5863
26.73534 3603
26.75545 2325
26.77556 1664
26.79568 1426
26.81579 1200
26.8359 1158
26.85602 1056
26.87613 1033
26.89625 914
26.91636 816
26.93647 837
26.95659 745
26.9767 624
26.99681 661
27.01693 596
27.03704 567
27.05716 549
27.07727 562
27.09738 465
27.1175 516
27.13761 471
27.15772 497
27.17784 473
27.19795 502
27.21806 429
27.23818 403
27.25829 522
27.27841 479
27.29852 484
27.31863 474
27.33875 505
27.35886 484
27.37897 480
27.39909 492
27.4192 538
27.43932 454
27.45943 515
27.47954 506
27.49966 447
27.51977 423
27.53988 407
27.56 399
27.58011 377
27.60023 403
27.62034 403
27.64045 371
27.66057 443
27.68068 382
27.70079 372
27.72091 419
27.74102 399
27.76113 371
27.78125 375
27.80136 373
27.82148 384
27.84159 358
27.8617 348
27.88182 367
27.90193 392
27.92204 346
27.94216 336
27.96227 380
27.98239 340
28.0025 367
28.02261 360
28.04273 357
28.06284 312
28.08295 356
28.10307 324
28.12318 326
28.1433 387
28.16341 320
28.18352 330
28.20364 354
28.22375 352
28.24386 284
28.26398 334
28.28409 344
28.3042 300
28.32432 313
28.34443 302
28.36455 310
28.38466 334
28.40477 323
28.42489 301
28.445 311
28.46511 336
28.48523 359
28.50534 292
28.52546 329
28.54557 331
28.56568 302
28.5858 321
28.60591 335
28.62602 344
28.64614 315
28.66625 301
28.68636 310
28.70648 324
28.72659 302
28.74671 334
28.76682 304
28.78693 309
28.80705 326
28.82716 301
28.84727 332
28.86739 359
28.8875 310
28.90762 316
28.92773 302
28.94784 324
28.96796 300
28.98807 299
29.00818 282
29.0283 323
29.04841 295
29.06853 309
29.08864 281
29.10875 301
29.12887 284
29.14898 308
29.16909 294
29.18921 302
29.20932 288
29.22943 319
29.24955 292
29.26966 327
29.28978 305
29.30989 275
29.33 319
29.35012 307
29.37023 315
29.39034 316
29.41046 319
29.43057 299
29.45069 287
29.4708 318
29.49091 311
29.51103 292
29.53114 331
29.55125 300
29.57137 296
29.59148 315
29.6116 318
29.63171 311
29.65182 310
29.67194 322
29.69205 306
29.71216 294
29.73228 315
29.75239 299
29.7725 322
29.79262 293
29.81273 296
29.83285 295
29.85296 340
29.87307 309
29.89319 298
29.9133 278
29.93341 299
29.95353 308
29.97364 290
29.99376 313
30.01387 291
30.03398 307
30.0541 317
30.07421 305
30.09432 295
30.11444 307
30.13455 293
30.15467 276
30.17478 308
30.19489 294
30.21501 328
30.23512 316
30.25523 329
30.27535 301
30.29546 291
30.31557 280
30.33569 331
30.3558 307
30.37592 302
30.39603 314
30.41614 329
30.43626 333
30.45637 299
30.47648 317
30.4966 301
30.51671 277
30.53683 307
30.55694 288
30.57705 259
30.59717 280
30.61728 281
30.63739 309
30.65751 275
30.67762 298
30.69773 305
30.71785 295
30.73796 275
30.75808 271
30.77819 310
30.7983 288
30.81842 296
30.83853 286
30.85864 268
30.87876 301
30.89887 299
30.91899 311
30.9391 267
30.95921 304
30.97933 285
30.99944 271
31.01955 272
31.03967 268
31.05978 288
31.0799 273
31.10001 253
31.12012 269
31.14024 280
31.16035 312
31.18046 276
31.20058 297
31.22069 298
31.2408 258
31.26092 287
31.28103 270
31.30115 288
31.32126 298
31.34137 274
31.36149 286
31.3816 297
31.40171 303
31.42183 286
31.44194 300
31.46206 261
31.48217 275
31.50228 259
31.5224 249
31.54251 272
31.56262 306
31.58274 257
31.60285 270
31.62297 253
31.64308 314
31.66319 294
31.68331 281
31.70342 281
31.72353 276
31.74365 277
31.76376 302
31.78387 256
31.80399 270
31.8241 276
31.84422 285
31.86433 314
31.88444 288
31.90456 283
31.92467 281
31.94478 248
31.9649 264
31.98501 258
32.00513 279
32.02524 280
32.04535 275
32.06547 263
32.08558 306
32.10569 264
32.12581 300
32.14592 281
32.16604 257
32.18615 298
32.20626 298
32.22638 306
32.24649 279
32.2666 274
32.28672 292
32.30683 269
32.32694 294
32.34706 285
32.36717 328
32.38729 290
32.4074 316
32.42751 298
32.44763 321
32.46774 296
32.48785 286
32.50797 296
32.52808 285
32.5482 274
32.56831 314
32.58842 297
32.60854 304
32.62865 291
32.64876 283
32.66888 296
32.68899 279
32.7091 297
32.72922 341
32.74933 319
32.76945 291
32.78956 289
32.80967 312
32.82979 310
32.8499 311
32.87001 330
32.89013 329
32.91024 324
32.93036 348
32.95047 333
32.97058 349
32.9907 317
33.01081 347
33.03092 389
33.05104 344
33.07115 339
33.09127 345
33.11138 387
33.13149 351
33.15161 362
33.17172 344
33.19183 354
33.21195 327
33.23206 374
33.25217 356
33.27229 321
33.2924 343
33.31252 309
33.33263 333
33.35274 333
33.37286 341
33.39297 345
33.41308 346
33.4332 346
33.45331 316
33.47343 311
33.49354 303
33.51365 304
33.53377 296
33.55388 303
33.57399 301
33.59411 310
33.61422 288
33.63434 277
33.65445 304
33.67456 257
33.69468 297
33.71479 339
33.7349 298
33.75502 292
33.77513 289
33.79524 290
33.81536 285
33.83547 264
33.85559 266
33.8757 272
33.89581 291
33.91593 267
33.93604 268
33.95615 236
33.97627 277
33.99638 244
34.0165 254
34.03661 291
34.05672 269
34.07684 277
34.09695 250
34.11706 269
34.13718 291
34.15729 237
34.17741 258
34.19752 270
34.21763 285
34.23775 287
34.25786 282
34.27797 282
34.29809 281
34.3182 301
34.33831 292
34.35843 257
34.37854 315
34.39866 295
34.41877 294
34.43888 284
34.459 267
34.47911 280
34.49922 344
34.51934 312
34.53945 297
34.55957 324
34.57968 315
34.59979 304
34.61991 318
34.64002 349
34.66013 326
34.68025 338
34.70036 343
34.72047 342
34.74059 408
34.7607 398
34.78082 395
34.80093 396
34.82104 416
34.84116 420
34.86127 416
34.88138 472
34.9015 452
34.92161 453
34.94173 442
34.96184 458
34.98195 475
35.00207 489
35.02218 401
35.04229 406
35.06241 421
35.08252 423
35.10264 362
35.12275 384
35.14286 371
35.16298 375
35.18309 352
35.2032 383
35.22332 371
35.24343 373
35.26354 409
35.28366 392
35.30377 405
35.32389 397
35.344 384
35.36411 422
35.38423 457
35.40434 423
35.42445 438
35.44457 460
35.46468 480
35.4848 475
35.50491 458
35.52502 458
35.54514 508
35.56525 501
35.58536 495
35.60548 492
35.62559 462
35.64571 485
35.66582 513
35.68593 501
35.70605 492
35.72616 489
35.74627 503
35.76639 469
35.7865 505
35.80661 510
35.82673 523
35.84684 473
35.86696 535
35.88707 475
35.90718 521
35.9273 488
35.94741 485
35.96752 521
35.98764 488
36.00775 470
36.02787 433
36.04798 440
36.06809 457
36.08821 446
36.10832 467
36.12843 389
36.14855 367
36.16866 418
36.18878 391
36.20889 444
36.229 398
36.24912 422
36.26923 410
36.28934 509
36.30946 520
36.32957 606
36.34968 683
36.3698 746
36.38991 935
36.41003 1149
36.43014 1348
36.45025 1631
36.47037 1786
36.49048 1857
36.51059 1770
36.53071 1600
36.55082 1393
36.57094 1197
36.59105 1027
36.61116 896
36.63128 751
36.65139 664
36.6715 518
36.69162 424
36.71173 467
36.73184 408
36.75196 377
36.77207 440
36.79219 434
36.8123 395
36.83241 375
36.85253 351
36.87264 378
36.89275 377
36.91287 376
36.93298 349
36.9531 348
36.97321 349
36.99332 340
37.01344 291
37.03355 338
37.05366 321
37.07378 334
37.09389 313
37.11401 292
37.13412 323
37.15423 298
37.17435 330
37.19446 312
37.21457 332
37.23469 352
37.2548 302
37.27491 275
37.29503 314
37.31514 305
37.33526 320
37.35537 287
37.37548 301
37.3956 312
37.41571 343
37.43582 339
37.45594 323
37.47605 362
37.49617 323
37.51628 325
37.53639 327
37.55651 346
37.57662 323
37.59673 350
37.61685 333
37.63696 358
37.65708 376
37.67719 329
37.6973 355
37.71742 375
37.73753 342
37.75764 352
37.77776 373
37.79787 337
37.81798 358
37.8381 354
37.85821 370
37.87833 329
37.89844 347
37.91855 336
37.93867 342
37.95878 329
37.97889 323
37.99901 344
38.01912 324
38.03924 376
38.05935 317
38.07946 357
38.09958 358
38.11969 386
38.1398 346
38.15992 379
38.18003 374
38.20015 425
38.22026 402
38.24037 442
38.26049 459
38.2806 430
38.30071 466
38.32083 487
38.34094 432
38.36105 445
38.38117 475
38.40128 496
38.4214 448
38.44151 462
38.46162 444
38.48174 416
38.50185 412
38.52196 447
38.54208 440
38.56219 418
38.58231 373
38.60242 406
38.62253 388
38.64265 407
38.66276 390
38.68287 387
38.70299 349
38.7231 350
38.74321 363
38.76333 388
38.78344 358
38.80356 389
38.82367 325
38.84378 321
38.8639 331
38.88401 352
38.90412 385
38.92424 331
38.94435 375
38.96447 361
38.98458 358
39.00469 382
39.02481 340
39.04492 394
39.06503 394
39.08515 393
39.10526 407
39.12538 433
39.14549 445
39.1656 467
39.18572 467
39.20583 497
39.22594 563
39.24606 588
39.26617 632
39.28628 730
39.3064 811
39.32651 1059
39.34663 1200
39.36674 1429
39.38685 1620
39.40697 1693
39.42708 1652
39.44719 1535
39.46731 1428
39.48742 1204
39.50754 1027
39.52765 975
39.54776 835
39.56788 653
39.58799 510
39.6081 416
39.62822 345
39.64833 368
39.66845 348
39.68856 317
39.70867 324
39.72879 339
39.7489 320
39.76901 330
39.78913 312
39.80924 323
39.82935 300
39.84947 320
39.86958 308
39.8897 301
39.90981 298
39.92992 322
39.95004 328
39.97015 347
39.99026 342
40.01038 329
40.03049 334
40.05061 386
40.07072 437
40.09083 465
40.11095 505
40.13106 554
40.15117 676
40.17129 737
40.1914 883
40.21152 951
40.23163 901
40.25174 940
40.27186 917
40.29197 837
40.31208 693
40.3322 646
40.35231 596
40.37242 565
40.39254 472
40.41265 400
40.43277 358
40.45288 353
40.47299 341
40.49311 301
40.51322 285
40.53333 344
40.55345 297
40.57356 292
40.59368 301
40.61379 332
40.6339 307
40.65402 309
40.67413 309
40.69424 288
40.71436 329
40.73447 324
40.75458 287
40.7747 317
40.79481 335
40.81493 306
40.83504 318
40.85515 299
40.87527 364
40.89538 332
40.91549 370
40.93561 326
40.95572 310
40.97584 309
40.99595 350
41.01606 320
41.03618 303
41.05629 356
41.0764 341
41.09652 327
41.11663 332
41.13675 338
41.15686 294
41.17697 342
41.19709 306
41.2172 307
41.23731 351
41.25743 304
41.27754 291
41.29765 299
41.31777 310
41.33788 301
41.358 332
41.37811 302
41.39822 279
41.41834 287
41.43845 286
41.45856 327
41.47868 286
41.49879 297
41.51891 291
41.53902 330
41.55913 249
41.57925 272
41.59936 275
41.61947 273
41.63959 249
41.6597 260
41.67982 302
41.69993 294
41.72004 276
41.74016 275
41.76027 267
41.78038 286
41.8005 264
41.82061 277
41.84072 267
41.86084 250
41.88095 283
41.90107 275
41.92118 282
41.94129 269
41.96141 267
41.98152 277
42.00163 301
42.02175 286
42.04186 285
42.06198 317
42.08209 267
42.1022 294
42.12232 317
42.14243 332
42.16254 345
42.18266 319
42.20277 348
42.22289 422
42.243 442
42.26311 518
42.28323 639
42.30334 783
42.32345 902
42.34357 1005
42.36368 1102
42.38379 1201
42.40391 1176
42.42402 1126
42.44414 1006
42.46425 954
42.48436 812
42.50448 748
42.52459 633
42.5447 562
42.56482 477
42.58493 404
42.60505 352
42.62516 313
42.64527 278
42.66539 311
42.6855 272
42.70561 287
42.72573 289
42.74584 259
42.76595 270
42.78607 258
42.80618 252
42.8263 268
42.84641 237
42.86652 279
42.88664 249
42.90675 288
42.92686 265
42.94698 251
42.96709 235
42.98721 241
43.00732 240
43.02743 237
43.04755 254
43.06766 246
43.08777 270
43.10789 245
43.128 265
43.14812 266
43.16823 273
43.18834 244
43.20846 248
43.22857 264
43.24868 270
43.2688 258
43.28891 266
43.30902 228
43.32914 252
43.34925 265
43.36937 249
43.38948 281
43.40959 264
43.42971 262
43.44982 278
43.46993 257
43.49005 257
43.51016 247
43.53028 239
43.55039 254
43.5705 245
43.59062 278
43.61073 261
43.63084 288
43.65096 271
43.67107 250
43.69119 294
43.7113 243
43.73141 260
43.75153 249
43.77164 261
43.79175 263
43.81187 254
43.83198 263
43.85209 253
43.87221 240
43.89232 238
43.91244 228
43.93255 253
43.95266 225
43.97278 259
43.99289 242
44.013 230
44.03312 225
44.05323 240
44.07335 232
44.09346 265
44.11357 223
44.13369 267
44.1538 260
44.17391 234
44.19403 241
44.21414 260
44.23426 254
44.25437 228
44.27448 255
44.2946 238
44.31471 229
44.33482 293
44.35494 247
44.37505 230
44.39516 246
44.41528 239
44.43539 248
44.45551 251
44.47562 243
44.49573 256
44.51585 252
44.53596 255
44.55607 242
44.57619 252
44.5963 241
44.61642 243
44.63653 269
44.65664 221
44.67676 238
44.69687 231
44.71698 268
44.7371 274
44.75721 278
44.77732 218
44.79744 240
44.81755 242
44.83767 271
44.85778 257
44.87789 250
44.89801 277
44.91812 276
44.93823 257
44.95835 257
44.97846 232
44.99858 245
45.01869 281
45.0388 281
45.05892 259
45.07903 279
45.09914 277
45.11926 278
45.13937 262
45.15949 249
45.1796 293
45.19971 276
45.21983 290
45.23994 252
45.26005 305
45.28017 287
45.30028 298
45.32039 298
45.34051 315
45.36062 270
45.38074 288
45.40085 303
45.42096 299
45.44108 330
45.46119 319
45.4813 314
45.50142 345
45.52153 331
45.54165 353
45.56176 428
45.58187 399
45.60199 449
45.6221 527
45.64221 634
45.66233 640
45.68244 755
45.70256 868
45.72267 919
45.74278 871
45.7629 813
45.78301 784
45.80312 744
45.82324 663
45.84335 628
45.86346 568
45.88358 552
45.90369 457
45.92381 377
45.94392 339
45.96403 284
45.98415 311
46.00426 279
46.02437 256
46.04449 294
46.0646 277
46.08472 273
46.10483 245
46.12494 279
46.14506 269
46.16517 247
46.18528 256
46.2054 287
46.22551 273
46.24563 266
46.26574 248
46.28585 237
46.30597 266
46.32608 255
46.34619 248
46.36631 264
46.38642 245
46.40653 255
46.42665 264
46.44676 255
46.46688 271
46.48699 291
46.5071 262
46.52722 243
46.54733 247
46.56744 249
46.58756 244
46.60767 257
46.62779 267
46.6479 247
46.66801 250
46.68813 279
46.70824 262
46.72835 230
46.74847 256
46.76858 254
46.78869 229
46.80881 271
46.82892 255
46.84904 262
46.86915 235
46.88926 240
46.90938 262
46.92949 261
46.9496 251
46.96972 261
46.98983 270
47.00995 267
47.03006 209
47.05017 261
47.07029 252
47.0904 260
47.11051 282
47.13063 257
47.15074 256
47.17086 236
47.19097 258
47.21108 239
47.2312 273
47.25131 261
47.27142 314
47.29154 238
47.31165 260
47.33176 266
47.35188 254
47.37199 260
47.39211 258
47.41222 262
47.43233 281
47.45245 255
47.47256 279
47.49267 256
47.51279 255
47.5329 236
47.55302 264
47.57313 250
47.59324 264
47.61336 232
47.63347 251
47.65358 274
47.6737 251
47.69381 258
47.71393 256
47.73404 254
47.75415 283
47.77427 265
47.79438 241
47.81449 275
47.83461 255
47.85472 279
47.87483 249
47.89495 274
47.91506 291
47.93518 286
47.95529 248
47.9754 292
47.99552 270
48.01563 285
48.03574 278
48.05586 279
48.07597 280
48.09609 271
48.1162 242
48.13631 277
48.15643 282
48.17654 264
48.19665 251
48.21677 236
48.23688 252
48.257 257
48.27711 245
48.29722 236
48.31734 238
48.33745 248
48.35756 259
48.37768 251
48.39779 261
48.4179 233
48.43802 237
48.45813 248
48.47825 248
48.49836 277
48.51847 263
48.53859 246
48.5587 265
48.57881 269
48.59893 229
48.61904 269
48.63916 231
48.65927 284
48.67938 256
48.6995 275
48.71961 262
48.73972 266
48.75984 293
48.77995 262
48.80006 252
48.82018 246
48.84029 267
48.86041 255
48.88052 263
48.90063 260
48.92075 265
48.94086 293
48.96097 260
48.98109 272
49.0012 264
49.02132 252
49.04143 255
49.06154 277
49.08166 266
49.10177 269
49.12188 245
49.142 274
49.16211 260
49.18223 260
49.20234 288
49.22245 248
49.24257 269
49.26268 241
49.28279 245
49.30291 272
49.32302 267
49.34313 289
49.36325 299
49.38336 319
49.40348 313
49.42359 309
49.4437 302
49.46382 284
49.48393 268
49.50404 303
49.52416 274
49.54427 286
49.56439 268
49.5845 316
49.60461 322
49.62473 299
49.64484 332
49.66495 282
49.68507 319
49.70518 334
49.7253 345
49.74541 377
49.76552 363
49.78564 365
49.80575 431
49.82586 420
49.84598 471
49.86609 516
49.8862 607
49.90632 707
49.92643 807
49.94655 1022
49.96666 1137
49.98677 1439
50.00689 1778
50.027 2077
50.04711 2341
50.06723 2587
50.08734 2481
50.10746 2330
50.12757 2085
50.14768 1742
50.1678 1571
50.18791 1467
50.20802 1397
50.22814 1315
50.24825 1075
50.26837 869
50.28848 663
50.30859 532
50.32871 413
50.34882 389
50.36893 357
50.38905 372
50.40916 337
50.42927 334
50.44939 317
50.4695 310
50.48962 356
50.50973 319
50.52984 332
50.54996 368
50.57007 300
50.59018 338
50.6103 316
50.63041 282
50.65053 319
50.67064 300
50.69075 319
50.71087 293
50.73098 268
50.75109 258
50.77121 293
50.79132 274
50.81143 262
50.83155 276
50.85166 262
50.87178 267
50.89189 264
50.912 289
50.93212 249
50.95223 266
50.97234 253
50.99246 259
51.01257 273
51.03269 246
51.0528 239
51.07291 230
51.09303 271
51.11314 236
51.13325 271
51.15337 251
51.17348 254
51.1936 233
51.21371 228
51.23382 241
51.25394 269
51.27405 220
51.29416 217
51.31428 221
51.33439 221
51.3545 268
51.37462 251
51.39473 241
51.41485 229
51.43496 229
51.45507 222
51.47519 248
51.4953 246
51.51541 225
51.53553 232
51.55564 251
51.57576 243
51.59587 198
51.61598 235
51.6361 227
51.65621 247
51.67632 208
51.69644 227
51.71655 214
51.73667 241
51.75678 217
51.77689 231
51.79701 228
51.81712 237
51.83723 234
51.85735 255
51.87746 230
51.89757 231
51.91769 221
51.9378 228
51.95792 244
51.97803 221
51.99814 194
52.01826 229
52.03837 267
52.05848 248
52.0786 218
52.09871 234
52.11883 213
52.13894 222
52.15905 241
52.17917 222
52.19928 232
52.21939 220
52.23951 248
52.25962 228
52.27974 238
52.29985 237
52.31996 240
52.34008 243
52.36019 212
52.3803 224
52.40042 214
52.42053 208
52.44064 217
52.46076 205
52.48087 221
52.50099 219
52.5211 240
52.54121 254
52.56133 236
52.58144 252
52.60155 260
52.62167 268
52.64178 271
52.6619 244
52.68201 256
52.70212 245
52.72224 246
52.74235 242
52.76246 233
52.78258 221
52.80269 228
52.8228 230
52.84292 236
52.86303 250
52.88315 242
52.90326 259
52.92337 236
52.94349 267
52.9636 224
52.98371 272
53.00383 240
53.02394 248
53.04406 297
53.06417 266
53.08428 269
53.1044 278
53.12451 276
53.14462 281
53.16474 257
53.18485 247
53.20497 303
53.22508 289
53.24519 225
53.26531 293
53.28542 248
53.30553 261
53.32565 292
53.34576 305
53.36587 270
53.38599 269
53.4061 323
53.42622 258
53.44633 296
53.46644 293
53.48656 297
53.50667 295
53.52678 267
53.5469 263
53.56701 297
53.58713 245
53.60724 289
53.62735 293
53.64747 271
53.66758 322
53.68769 285
53.70781 298
53.72792 289
53.74804 299
53.76815 310
53.78826 302
53.80838 300
53.82849 338
53.8486 301
53.86872 331
53.88883 284
53.90894 296
53.92906 288
53.94917 336
53.96929 349
53.9894 358
54.00951 355
54.02963 329
54.04974 324
54.06985 347
54.08997 345
54.11008 358
54.1302 313
54.15031 349
54.17042 319
54.19054 339
54.21065 318
54.23076 376
54.25088 332
54.27099 354
54.29111 337
54.31122 353
54.33133 375
54.35145 363
54.37156 352
54.39167 342
54.41179 389
54.4319 335
54.45201 358
54.47213 337
54.49224 317
54.51236 375
54.53247 361
54.55258 367
54.5727 371
54.59281 377
54.61292 394
54.63304 425
54.65315 414
54.67327 499
54.69338 564
54.71349 640
54.73361 728
54.75372 813
54.77383 902
54.79395 949
54.81406 909
54.83417 856
54.85429 796
54.8744 755
54.89452 707
54.91463 662
54.93474 693
54.95486 647
54.97497 633
54.99508 595
55.0152 512
55.03531 487
55.05543 451
55.07554 411
55.09565 399
55.11577 400
55.13588 442
55.15599 440
55.17611 503
55.19622 511
55.21634 554
55.23645 558
55.25656 614
55.27668 600
55.29679 589
55.3169 537
55.33702 461
55.35713 449
55.37724 477
55.39736 444
55.41747 429
55.43759 423
55.4577 400
55.47781 378
55.49793 324
55.51804 334
55.53815 336
55.55827 326
55.57838 306
55.5985 326
55.61861 300
55.63872 285
55.65884 284
55.67895 282
55.69906 287
55.71918 291
55.73929 298
55.75941 263
55.77952 274
55.79963 262
55.81975 275
55.83986 255
55.85997 257
55.88009 278
55.9002 226
55.92031 272
55.94043 279
55.96054 244
55.98066 260
56.00077 255
56.02088 283
56.041 272
56.06111 263
56.08122 264
56.10134 292
56.12145 263
56.14157 294
56.16168 280
56.18179 263
56.20191 229
56.22202 260
56.24213 253
56.26225 280
56.28236 270
56.30248 257
56.32259 233
56.3427 238
56.36282 271
56.38293 236
56.40304 263
56.42316 267
56.44327 257
56.46338 272
56.4835 276
56.50361 288
56.52373 270
56.54384 244
56.56395 279
56.58407 301
56.60418 273
56.62429 270
56.64441 298
56.66452 267
56.68464 272
56.70475 275
56.72486 274
56.74498 282
56.76509 240
56.7852 251
56.80532 270
56.82543 252
56.84554 277
56.86566 264
56.88577 250
56.90589 249
56.926 267
56.94611 235
56.96623 260
56.98634 258
57.00645 256
57.02657 261
57.04668 267
57.0668 229
57.08691 272
57.10702 283
57.12714 286
57.14725 288
57.16736 279
57.18748 281
57.20759 281
57.22771 243
57.24782 268
57.26793 286
57.28805 287
57.30816 276
57.32827 262
57.34839 260
57.3685 245
57.38861 273
57.40873 251
57.42884 269
57.44896 221
57.46907 259
57.48918 259
57.5093 262
57.52941 229
57.54952 254
57.56964 231
57.58975 228
57.60987 243
57.62998 246
57.65009 252
57.67021 278
57.69032 245
57.71043 267
57.73055 279
57.75066 233
57.77078 224
57.79089 265
57.811 250
57.83112 231
57.85123 246
57.87134 267
57.89146 273
57.91157 220
57.93168 264
57.9518 233
57.97191 236
57.99203 252
58.01214 240
58.03225 253
58.05237 260
58.07248 277
58.09259 251
58.11271 261
58.13282 240
58.15294 221
58.17305 242
58.19316 251
58.21328 267
58.23339 226
58.2535 258
58.27362 223
58.29373 252
58.31385 237
58.33396 236
58.35407 262
58.37419 235
58.3943 223
58.41441 225
58.43453 271
58.45464 227
58.47475 266
58.49487 231
58.51498 260
58.5351 256
58.55521 231
58.57532 247
58.59544 245
58.61555 231
58.63566 254
58.65578 265
58.67589 285
58.69601 261
58.71612 263
58.73623 238
58.75635 223
58.77646 242
58.79657 244
58.81669 219
58.8368 251
58.85691 232
58.87703 219
58.89714 258
58.91726 243
58.93737 246
58.95748 257
58.9776 244
58.99771 236
59.01782 247
59.03794 256
59.05805 232
59.07817 242
59.09828 253
59.11839 248
59.13851 231
59.15862 240
59.17873 241
59.19885 246
59.21896 278
59.23908 266
59.25919 296
59.2793 262
59.29942 232
59.31953 266
59.33964 251
59.35976 266
59.37987 280
59.39998 284
59.4201 283
59.44021 277
59.46033 290
59.48044 298
59.50055 306
59.52067 278
59.54078 305
59.56089 330
59.58101 364
59.60112 337
59.62124 377
59.64135 391
59.66146 455
59.68158 467
59.70169 522
59.7218 583
59.74192 692
59.76203 836
59.78215 912
59.80226 1200
59.82237 1278
59.84249 1532
59.8626 1626
59.88271 1707
59.90283 1626
59.92294 1478
59.94305 1280
59.96317 1141
59.98328 986
60.0034 984
60.02351 972
60.04362 993
60.06374 941
60.08385 811
60.10396 655
60.12408 576
60.14419 484
60.16431 376
60.18442 362
60.20453 329
60.22465 299
60.24476 318
60.26487 301
60.28499 271
60.3051 253
60.32522 279
60.34533 261
60.36544 305
60.38556 284
60.40567 243
60.42578 266
60.4459 226
60.46601 239
60.48612 210
60.50624 244
60.52635 243
60.54647 267
60.56658 217
60.58669 229
60.60681 218
60.62692 223
60.64703 229
60.66715 232
60.68726 251
60.70738 274
60.72749 234
60.7476 227
60.76772 236
60.78783 240
60.80794 228
60.82806 264
60.84817 242
60.86828 235
60.8884 245
60.90851 259
60.92863 196
60.94874 238
60.96885 233
60.98897 247
61.00908 243
61.02919 214
61.04931 242
61.06942 226
61.08954 279
61.10965 264
61.12976 246
61.14988 220
61.16999 233
61.1901 228
61.21022 253
61.23033 209
61.25045 241
61.27056 229
61.29067 234
61.31079 254
61.3309 242
61.35101 218
61.37113 260
61.39124 233
61.41135 230
61.43147 246
61.45158 238
61.4717 249
61.49181 255
61.51192 237
61.53204 258
61.55215 270
61.57226 256
61.59238 255
61.61249 304
61.63261 232
61.65272 286
61.67283 263
61.69295 287
61.71306 272
61.73317 245
61.75329 247
61.7734 248
61.79352 272
61.81363 286
61.83374 288
61.85386 281
61.87397 293
61.89408 288
61.9142 290
61.93431 297
61.95442 332
61.97454 293
61.99465 290
62.01477 317
62.03488 307
62.05499 340
62.07511 311
62.09522 336
62.11533 368
62.13545 324
62.15556 358
62.17568 337
62.19579 399
62.2159 347
62.23602 342
62.25613 436
62.27624 369
62.29636 340
62.31647 329
62.33659 359
62.3567 329
62.37681 329
62.39693 336
62.41704 354
62.43715 317
62.45727 312
62.47738 297
62.49749 307
62.51761 335
62.53772 296
62.55784 276
62.57795 296
62.59806 268
62.61818 269
62.63829 254
62.6584 280
62.67852 282
62.69863 250
62.71875 256
62.73886 272
62.75897 252
62.77909 261
62.7992 275
62.81931 264
62.83943 263
62.85954 255
62.87965 249
62.89977 246
62.91988 247
62.94 260
62.96011 258
62.98022 269
63.00034 269
63.02045 256
63.04056 272
63.06068 256
63.08079 246
63.10091 286
63.12102 274
63.14113 241
63.16125 265
63.18136 247
63.20147 240
63.22159 272
63.2417 238
63.26182 254
63.28193 254
63.30204 264
63.32216 267
63.34227 248
63.36238 228
63.3825 243
63.40261 241
63.42272 265
63.44284 229
63.46295 253
63.48307 257
63.50318 243
63.52329 262
63.54341 274
63.56352 272
63.58363 274
63.60375 276
63.62386 273
63.64398 243
63.66409 304
63.6842 265
63.70432 298
63.72443 296
63.74454 262
63.76466 303
63.78477 310
63.80489 347
63.825 376
63.84511 360
63.86523 411
63.88534 389
63.90545 484
63.92557 516
63.94568 502
63.96579 506
63.98591 497
64.00602 484
64.02614 485
64.04625 371
64.06636 382
64.08648 393
64.10659 411
64.1267 439
64.14682 388
64.16693 380
64.18705 367
64.20716 363
64.22727 299
64.24739 275
64.2675 311
64.28761 291
64.30773 253
64.32784 223
64.34796 249
64.36807 245
64.38818 259
64.4083 284
64.42841 257
64.44852 279
64.46864 232
64.48875 263
64.50886 231
64.52898 230
64.54909 216
64.56921 242
64.58932 234
64.60943 221
64.62955 256
64.64966 222
64.66977 220
64.68989 223
64.71 236
64.73012 254
64.75023 227
64.77034 245
64.79046 230
64.81057 244
64.83068 235
64.8508 246
64.87091 253
64.89102 232
64.91114 254
64.93125 232
64.95137 217
64.97148 259
64.99159 205
65.01171 244
65.03182 248
65.05193 221
65.07205 237
65.09216 214
65.11228 221
65.13239 233
65.1525 231
65.17262 228
65.19273 224
65.21284 219
65.23296 194
65.25307 233
65.27319 238
65.2933 220
65.31341 214
65.33353 225
65.35364 238
65.37375 200
65.39387 224
65.41398 231
65.43409 208
65.45421 226
65.47432 233
65.49444 194
65.51455 215
65.53466 235
65.55478 224
65.57489 238
65.595 256
65.61512 258
65.63523 282
65.65535 262
65.67546 260
65.69557 259
65.71569 246
65.7358 275
65.75591 301
65.77603 260
65.79614 256
65.81626 260
65.83637 274
65.85648 258
65.8766 254
65.89671 257
65.91682 267
65.93694 260
65.95705 234
65.97716 248
65.99728 221
66.01739 234
66.03751 212
66.05762 239
66.07773 231
66.09785 224
66.11796 211
66.13807 240
66.15819 233
66.1783 229
66.19842 229
66.21853 236
66.23864 239
66.25876 223
66.27887 209
66.29898 239
66.3191 223
66.33921 236
66.35933 219
66.37944 251
66.39955 236
66.41967 241
66.43978 211
66.45989 235
66.48001 211
66.50012 237
66.52023 257
66.54035 210
66.56046 237
66.58058 211
66.60069 235
66.6208 211
66.64092 202
66.66103 223
66.68114 221
66.70126 229
66.72137 229
66.74149 218
66.7616 231
66.78171 260
66.80183 229
66.82194 230
66.84205 244
66.86217 236
66.88228 272
66.90239 253
66.92251 219
66.94262 219
66.96274 258
66.98285 210
67.00296 247
67.02308 266
67.04319 246
67.0633 220
67.08342 236
67.10353 238
67.12365 242
67.14376 267
67.16387 265
67.18399 242
67.2041 273
67.22421 289
67.24433 263
67.26444 280
67.28456 282
67.30467 299
67.32478 298
67.3449 275
67.36501 287
67.38512 319
67.40524 337
67.42535 322
67.44546 330
67.46558 397
67.48569 399
67.50581 467
67.52592 509
67.54603 560
67.56615 682
67.58626 719
67.60637 838
67.62649 971
67.6466 1046
67.66672 1054
67.68683 1043
67.70694 947
67.72706 875
67.74717 807
67.76728 692
67.7874 728
67.80751 682
67.82763 743
67.84774 805
67.86785 818
67.88797 827
67.90808 803
67.92819 766
67.94831 806
67.96842 914
67.98853 970
68.00865 1043
68.02876 1133
68.04888 1347
68.06899 1429
68.0891 1385
68.10922 1366
68.12933 1186
68.14944 1207
68.16956 1150
68.18967 1208
68.20979 1232
68.2299 1327
68.25001 1319
68.27013 1244
68.29024 1107
68.31035 977
68.33047 807
68.35058 694
68.3707 661
68.39081 606
68.41092 577
68.43104 541
68.45115 553
68.47126 497
68.49138 414
68.51149 354
68.5316 342
68.55172 334
68.57183 302
68.59195 272
68.61206 266
68.63217 302
68.65229 234
68.6724 288
68.69251 248
68.71263 252
68.73274 241
68.75286 244
68.77297 229
68.79308 250
68.8132 237
68.83331 257
68.85342 233
68.87354 254
68.89365 279
68.91376 244
68.93388 225
68.95399 198
68.97411 247
68.99422 224
69.01433 242
69.03445 236
69.05456 227
69.07467 247
69.09479 260
69.1149 263
69.13502 227
69.15513 239
69.17524 243
69.19536 246
69.21547 249
69.23558 214
69.2557 216
69.27581 221
69.29593 199
69.31604 227
69.33615 234
69.35627 246
69.37638 221
69.39649 191
69.41661 213
69.43672 243
69.45683 226
69.47695 209
69.49706 202
69.51718 238
69.53729 210
69.5574 224
69.57752 224
69.59763 229
69.61774 244
69.63786 225
69.65797 203
69.67809 218
69.6982 234
69.71831 218
69.73843 230
69.75854 228
69.77865 219
69.79877 224
69.81888 225
69.839 220
69.85911 219
69.87922 231
69.89934 226
69.91945 221
69.93956 231
69.95968 241
69.97979 238
69.9999 229
70.02002 244
70.04013 231
70.06025 233
70.08036 250
70.10047 231
70.12059 230
70.1407 240
70.16081 227
70.18093 214
70.20104 236
70.22116 196
70.24127 238
70.26138 224
70.2815 216
70.30161 220
70.32172 206
70.34184 244
70.36195 233
70.38207 212
70.40218 240
70.42229 214
70.44241 232
70.46252 213
70.48263 208
70.50275 201
70.52286 203
70.54297 194
70.56309 189
70.5832 197
70.60332 221
70.62343 209
70.64354 201
70.66366 202
70.68377 207
70.70388 220
70.724 221
70.74411 220
70.76423 242
70.78434 217
70.80445 241
70.82457 224
70.84468 209
70.86479 194
70.88491 220
70.90502 188
70.92513 233
70.94525 198
70.96536 202
70.98548 225
71.00559 213
71.0257 224
71.04582 193
71.06593 215
71.08604 223
71.10616 199
71.12627 239
71.14639 215
71.1665 198
71.18661 227
71.20673 197
71.22684 236
71.24695 228
71.26707 220
71.28718 215
71.3073 233
71.32741 214
71.34752 232
71.36764 209
71.38775 192
71.40786 192
71.42798 203
71.44809 229
71.4682 257
71.48832 240
71.50843 205
71.52855 226
71.54866 220
71.56877 176
71.58889 223
71.609 216
71.62911 207
71.64923 224
71.66934 237
71.68946 229
71.70957 223
71.72968 232
71.7498 218
71.76991 235
71.79002 219
71.81014 235
71.83025 227
71.85037 243
71.87048 221
71.89059 224
71.91071 207
71.93082 222
71.95093 224
71.97105 226
71.99116 229
72.01127 229
72.03139 205
72.0515 221
72.07162 242
72.09173 217
72.11184 230
72.13196 236
72.15207 239
72.17218 245
72.1923 222
72.21241 230
72.23253 217
72.25264 216
72.27275 210
72.29287 257
72.31298 225
72.33309 235
72.35321 232
72.37332 227
72.39344 261
72.41355 240
72.43366 224
72.45378 192
72.47389 199
72.494 227
72.51412 190
72.53423 242
72.55434 215
72.57446 219
72.59457 209
72.61469 199
72.6348 202
72.65491 192
72.67503 195
72.69514 220
72.71525 245
72.73537 216
72.75548 219
72.7756 212
72.79571 204
72.81582 201
72.83594 223
72.85605 197
72.87616 221
72.89628 236
72.91639 217
72.9365 222
72.95662 222
72.97673 227
72.99685 225
73.01696 228
73.03707 238
73.05719 255
73.0773 209
73.09741 227
73.11753 217
73.13764 245
73.15776 231
73.17787 267
73.19798 292
73.2181 234
73.23821 296
73.25832 313
73.27844 350
73.29855 353
73.31867 456
73.33878 450
73.35889 479
73.37901 504
73.39912 502
73.41923 468
73.43935 467
73.45946 400
73.47957 385
73.49969 343
73.5198 368
73.53992 372
73.56003 370
73.58014 405
73.60026 355
73.62037 362
73.64048 339
73.6606 345
73.68071 297
73.70083 233
73.72094 283
73.74105 261
73.76117 262
73.78128 216
73.80139 206
73.82151 237
73.84162 232
73.86174 242
73.88185 238
73.90196 220
73.92208 220
73.94219 226
73.9623 237
73.98242 225
74.00253 218
74.02264 224
74.04276 201
74.06287 189
74.08299 217
74.1031 218
74.12321 231
74.14333 202
74.16344 207
74.18355 222
74.20367 217
74.22378 205
74.2439 195
74.26401 193
74.28412 204
74.30424 230
74.32435 193
74.34446 197
74.36458 213
74.38469 197
74.40481 218
74.42492 212
74.44503 195
74.46515 228
74.48526 207
74.50537 200
74.52549 206
74.5456 212
74.56571 215
74.58583 228
74.60594 211
74.62606 217
74.64617 209
74.66628 226
74.6864 212
74.70651 215
74.72662 216
74.74674 216
74.76685 207
74.78697 211
74.80708 219
74.82719 225
74.84731 211
74.86742 225
74.88753 200
74.90765 202
74.92776 246
74.94787 221
74.96799 221
74.9881 205
75.00822 194
