3.00117 19771
3.02128 19092
3.0414 18836
3.06151 18190
3.08162 17901
3.10174 17184
3.12185 16508
3.14197 16536
3.16208 15596
3.18219 15425
3.20231 15104
3.22242 14583
3.24253 14248
3.26265 13605
3.28276 13283
3.30288 12780
3.32299 12144
3.3431 12078
3.36322 11426
3.38333 11350
3.40344 10795
3.42356 10580
3.44367 10334
3.46379 9613
3.4839 9537
3.50401 9203
3.52413 8842
3.54424 8503
3.56435 7931
3.58447 7953
3.60458 7465
3.62469 7157
3.64481 7079
3.66492 6717
3.68504 6647
3.70515 6059
3.72526 5805
3.74538 5750
3.76549 5452
3.7856 5334
3.80572 4926
3.82583 4643
3.84595 4712
3.86606 4387
3.88617 4284
3.90629 3965
3.9264 3784
3.94651 3781
3.96663 3451
3.98674 3461
4.00686 3195
4.02697 2942
4.04708 2963
4.0672 2734
4.08731 2689
4.10742 2565
4.12754 2329
4.14765 2437
4.16776 2176
4.18788 2071
4.20799 1923
4.22811 1790
4.24822 1943
4.26833 1787
4.28845 1752
4.30856 1628
4.32867 1536
4.34879 1505
4.3689 1464
4.38902 1377
4.40913 1326
4.42924 1224
4.44936 1388
4.46947 1342
4.48958 1221
4.5097 1191
4.52981 1177
4.54992 1119
4.57004 1132
4.59015 1081
4.61027 1042
4.63038 959
4.65049 1027
4.67061 978
4.69072 937
4.71083 906
4.73095 851
4.75106 875
4.77118 921
4.79129 808
4.8114 761
4.83152 726
4.85163 760
4.87174 725
4.89186 681
4.91197 683
4.93209 692
4.9522 688
4.97231 558
4.99243 614
5.01254 646
5.03265 589
5.05277 569
5.07288 621
5.09299 548
5.11311 532
5.13322 511
5.15334 479
5.17345 509
5.19356 456
5.21368 498
5.23379 456
5.2539 448
5.27402 461
5.29413 341
5.31425 424
5.33436 434
5.35447 360
5.37459 378
5.3947 389
5.41481 399
5.43493 334
5.45504 363
5.47516 353
5.49527 289
5.51538 290
5.5355 274
5.55561 308
5.57572 291
5.59584 264
5.61595 276
5.63606 270
5.65618 311
5.67629 286
5.69641 231
5.71652 247
5.73663 255
5.75675 259
5.77686 240
5.79697 257
5.81709 226
5.8372 259
5.85732 213
5.87743 212
5.89754 209
5.91766 193
5.93777 209
5.95788 209
5.978 207
5.99811 199
6.01823 197
6.03834 207
6.05845 187
6.07857 210
6.09868 190
6.11879 174
6.13891 183
6.15902 167
6.17913 192
6.19925 188
6.21936 163
6.23948 196
6.25959 165
6.2797 173
6.29982 158
6.31993 158
6.34004 180
6.36016 177
6.38027 164
6.40039 155
6.4205 166
6.44061 169
6.46073 150
6.48084 158
6.50095 158
6.52107 130
6.54118 162
6.56129 173
6.58141 177
6.60152 161
6.62164 172
6.64175 141
6.66186 162
6.68198 184
6.70209 160
6.7222 203
6.74232 138
6.76243 177
6.78255 148
6.80266 153
6.82277 160
6.84289 163
6.863 157
6.88311 150
6.90323 150
6.92334 181
6.94346 175
6.96357 175
6.98368 155
7.0038 155
7.02391 166
7.04402 160
7.06414 163
7.08425 164
7.10436 174
7.12448 142
7.14459 158
7.16471 159
7.18482 172
7.20493 160
7.22505 145
7.24516 146
7.26527 142
7.28539 181
7.3055 165
7.32562 167
7.34573 169
7.36584 162
7.38596 159
7.40607 164
7.42618 172
7.4463 176
7.46641 175
7.48653 177
7.50664 177
7.52675 169
7.54687 192
7.56698 178
7.58709 172
7.60721 165
7.62732 188
7.64743 176
7.66755 163
7.68766 163
7.70778 167
7.72789 182
7.748 176
7.76812 151
7.78823 202
7.80834 186
7.82846 207
7.84857 181
7.86869 180
7.8888 198
7.90891 155
7.92903 158
7.94914 168
7.96925 192
7.98937 187
8.00948 178
8.0296 173
8.04971 188
8.06982 176
8.08994 194
8.11005 204
8.13016 178
8.15028 174
8.17039 176
8.1905 161
8.21062 199
8.23073 192
8.25085 197
8.27096 191
8.29107 178
8.31119 195
8.3313 176
8.35141 189
8.37153 195
8.39164 177
8.41176 198
8.43187 179
8.45198 183
8.4721 182
8.49221 213
8.51232 157
8.53244 218
8.55255 201
8.57266 193
8.59278 191
8.61289 212
8.63301 214
8.65312 219
8.67323 187
8.69335 194
8.71346 219
8.73357 222
8.75369 208
8.7738 204
8.79392 208
8.81403 194
8.83414 205
8.85426 191
8.87437 220
8.89448 173
8.9146 191
8.93471 205
8.95483 198
8.97494 227
8.99505 184
9.01517 193
9.03528 178
9.05539 220
9.07551 191
9.09562 198
9.11573 196
9.13585 198
9.15596 226
9.17608 210
9.19619 200
9.2163 194
9.23642 211
9.25653 191
9.27664 207
9.29676 230
9.31687 210
9.33699 194
9.3571 200
9.37721 200
9.39733 255
9.41744 223
9.43755 232
9.45767 202
9.47778 206
9.4979 210
9.51801 201
9.53812 215
9.55824 218
9.57835 184
9.59846 206
9.61858 239
9.63869 219
9.6588 224
9.67892 209
9.69903 209
9.71915 202
9.73926 202
9.75937 195
9.77949 181
9.7996 187
9.81971 222
9.83983 201
9.85994 199
9.88006 175
9.90017 224
9.92028 188
9.9404 207
9.96051 222
9.98062 195
10.00074 237
10.02085 191
10.04097 214
10.06108 216
10.08119 214
10.10131 212
10.12142 224
10.14153 210
10.16165 208
10.18176 221
10.20187 229
10.22199 232
10.2421 194
10.26222 202
10.28233 207
10.30244 207
10.32256 212
10.34267 205
10.36278 203
10.3829 214
10.40301 222
10.42313 205
10.44324 218
10.46335 182
10.48347 224
10.50358 183
10.52369 180
10.54381 212
10.56392 217
10.58403 226
10.60415 224
10.62426 219
10.64438 198
10.66449 218
10.6846 223
10.70472 203
10.72483 207
10.74494 207
10.76506 211
10.78517 225
10.80529 205
10.8254 204
10.84551 202
10.86563 200
10.88574 187
10.90585 201
10.92597 201
10.94608 206
10.9662 192
10.98631 224
11.00642 209
11.02654 169
11.04665 171
11.06676 202
11.08688 206
11.10699 191
11.1271 187
11.14722 221
11.16733 209
11.18745 187
11.20756 178
11.22767 220
11.24779 211
11.2679 205
11.28801 206
11.30813 181
11.32824 206
11.34836 219
11.36847 197
11.38858 192
11.4087 182
11.42881 196
11.44892 224
11.46904 208
11.48915 208
11.50927 193
11.52938 186
11.54949 212
11.56961 194
11.58972 204
11.60983 184
11.62995 204
11.65006 188
11.67017 199
11.69029 218
11.7104 193
11.73052 191
11.75063 189
11.77074 186
11.79086 206
11.81097 222
11.83108 197
11.8512 216
11.87131 160
11.89143 201
11.91154 183
11.93165 209
11.95177 195
11.97188 193
11.99199 190
12.01211 213
12.03222 207
12.05234 182
12.07245 219
12.09256 197
12.11268 195
12.13279 185
12.1529 207
12.17302 198
12.19313 212
12.21324 189
12.23336 178
12.25347 201
12.27359 196
12.2937 188
12.31381 189
12.33393 198
12.35404 190
12.37415 195
12.39427 196
12.41438 188
12.4345 203
12.45461 174
12.47472 201
12.49484 208
12.51495 201
12.53506 201
12.55518 197
12.57529 180
12.5954 181
12.61552 170
12.63563 191
12.65575 189
12.67586 186
12.69597 187
12.71609 176
12.7362 184
12.75631 194
12.77643 176
12.79654 191
12.81666 195
12.83677 205
12.85688 177
12.877 180
12.89711 174
12.91722 177
12.93734 167
12.95745 176
12.97757 215
12.99768 168
13.01779 204
13.03791 174
13.05802 188
13.07813 198
13.09825 209
13.11836 214
13.13847 189
13.15859 180
13.1787 179
13.19882 206
13.21893 193
13.23904 212
13.25916 167
13.27927 180
13.29938 184
13.3195 204
13.33961 172
13.35973 189
13.37984 167
13.39995 164
13.42007 183
13.44018 198
13.46029 196
13.48041 231
13.50052 190
13.52064 209
13.54075 163
13.56086 182
13.58098 172
13.60109 192
13.6212 212
13.64132 208
13.66143 217
13.68154 201
13.70166 183
13.72177 196
13.74189 185
13.762 190
13.78211 200
13.80223 202
13.82234 185
13.84245 199
13.86257 183
13.88268 211
13.9028 179
13.92291 187
13.94302 182
13.96314 166
13.98325 187
14.00336 187
14.02348 168
14.04359 163
14.06371 177
14.08382 210
14.10393 167
14.12405 186
14.14416 188
14.16427 165
14.18439 173
14.2045 174
14.22461 192
14.24473 197
14.26484 170
14.28496 184
14.30507 187
14.32518 175
14.3453 186
14.36541 181
14.38552 184
14.40564 179
14.42575 200
14.44587 189
14.46598 176
14.48609 136
14.50621 183
14.52632 177
14.54643 176
14.56655 161
14.58666 168
14.60677 167
14.62689 167
14.647 146
14.66712 188
14.68723 184
14.70734 173
14.72746 182
14.74757 158
14.76768 190
14.7878 165
14.80791 179
14.82803 198
14.84814 177
14.86825 151
14.88837 166
14.90848 192
14.92859 198
14.94871 199
14.96882 171
14.98894 173
15.00905 175
15.02916 185
15.04928 159
15.06939 180
15.0895 150
15.10962 157
15.12973 169
15.14984 176
15.16996 161
15.19007 191
15.21019 172
15.2303 171
15.25041 188
15.27053 200
15.29064 173
15.31075 189
15.33087 155
15.35098 163
15.3711 146
15.39121 135
15.41132 192
15.43144 164
15.45155 152
15.47166 144
15.49178 142
15.51189 161
15.53201 150
15.55212 171
15.57223 156
15.59235 165
15.61246 149
15.63257 174
15.65269 161
15.6728 191
15.69291 178
15.71303 164
15.73314 174
15.75326 157
15.77337 173
15.79348 179
15.8136 179
15.83371 144
15.85382 172
15.87394 175
15.89405 163
15.91417 157
15.93428 170
15.95439 158
15.97451 146
15.99462 152
16.01473 155
16.03485 156
16.05496 149
16.07508 156
16.09519 143
16.1153 165
16.13542 150
16.15553 156
16.17564 161
16.19576 149
16.21587 140
16.23598 171
16.2561 145
16.27621 168
16.29633 185
16.31644 168
16.33655 178
16.35667 175
16.37678 162
16.39689 142
16.41701 170
16.43712 152
16.45724 155
16.47735 160
16.49746 165
16.51758 160
16.53769 165
16.5578 152
16.57792 133
16.59803 169
16.61814 152
16.63826 151
16.65837 152
16.67849 168
16.6986 148
16.71871 138
16.73883 152
16.75894 151
16.77905 136
16.79917 153
16.81928 152
16.8394 146
16.85951 157
16.87962 136
16.89974 146
16.91985 157
16.93996 182
16.96008 155
16.98019 172
17.00031 161
17.02042 172
17.04053 171
17.06065 154
17.08076 156
17.10087 154
17.12099 169
17.1411 145
17.16121 131
17.18133 137
17.20144 115
17.22156 136
17.24167 158
17.26178 161
17.2819 158
17.30201 145
17.32212 138
17.34224 172
17.36235 170
17.38247 166
17.40258 156
17.42269 171
17.44281 150
17.46292 157
17.48303 154
17.50315 137
17.52326 151
17.54338 123
17.56349 148
17.5836 145
17.60372 128
17.62383 152
17.64394 148
17.66406 152
17.68417 128
17.70428 128
17.7244 163
17.74451 157
17.76463 151
17.78474 163
17.80485 154
17.82497 137
17.84508 142
17.86519 155
17.88531 158
17.90542 139
17.92554 167
17.94565 147
17.96576 131
17.98588 143
18.00599 143
18.0261 160
18.04622 141
18.06633 154
18.08645 117
18.10656 138
18.12667 133
18.14679 112
18.1669 159
18.18701 147
18.20713 144
18.22724 146
18.24735 160
18.26747 149
18.28758 147
18.3077 160
18.32781 136
18.34792 155
18.36804 165
18.38815 152
18.40826 157
18.42838 160
18.44849 149
18.46861 142
18.48872 144
18.50883 162
18.52895 155
18.54906 148
18.56917 147
18.58929 157
18.6094 134
18.62951 154
18.64963 134
18.66974 161
18.68986 148
18.70997 160
18.73008 145
18.7502 164
18.77031 143
18.79042 180
18.81054 175
18.83065 171
18.85077 166
18.87088 156
18.89099 184
18.91111 160
18.93122 157
18.95133 147
18.97145 165
18.99156 165
19.01168 179
19.03179 178
19.0519 136
19.07202 142
19.09213 153
19.11224 168
19.13236 143
19.15247 171
19.17258 165
19.1927 163
19.21281 175
19.23293 156
19.25304 158
19.27315 134
19.29327 170
19.31338 170
19.33349 190
19.35361 148
19.37372 179
19.39384 137
19.41395 142
19.43406 156
19.45418 167
19.47429 160
19.4944 152
19.51452 163
19.53463 160
19.55475 167
19.57486 170
19.59497 168
19.61509 161
19.6352 177
19.65531 181
19.67543 182
19.69554 160
19.71565 172
19.73577 148
19.75588 179
19.776 157
19.79611 187
19.81622 166
19.83634 185
19.85645 175
19.87656 201
19.89668 205
19.91679 184
19.93691 177
19.95702 176
19.97713 184
19.99725 183
20.01736 164
20.03747 206
20.05759 178
20.0777 211
20.09782 199
20.11793 209
20.13804 183
20.15816 212
20.17827 233
20.19838 236
20.2185 214
20.23861 230
20.25872 229
20.27884 233
20.29895 204
20.31907 262
20.33918 277
20.35929 250
20.37941 269
20.39952 291
20.41963 281
20.43975 298
20.45986 279
20.47998 306
20.50009 344
20.5202 356
20.54032 368
20.56043 411
20.58054 409
20.60066 460
20.62077 500
20.64088 564
20.661 750
20.68111 1029
20.70123 1209
20.72134 1774
20.74145 2268
20.76157 3118
20.78168 4144
20.80179 5619
20.82191 6783
20.84202 7731
20.86214 8340
20.88225 7608
20.90236 5916
20.92248 4246
20.94259 2872
20.9627 1722
20.98282 1075
21.00293 818
21.02305 754
21.04316 648
21.06327 594
21.08339 546
21.1035 450
21.12361 396
21.14373 363
21.16384 333
21.18395 306
21.20407 302
21.22418 261
21.2443 248
21.26441 257
21.28452 238
21.30464 236
21.32475 222
21.34486 246
21.36498 233
21.38509 207
21.40521 216
21.42532 182
21.44543 201
21.46555 217
21.48566 220
21.50577 200
21.52589 213
21.546 188
21.56612 210
21.58623 202
21.60634 205
21.62646 196
21.64657 215
21.66668 190
21.6868 177
21.70691 174
21.72702 188
21.74714 219
21.76725 210
21.78737 205
21.80748 227
21.82759 203
21.84771 183
21.86782 201
21.88793 186
21.90805 227
21.92816 206
21.94828 217
21.96839 229
21.9885 228
22.00862 225
22.02873 250
22.04884 225
22.06896 251
22.08907 212
22.10919 216
22.1293 210
22.14941 200
22.16953 201
22.18964 216
22.20975 225
22.22987 198
22.24998 221
22.27009 228
22.29021 276
22.31032 213
22.33044 254
22.35055 217
22.37066 219
22.39078 186
22.41089 192
22.431 189
22.45112 176
22.47123 213
22.49135 187
22.51146 181
22.53157 191
22.55169 197
22.5718 176
22.59191 195
22.61203 184
22.63214 213
22.65225 193
22.67237 207
22.69248 182
22.7126 190
22.73271 164
22.75282 173
22.77294 177
22.79305 177
22.81316 187
22.83328 169
22.85339 174
22.87351 142
22.89362 185
22.91373 191
22.93385 180
22.95396 190
22.97407 215
22.99419 214
23.0143 224
23.03442 220
23.05453 207
23.07464 233
23.09476 261
23.11487 234
23.13498 282
23.1551 261
23.17521 286
23.19532 262
23.21544 267
23.23555 239
23.25567 250
23.27578 193
23.29589 220
23.31601 194
23.33612 165
23.35623 173
23.37635 176
23.39646 179
23.41658 170
23.43669 183
23.4568 177
23.47692 181
23.49703 185
23.51714 182
23.53726 200
23.55737 223
23.57749 237
23.5976 206
23.61771 178
23.63783 190
23.65794 172
23.67805 185
23.69817 190
23.71828 186
23.73839 183
23.75851 172
23.77862 169
23.79874 174
23.81885 202
23.83896 204
23.85908 210
23.87919 238
23.8993 244
23.91942 280
23.93953 289
23.95965 350
23.97976 359
23.99987 346
24.01999 322
24.0401 335
24.06021 292
24.08033 250
24.10044 235
24.12056 202
24.14067 207
24.16078 244
24.1809 237
24.20101 200
24.22112 218
24.24124 232
24.26135 238
24.28146 244
24.30158 213
24.32169 247
24.34181 217
24.36192 225
24.38203 197
24.40215 195
24.42226 194
24.44237 196
24.46249 156
24.4826 145
24.50272 186
24.52283 173
24.54294 199
24.56306 186
24.58317 223
24.60328 187
24.6234 201
24.64351 210
24.66362 193
24.68374 225
24.70385 210
24.72397 215
24.74408 206
24.76419 190
24.78431 203
24.80442 179
24.82453 182
24.84465 190
24.86476 207
24.88488 180
24.90499 178
24.9251 189
24.94522 186
24.96533 178
24.98544 181
25.00556 183
25.02567 172
25.04579 185
25.0659 188
25.08601 201
25.10613 177
25.12624 204
25.14635 205
25.16647 182
25.18658 177
25.20669 185
25.22681 182
25.24692 179
25.26704 203
25.28715 219
25.30726 193
25.32738 223
25.34749 196
25.3676 235
25.38772 238
25.40783 237
25.42795 283
25.44806 264
25.46817 304
25.48829 322
25.5084 310
25.52851 319
25.54863 337
25.56874 319
25.58886 326
25.60897 362
25.62908 382
25.6492 354
25.66931 343
25.68942 389
25.70954 445
25.72965 432
25.74976 418
25.76988 397
25.78999 417
25.81011 468
25.83022 437
25.85033 405
25.87045 469
25.89056 415
25.91067 437
25.93079 407
25.9509 499
25.97102 444
25.99113 504
26.01124 461
26.03136 506
26.05147 539
26.07158 555
26.0917 600
26.11181 567
26.13193 635
26.15204 707
26.17215 731
26.19227 814
26.21238 852
26.23249 990
26.25261 1056
26.27272 1107
26.29283 1372
26.31295 1469
26.33306 1637
26.35318 1833
26.37329 2108
26.3934 2541
26.41352 3242
26.43363 3996
26.45374 5325
26.47386 6832
26.49397 9003
26.51409 12316
26.5342 15697
26.55431 20485
26.57443 25683
26.59454 31382
26.61465 35757
26.63477 37887
26.65488 34914
26.67499 28271
26.69511 21591
26.71522 16037
26.73534 10975
26.75545 6405
26.77556 3562
26.79568 2391
26.81579 1991
26.8359 1662
26.85602 1494
26.87613 1318
26.89625 1249
26.91636 1125
26.93647 1078
26.95659 975
26.9767 896
26.99681 836
27.01693 815
27.03704 743
27.05716 737
27.07727 700
27.09738 641
27.1175 566
27.13761 564
27.15772 479
27.17784 521
27.19795 482
27.21806 514
27.23818 508
27.25829 500
27.27841 504
27.29852 556
27.31863 558
27.33875 641
27.35886 639
27.37897 664
27.39909 641
27.4192 778
27.43932 712
27.45943 695
27.47954 635
27.49966 591
27.51977 553
27.53988 552
27.56 484
27.58011 384
27.60023 397
27.62034 371
27.64045 327
27.66057 350
27.68068 336
27.70079 307
27.72091 339
27.74102 358
27.76113 348
27.78125 322
27.80136 327
27.82148 374
27.84159 341
27.8617 395
27.88182 329
27.90193 360
27.92204 382
27.94216 332
27.96227 365
27.98239 310
28.0025 289
28.02261 330
28.04273 270
28.06284 282
28.08295 274
28.10307 267
28.12318 277
28.1433 298
28.16341 277
28.18352 288
28.20364 270
28.22375 275
28.24386 247
28.26398 261
28.28409 245
28.3042 283
28.32432 240
28.34443 266
28.36455 232
28.38466 244
28.40477 245
28.42489 210
28.445 241
28.46511 254
28.48523 226
28.50534 217
28.52546 210
28.54557 197
28.56568 210
28.5858 232
28.60591 231
28.62602 213
28.64614 207
28.66625 230
28.68636 251
28.70648 219
28.72659 244
28.74671 220
28.76682 231
28.78693 220
28.80705 213
28.82716 206
28.84727 209
28.86739 228
28.8875 230
28.90762 208
28.92773 187
28.94784 202
28.96796 221
28.98807 197
29.00818 224
29.0283 220
29.04841 189
29.06853 207
29.08864 214
29.10875 210
29.12887 212
29.14898 211
29.16909 226
29.18921 233
29.20932 215
29.22943 210
29.24955 231
29.26966 222
29.28978 216
29.30989 211
29.33 251
29.35012 252
29.37023 268
29.39034 250
29.41046 298
29.43057 300
29.45069 259
29.4708 229
29.49091 238
29.51103 232
29.53114 235
29.55125 243
29.57137 188
29.59148 220
29.6116 192
29.63171 182
29.65182 215
29.67194 210
29.69205 206
29.71216 180
29.73228 197
29.75239 193
29.7725 206
29.79262 195
29.81273 215
29.83285 198
29.85296 196
29.87307 209
29.89319 213
29.9133 193
29.93341 201
29.95353 212
29.97364 206
29.99376 214
30.01387 207
30.03398 239
30.0541 202
30.07421 211
30.09432 213
30.11444 285
30.13455 240
30.15467 236
30.17478 250
30.19489 269
30.21501 272
30.23512 263
30.25523 247
30.27535 224
30.29546 237
30.31557 231
30.33569 227
30.3558 207
30.37592 214
30.39603 178
30.41614 189
30.43626 189
30.45637 178
30.47648 216
30.4966 204
30.51671 190
30.53683 198
30.55694 211
30.57705 179
30.59717 204
30.61728 236
30.63739 237
30.65751 218
30.67762 228
30.69773 224
30.71785 278
30.73796 241
30.75808 230
30.77819 259
30.7983 242
30.81842 245
30.83853 212
30.85864 249
30.87876 211
30.89887 237
30.91899 226
30.9391 183
30.95921 181
30.97933 184
30.99944 194
31.01955 175
31.03967 164
31.05978 174
31.0799 162
31.10001 168
31.12012 170
31.14024 168
31.16035 168
31.18046 190
31.20058 181
31.22069 163
31.2408 156
31.26092 190
31.28103 160
31.30115 135
31.32126 143
31.34137 145
31.36149 159
31.3816 175
31.40171 139
31.42183 162
31.44194 133
31.46206 181
31.48217 176
31.50228 163
31.5224 159
31.54251 148
31.56262 148
31.58274 166
31.60285 147
31.62297 145
31.64308 157
31.66319 152
31.68331 154
31.70342 153
31.72353 168
31.74365 139
31.76376 136
31.78387 173
31.80399 140
31.8241 178
31.84422 172
31.86433 146
31.88444 152
31.90456 158
31.92467 162
31.94478 153
31.9649 148
31.98501 159
32.00513 175
32.02524 151
32.04535 153
32.06547 153
32.08558 149
32.10569 161
32.12581 182
32.14592 163
32.16604 179
32.18615 162
32.20626 152
32.22638 149
32.24649 158
32.2666 157
32.28672 162
32.30683 136
32.32694 181
32.34706 179
32.36717 151
32.38729 185
32.4074 192
32.42751 176
32.44763 165
32.46774 184
32.48785 181
32.50797 167
32.52808 167
32.5482 159
32.56831 150
32.58842 135
32.60854 135
32.62865 136
32.64876 143
32.66888 165
32.68899 155
32.7091 142
32.72922 137
32.74933 148
32.76945 163
32.78956 135
32.80967 130
32.82979 151
32.8499 152
32.87001 161
32.89013 125
32.91024 139
32.93036 153
32.95047 129
32.97058 132
32.9907 154
33.01081 149
33.03092 134
33.05104 143
33.07115 169
33.09127 130
33.11138 170
33.13149 139
33.15161 142
33.17172 134
33.19183 133
33.21195 133
33.23206 133
33.25217 170
33.27229 161
33.2924 146
33.31252 150
33.33263 153
33.35274 126
33.37286 149
33.39297 130
33.41308 153
33.4332 145
33.45331 138
33.47343 131
33.49354 106
33.51365 131
33.53377 140
33.55388 128
33.57399 138
33.59411 146
33.61422 149
33.63434 148
33.65445 143
33.67456 125
33.69468 145
33.71479 115
33.7349 128
33.75502 133
33.77513 166
33.79524 157
33.81536 144
33.83547 131
33.85559 134
33.8757 143
33.89581 140
33.91593 155
33.93604 149
33.95615 133
33.97627 147
33.99638 152
34.0165 151
34.03661 161
34.05672 192
34.07684 182
34.09695 165
34.11706 178
34.13718 176
34.15729 203
34.17741 185
34.19752 183
34.21763 170
34.23775 182
34.25786 173
34.27797 171
34.29809 173
34.3182 159
34.33831 154
34.35843 157
34.37854 155
34.39866 154
34.41877 137
34.43888 154
34.459 143
34.47911 171
34.49922 145
34.51934 163
34.53945 162
34.55957 189
34.57968 168
34.59979 146
34.61991 168
34.64002 185
34.66013 167
34.68025 156
34.70036 171
34.72047 182
34.74059 175
34.7607 183
34.78082 149
34.80093 181
34.82104 163
34.84116 150
34.86127 163
34.88138 170
34.9015 156
34.92161 153
34.94173 153
34.96184 166
34.98195 158
35.00207 140
35.02218 157
35.04229 166
35.06241 177
35.08252 161
35.10264 158
35.12275 174
35.14286 150
35.16298 162
35.18309 168
35.2032 166
35.22332 168
35.24343 170
35.26354 176
35.28366 160
35.30377 176
35.32389 166
35.344 174
35.36411 167
35.38423 172
35.40434 194
35.42445 163
35.44457 201
35.46468 196
35.4848 201
35.50491 200
35.52502 214
35.54514 209
35.56525 168
35.58536 171
35.60548 188
35.62559 157
35.64571 191
35.66582 184
35.68593 181
35.70605 182
35.72616 192
35.74627 171
35.76639 148
35.7865 151
35.80661 179
35.82673 182
35.84684 176
35.86696 158
35.88707 170
35.90718 144
35.9273 183
35.94741 161
35.96752 167
35.98764 165
36.00775 176
36.02787 213
36.04798 195
36.06809 180
36.08821 180
36.10832 198
36.12843 220
36.14855 232
36.16866 185
36.18878 245
36.20889 250
36.229 284
36.24912 292
36.26923 325
36.28934 361
36.30946 429
36.32957 502
36.34968 556
36.3698 736
36.38991 876
36.41003 1050
36.43014 1263
36.45025 1573
36.47037 1832
36.49048 2191
36.51059 2428
36.53071 2461
36.55082 2346
36.57094 1959
36.59105 1477
36.61116 1268
36.63128 1160
36.65139 953
36.6715 672
36.69162 428
36.71173 315
36.73184 270
36.75196 253
36.77207 241
36.79219 229
36.8123 224
36.83241 216
36.85253 204
36.87264 215
36.89275 188
36.91287 223
36.93298 188
36.9531 209
36.97321 192
36.99332 221
37.01344 218
37.03355 173
37.05366 182
37.07378 185
37.09389 173
37.11401 148
37.13412 163
37.15423 142
37.17435 164
37.19446 155
37.21457 157
37.23469 145
37.2548 146
37.27491 142
37.29503 139
37.31514 133
37.33526 169
37.35537 130
37.37548 142
37.3956 135
37.41571 128
37.43582 139
37.45594 143
37.47605 155
37.49617 138
37.51628 153
37.53639 150
37.55651 146
37.57662 146
37.59673 155
37.61685 157
37.63696 172
37.65708 131
37.67719 162
37.6973 163
37.71742 143
37.73753 142
37.75764 137
37.77776 156
37.79787 129
37.81798 148
37.8381 135
37.85821 144
37.87833 134
37.89844 158
37.91855 131
37.93867 120
37.95878 136
37.97889 128
37.99901 137
38.01912 139
38.03924 148
38.05935 133
38.07946 135
38.09958 144
38.11969 161
38.1398 138
38.15992 126
38.18003 153
38.20015 138
38.22026 154
38.24037 159
38.26049 151
38.2806 165
38.30071 147
38.32083 141
38.34094 170
38.36105 143
38.38117 150
38.40128 164
38.4214 165
38.44151 166
38.46162 145
38.48174 157
38.50185 168
38.52196 186
38.54208 156
38.56219 170
38.58231 157
38.60242 164
38.62253 155
38.64265 150
38.66276 143
38.68287 181
38.70299 144
38.7231 149
38.74321 160
38.76333 158
38.78344 148
38.80356 149
38.82367 159
38.84378 135
38.8639 145
38.88401 157
38.90412 173
38.92424 171
38.94435 186
38.96447 195
38.98458 171
39.00469 204
39.02481 201
39.04492 217
39.06503 226
39.08515 215
39.10526 261
39.12538 266
39.14549 272
39.1656 277
39.18572 308
39.20583 307
39.22594 359
39.24606 489
39.26617 546
39.28628 664
39.3064 781
39.32651 1018
39.34663 1146
39.36674 1419
39.38685 1693
39.40697 1933
39.42708 2230
39.44719 2306
39.46731 2177
39.48742 1948
39.50754 1515
39.52765 1219
39.54776 1160
39.56788 1045
39.58799 837
39.6081 538
39.62822 389
39.64833 291
39.66845 257
39.68856 245
39.70867 233
39.72879 256
39.7489 237
39.76901 221
39.78913 206
39.80924 223
39.82935 198
39.84947 182
39.86958 200
39.8897 198
39.90981 213
39.92992 192
39.95004 208
39.97015 220
39.99026 243
40.01038 263
40.03049 257
40.05061 302
40.07072 297
40.09083 398
40.11095 406
40.13106 507
40.15117 624
40.17129 698
40.1914 811
40.21152 901
40.23163 1044
40.25174 1141
40.27186 1162
40.29197 1098
40.31208 948
40.3322 808
40.35231 647
40.37242 642
40.39254 580
40.41265 451
40.43277 351
40.45288 255
40.47299 203
40.49311 221
40.51322 164
40.53333 202
40.55345 186
40.57356 169
40.59368 165
40.61379 189
40.6339 171
40.65402 181
40.67413 155
40.69424 155
40.71436 149
40.73447 151
40.75458 155
40.7747 156
40.79481 140
40.81493 167
40.83504 159
40.85515 147
40.87527 148
40.89538 158
40.91549 166
40.93561 158
40.95572 125
40.97584 179
40.99595 157
41.01606 152
41.03618 143
41.05629 158
41.0764 140
41.09652 151
41.11663 157
41.13675 142
41.15686 137
41.17697 162
41.19709 166
41.2172 159
41.23731 148
41.25743 166
41.27754 146
41.29765 144
41.31777 166
41.33788 129
41.358 141
41.37811 153
41.39822 153
41.41834 168
41.43845 166
41.45856 175
41.47868 144
41.49879 148
41.51891 173
41.53902 159
41.55913 141
41.57925 171
41.59936 170
41.61947 180
41.63959 169
41.6597 184
41.67982 212
41.69993 211
41.72004 202
41.74016 216
41.76027 245
41.78038 216
41.8005 244
41.82061 222
41.84072 194
41.86084 202
41.88095 201
41.90107 187
41.92118 206
41.94129 205
41.96141 174
41.98152 151
42.00163 203
42.02175 184
42.04186 179
42.06198 206
42.08209 220
42.1022 218
42.12232 227
42.14243 253
42.16254 230
42.18266 281
42.20277 334
42.22289 363
42.243 475
42.26311 508
42.28323 622
42.30334 732
42.32345 775
42.34357 970
42.36368 1230
42.38379 1325
42.40391 1576
42.42402 1548
42.44414 1603
42.46425 1328
42.48436 1141
42.50448 1001
42.52459 882
42.5447 783
42.56482 721
42.58493 530
42.60505 383
42.62516 295
42.64527 248
42.66539 247
42.6855 216
42.70561 196
42.72573 221
42.74584 202
42.76595 181
42.78607 187
42.80618 192
42.8263 180
42.84641 188
42.86652 180
42.88664 163
42.90675 148
42.92686 124
42.94698 168
42.96709 155
42.98721 137
43.00732 145
43.02743 129
43.04755 154
43.06766 163
43.08777 138
43.10789 154
43.128 155
43.14812 142
43.16823 149
43.18834 146
43.20846 139
43.22857 139
43.24868 136
43.2688 139
43.28891 153
43.30902 124
43.32914 140
43.34925 129
43.36937 140
43.38948 140
43.40959 144
43.42971 140
43.44982 143
43.46993 140
43.49005 150
43.51016 126
43.53028 153
43.55039 137
43.5705 126
43.59062 140
43.61073 164
43.63084 141
43.65096 144
43.67107 127
43.69119 134
43.7113 126
43.73141 137
43.75153 124
43.77164 123
43.79175 135
43.81187 120
43.83198 121
43.85209 139
43.87221 121
43.89232 143
43.91244 123
43.93255 120
43.95266 125
43.97278 129
43.99289 150
44.013 122
44.03312 125
44.05323 153
44.07335 163
44.09346 145
44.11357 133
44.13369 135
44.1538 148
44.17391 145
44.19403 162
44.21414 149
44.23426 178
44.25437 162
44.27448 151
44.2946 142
44.31471 138
44.33482 128
44.35494 140
44.37505 146
44.39516 128
44.41528 130
44.43539 146
44.45551 150
44.47562 137
44.49573 143
44.51585 139
44.53596 156
44.55607 143
44.57619 133
44.5963 155
44.61642 130
44.63653 144
44.65664 149
44.67676 140
44.69687 130
44.71698 133
44.7371 129
44.75721 131
44.77732 137
44.79744 131
44.81755 116
44.83767 142
44.85778 127
44.87789 142
44.89801 162
44.91812 141
44.93823 149
44.95835 145
44.97846 151
44.99858 122
45.01869 159
45.0388 119
45.05892 142
45.07903 135
45.09914 130
45.11926 156
45.13937 151
45.15949 141
45.1796 132
45.19971 161
45.21983 154
45.23994 142
45.26005 140
45.28017 139
45.30028 156
45.32039 178
45.34051 177
45.36062 160
45.38074 200
45.40085 197
45.42096 184
45.44108 185
45.46119 216
45.4813 206
45.50142 251
45.52153 243
45.54165 300
45.56176 298
45.58187 315
45.60199 388
45.6221 436
45.64221 497
45.66233 581
45.68244 729
45.70256 854
45.72267 928
45.74278 1030
45.7629 1019
45.78301 1011
45.80312 929
45.82324 808
45.84335 644
45.86346 604
45.88358 617
45.90369 522
45.92381 435
45.94392 370
45.96403 297
45.98415 219
46.00426 185
46.02437 168
46.04449 162
46.0646 171
46.08472 164
46.10483 159
46.12494 160
46.14506 152
46.16517 155
46.18528 153
46.2054 147
46.22551 147
46.24563 155
46.26574 146
46.28585 148
46.30597 129
46.32608 138
46.34619 147
46.36631 141
46.38642 119
46.40653 113
46.42665 128
46.44676 145
46.46688 124
46.48699 126
46.5071 156
46.52722 116
46.54733 132
46.56744 112
46.58756 136
46.60767 118
46.62779 119
46.6479 133
46.66801 120
46.68813 115
46.70824 129
46.72835 125
46.74847 122
46.76858 129
46.78869 116
46.80881 122
46.82892 129
46.84904 147
46.86915 124
46.88926 123
46.90938 107
46.92949 133
46.9496 136
46.96972 131
46.98983 144
47.00995 123
47.03006 140
47.05017 137
47.07029 141
47.0904 146
47.11051 158
47.13063 147
47.15074 149
47.17086 140
47.19097 126
47.21108 130
47.2312 131
47.25131 122
47.27142 131
47.29154 132
47.31165 123
47.33176 141
47.35188 138
47.37199 123
47.39211 135
47.41222 134
47.43233 149
47.45245 131
47.47256 119
47.49267 129
47.51279 144
47.5329 117
47.55302 111
47.57313 128
47.59324 125
47.61336 130
47.63347 116
47.65358 123
47.6737 124
47.69381 119
47.71393 130
47.73404 130
47.75415 135
47.77427 128
47.79438 123
47.81449 110
47.83461 114
47.85472 124
47.87483 124
47.89495 131
47.91506 110
47.93518 133
47.95529 129
47.9754 129
47.99552 138
48.01563 133
48.03574 128
48.05586 122
48.07597 123
48.09609 128
48.1162 142
48.13631 129
48.15643 113
48.17654 119
48.19665 132
48.21677 133
48.23688 120
48.257 101
48.27711 129
48.29722 142
48.31734 142
48.33745 134
48.35756 139
48.37768 139
48.39779 133
48.4179 136
48.43802 127
48.45813 133
48.47825 144
48.49836 147
48.51847 148
48.53859 127
48.5587 137
48.57881 134
48.59893 146
48.61904 140
48.63916 143
48.65927 115
48.67938 158
48.6995 155
48.71961 144
48.73972 154
48.75984 149
48.77995 157
48.80006 152
48.82018 138
48.84029 152
48.86041 152
48.88052 151
48.90063 157
48.92075 135
48.94086 155
48.96097 147
48.98109 153
49.0012 141
49.02132 133
49.04143 167
49.06154 138
49.08166 172
49.10177 124
49.12188 175
49.142 151
49.16211 149
49.18223 144
49.20234 156
49.22245 154
49.24257 148
49.26268 160
49.28279 137
49.30291 140
49.32302 157
49.34313 144
49.36325 158
49.38336 182
49.40348 167
49.42359 167
49.4437 153
49.46382 152
49.48393 170
49.50404 157
49.52416 189
49.54427 177
49.56439 194
49.5845 191
49.60461 189
49.62473 207
49.64484 200
49.66495 257
49.68507 261
49.70518 311
49.7253 293
49.74541 350
49.76552 367
49.78564 361
49.80575 442
49.82586 496
49.84598 542
49.86609 651
49.8862 736
49.90632 805
49.92643 988
49.94655 1100
49.96666 1366
49.98677 1615
50.00689 1952
50.027 2194
50.04711 2663
50.06723 2943
50.08734 3322
50.10746 3436
50.12757 3481
50.14768 3045
50.1678 2526
50.18791 2016
50.20802 1848
50.22814 1795
50.24825 1654
50.26837 1562
50.28848 1266
50.30859 808
50.32871 599
50.34882 412
50.36893 381
50.38905 380
50.40916 333
50.42927 327
50.44939 320
50.4695 297
50.48962 326
50.50973 315
50.52984 319
50.54996 305
50.57007 287
50.59018 262
50.6103 285
50.63041 274
50.65053 250
50.67064 231
50.69075 213
50.71087 225
50.73098 215
50.75109 200
50.77121 186
50.79132 195
50.81143 166
50.83155 160
50.85166 169
50.87178 166
50.89189 167
50.912 128
50.93212 170
50.95223 164
50.97234 146
50.99246 143
51.01257 138
51.03269 153
51.0528 156
51.07291 147
51.09303 142
51.11314 157
51.13325 149
51.15337 126
51.17348 137
51.1936 149
51.21371 141
51.23382 135
51.25394 130
51.27405 139
51.29416 147
51.31428 124
51.33439 139
51.3545 133
51.37462 120
51.39473 128
51.41485 133
51.43496 140
51.45507 116
51.47519 136
51.4953 126
51.51541 122
51.53553 117
51.55564 143
51.57576 107
51.59587 129
51.61598 103
51.6361 116
51.65621 119
51.67632 128
51.69644 131
51.71655 108
51.73667 127
51.75678 122
51.77689 118
51.79701 122
51.81712 122
51.83723 96
51.85735 103
51.87746 116
51.89757 115
51.91769 114
51.9378 113
51.95792 137
51.97803 113
51.99814 128
52.01826 110
52.03837 121
52.05848 109
52.0786 126
52.09871 117
52.11883 146
52.13894 99
52.15905 104
52.17917 116
52.19928 126
52.21939 121
52.23951 148
52.25962 125
52.27974 111
52.29985 117
52.31996 131
52.34008 113
52.36019 111
52.3803 122
52.40042 134
52.42053 143
52.44064 127
52.46076 122
52.48087 111
52.50099 120
52.5211 121
52.54121 124
52.56133 137
52.58144 127
52.60155 130
52.62167 118
52.64178 137
52.6619 130
52.68201 128
52.70212 125
52.72224 108
52.74235 115
52.76246 129
52.78258 129
52.80269 131
52.8228 126
52.84292 116
52.86303 118
52.88315 123
52.90326 117
52.92337 124
52.94349 123
52.9636 117
52.98371 116
53.00383 126
53.02394 121
53.04406 120
53.06417 124
53.08428 119
53.1044 138
53.12451 133
53.14462 122
53.16474 129
53.18485 141
53.20497 114
53.22508 142
53.24519 124
53.26531 115
53.28542 127
53.30553 118
53.32565 135
53.34576 113
53.36587 125
53.38599 133
53.4061 130
53.42622 123
53.44633 113
53.46644 111
53.48656 122
53.50667 125
53.52678 125
53.5469 124
53.56701 135
53.58713 131
53.60724 146
53.62735 140
53.64747 123
53.66758 128
53.68769 137
53.70781 117
53.72792 132
53.74804 128
53.76815 122
53.78826 123
53.80838 122
53.82849 124
53.8486 109
53.86872 124
53.88883 135
53.90894 132
53.92906 128
53.94917 134
53.96929 132
53.9894 135
54.00951 137
54.02963 117
54.04974 133
54.06985 132
54.08997 118
54.11008 129
54.1302 128
54.15031 123
54.17042 124
54.19054 133
54.21065 152
54.23076 140
54.25088 120
54.27099 125
54.29111 157
54.31122 158
54.33133 148
54.35145 158
54.37156 167
54.39167 137
54.41179 171
54.4319 164
54.45201 168
54.47213 185
54.49224 183
54.51236 197
54.53247 215
54.55258 197
54.5727 246
54.59281 268
54.61292 302
54.63304 305
54.65315 376
54.67327 437
54.69338 519
54.71349 526
54.73361 650
54.75372 727
54.77383 892
54.79395 909
54.81406 996
54.83417 1066
54.85429 1051
54.8744 1011
54.89452 819
54.91463 719
54.93474 633
54.95486 616
54.97497 576
54.99508 600
55.0152 531
55.03531 469
55.05543 392
55.07554 321
55.09565 272
55.11577 268
55.13588 278
55.15599 310
55.17611 336
55.19622 416
55.21634 443
55.23645 493
55.25656 466
55.27668 513
55.29679 539
55.3169 515
55.33702 437
55.35713 382
55.37724 352
55.39736 334
55.41747 320
55.43759 326
55.4577 305
55.47781 286
55.49793 233
55.51804 205
55.53815 176
55.55827 158
55.57838 165
55.5985 159
55.61861 141
55.63872 157
55.65884 137
55.67895 124
55.69906 141
55.71918 132
55.73929 139
55.75941 117
55.77952 127
55.79963 125
55.81975 135
55.83986 118
55.85997 111
55.88009 131
55.9002 109
55.92031 120
55.94043 131
55.96054 121
55.98066 101
56.00077 128
56.02088 115
56.041 118
56.06111 117
56.08122 108
56.10134 120
56.12145 118
56.14157 118
56.16168 129
56.18179 125
56.20191 122
56.22202 135
56.24213 99
56.26225 120
56.28236 115
56.30248 111
56.32259 106
56.3427 102
56.36282 116
56.38293 113
56.40304 119
56.42316 105
56.44327 98
56.46338 106
56.4835 116
56.50361 110
56.52373 106
56.54384 105
56.56395 102
56.58407 104
56.60418 116
56.62429 114
56.64441 127
56.66452 104
56.68464 120
56.70475 133
56.72486 110
56.74498 119
56.76509 112
56.7852 123
56.80532 121
56.82543 124
56.84554 133
56.86566 116
56.88577 122
56.90589 109
56.926 118
56.94611 118
56.96623 121
56.98634 123
57.00645 105
57.02657 131
57.04668 132
57.0668 145
57.08691 140
57.10702 153
57.12714 159
57.14725 166
57.16736 174
57.18748 174
57.20759 141
57.22771 164
57.24782 157
57.26793 143
57.28805 148
57.30816 135
57.32827 151
57.34839 156
57.3685 148
57.38861 134
57.40873 135
57.42884 144
57.44896 129
57.46907 130
57.48918 115
57.5093 108
57.52941 106
57.54952 107
57.56964 110
57.58975 109
57.60987 100
57.62998 116
57.65009 110
57.67021 95
57.69032 113
57.71043 111
57.73055 112
57.75066 112
57.77078 104
57.79089 104
57.811 122
57.83112 105
57.85123 117
57.87134 114
57.89146 135
57.91157 116
57.93168 130
57.9518 124
57.97191 120
57.99203 125
58.01214 113
58.03225 139
58.05237 124
58.07248 122
58.09259 113
58.11271 115
58.13282 115
58.15294 133
58.17305 134
58.19316 122
58.21328 100
58.23339 121
58.2535 118
58.27362 119
58.29373 131
58.31385 105
58.33396 118
58.35407 116
58.37419 112
58.3943 130
58.41441 101
58.43453 133
58.45464 118
58.47475 129
58.49487 120
58.51498 133
58.5351 126
58.55521 148
58.57532 120
58.59544 104
58.61555 119
58.63566 117
58.65578 120
58.67589 138
58.69601 123
58.71612 129
58.73623 133
58.75635 132
58.77646 131
58.79657 113
58.81669 128
58.8368 114
58.85691 111
58.87703 121
58.89714 136
58.91726 131
58.93737 92
58.95748 118
58.9776 131
58.99771 144
59.01782 136
59.03794 118
59.05805 129
59.07817 131
59.09828 145
59.11839 143
59.13851 138
59.15862 136
59.17873 135
59.19885 122
59.21896 128
59.23908 140
59.25919 161
59.2793 154
59.29942 154
59.31953 174
59.33964 146
59.35976 171
59.37987 161
59.39998 163
59.4201 176
59.44021 210
59.46033 191
59.48044 202
59.50055 214
59.52067 231
59.54078 268
59.56089 292
59.58101 278
59.60112 335
59.62124 376
59.64135 365
59.66146 434
59.68158 489
59.70169 590
59.7218 657
59.74192 765
59.76203 908
59.78215 1047
59.80226 1212
59.82237 1438
59.84249 1645
59.8626 1773
59.88271 1873
59.90283 2067
59.92294 2109
59.94305 2051
59.96317 1805
59.98328 1492
60.0034 1239
60.02351 1134
60.04362 1134
60.06374 1123
60.08385 1131
60.10396 1021
60.12408 857
60.14419 652
60.16431 505
60.18442 331
60.20453 275
60.22465 252
60.24476 218
60.26487 200
60.28499 195
60.3051 173
60.32522 198
60.34533 177
60.36544 157
60.38556 162
60.40567 168
60.42578 156
60.4459 154
60.46601 156
60.48612 170
60.50624 158
60.52635 134
60.54647 124
60.56658 130
60.58669 132
60.60681 137
60.62692 132
60.64703 117
60.66715 144
60.68726 120
60.70738 144
60.72749 135
60.7476 120
60.76772 139
60.78783 147
60.80794 120
60.82806 153
60.84817 139
60.86828 138
60.8884 131
60.90851 122
60.92863 116
60.94874 122
60.96885 136
60.98897 122
61.00908 160
61.02919 140
61.04931 141
61.06942 132
61.08954 159
61.10965 124
61.12976 119
61.14988 148
61.16999 134
61.1901 114
61.21022 121
61.23033 119
61.25045 136
61.27056 151
61.29067 108
61.31079 116
61.3309 116
61.35101 118
61.37113 115
61.39124 133
61.41135 113
61.43147 125
61.45158 102
61.4717 132
61.49181 113
61.51192 94
61.53204 122
61.55215 134
61.57226 110
61.59238 107
61.61249 118
61.63261 104
61.65272 104
61.67283 123
61.69295 122
61.71306 126
61.73317 111
61.75329 120
61.7734 124
61.79352 128
61.81363 121
61.83374 119
61.85386 111
61.87397 116
61.89408 128
61.9142 111
61.93431 124
61.95442 124
61.97454 121
61.99465 97
62.01477 107
62.03488 129
62.05499 129
62.07511 103
62.09522 111
62.11533 95
62.13545 108
62.15556 129
62.17568 115
62.19579 130
62.2159 133
62.23602 116
62.25613 104
62.27624 115
62.29636 115
62.31647 125
62.33659 113
62.3567 111
62.37681 112
62.39693 97
62.41704 105
62.43715 105
62.45727 121
62.47738 119
62.49749 115
62.51761 141
62.53772 116
62.55784 125
62.57795 105
62.59806 116
62.61818 128
62.63829 109
62.6584 116
62.67852 119
62.69863 113
62.71875 113
62.73886 119
62.75897 130
62.77909 118
62.7992 119
62.81931 124
62.83943 108
62.85954 108
62.87965 114
62.89977 103
62.91988 141
62.94 118
62.96011 102
62.98022 123
63.00034 121
63.02045 143
63.04056 137
63.06068 126
63.08079 120
63.10091 124
63.12102 133
63.14113 108
63.16125 136
63.18136 135
63.20147 99
63.22159 118
63.2417 118
63.26182 115
63.28193 118
63.30204 127
63.32216 120
63.34227 131
63.36238 122
63.3825 126
63.40261 129
63.42272 103
63.44284 127
63.46295 138
63.48307 126
63.50318 140
63.52329 132
63.54341 137
63.56352 120
63.58363 152
63.60375 145
63.62386 140
63.64398 153
63.66409 172
63.6842 148
63.70432 170
63.72443 180
63.74454 213
63.76466 215
63.78477 205
63.80489 221
63.825 274
63.84511 297
63.86523 285
63.88534 315
63.90545 366
63.92557 387
63.94568 429
63.96579 481
63.98591 464
64.00602 460
64.02614 433
64.04625 391
64.06636 360
64.08648 336
64.10659 294
64.1267 289
64.14682 265
64.16693 299
64.18705 260
64.20716 269
64.22727 209
64.24739 164
64.2675 165
64.28761 138
64.30773 129
64.32784 123
64.34796 129
64.36807 120
64.38818 124
64.4083 140
64.42841 130
64.44852 125
64.46864 109
64.48875 113
64.50886 109
64.52898 110
64.54909 94
64.56921 114
64.58932 119
64.60943 119
64.62955 104
64.64966 116
64.66977 133
64.68989 111
64.71 116
64.73012 108
64.75023 122
64.77034 114
64.79046 108
64.81057 118
64.83068 124
64.8508 93
64.87091 119
64.89102 132
64.91114 111
64.93125 114
64.95137 129
64.97148 118
64.99159 107
65.01171 118
65.03182 115
65.05193 126
65.07205 124
65.09216 148
65.11228 125
65.13239 117
65.1525 141
65.17262 146
65.19273 133
65.21284 125
65.23296 112
65.25307 134
65.27319 137
65.2933 122
65.31341 133
65.33353 131
65.35364 124
65.37375 126
65.39387 114
65.41398 148
65.43409 110
65.45421 142
65.47432 139
65.49444 136
65.51455 155
65.53466 137
65.55478 137
65.57489 147
65.595 146
65.61512 150
65.63523 183
65.65535 174
65.67546 190
65.69557 197
65.71569 197
65.7358 209
65.75591 204
65.77603 186
65.79614 182
65.81626 150
65.83637 197
65.85648 162
65.8766 140
65.89671 167
65.91682 145
65.93694 146
65.95705 150
65.97716 137
65.99728 153
66.01739 127
66.03751 127
66.05762 114
66.07773 150
66.09785 148
66.11796 131
66.13807 123
66.15819 141
66.1783 133
66.19842 123
66.21853 125
66.23864 129
66.25876 130
66.27887 148
66.29898 124
66.3191 122
66.33921 107
66.35933 126
66.37944 128
66.39955 140
66.41967 136
66.43978 122
66.45989 123
66.48001 119
66.50012 126
66.52023 128
66.54035 116
66.56046 124
66.58058 111
66.60069 119
66.6208 129
66.64092 128
66.66103 120
66.68114 124
66.70126 131
66.72137 136
66.74149 130
66.7616 129
66.78171 127
66.80183 110
66.82194 132
66.84205 143
66.86217 131
66.88228 127
66.90239 155
66.92251 131
66.94262 138
66.96274 127
66.98285 134
67.00296 131
67.02308 121
67.04319 141
67.0633 165
67.08342 160
67.10353 161
67.12365 141
67.14376 175
67.16387 159
67.18399 174
67.2041 186
67.22421 170
67.24433 161
67.26444 186
67.28456 226
67.30467 203
67.32478 215
67.3449 243
67.36501 253
67.38512 295
67.40524 277
67.42535 289
67.44546 340
67.46558 416
67.48569 456
67.50581 474
67.52592 506
67.54603 610
67.56615 722
67.58626 776
67.60637 890
67.62649 1007
67.6466 1114
67.66672 1156
67.68683 1212
67.70694 1290
67.72706 1188
67.74717 1152
67.76728 994
67.7874 945
67.80751 917
67.82763 874
67.84774 954
67.86785 1027
67.88797 1042
67.90808 1064
67.92819 1076
67.94831 1089
67.96842 1084
67.98853 1194
68.00865 1236
68.02876 1350
68.04888 1442
68.06899 1592
68.0891 1750
68.10922 1746
68.12933 1697
68.14944 1665
68.16956 1586
68.18967 1448
68.20979 1411
68.2299 1414
68.25001 1533
68.27013 1580
68.29024 1522
68.31035 1384
68.33047 1232
68.35058 1019
68.3707 816
68.39081 687
68.41092 603
68.43104 558
68.45115 638
68.47126 544
68.49138 521
68.51149 463
68.5316 364
68.55172 293
68.57183 252
68.59195 226
68.61206 201
68.63217 184
68.65229 171
68.6724 148
68.69251 182
68.71263 163
68.73274 164
68.75286 143
68.77297 149
68.79308 150
68.8132 140
68.83331 154
68.85342 132
68.87354 113
68.89365 142
68.91376 138
68.93388 147
68.95399 124
68.97411 128
68.99422 141
69.01433 137
69.03445 129
69.05456 133
69.07467 128
69.09479 125
69.1149 117
69.13502 144
69.15513 113
69.17524 125
69.19536 118
69.21547 121
69.23558 131
69.2557 96
69.27581 115
69.29593 125
69.31604 115
69.33615 123
69.35627 137
69.37638 113
69.39649 118
69.41661 100
69.43672 110
69.45683 117
69.47695 115
69.49706 106
69.51718 109
69.53729 118
69.5574 113
69.57752 105
69.59763 109
69.61774 128
69.63786 100
69.65797 122
69.67809 117
69.6982 109
69.71831 107
69.73843 130
69.75854 112
69.77865 109
69.79877 130
69.81888 108
69.839 125
69.85911 125
69.87922 108
69.89934 102
69.91945 118
69.93956 109
69.95968 98
69.97979 87
69.9999 116
70.02002 120
70.04013 91
70.06025 85
70.08036 112
70.10047 111
70.12059 103
70.1407 116
70.16081 120
70.18093 105
70.20104 106
70.22116 112
70.24127 99
70.26138 104
70.2815 111
70.30161 103
70.32172 108
70.34184 104
70.36195 93
70.38207 120
70.40218 106
70.42229 111
70.44241 97
70.46252 101
70.48263 108
70.50275 119
70.52286 90
70.54297 116
70.56309 110
70.5832 115
70.60332 129
70.62343 112
70.64354 127
70.66366 124
70.68377 98
70.70388 96
70.724 99
70.74411 120
70.76423 110
70.78434 113
70.80445 140
70.82457 97
70.84468 120
70.86479 86
70.88491 111
70.90502 105
70.92513 108
70.94525 105
70.96536 94
70.98548 93
71.00559 126
71.0257 126
71.04582 103
71.06593 97
71.08604 86
71.10616 90
71.12627 115
71.14639 98
71.1665 105
71.18661 100
71.20673 99
71.22684 112
71.24695 107
71.26707 92
71.28718 112
71.3073 88
71.32741 87
71.34752 117
71.36764 102
71.38775 106
71.40786 103
71.42798 94
71.44809 132
71.4682 105
71.48832 106
71.50843 113
71.52855 122
71.54866 99
71.56877 116
71.58889 130
71.609 106
71.62911 112
71.64923 115
71.66934 99
71.68946 90
71.70957 123
71.72968 101
71.7498 121
71.76991 101
71.79002 106
71.81014 127
71.83025 121
71.85037 110
71.87048 103
71.89059 111
71.91071 93
71.93082 111
71.95093 112
71.97105 106
71.99116 102
72.01127 117
72.03139 121
72.0515 129
72.07162 130
72.09173 111
72.11184 132
72.13196 94
72.15207 104
72.17218 112
72.1923 106
72.21241 94
72.23253 137
72.25264 118
72.27275 119
72.29287 111
72.31298 98
72.33309 108
72.35321 117
72.37332 90
72.39344 102
72.41355 92
72.43366 103
72.45378 123
72.47389 108
72.494 127
72.51412 127
72.53423 114
72.55434 117
72.57446 114
72.59457 108
72.61469 104
72.6348 103
72.65491 123
72.67503 115
72.69514 113
72.71525 107
72.73537 115
72.75548 110
72.7756 133
72.79571 106
72.81582 99
72.83594 93
72.85605 107
72.87616 121
72.89628 116
72.91639 120
72.9365 136
72.95662 130
72.97673 124
72.99685 138
73.01696 126
73.03707 155
73.05719 155
73.0773 161
73.09741 144
73.11753 151
73.13764 160
73.15776 183
73.17787 187
73.19798 219
73.2181 215
73.23821 254
73.25832 276
73.27844 308
73.29855 344
73.31867 353
73.33878 393
73.35889 447
73.37901 435
73.39912 503
73.41923 480
73.43935 480
73.45946 457
73.47957 401
73.49969 331
73.5198 285
73.53992 258
73.56003 260
73.58014 311
73.60026 314
73.62037 293
73.64048 257
73.6606 288
73.68071 252
73.70083 218
73.72094 212
73.74105 142
73.76117 143
73.78128 136
73.80139 145
73.82151 122
73.84162 109
73.86174 89
73.88185 119
73.90196 128
73.92208 120
73.94219 124
73.9623 110
73.98242 101
74.00253 90
74.02264 106
74.04276 121
74.06287 118
74.08299 101
74.1031 116
74.12321 124
74.14333 97
74.16344 118
74.18355 106
74.20367 119
74.22378 101
74.2439 105
74.26401 103
74.28412 99
74.30424 120
74.32435 103
74.34446 98
74.36458 98
74.38469 86
74.40481 100
74.42492 103
74.44503 115
74.46515 107
74.48526 104
74.50537 87
74.52549 112
74.5456 114
74.56571 95
74.58583 111
74.60594 103
74.62606 103
74.64617 122
74.66628 104
74.6864 106
74.70651 121
74.72662 141
74.74674 101
74.76685 103
74.78697 110
74.80708 96
74.82719 107
74.84731 130
74.86742 109
74.88753 102
74.90765 113
74.92776 100
74.94787 128
74.96799 115
74.9881 123
75.00822 128
