3.00117 19400.4818650367
3.02128 19508.3707305688
3.0414 18789
3.06151 18335.8094730208
3.08162 17757.1325392797
3.10174 16992.6850487651
3.12185 17075.3476954802
3.14197 15999.9706655552
3.16208 15941.2581201077
3.18219 15153.4220489587
3.20231 14681.9383188527
3.22242 14515.4357288412
3.24253 13725.2876881836
3.26265 13590.2630268451
3.28276 12898.6252815412
3.30288 12397.0112874259
3.32299 12455.2319820193
3.3431 11558
3.36322 11376.7891960752
3.38333 10925.3862657532
3.40344 10785.1639751155
3.42356 10675.3331469881
3.44367 9745.77556462088
3.46379 9776.9735942612
3.4839 9409
3.50401 8750.83809655968
3.52413 8665.663336965
3.54424 8267.55606732984
3.56435 8171.90366975694
3.58447 7549.71028223923
3.60458 7445.91027493844
3.62469 7370.21016043764
3.64481 6760.77402844976
3.66492 6608.95761051659
3.68504 6430.27173475715
3.70515 6027.40880148015
3.72526 5898.55387009735
3.74538 5471.31480247532
3.76549 5384.99791655075
3.7856 5259
3.80572 4843.72115036284
3.82583 4742.8668179396
3.84595 4538.30722561445
3.86606 4269.42859421741
3.88617 4124.15136997355
3.90629 4055.01058984232
3.9264 3923
3.94651 3387.84422730652
3.96663 3400.15059861266
3.98674 3322.42969668988
4.00686 3021.17693160874
4.02697 3074.15135881513
4.04708 2788.2019670162
4.0672 2763
4.08731 2626.9011140996
4.10742 2516.07433675204
4.12754 2600.64574218135
4.14765 2241.46000751404
4.16776 2286.04953553695
4.18788 2067.23486628128
4.20799 2006.93430314976
4.22811 2121.9363341346
4.24822 1813.8011753355
4.26833 1840.12301006464
4.28845 1824.75797421082
4.30856 1775.77226146255
4.32867 1883.27740382599
4.34879 1504.09173195257
4.3689 1618
4.38902 1587.92416937863
4.40913 1589.1345647256
4.42924 1635.72056681103
4.44936 1380.30479683449
4.46947 1409.88449592464
4.48958 1406.07804023069
4.5097 1322
4.52981 1339.9947802216
4.54992 1272.92245127674
4.57004 1228.97888451636
4.59015 1212.15430069259
4.61027 1143.99367828253
4.63038 1179.05412434243
4.65049 1042.04583670372
4.67061 1065.04019310166
4.69072 1115.99085038027
4.71083 1052.88009318971
4.73095 987.867138067774
4.75106 960.963539345688
4.77118 1006.96278645995
4.79129 984.049165625937
4.8114 888
4.83152 930.935461640855
4.85163 790.950347364905
4.87174 892.163284893114
4.89186 865.144581007451
4.91197 823.993319774994
4.93209 846.999805692701
4.9522 805
4.97231 758.993863779185
4.99243 770.011029561823
5.01254 767.013286803767
5.03265 759.165869303492
5.05277 670.045490312236
5.07288 716.938245000322
5.09299 718.036692949815
5.11311 630.987681170043
5.13322 666.016934177728
5.15334 631.91930116336
5.17345 616.996007011676
5.19356 619.978137694397
5.21368 622.027227982893
5.23379 586.001686828892
5.2539 601
5.27402 540.957323496508
5.29413 540.016403077364
5.31425 531.92995413184
5.33436 509.976681146817
5.35447 526.054412843478
5.37459 468.994247888944
5.3947 543
5.41481 504.966235294016
5.43493 454.949955158141
5.45504 442.026167920054
5.47516 461.996343890901
5.49527 451.986089644321
5.51538 466.027110798101
5.5355 423
5.55561 469.993785086907
5.57572 387.932162166661
5.59584 392.102597574112
5.61595 434.993385649874
5.63606 405.046806270998
5.65618 395.028569639385
5.67629 364.990829202218
5.69641 419.013328296025
5.71652 387.943468412097
5.73663 347.981349106218
5.75675 358.04231553295
5.77686 363.02103331318
5.79697 355.971411099179
5.81709 380.007592610508
5.8372 337
5.85732 353.997312967658
5.87743 318.957616532099
5.89754 321.034804820243
5.91766 331.011130948888
5.93777 313.028669403969
5.95788 307.986674493836
5.978 318
5.99811 282.994764809462
6.01823 296.997913121634
6.03834 280.013819555013
6.05845 305.998721197114
6.07857 285.986614937285
6.09868 327.97076926432
6.11879 323.007645577537
6.13891 308.987618390434
6.15902 271.962062516862
6.17913 262.054507378639
6.19925 300.948111516249
6.21936 247.990240241682
6.23948 305.98365757275
6.25959 262.014128049831
6.2797 281
6.29982 283.002884554487
6.31993 294.007975425528
6.34004 286.975395546957
6.36016 275.025334165473
6.38027 265.999328124862
6.40039 277.990128883787
6.4205 284
6.44061 247.996801505029
6.46073 276.041263040762
6.48084 287.025291678062
6.50095 300.01634524558
6.52107 278.020048959982
6.54118 276.011705279797
6.56129 257.001222580057
6.58141 271.003247919281
6.60152 257.979368888557
6.62164 247.008858285406
6.64175 265.059943563037
6.66186 274.039512708622
6.68198 246.001739173
6.70209 266.997156160964
6.7222 243
6.74232 236.021520312547
6.76243 271.041273344924
6.78255 273.954182632892
6.80266 255.003774024913
6.82277 269.978855762552
6.84289 260.019756503756
6.863 220
6.88311 244.006272635302
6.90323 236.004110010181
6.92334 248.983077331673
6.94346 225.003178573483
6.96357 246.986509159118
6.98368 232.013342302113
7.0038 239
7.02391 250.994085019436
7.04402 234.011918624875
7.06414 264.006098963995
7.08425 242.000574403012
7.10436 272.950665301411
7.12448 272.008721364316
7.14459 269.999345532301
7.16471 263.989792227877
7.18482 240.993778733244
7.20493 252.014372236583
7.22505 241.926875845438
7.24516 220.970116622889
7.26527 264.94258782719
7.28539 275.003365959476
7.3055 258
7.32562 225.989199512182
7.34573 248.068568310912
7.36584 287.020142059394
7.38596 266.06419825956
7.40607 247.00138906178
7.42618 246.024005336238
7.4463 224
7.46641 282.008850525156
7.48653 246.953929148729
7.50664 245.995871974871
7.52675 234.991961886324
7.54687 258.95808565903
7.56698 260.040322190502
7.58709 215.997411045616
7.60721 259.008217186727
7.62732 238.997582281647
7.64743 264.012465407333
7.66755 231.869979837506
7.68766 205.946548437463
7.70778 257.977051021208
7.72789 246.997996540289
7.748 270
7.76812 247.008845847839
7.78823 278.992302818755
7.80834 224.891215448622
7.82846 210.960268754392
7.84857 248.929811710042
7.86869 281.997563533605
7.8888 263
7.90891 252.001620395923
7.92903 255.985808940338
7.94914 245.027300166582
7.96925 273.978972875152
7.98937 249.05313414863
8.00948 233.986093307551
8.0296 265
8.04971 262.981519758618
8.06982 230.015985620357
8.08994 279.041910387779
8.11005 258.965712279798
8.13016 266.009655843162
8.15028 243.014608693511
8.17039 248.993764731541
8.1905 253
8.21062 246.00036240177
8.23073 250.997088672242
8.25085 247.025921304834
8.27096 263.007471457609
8.29107 235.046949511115
8.31119 234.977345499749
8.3313 286
8.35141 249.995424196994
8.37153 278.015963565009
8.39164 254.962420940746
8.41176 263.95477951948
8.43187 275.017922155642
8.45198 251.013451480316
8.4721 255
8.49221 257.00372213241
8.51232 268.003066271003
8.53244 260.984356750563
8.55255 259.989123732473
8.57266 263.00714923672
8.59278 253.010867819977
8.61289 249.995880937006
8.63301 262.002369240183
8.65312 261.005619374222
8.67323 269.995034186581
8.69335 252.95907903108
8.71346 246.005441604319
8.73357 247.981332578135
8.75369 261.001181132743
8.7738 248
8.79392 264.023161635235
8.81403 288.044570242386
8.83414 299.930716827241
8.85426 251.002586422856
8.87437 293.966575090377
8.89448 261.057702120305
8.9146 237
8.93471 296.004093123548
8.95483 254.973607859553
8.97494 273.993737355763
8.99505 232.095316070411
9.01517 233.94536072815
9.03528 274.979461315701
9.05539 271.004002914476
9.07551 276.007242348496
9.09562 284.991833420566
9.11573 264.977901488359
9.13585 260.988819983878
9.15596 250.024053507451
9.17608 247.986127492003
9.19619 267.994907029352
9.2163 261
9.23642 257.02015218205
9.25653 278.98342203395
9.27664 251.01189296567
9.29676 283.995942640893
9.31687 242.061578902731
9.33699 237.987618305676
9.3571 261
9.37721 237.990405965856
9.39733 242.032255547217
9.41744 262.009686896107
9.43755 255.997813655632
9.45767 270.972332004493
9.47778 278.008983095574
9.4979 258
9.51801 249.003677385284
9.53812 256.988824783122
9.55824 237.002965931153
9.57835 253.991295957251
9.59846 236.975247734256
9.61858 269.998281169332
9.63869 243.999105469851
9.6588 271
9.67892 244.022178516929
9.69903 310.050984647417
9.71915 285.917036962319
9.73926 275.011010552835
9.75937 263.019742874419
9.77949 257.99630112988
9.7996 266
9.81971 244.991925191977
9.83983 242.000758524565
9.85994 244.022299441437
9.88006 261.97120289228
9.90017 261.027242510097
9.92028 240.007312809078
9.9404 256
9.96051 275.992564966872
9.98062 255.02408022933
10.00074 297.968609457163
10.02085 232.07397283998
10.04097 255.986638807085
10.06108 224.029770363407
10.08119 230.982258545832
10.10131 265.005059463848
10.12142 252.989636982336
10.14153 253.997825897579
10.16165 254.047913028382
10.18176 279.995439018314
10.20187 261.011386081013
10.22199 270.999460380628
10.2421 256
10.26222 260.012691614865
10.28233 277.035381431623
10.30244 291.976896940599
10.32256 260.055656280131
10.34267 250.003304999286
10.36278 247.999226293265
10.3829 250
10.40301 244.996951742914
10.42313 251.042498741137
10.44324 281.000608277078
10.46335 254.051062155776
10.48347 260.967341770683
10.50358 276.001079781394
10.52369 267.998237777764
10.54381 278.99794213108
10.56392 255.977046692932
10.58403 248.005188094792
10.60415 259.045389330445
10.62426 265.050557599501
10.64438 231.000619356566
10.66449 264.986209536191
10.6846 258
10.70472 240.01422266829
10.72483 268.003243951269
10.74494 242.971687651449
10.76506 259.93922908186
10.78517 280.991098494064
10.80529 270.012068564285
10.8254 251
10.84551 266.003870742539
10.86563 248.942805024525
10.88574 228.062798326558
10.90585 281.973143228539
10.92597 241.053620009777
10.94608 247.969352812223
10.9662 271
10.98631 265.004858244481
11.00642 277.979439824578
11.02654 235.971699571096
11.04665 264.904640339185
11.06676 282.002478188951
11.08688 272.012115370654
11.10699 262.004993432772
11.1271 251
11.14722 245.001746882747
11.16733 256.027920048093
11.18745 267.981058581684
11.20756 248.024195651016
11.22767 260.947235453423
11.24779 276.022573825279
11.2679 214
11.28801 278.014981653101
11.30813 248.968800568541
11.32824 265.02947018586
11.34836 256.034262895726
11.36847 250.981998657099
11.38858 269.989203056554
11.4087 268
11.42881 265.997406736836
11.44892 253.983317921497
11.46904 248.03648602605
11.48915 276.969610870122
11.50927 261.04230310035
11.52938 252.970954580122
11.54949 290.999303111534
11.56961 256.988728636702
11.58972 266.014284966019
11.60983 279.046614544335
11.62995 320.056732593315
11.65006 308.07050279615
11.67017 274.028415331977
11.69029 276.990830802871
11.7104 299
11.73052 299.969643179288
11.75063 261.986118865085
11.77074 291.081640650343
11.79086 308.033650936761
11.81097 281.005406391867
11.83108 304.977933651489
11.8512 307
11.87131 297.992552123853
11.89143 293.03728434105
11.91154 337.064191443395
11.93165 338.047389141689
11.95177 327.974890407329
11.97188 349.015334866663
11.99199 314.997008139367
12.01211 362.015025060877
12.03222 354.993059387293
12.05234 377.085247658769
12.07245 412.016526591996
12.09256 390.0603480649
12.11268 388.954464790797
12.13279 454.979090617469
12.1529 455
12.17302 452.012173480423
12.19313 484.080554315394
12.21324 545.101467837977
12.23336 568.012434053453
12.25347 557.981155001255
12.27359 587.992271864918
12.2937 588
12.31381 620.009668981939
12.33393 611.9685397165
12.35404 603.027726940489
12.37415 623.996884578565
12.39427 594.068591689273
12.41438 541.065957584571
12.4345 486
12.45461 488.980854632754
12.47472 420.97179652888
12.49484 437.998173830568
12.51495 401.068913161652
12.53506 403.98033219414
12.55518 396.026676961892
12.57529 357.021657169736
12.5954 326
12.61552 332.004698310159
12.63563 315.940380567108
12.65575 278.990138414904
12.67586 312.907275900799
12.69597 328.053162562269
12.71609 268.019258638221
12.7362 267
12.75631 279.020888640665
12.77643 319.975472510162
12.79654 259.93291211087
12.81666 272.979489323955
12.83677 254.037891218321
12.85688 249.977894446759
12.877 283
12.89711 276.982707224196
12.91722 245.001659442968
12.93734 272.026318578454
12.95745 253.075626282735
12.97757 239.981397606817
12.99768 257.007584864778
13.01779 231.00439537105
13.03791 241.998948949766
13.05802 226.00220637779
13.07813 253.039374932542
13.09825 262.000378058475
13.11836 265.976343057333
13.13847 267.048826310421
13.15859 219.010822093011
13.1787 233
13.19882 240.0139813986
13.21893 260.010706099627
13.23904 248.968377068355
13.25916 230.066268086412
13.27927 201.987516166704
13.29938 237.976573793538
13.3195 234
13.33961 243.008570470274
13.35973 251.987290926447
13.37984 242.027406856084
13.39995 261.048620552557
13.42007 219.006735892494
13.44018 253.983784539943
13.46029 224.022646824008
13.48041 202.004900584103
13.50052 225.009105652178
13.52064 220.014886330731
13.54075 249.082497563588
13.56086 265.01057168585
13.58098 249.012068337337
13.60109 241.00904676853
13.6212 223
13.64132 243.999561290057
13.66143 220.983150320224
13.68154 235.037381233456
13.70166 245.978118474005
13.72177 251.022288896157
13.74189 224.008502627926
13.762 228
13.78211 240.003952117203
13.80223 244.002882303922
13.82234 238.962760222221
13.84245 215.034444119215
13.86257 215.99209126029
13.88268 220.989439006529
13.9028 239
13.92291 248.994289467179
13.94302 220.970800057009
13.96314 210.023792481448
13.98325 230.971701049704
14.00336 224.031006975077
14.02348 217.988077438392
14.04359 225.014637492458
14.06371 185.003414862801
14.08382 237.03794477054
14.10393 228.95876235738
14.12405 219.045891523057
14.14416 238.037991515195
14.16427 194.025612430113
14.18439 218.984860506804
14.2045 235
14.22461 246.990060806328
14.24473 205.961926130975
14.26484 215.052331691507
14.28496 231.009504399125
14.30507 206.051254244021
14.32518 183.998849431964
14.3453 211
14.36541 252.01218184512
14.38552 246.965564690951
14.40564 209.975950927793
14.42575 223.965352014451
14.44587 215.042656754946
14.46598 196.980607073457
14.48609 238.988846313028
14.50621 225.989005740198
14.52632 222.014984715235
14.54643 234.983401738258
14.56655 204.945911659541
14.58666 206.971799728367
14.60677 217.993831375605
14.62689 219.995844693453
14.647 230
14.66712 213.979968187258
14.68723 212.042045610026
14.70734 243.995149669067
14.72746 217.0065981841
14.74757 242.980855790357
14.76768 223.029665846429
14.7878 219
14.80791 254.993984584376
14.82803 201.944502683014
14.84814 211.058100215588
14.86825 223.04126193324
14.88837 197.007336495691
14.90848 211.996931826061
14.92859 196.005142631301
14.94871 202.004099701794
14.96882 208.013286820789
14.98894 218.978759730936
15.00905 190.945534722627
15.02916 186.995247077456
15.04928 189.99056965181
15.06939 206.990216927911
15.0895 216
15.10962 203.008904377827
15.12973 226.006649635156
15.14984 216.024056292806
15.16996 236.045417572489
15.19007 180.043033974357
15.21019 203.979191578862
15.2303 223
15.25041 195.986291584131
15.27053 185.00871222009
15.29064 205.062351938253
15.31075 228.005848972379
15.33087 201.050833365613
15.35098 187.981507542305
15.3711 218
15.39121 206.998134540929
15.41132 218.004484795161
15.43144 203.953488628585
15.45155 193.957710005921
15.47166 225.957435199361
15.49178 223.015291282417
15.51189 211.002412693965
15.53201 203.988920574216
15.55212 187.0218291753
15.57223 226.000971658182
15.59235 192.983046462471
15.61246 223.959100938727
15.63257 217.005249337712
15.65269 224.00326095843
15.6728 204
15.69291 207.997773134278
15.71303 195.000204771036
15.73314 209.014058210412
15.75326 207.979048292907
15.77337 222.015272165606
15.79348 195.00836219771
15.8136 205
15.83371 174.988817979589
15.85382 180.022163455749
15.87394 212.088468699814
15.89405 239.0578117435
15.91417 183.057545837332
15.93428 183.987779123171
15.95439 196.98438992404
15.97451 234.006035118439
15.99462 213.971131830736
16.01473 197.993976608087
16.03485 213.105278700656
16.05496 248.030638992268
16.07508 200.019881578147
16.09519 215.001896315796
16.1153 188
16.13542 219.01856434754
16.15553 199.943078999524
16.17564 180.033716023478
16.19576 214.969897738481
16.21587 205.999627306591
16.23598 218.007179675694
16.2561 194
16.27621 203.997137407347
16.29633 192.036248898061
16.31644 230.979755696584
16.33655 181.040637096597
16.35667 217.945391670223
16.37678 211.039735786316
16.39689 192.975987557306
16.41701 253.987853399724
16.43712 170.983247226055
16.45724 235.069956683046
16.47735 204.944063033403
16.49746 218.986449812869
16.51758 204.007605533632
16.53769 214.994164368514
16.5578 208
16.57792 184.004418256284
16.59803 213.036834348811
16.61814 214.979492997791
16.63826 206.008749690833
16.65837 203.011917244517
16.67849 193.999812153657
16.6986 200
16.71871 196.007873325988
16.73883 214.976447863129
16.75894 173.962227855944
16.77905 194.921556931341
16.79917 206.016719629584
16.81928 191.995597363437
16.8394 212
16.85951 209.000508039378
16.87962 214.993580889262
16.89974 195.971581614378
16.91985 198.961333639462
16.93996 211.005737026357
16.96008 202.991900388642
16.98019 218.004351781699
17.00031 189.994002275058
17.02042 205.017986724981
17.04053 214.017481600524
17.06065 217.935345734217
17.08076 186.977515745315
17.10087 223.005940743625
17.12099 178.010931657856
17.1411 200
17.16121 204.004242368309
17.18133 223.017994850077
17.20144 215.95840446825
17.22156 196.018417599662
17.24167 196.002746566941
17.26178 191.995389965902
17.2819 193
17.30201 168.013133891388
17.32212 233.04006873096
17.34224 221.948793613727
17.36235 210.015380094203
17.38247 205.99600207364
17.40258 210.004551619086
17.42269 195.008620458126
17.44281 191.008409924582
17.46292 215.009681275827
17.48303 203.974721109475
17.50315 191.972706930444
17.52326 194.932965967519
17.54338 232.003855489043
17.56349 191.014910711655
17.5836 201
17.60372 217.988061354321
17.62383 200.021191766619
17.64394 236.018767612975
17.66406 203.084765335535
17.68417 184.987791537641
17.70428 204.984393707667
17.7244 215
17.74451 230.992943588353
17.76463 200.993427945011
17.78474 226.033983989333
17.80485 219.02457910366
17.82497 220.988997774725
17.84508 220.016538584872
17.86519 202.997420814947
17.88531 220.99939945901
17.90542 194.975669511681
17.92554 196.048044251572
17.94565 221.014873969208
17.96576 215.976566598588
17.98588 242.987255216093
18.00599 225.017871545266
18.0261 208
18.04622 257.027991225512
18.06633 239.936233529258
18.08645 210.004446000307
18.10656 232.971045160521
18.12667 222.035953379724
18.14679 211.990615388587
18.1669 232
18.18701 187.997493778288
18.20713 228.044330419285
18.22724 220.970014117383
18.24735 215.020752759113
18.26747 204.003570927126
18.28758 209.997171054529
18.3077 203
18.32781 204.013430363882
18.34792 232.994006917078
18.36804 199.97005994245
18.38815 214.969693413472
18.40826 203.048970600978
18.42838 190.985765934131
18.44849 213.999872361627
18.46861 193.996895638033
18.48872 214.024684434154
18.50883 229.017868009469
18.52895 241.020630008471
18.54906 234.059723168265
18.56917 192.052404312441
18.58929 182.991368826134
18.6094 208
18.62951 211.006046446402
18.64963 223.978711867069
18.66974 192.9814987294
18.68986 209.981340261667
18.70997 209.966121285846
18.73008 237.019223849283
18.7502 183
18.77031 202.009379244902
18.79042 210.031515405495
18.81054 249.996981668219
18.83065 208.077979849702
18.85077 213.971546808563
18.87088 227.985074523935
18.89099 235.007988380185
18.91111 206.993191789861
18.93122 209.995884068664
18.95133 195.995784579342
18.97145 203.993821227245
18.99156 186.034061859786
19.01168 184.985997935572
19.03179 211.98073008728
19.0519 247
19.07202 238.974528276957
19.09213 211.970771744397
19.11224 197.962161920873
19.13236 188.947009444378
19.15247 233.969367195268
19.17258 221.012415344355
19.1927 223
19.21281 212.000030942451
19.23293 230.036497619522
19.25304 246.008115960408
19.27315 233.078548167314
19.29327 202.014287719644
19.31338 218.972467416726
19.33349 233.004047556959
19.35361 219.002467639795
19.37372 237.000348255833
19.39384 220.999132131067
19.41395 233.981563181341
19.43406 210.005674858513
19.45418 227.999084039561
19.47429 212.995900145672
19.4944 244
19.51452 228.983647351779
19.53463 235.037040307166
19.55475 263.047838982904
19.57486 265.023544782571
19.59497 254.994023126451
19.61509 277.982748700536
19.6352 291
19.65531 241.998202115681
19.67543 285.0467349644
19.69554 288.032055433044
19.71565 328.910966473433
19.73577 348.965127764816
19.75588 378.979374898513
19.776 391
19.79611 416.005533813663
19.81622 434.06441713699
19.83634 522.095608081266
19.85645 507.094406651438
19.87656 498.931171100014
19.89668 540.998795877043
19.91679 512.998621056421
19.93691 551.008742977747
19.95702 514.933064328467
19.97713 454.945513298582
19.99725 445.00876449598
20.01736 437.062362497623
20.03747 409.97473822335
20.05759 458.985451772275
20.0777 451
20.09782 453.999278716427
20.11793 451.020513129498
20.13804 484.071471845386
20.15816 487.098092870932
20.17827 430.996701555843
20.19838 488.954290881577
20.2185 485
20.23861 469.996244924969
20.25872 474.020947398253
20.27884 484.936880449388
20.29895 441.97520899737
20.31907 495.962811495996
20.33918 466.037165608882
20.35929 457.994786834651
20.37941 481.020096275484
20.39952 513.995941932723
20.41963 479.959299281149
20.43975 487.080570083426
20.45986 521.953454652536
20.47998 517.03613426091
20.50009 485.993027054001
20.5202 549
20.54032 578.960575003233
20.56043 515.974885207463
20.58054 560.10036014006
20.60066 595.8915529272
20.62077 655.971736256399
20.64088 648.971063424549
20.661 731
20.68111 816.056685173759
20.70123 996.373143871837
20.72134 1300.67370726871
20.74145 1702.72238746186
20.76157 2365.80431766482
20.78168 3296.94260794025
20.80179 4503.32419262456
20.82191 5898.64839141131
20.84202 6937.72307510507
20.86214 7235.60459269197
20.88225 6505.96040899615
20.90236 5030.02954922332
20.92248 3626.31376278322
20.94259 2402.53329070596
20.9627 1537
20.98282 1047.63755564915
21.00293 767.711862432367
21.02305 675.045727991753
21.04316 709.113143086924
21.06327 591.064024736051
21.08339 636.994204753379
21.1035 568
21.12361 545.001606621667
21.14373 539.963795132472
21.16384 507.965561408963
21.18395 500.065231741264
21.20407 451.072264623996
21.22418 436.969344344198
21.2443 478
21.26441 446.987790033999
21.28452 444.993343073537
21.30464 433.018498966073
21.32475 457.979185964187
21.34486 434.07920569769
21.36498 417.969271128615
21.38509 457.007438619823
21.40521 410.002563627
21.42532 460.003514269614
21.44543 389.881076069836
21.46555 365.075894876147
21.48566 408.971168426269
21.50577 386.03852097399
21.52589 380.99766053809
21.546 383
21.56612 377.994507506071
21.58623 373.995721636182
21.60634 376.021927149625
21.62646 386.010462071357
21.64657 373.994152743936
21.66668 379.031355005125
21.6868 335
21.70691 378.003514002905
21.72702 340.984327110018
21.74714 373.081936175248
21.76725 390.997965994091
21.78737 372.071132832889
21.80748 311.049716616572
21.82759 298.985863833497
21.84771 340.011525262924
21.86782 336.992859362913
21.88793 334.985905364404
21.90805 332.074615763058
21.92816 371.999387604426
21.94828 328.043237744219
21.96839 325.982344408408
21.9885 360
22.00862 326.978092796859
22.02873 334.019190996773
22.04884 335.995099466573
22.06896 334.005956757471
22.08907 341.951612027846
22.10919 370.009384877783
22.1293 317
22.14941 329.011579621343
22.16953 335.993570894011
22.18964 328.98789200368
22.20975 328.98103011629
22.22987 330.031938456329
22.24998 306.987957022476
22.27009 345.989657433459
22.29021 331.989954297775
22.31032 324.997064456635
22.33044 318.986041046254
22.35055 310.97263277166
22.37066 301.999801084612
22.39078 312.983408189394
22.41089 328.992950955764
22.431 329
22.45112 302.006243852973
22.47123 325.987150233029
22.49135 289.979956606626
22.51146 325.919082159279
22.53157 340.007160300849
22.55169 322.016581448587
22.5718 291
22.59191 303.005807257129
22.61203 306.010639665444
22.63214 313.985753874995
22.65225 293.043038422267
22.67237 294.970914919065
22.69248 309.012681625753
22.7126 289
22.73271 330.010505529582
22.75282 313.976879429275
22.77294 309.01771973526
22.79305 313.038073532251
22.81316 287.027116173306
22.83328 283.020246167539
22.85339 259.992997468014
22.87351 307.017865125554
22.89362 302.97127551977
22.91373 275.979902636895
22.93385 283.05695823253
22.95396 303.988628882931
22.97407 301.983586628864
22.99419 311.014333393141
23.0143 261
23.03442 298.064166348355
23.05453 335.978495925224
23.07464 284.90799762464
23.09476 277.949439019941
23.11487 299.019673122433
23.13498 272.987503034534
23.1551 317
23.17521 288.984401542909
23.19532 284.00976080487
23.21544 300.050089989422
23.23555 311.07325731577
23.25567 268.004955115319
23.27578 303.978698651615
23.29589 289.009548108778
23.31601 282.996200604773
23.33612 271.998721249296
23.35623 277.996753021611
23.37635 266.987363653287
23.39646 277.955452732717
23.41658 294.003542387904
23.43669 276.006984486171
23.4568 275
23.47692 268.98228742771
23.49703 260.035112784439
23.51714 295.003710481737
23.53726 263.043308837354
23.55737 276.953211351287
23.57749 292.008312980592
23.5976 268
23.61771 300.003165649356
23.63783 277.993898685686
23.65794 306.056260284957
23.67805 315.987966134666
23.69817 313.040019685533
23.71828 273.026275860823
23.73839 282.978941842308
23.75851 317.99600199917
23.77862 290.010689779684
23.79874 337.044260672234
23.81885 335.086946633007
23.83896 386.030248935806
23.85908 302.072951663985
23.87919 293.98388373218
23.8993 334
23.91942 355.995102754421
23.93953 333.970079611783
23.95965 344.122680438358
23.97976 395.983180487704
23.99987 365.030749069183
24.01999 374.994632910324
24.0401 360
24.06021 330.002280627375
24.08033 349.983960379585
24.10044 294.866697561811
24.12056 262.964222747076
24.14067 301.975381319268
24.16078 289.005705202659
24.1809 301
24.20101 287.994649083313
24.22112 295.021602459992
24.24124 320.039688513675
24.26135 323.043526569102
24.28146 296.043669067281
24.30158 296.972988273404
24.32169 320.007345330147
24.34181 278.989081806187
24.36192 296.030545509631
24.38203 308.983722125327
24.40215 299.054456455262
24.42226 334.003468305678
24.44237 299.022592652812
24.46249 312.001961360503
24.4826 289
24.50272 315.009185774059
24.52283 311.041842839512
24.54294 359.021580924227
24.56306 333.010638264367
24.58317 352.01547727282
24.60328 313.012849954151
24.6234 358
24.64351 408.990777462546
24.66362 362.006203964317
24.68374 418.041473555713
24.70385 395.969573471828
24.72397 459.91660850184
24.74408 468.019486885026
24.76419 458.990262357297
24.78431 485.997598530405
24.80442 467.023551800988
24.82453 532.07223526862
24.84465 546.04852559788
24.86476 575.989334864641
24.88488 550.028980565261
24.90499 546.987986524212
24.9251 571
24.94522 529.943302539235
24.96533 487.975431745867
24.98544 483.970098619678
25.00556 459.02028445867
25.02567 459.028275960309
25.04579 417.019816864556
25.0659 396
25.08601 402.018747227377
25.10613 428.938639471907
25.12624 351.952882536607
25.14635 401.864499622727
25.16647 416.003524270999
25.18658 416.99990719517
25.20669 425.984090045838
25.22681 455.994468752839
25.24692 415.982475071961
25.26704 429.001415503632
25.28715 402.938996057629
25.30726 392.026625394021
25.32738 376.999701002536
25.34749 380.011883653299
25.3676 342
25.38772 365.017485965634
25.40783 351.954032480805
25.42795 323.956697230138
25.44806 322.97312909787
25.46817 339.9829224326
25.48829 353.983197299302
25.5084 380
25.52851 324.992842085751
25.54863 360.036193322458
25.56874 344.954364830092
25.58886 340.979142092442
25.60897 354.983436599582
25.62908 370.965043121197
25.6492 402
25.66931 365.996442248852
25.68942 403.04226802657
25.70954 432.070037999332
25.72965 456.060589528008
25.74976 410.007680191454
25.76988 460.946059588518
25.78999 478.004473931621
25.81011 461.992458799408
25.83022 463.024556680774
25.85033 490.000724985325
25.87045 466.963129030375
25.89056 472.984353349798
25.91067 470.011298267836
25.93079 469.99331781773
25.9509 485
25.97102 479.01830426735
25.99113 506.990610596206
26.01124 472.977114399689
26.03136 509.878921390192
26.05147 562.943639596936
26.07158 574.019618990309
26.0917 550
26.11181 577.009758968537
26.13193 603.116905015222
26.15204 691.018532805507
26.17215 650.929833487455
26.19227 743.945569980975
26.21238 732.928051636422
26.23249 879.959296248168
26.25261 871.007312055783
26.27272 949.066355876188
26.29283 979.063240074851
26.31295 1056.21160100334
26.33306 1140.79693170388
26.35318 1254.89811904251
26.37329 1366.91720555023
26.3934 1589
26.41352 1829.2830817999
26.43363 2224.79672962852
26.45374 2888.50339045071
26.47386 3758.92566886089
26.49397 5185.06932582216
26.51409 7636.64187967072
26.5342 10717
26.55431 15205.563924443
26.57443 20776.7124779036
26.59454 26535.871894739
26.61465 31097.8930663904
26.63477 32366.5460058371
26.65488 29285.5472915912
26.67499 23999.8757910743
26.69511 18286.3717700068
26.71522 13515.5044607183
26.73534 9031.26054769237
26.75545 5104.19945944345
26.77556 2932.70296517656
26.79568 2075.50666625636
26.81579 1693.1582233611
26.8359 1429
26.85602 1358.9437532742
26.87613 1259.81453392322
26.89625 1132.69027155542
26.91636 1019.19703512812
26.93647 939.089285441571
26.95659 873.049670437208
26.9767 759
26.99681 734.002897140483
27.01693 726.942360865396
27.03704 660.859480302646
27.05716 619.004842002924
27.07727 623.049290702428
27.09738 549.074750647827
27.1175 511
27.13761 513.990102104933
27.15772 474.974162369333
27.17784 481.049607091149
27.19795 498.0120537388
27.21806 468.088759008488
27.23818 433.011606189957
27.25829 431.009879891649
27.27841 408.008055925869
27.29852 463.050972581624
27.31863 476.978694628603
27.33875 453.947115825338
27.35886 449.96348370573
27.37897 483.943460256092
27.39909 490.02479789144
27.4192 433
27.43932 499.041913245065
27.45943 477.936503506584
27.47954 450.968311212398
27.49966 445.979458801176
27.51977 458.006394308664
27.53988 433.031866790716
27.56 415
27.58011 416.985241110124
27.60023 367.961526475823
27.62034 373.002106172526
27.64045 361.991074468975
27.66057 375.014099921606
27.68068 343.022506723602
27.70079 341.999577296841
27.72091 337.000609119491
27.74102 352.024182161242
27.76113 363.973913703809
27.78125 325.918938523323
27.80136 330.903009791695
27.82148 383.988479621436
27.84159 343.029258824833
27.8617 313
27.88182 334.991906904739
27.90193 304.996490956044
27.92204 326.987593805874
27.94216 303.951674517415
27.96227 364.965494432326
27.98239 333.014595853442
28.0025 332
28.02261 308.988157581817
28.04273 303.019397601983
28.06284 324.033659407741
28.08295 320.073471623939
28.10307 290.001018586645
28.12318 308.003930789577
28.1433 285
28.16341 312.00467791278
28.18352 293.987724079715
28.20364 300.008012374495
28.22375 303.05770291532
28.24386 319.078972299742
28.26398 257.002416721731
28.28409 313.983037430044
28.3042 295
28.32432 299.000451463945
28.34443 284.982046674566
28.36455 281.991831429796
28.38466 270.039133837385
28.40477 266.944742433656
28.42489 308.00733028296
28.445 254
28.46511 293.018691937981
28.48523 290.966492834721
28.50534 283.044343947414
28.52546 309.025417545255
28.54557 269.019951956424
28.56568 290.988080701
28.5858 277
28.60591 287.008887658207
28.62602 291.984032261179
28.64614 267.978659026123
28.66625 280.935775537434
28.68636 289.05884521409
28.70648 247.009118848214
28.72659 275.986541297972
28.74671 277.996998415305
28.76682 274.994140011017
28.78693 261.972468952293
28.80705 253.034155325343
28.82716 281.953596492623
28.84727 281.034678836598
28.86739 258.999615590755
28.8875 273
28.90762 246.978997010163
28.92773 249.02459851138
28.94784 268.036302963446
28.96796 279.993253991782
28.98807 269.043169647442
29.00818 244.992639625054
29.0283 273
29.04841 254.989059460125
29.06853 246.998309037325
29.08864 248.011034816812
29.10875 258.963173808683
29.12887 271.989414356388
29.14898 272.004097868024
29.16909 267.002785666363
29.18921 255.989308044347
29.20932 243.019490526352
29.22943 280.022784464686
29.24955 258.918095548819
29.26966 245.971080762111
29.28978 269.99208027824
29.30989 254.011084035341
29.33 247
29.35012 271.024440259499
29.37023 281.991796596942
29.39034 264.958815372999
29.41046 250.014993599326
29.43057 257.955232892047
29.45069 289.996320604241
29.4708 268
29.49091 256.004333220654
29.51103 273.014464652017
29.53114 264.958976448308
29.55125 257.931155192345
29.57137 295.000224483457
29.59148 260.020672361564
29.6116 269
29.63171 254.992644670709
29.65182 252.003030455827
29.67194 249.975284453592
29.69205 241.033859109296
29.71216 264.000164277372
29.73228 244.004383838233
29.75239 259.99719768941
29.7725 249
29.79262 259.003719020692
29.81273 256.013563598147
29.83285 257.892698414215
29.85296 202.990753048278
29.87307 257.962780956644
29.89319 231.00996333962
29.9133 240
29.93341 228.003088768886
29.95353 244.983526897828
29.97364 217.009412577737
29.99376 258.932845813951
30.01387 256.03433838903
30.03398 246.977751702737
30.0541 278
30.07421 246.990099570327
30.09432 254.008259043124
30.11444 247.979381436635
30.13455 246.969879220217
30.15467 263.985227695406
30.17478 266.991685270469
30.19489 278.999180155495
30.21501 267.994073858657
30.23512 260.992064751793
30.25523 247.975801936849
30.27535 242.039536411143
30.29546 259.028506780102
30.31557 225.014443955684
30.33569 244.994638460365
30.3558 235
30.37592 248.011912071793
30.39603 250.000725506837
30.41614 250.990214107032
30.43626 245.985705181993
30.45637 257.008629987758
30.47648 232.025768329367
30.4966 228
30.51671 249.995233315165
30.53683 219.987966486378
30.55694 241.030051977508
30.57705 234.025627532526
30.59717 236.979043164253
30.61728 252.988996482441
30.63739 247.01404359822
30.65751 218.999973147432
30.67762 244.019434855713
30.69773 241.986300319739
30.71785 235.983030693822
30.73796 233.975254864494
30.75808 250.99794577303
30.77819 244.99384347491
30.7983 266
30.81842 221.945363216225
30.83853 194.015513035449
30.85864 224.038938794342
30.87876 224.991585060911
30.89887 242.969607506707
30.91899 251.00381443894
30.9391 232
30.95921 210.989178815222
30.97933 197.00699067057
30.99944 215.03015414169
31.01955 222.968819616665
31.03967 238.990290620008
31.05978 225.032284424665
31.0799 199
31.10001 229.015393755953
31.12012 246.013746686079
31.14024 245.929755710029
31.16035 201.018225281992
31.18046 229.966445331979
31.20058 215.017783282189
31.22069 218.989234925121
31.2408 230
31.26092 192.9953825927
31.28103 219.014191812955
31.30115 203.998599990631
31.32126 226.966881571541
31.34137 219.031500089719
31.36149 213.98565469214
31.3816 249
31.40171 203.979348083946
31.42183 204.053002044347
31.44194 239.00904302181
31.46206 212.058655719216
31.48217 206.973841392504
31.50228 218.022632432993
31.5224 183
31.54251 224.016968867976
31.56262 221.978899851269
31.58274 218.065256399414
31.60285 251.057232418498
31.62297 189.04141114793
31.64308 213.977430077097
31.66319 202.011902168647
31.68331 196.009483686197
31.70342 225.016615785032
31.72353 220.983628743869
31.74365 225.067811388264
31.76376 248.034025580765
31.78387 200.05073919073
31.80399 202.991103843466
31.8241 214
31.84422 219.012488205971
31.86433 235.012583256355
31.88444 229.97337989729
31.90456 213.041196754162
31.92467 196.008341156348
31.94478 203.984132383925
31.9649 223
31.98501 236.996010874325
32.00513 213.973548710299
32.02524 211.002047404293
32.04535 209.995965118736
32.06547 209.020175943715
32.08558 192.001461615408
32.10569 208.990399793482
32.12581 214.996651933386
32.14592 209.007593117903
32.16604 224.006454485432
32.18615 213.985648639292
32.20626 217.996321620319
32.22638 214.001590766828
32.24649 222.990285138608
32.2666 241
32.28672 231.989690905369
32.30683 227.997047666169
32.32694 226.000554782916
32.34706 224.022021333437
32.36717 214.983562083628
32.38729 237.995603607083
32.4074 236
32.42751 264.001243895149
32.44763 243.995965821324
32.46774 263.010992316044
32.48785 253.973757537661
32.50797 282.981898847921
32.52808 272.004892827979
32.5482 288
32.56831 290.986042444019
32.58842 267.026618735278
32.60854 312.974411359584
32.62865 247.086896578865
32.64876 274.922764815006
32.66888 275.036053805437
32.68899 238.002333627846
32.7091 254
32.72922 223.995154154129
32.74933 239.978724962916
32.76945 205.011747342947
32.78956 250.94386633024
32.80967 242.010180982284
32.82979 247.006464817683
32.8499 211
32.87001 207.014781233392
32.89013 238.998956228595
32.91024 210.969766872389
32.93036 220.985201965224
32.95047 214.008255924908
32.97058 219.988411317516
32.9907 227
33.01081 223.002828123105
33.03092 235.003344141072
33.05104 224.973736814886
33.07115 221.974057664342
33.09127 239.975412386533
33.11138 244.010234379297
33.13149 228.005601482119
33.15161 220.993183349042
33.17172 210.012005288009
33.19183 225.970884108776
33.21195 185.984528257644
33.23206 212.989134391122
33.25217 191.001017615447
33.27229 218.992523833583
33.2924 205
33.31252 208.021599323316
33.33263 224.985953994857
33.35274 196.965663911379
33.37286 202.975312458409
33.39297 207.999022165851
33.41308 208.997016126201
33.4332 206
33.45331 184.999836282885
33.47343 204.020928996136
33.49354 199.978298856067
33.51365 196.978674637238
33.53377 210.985653195559
33.55388 213.996003829467
33.57399 216.005312699109
33.59411 205.005850047541
33.61422 226.996702878527
33.63434 191.925033210134
33.65445 182.047815162043
33.67456 208.976790816086
33.69468 203.003091728135
33.71479 208.001114454265
33.7349 198
33.75502 200.992904588379
33.77513 182.979641442023
33.79524 177.985585064951
33.81536 174.963041002622
33.83547 204.979218132331
33.85559 194.008502780746
33.8757 193
33.89581 209.995595019756
33.91593 181.975972816394
33.93604 190.02676866132
33.95615 189.041357520419
33.97627 165.03267695686
33.99638 163.971011532155
34.0165 206
34.03661 206.993574423095
34.05672 196.996502222002
34.07684 196.99402422342
34.09695 183.06529809251
34.11706 165.969851865184
34.13718 203.971851918466
34.15729 207.002612381167
34.17741 202.994891779656
34.19752 190.998319835052
34.21763 199.007582968878
34.23775 193.975864890017
34.25786 194.956947975502
34.27797 223.980414808551
34.29809 217.003959227396
34.3182 213
34.33831 196.001014768829
34.35843 214.013641588563
34.37854 210.006518665612
34.39866 221.996677456728
34.41877 209.01942102653
34.43888 206.994680636543
34.459 212
34.47911 219.01408043054
34.49922 250.000208728364
34.51934 209.887834787894
34.53945 185.917029889026
34.55957 246.949204391742
34.57968 237.016153722626
34.59979 235.002531588227
34.61991 223.99881055709
34.64002 238.023592740575
34.66013 255.000794655145
34.68025 248.010149623246
34.70036 264.974043193444
34.72047 266.003550473432
34.74059 266.998765251848
34.7607 271
34.78082 280.006701136082
34.80093 286.015832337656
34.82104 303.039575284938
34.84116 310.03616121916
34.86127 293.961668586617
34.88138 344.979981803763
34.9015 328
34.92161 352.008292067372
34.94173 346.991353643986
34.96184 336.923381019155
34.98195 300.945460249838
35.00207 369.925674248281
35.02218 362.037698352862
35.04229 327.013493229785
35.06241 315.002665992661
35.08252 320.98774364044
35.10264 302.009714508409
35.12275 330.049973638851
35.14286 326.026419583582
35.16298 316.008993285111
35.18309 309.999294880896
35.2032 317
35.22332 326.021105151112
35.24343 339.966865332486
35.26354 299.978857434521
35.28366 328.93738359605
35.30377 328.046819790693
35.32389 295.003868461001
35.344 320
35.36411 334.987103841885
35.38423 287.954086863901
35.40434 295.058251805549
35.42445 326.924592065412
35.44457 348.983494318281
35.46468 350.005423929771
35.4848 334
35.50491 309.009644189308
35.52502 350.004724586886
35.54514 322.000926930487
35.56525 348.031269936872
35.58536 293.073710961504
35.60548 302.974749339424
35.62559 314.000773202654
35.64571 307.997950832712
35.66582 311.009010985603
35.68593 308.95649889389
35.70605 286.080931292635
35.72616 356.915233408818
35.74627 347.03056195564
35.76639 332.017744424967
35.7865 283
35.80661 285.004940732539
35.82673 291.019531221095
35.84684 317.067325543361
35.86696 331.056626106049
35.88707 303.939138096952
35.90718 378.991206243776
35.9273 316
35.94741 326.996989574873
35.96752 292.994811993377
35.98764 323.030000641338
36.00775 312.988016868787
36.02787 330.020129179796
36.04798 293.010592822138
36.06809 311.999051090294
36.08821 297.007515409345
36.10832 331.997771187225
36.12843 296.99052451818
36.14855 332.069500648216
36.16866 325.042700863407
36.18878 316.98725363244
36.20889 336.996960256063
36.229 328
36.24912 342.025617207716
36.26923 352.964427234931
36.28934 327.048702134909
36.30946 407.820819449279
36.32957 459.979783712505
36.34968 473.946258337236
36.3698 580
36.38991 702.054369096661
36.41003 828.263894713776
36.43014 1066.54926565707
36.45025 1346.32286341695
36.47037 1638.4776688484
36.49048 2002.70590587697
36.51059 2214.90238252341
36.53071 2352.98482557201
36.55082 2112.62103464599
36.57094 1721.32485958442
36.59105 1462.4745248632
36.61116 1258.40680140372
36.63128 1068.15228012695
36.65139 914.107251899427
36.6715 657
36.69162 509.874114282866
36.71173 385.86643547314
36.73184 351.01571436026
36.75196 350.098936574828
36.77207 289.987929243811
36.79219 342.003608201686
36.8123 272
36.83241 302.0095444232
36.85253 275.952414532258
36.87264 274.048851085494
36.89275 293.038100071083
36.91287 263.99005087582
36.93298 300.987681399982
36.9531 275
36.97321 277.003820969773
36.99332 268.974357802088
37.01344 249.022744205553
37.03355 272.02721603314
37.05366 234.025185784766
37.07378 251.001782140316
37.09389 227.000547841905
37.11401 259.014979566187
37.13412 259.979646466104
37.15423 236.978610217187
37.17435 232.992197202844
37.19446 230.98238011042
37.21457 244.994468064388
37.23469 235.005757190799
37.2548 235
37.27491 242.992612301808
37.29503 213.975784457704
37.31514 218.009803606281
37.33526 221.959408676917
37.35537 250.98156528959
37.37548 238.021519448826
37.3956 231
37.41571 251.001915439274
37.43582 235.985428889389
37.45594 233.001545266313
37.47605 230.015926906747
37.49617 227.985288424515
37.51628 250.97028151709
37.53639 269.00315328655
37.55651 248.994813098783
37.57662 248.988149552497
37.59673 236.028420482462
37.61685 268.989747044668
37.63696 236.999207845083
37.65708 272.985482776773
37.67719 247.014252003161
37.6973 253
37.71742 293.006513525872
37.73753 268.972549367338
37.75764 265.972398687176
37.77776 244.995961460588
37.79787 270.968829823084
37.81798 269.013399565817
37.8381 270
37.85821 305.000644813557
37.87833 273.965237591275
37.89844 268.968229737319
37.91855 243.014026026537
37.93867 272.924528214142
37.95878 306.007682951022
37.97889 263.024599787238
37.99901 244.009724402468
38.01912 275.007248276258
38.03924 249.938599248969
38.05935 252.117858753692
38.07946 302.999773641376
38.09958 268.000239964395
38.11969 309.989211919195
38.1398 294
38.15992 310.012002004389
38.18003 305.994152339637
38.20015 309.001605810678
38.22026 304.009225611431
38.24037 309.968812037982
38.26049 340.984114964786
38.2806 353
38.30071 328.003784085571
38.32083 354.992860906896
38.34094 328.022416060479
38.36105 374.951684218636
38.38117 335.101514446967
38.40128 312.933621337635
38.4214 415
38.44151 366.966471505102
38.46162 330.977133346253
38.48174 333.114407776021
38.50185 395.037952992173
38.52196 316.094881726734
38.54208 326.99857272374
38.56219 308.989577277296
38.58231 361.008258651298
38.60242 322.95466592532
38.62253 310.019071152342
38.64265 328.023749128875
38.66276 312.089047515891
38.68287 275.979728794354
38.70299 317.99602453829
38.7231 286
38.74321 296.995510179597
38.76333 270.005330469498
38.78344 304.031930203968
38.80356 285.04498166971
38.82367 282.982944370114
38.84378 291.005149959403
38.8639 283
38.88401 292.986931528561
38.90412 254.008631770482
38.92424 299.019401101354
38.94435 271.984417175507
38.96447 313.9850438435
38.98458 276.033894022247
39.00469 281.984997110797
39.02481 313.012119981862
39.04492 326.00433976987
39.06503 325.995761980015
39.08515 320.980032767618
39.10526 318.972329682618
39.12538 335.005574087092
39.14549 323.988260913858
39.1656 372
39.18572 351.972067414001
39.20583 346.018354320251
39.22594 380.125506162496
39.24606 444.936849006892
39.26617 454.948951322261
39.28628 537.890382137853
39.3064 639
39.32651 747.103924387148
39.34663 1025.36653994647
39.36674 1216.42841257258
39.38685 1490.2850523202
39.40697 1775.53540529226
39.42708 2046.8652182686
39.44719 2038.03297417903
39.46731 1958.93322344594
39.48742 1731.68643761937
39.50754 1393.40210217642
39.52765 1203.83566877647
39.54776 1175.18047669569
39.56788 998.187060155841
39.58799 818.113538063723
39.6081 551
39.62822 397.928752604081
39.64833 362.94428113741
39.66845 318.959985655244
39.68856 327.012125284169
39.70867 293.055795023811
39.72879 278.994234902435
39.7489 289
39.76901 248.991369428249
39.78913 252.973846741214
39.80924 224.024424710339
39.82935 269.952375912481
39.84947 245.038778314719
39.86958 241.999242469751
39.8897 246
39.90981 273.995759954448
39.92992 233.972200121149
39.95004 244.060631696393
39.97015 272.943460583969
39.99026 281.021312329126
40.01038 262.012640670403
40.03049 279.970914302931
40.05061 339.004818295884
40.07072 308.989706512799
40.09083 341.056588283303
40.11095 376.148543323147
40.13106 454.871915778677
40.15117 511.865933414365
40.17129 638.936311077368
40.1914 729
40.21152 799.155068419045
40.23163 1007.24168875809
40.25174 1079.07115546556
40.27186 1115.95741814823
40.29197 1079.18149079886
40.31208 895.196328812535
40.3322 756
40.35231 741.985462199289
40.37242 663.899376628496
40.39254 582.914049568259
40.41265 542.226570753792
40.43277 403.196041920277
40.45288 323.040471658256
40.47299 300.007541453008
40.49311 284.993674658594
40.51322 269.976127591173
40.53333 242.974110637595
40.55345 246.053566770406
40.57356 273.95236124191
40.59368 274.033409959623
40.61379 228.013658920078
40.6339 225
40.65402 216.006077438464
40.67413 233.004945628366
40.69424 219.985073811853
40.71436 226.982824814423
40.73447 221.035830256971
40.75458 204.978628654183
40.7747 242
40.79481 217.005506880545
40.81493 255.995364010221
40.83504 206.942103824819
40.85515 229.897358392107
40.87527 249.014920998176
40.89538 219.033863936695
40.91549 208.987008806626
40.93561 244.002209676082
40.95572 221.995043652373
40.97584 234.977225950755
40.99595 208.021147824716
41.01606 249.955713464691
41.03618 233.022625644756
41.05629 229.995655096233
41.0764 230
41.09652 208.010195695865
41.11663 242.024498373442
41.13675 223.929967063888
41.15686 223.916277107463
41.17697 263.034448084319
41.19709 197.01502194279
41.2172 225
41.23731 225.998959616592
41.25743 238.026261795082
41.27754 240.953488326711
41.29765 211.012235882787
41.31777 230.980306041593
41.33788 226.999798003498
41.358 237
41.37811 225.990535552673
41.39822 211.997174634607
41.41834 212.982893541645
41.43845 199.004213552324
41.45856 214.95741456938
41.47868 224.008855087645
41.49879 208.003337100322
41.51891 216.005820027585
41.53902 216.98693516529
41.55913 203.00268266227
41.57925 226.082372744883
41.59936 246.010810808267
41.61947 229.999458063579
41.63959 244.001085193966
41.6597 220
41.67982 226.034506296284
41.69993 255.986424917457
41.72004 226.002906999785
41.74016 254.005670773537
41.76027 214.039026014198
41.78038 225.976873014781
41.8005 231
41.82061 217.006582182908
41.84072 234.975076005059
41.86084 191.017665079128
41.88095 246.937169172143
41.90107 219.03886991853
41.92118 218.008079184508
41.94129 199.99921994428
41.96141 216.999384909709
41.98152 199.000301413799
42.00163 226.040554584254
42.02175 228.952380667406
42.04186 205.026731446342
42.06198 216.963105513616
42.08209 248.002984722731
42.1022 228
42.12232 280.021717970135
42.14243 259.98266537566
42.16254 280.04944103051
42.18266 292.978009123516
42.20277 310.964646765324
42.22289 327.001902486261
42.243 323
42.26311 391.042373964026
42.28323 467.094943190725
42.30334 539.20775476005
42.32345 691.523391418039
42.34357 878.780573708978
42.36368 1024.78152499703
42.38379 1282.90729957522
42.40391 1392.0678611855
42.42402 1532.01509411628
42.44414 1429.83340337431
42.46425 1351.45258643689
42.48436 1021.51691626121
42.50448 927.01241552374
42.52459 880.056605062703
42.5447 742
42.56482 681.869184012668
42.58493 482.754666800513
42.60505 390.792217283524
42.62516 295.127970522631
42.64527 276.004722204727
42.66539 264.008013532973
42.6855 250
42.70561 237.989877101113
42.72573 228.038563724757
42.74584 262.984408864241
42.76595 216.075052799741
42.78607 225.973570358586
42.80618 220.028528628892
42.8263 192
42.84641 209.007601382731
42.86652 207.991776997562
42.88664 199.98162528563
42.90675 194.9845268449
42.92686 201.025064749543
42.94698 176.012564447325
42.96709 187.988044620353
42.98721 205.001721470657
43.00732 197.992137393176
43.02743 200.019687338755
43.04755 211.992915581546
43.06766 197.021371172162
43.08777 195.007585755617
43.10789 182.006908481208
43.128 179
43.14812 199.01424645934
43.16823 197.980604931721
43.18834 177.949419991459
43.20846 174.90938700204
43.22857 224.027900273339
43.24868 160.015145010514
43.2688 211
43.28891 193.978218999859
43.30902 168.005927608809
43.32914 189.010035246004
43.34925 175.012698677935
43.36937 186.9860551995
43.38948 186.996260302188
43.40959 197.995723523903
43.42971 190.986992366779
43.44982 165.999995052582
43.46993 189.030306912635
43.49005 198.036612060552
43.51016 213.014412067593
43.53028 184.027669272143
43.55039 183.984354331603
43.5705 215
43.59062 179.977012805107
43.61073 192.042830803986
43.63084 207.984655874005
43.65096 187.025288427213
43.67107 187.006377660628
43.69119 181.992613237135
43.7113 203
43.73141 173.994936916684
43.75153 182.98193942282
43.77164 156.008751462967
43.79175 196.910063782489
43.81187 201.021248107252
43.83198 189.003069186888
43.85209 191.00172792909
43.87221 184.000997083182
43.89232 197.013430254049
43.91244 198.978006506646
43.93255 182.971689422131
43.95266 180.000662240284
43.97278 178.002189415239
43.99289 176.001424698553
44.013 177
44.03312 188.999211743244
44.05323 180.002160724251
44.07335 187.980230934901
44.09346 170.993336432386
44.11357 194.976687844731
44.13369 188.007315359807
44.1538 177
44.17391 175.009335807072
44.19403 197.998042867448
44.21414 180.002570352373
44.23426 203.972222198853
44.25437 197.009371390674
44.27448 194.018763348421
44.2946 174
44.31471 202.997311372214
44.33482 166.987772782911
44.35494 193.049242348836
44.37505 193.021767894794
44.39516 193.973905385352
44.41528 203.013723469623
44.43539 170.014836143287
44.45551 172.019943878222
44.47562 217.010421786574
44.49573 196.989297156471
44.51585 205.963465870352
44.53596 173.011871655914
44.55607 195.986935540275
44.57619 178.006897946869
44.5963 182
44.61642 187.021881726904
44.63653 202.955701203259
44.65664 158.018908872265
44.67676 211.963498426421
44.69687 184.007791208197
44.71698 212.994726285713
44.7371 187
44.75721 210.006431138469
44.77732 202.000023571084
44.79744 218.021988860214
44.81755 214.020443812201
44.83767 203.034579163785
44.85778 181.995071083118
44.87789 209.987958654209
44.89801 213.997137180101
44.91812 206.989876098938
44.93823 195.988722250891
44.95835 191.988627116
44.97846 187.996280013524
44.99858 190.008824678354
45.01869 183.989231432692
45.0388 219
45.05892 198.986610284259
45.07903 211.031008674245
45.09914 215.962757053482
45.11926 193.99363645108
45.13937 215.990888616777
45.15949 203.00022002175
45.1796 218
45.19971 207.002903236593
45.21983 218.967145959727
45.23994 186.03785690965
45.26005 244.941422379581
45.28017 215.039414954876
45.30028 217.99897588818
45.32039 210.994869648505
45.34051 238.008782797415
45.36062 230.979084046177
45.38074 224.04874573185
45.40085 255.995622592507
45.42096 229.998997877207
45.44108 260.985293988643
45.46119 247.004250861977
45.4813 259
45.50142 266.011956874182
45.52153 273.975448858658
45.54165 255.051573924813
45.56176 314.888441611963
45.58187 339.985843639366
45.60199 360.978070476493
45.6221 422
45.64221 479.034520523823
45.66233 560.113949757277
45.68244 636.191440026088
45.70256 762.709363361795
45.72267 911.7823834982
45.74278 1031.92254835424
45.7629 1076
45.78301 1092.98249848874
45.80312 964.773478985125
45.82324 725.690908206433
45.84335 680.012174510112
45.86346 659.049642440827
45.88358 630.045066117725
45.90369 567.034723126628
45.92381 488.950979768176
45.94392 375.891413818789
45.96403 286.89424348894
45.98415 256.08182095602
46.00426 304.019320275375
46.02437 241.058682854029
46.04449 245.005138327586
46.0646 208
46.08472 225.023733366199
46.10483 223.956472329713
46.12494 190.981482891277
46.14506 207.963616791544
46.16517 205.032659169974
46.18528 184.002632714772
46.2054 199
46.22551 197.993640468157
46.24563 189.010161957131
46.26574 210.043153464577
46.28585 218.016478356086
46.30597 202.028745142413
46.32608 191.994367349655
46.34619 198.007688890702
46.36631 175.002613818773
46.38642 206.018445793504
46.40653 195.975295041481
46.42665 194.029216366263
46.44676 205.006863022806
46.46688 189.012952071054
46.48699 187.997761900699
46.5071 198
46.52722 216.994459401796
46.54733 195.991271704869
46.56744 208.004202961571
46.58756 194.016894189975
46.60767 201.979245746523
46.62779 201.013005195483
46.6479 181
46.66801 234.007050616624
46.68813 192.927513898068
46.70824 172.994607381626
46.72835 174.986450288835
46.74847 183.979278123999
46.76858 197.99205198021
46.78869 198.001888476682
46.80881 189.991641924319
46.82892 178.010954112596
46.84904 211.071420852861
46.86915 223.958350192386
46.88926 194.039302581857
46.90938 194.991042784993
46.92949 193.009599210812
46.9496 168
46.96972 179.028266593144
46.98983 197.983746094714
47.00995 169.970112917426
47.03006 180.984058825798
47.05017 178.98958926441
47.07029 194.997018028294
47.0904 196
47.11051 227.004841310896
47.13063 208.970058151034
47.15074 201.991266769915
47.17086 193.020385450545
47.19097 186.99930992961
47.21108 191.994684414172
47.2312 187
47.25131 167.003483773288
47.27142 191.005840778422
47.29154 182.028765127279
47.31165 209.024242937336
47.33176 173.004996273039
47.35188 206.986730257455
47.37199 184.00882248334
47.39211 191.004761763104
47.41222 185.985454535965
47.43233 171.987895568984
47.45245 169.997786691827
47.47256 172.970978167198
47.49267 189.996281901174
47.51279 182.997221771835
47.5329 191
47.55302 153.99490251767
47.57313 187.04565851463
47.59324 189.981265941788
47.61336 182.015661685814
47.63347 176.997006881506
47.65358 181.003183447735
47.6737 171
47.69381 174.005400856606
47.71393 186.013038863507
47.73404 183.968405095447
47.75415 175.938596312311
47.77427 214.98500399711
47.79438 192.016547763251
47.81449 198.995815514929
47.83461 190.990039444042
47.85472 169.984755689299
47.87483 173.040885622442
47.89495 208.049369391838
47.91506 199.057247264469
47.93518 177.994778266456
47.95529 201.991723797814
47.9754 200
47.99552 200.000440363304
48.01563 205.028375725998
48.03574 220.9732026682
48.05586 184.055349053482
48.07597 195.925405094475
48.09609 231.015593097764
48.1162 166
48.13631 208.009985512043
48.15643 181.97319350882
48.17654 196.031910883512
48.19665 191.047460342759
48.21677 174.008500230636
48.23688 181.985318524601
48.257 191
48.27711 187.004814712307
48.29722 211.023569113112
48.31734 208.923255026716
48.33745 156.92117928277
48.35756 170.898075948213
48.37768 214.999266107111
48.39779 188.999973989119
48.4179 216
48.43802 187.989124743306
48.45813 196.977457024921
48.47825 157.953139082099
48.49836 175.945391920068
48.51847 188.996967694955
48.53859 194.989303524859
48.5587 217
48.57881 190.991443590104
48.59893 191.996880125662
48.61904 190.044838318719
48.63916 220.008400756959
48.65927 190.008776247089
48.67938 216.981592553337
48.6995 207
48.71961 208.01128491139
48.73972 237.016237009963
48.75984 230.96203732738
48.77995 212.036800454117
48.80006 209.969269925446
48.82018 227.002120088245
48.84029 207.00786953269
48.86041 195.986253880671
48.88052 167.006287934578
48.90063 209.062036967386
48.92075 216.943298554631
48.94086 193.990744740555
48.96097 219.980046728426
48.98109 209.006451353749
49.0012 205
49.02132 204.023765466334
49.04143 231.988054018021
49.06154 190.937962960005
49.08166 189.986496393952
49.10177 194.975883207531
49.12188 220.978621547545
49.142 225
49.16211 206.992428584129
49.18223 189.952112603913
49.20234 165.03492198395
49.22245 207.961095192231
49.24257 188.016828729552
49.26268 203.982719193287
49.28279 200.011028733826
49.30291 187.010142615444
49.32302 218.997674985586
49.34313 197.02809019847
49.36325 242.998207674311
49.38336 186.096877724706
49.40348 188.966400058849
49.42359 218.993810289113
49.4437 218
49.46382 228.00046974815
49.48393 213.973883853617
49.50404 208.019059522003
49.52416 224.976041583727
49.54427 227.001347442587
49.56439 226.002693874615
49.5845 222
49.60461 236.00254548717
49.62473 234.01187124999
49.64484 246.992319465145
49.66495 233.981397189687
49.68507 261.971832414467
49.70518 267.98099431825
49.7253 294
49.74541 270.993718280208
49.76552 283.016867084992
49.78564 302.075332788844
49.80575 348.066622236786
49.82586 350.996478091031
49.84598 374.95334158595
49.86609 439.961431227551
49.8862 515
49.90632 570.060279049647
49.92643 652.157933222799
49.94655 782.379065436718
49.96666 961.578035003818
49.98677 1213.56318628798
50.00689 1518.85671689643
50.027 1832
50.04711 2317.23308205823
50.06723 2733.6261553297
50.08734 3137.62364237691
50.10746 3302.93172069345
50.12757 3176.50103609731
50.14768 2687.53515339029
50.1678 2189
50.18791 1799.88666396226
50.20802 1734.02042844245
50.22814 1740.93775203579
50.24825 1661.28197201587
50.26837 1491.3939620305
50.28848 1138.39700738003
50.30859 770.150704472062
50.32871 550.92511861385
50.34882 437.909477613798
50.36893 363.930627588094
50.38905 340.96545483354
50.40916 327.017421227465
50.42927 322.011817936214
50.44939 307.009719500849
50.4695 288
50.48962 277.99623803964
50.50973 284.028495879867
50.52984 300.992912221921
50.54996 278.045045108191
50.57007 279.953348190226
50.59018 312.997583699969
50.6103 288
50.63041 288.996367818937
50.65053 264.965571036216
50.67064 252.983395623526
50.69075 248.978937602643
50.71087 263.988869288079
50.73098 257.014148652159
50.75109 240.011215683038
50.77121 223.001207262903
50.79132 231.988916358998
50.81143 204.98213205352
50.83155 210.990444677134
50.85166 192.023001899096
50.87178 201.976944781165
50.89189 217.003077165426
50.912 197
50.93212 202.014597362849
50.95223 206.977079284719
50.97234 194.045194849696
50.99246 232.995478835598
51.01257 203.007608024063
51.03269 226.001569644731
51.0528 191
51.07291 203.003560315365
51.09303 182.94856478305
51.11314 163.021399376065
51.13325 190.962002281906
51.15337 182.022364721463
51.17348 179.988377765307
51.1936 198
51.21371 202.996293074753
51.23382 191.99562757895
51.25394 199.026048365518
51.27405 203.03714474939
51.29416 176.044414827154
51.31428 179.965103310777
51.33439 212.005030587502
51.3545 172
51.37462 180.99113120276
51.39473 160.026917599879
51.41485 203.007432236062
51.43496 164.035736598202
51.45507 184.977627783597
51.47519 173.007399416878
51.4953 172
51.51541 172.996374781631
51.53553 163.999425767653
51.55564 174.023720048111
51.57576 175.0283780151
51.59587 164.973024891558
51.61598 194.998245390858
51.6361 170
51.65621 179.996520554163
51.67632 155.995876623596
51.69644 177.029240290716
51.71655 167.053582410291
51.73667 154.991797822264
51.75678 170.988635081992
51.77689 170.003056403777
51.79701 167.000581924721
51.81712 171.004449846462
51.83723 169.984952469698
51.85735 157.992105487476
51.87746 165.978614041194
51.89757 170.005750049042
51.91769 164.999143656013
51.9378 175
51.95792 175.983522204148
51.97803 152.982441662775
51.99814 157.013421353594
52.01826 158.000441549236
52.03837 162.981963103512
52.05848 174.000155301777
52.0786 167
52.09871 177.003346408692
52.11883 174.994717697728
52.13894 176.008877086423
52.15905 183.968709888168
52.17917 195.992385188997
52.19928 188.020804843566
52.21939 170.998216147704
52.23951 186.000241354413
52.25962 176.009377174547
52.27974 203.025678979844
52.29985 179.877128566346
52.31996 146.96651527784
52.34008 187.993646530731
52.36019 161.000101077785
52.3803 189
52.40042 153.989902592355
52.42053 180.024608745882
52.44064 173.002045192699
52.46076 184.017172688477
52.48087 154.035075663062
52.50099 153.993769218053
52.5211 169
52.54121 176.991568459254
52.56133 148.984221679527
52.58144 161.022765768796
52.60155 164.968435622675
52.62167 182.994588813277
52.64178 170.012007681755
52.6619 175
52.68201 196.003753587804
52.70212 185.982234812319
52.72224 176.007770515532
52.74235 193.935264752971
52.76246 202.05994331993
52.78258 162.998177249268
52.80269 200.990255641345
52.8228 190
52.84292 209.000877544046
52.86303 182.961819710529
52.88315 173.991390167099
52.90326 173.975329193216
52.92337 197.961481316399
52.94349 205.011244748449
52.9636 176
52.98371 203.010861890607
53.00383 203.996899744652
53.02394 208.003030037071
53.04406 202.019769587176
53.06417 200.974266331784
53.08428 223.993192194011
53.1044 215
53.12451 217.992621821744
53.14462 193.998797694821
53.16474 215.021444405658
53.18485 202.044301078307
53.20497 193.008205954673
53.22508 188.999235120826
53.24519 198.989856705228
53.26531 218.002305771901
53.28542 210.997047813487
53.30553 217.006387161885
53.32565 218.016995012326
53.34576 228.991404691037
53.36587 214.053953416153
53.38599 179.004764364519
53.4061 199
53.42622 207.979057690701
53.44633 179.996608351319
53.46644 208.060486018095
53.48656 216.022647079515
53.50667 203.995582634104
53.52678 216.997589722502
53.5469 204
53.56701 199.998451286933
53.58713 193.992561085515
53.60724 202.05797638603
53.62735 236.957393119905
53.64747 225.043127701084
53.66758 202.006409939175
53.68769 206.00120707762
53.70781 197.000586806092
53.72792 208.00373059157
53.74804 206.021497329752
53.76815 218.965489817212
53.78826 187.02420522914
53.80838 205.976404758065
53.82849 216.996378270457
53.8486 216
53.86872 187.997070609609
53.88883 212.03398911738
53.90894 219.009463260585
53.92906 223.01754079707
53.94917 208.003743222278
53.96929 225.986214055922
53.9894 241
54.00951 209.980993238252
54.02963 192.022795723092
54.04974 226.050385238827
54.06985 222.065889565681
54.08997 197.009486413473
54.11008 209.984328449076
54.1302 224
54.15031 258.01533577425
54.17042 262.969418445185
54.19054 216.938335611854
54.21065 215.965708438853
54.23076 230.964292390259
54.25088 250.980686947814
54.27099 262.999786153632
54.29111 254.995476971905
54.31122 253.005934641538
54.33133 254.9779525311
54.35145 236.005150441012
54.37156 255.981183955608
54.39167 249.001492698825
54.41179 257.001259855909
54.4319 247
54.45201 258.99399657707
54.47213 229.988208201277
54.49224 247.015737220629
54.51236 239.987561163067
54.53247 263.973089905513
54.55258 267.994320396236
54.5727 281
54.59281 292.012853885291
54.61292 326.021458714242
54.63304 333.021545944561
54.65315 355.938212448789
54.67327 393.891823350219
54.69338 464.988009496554
54.71349 454.968847326121
54.73361 600.070756921551
54.75372 700.102774238038
54.77383 832.210089096392
54.79395 961.29010591294
54.81406 1068.79687889315
54.83417 1146.95287208957
54.85429 1102.06413471857
54.8744 946
54.89452 874.922872416022
54.91463 766.838065184538
54.93474 694.943711550793
54.95486 691.012045652565
54.97497 677.997481543345
54.99508 682.02765295478
55.0152 624
55.03531 581.968700534155
55.05543 484.831135995275
55.07554 385.855780532857
55.09565 349.010906851011
55.11577 356.99474341936
55.13588 358.979787416662
55.15599 389.992972400167
55.17611 398.020034815466
55.19622 456.022755971809
55.21634 454.07191470414
55.23645 534.16697383602
55.25656 567.927080363429
55.27668 618.95965216637
55.29679 616.027237758764
55.3169 560
55.33702 584.95545263905
55.35713 469.86120465484
55.37724 443.988472675762
55.39736 428.019013311869
55.41747 433.978918344873
55.43759 431.018889722618
55.4577 381
55.47781 389.999780795277
55.49793 352.908648721324
55.51804 286.873006075083
55.53815 238.069317714269
55.55827 228.997184954514
55.57838 236.982860870721
55.5985 249
55.61861 224.995094359921
55.63872 241.02622649279
55.65884 250.964881233609
55.67895 226.001633062903
55.69906 244.995231787875
55.71918 228.002679610704
55.73929 238.006308866893
55.75941 208.998267431903
55.77952 228.999711184443
55.79963 202.979847747377
55.81975 214.023553031659
55.83986 210.006770098642
55.85997 212.002825676288
55.88009 212.990046313681
55.9002 235
55.92031 205.997884926401
55.94043 225.998850384657
55.96054 207.020153068492
55.98066 246.954380399445
56.00077 228.058325809285
56.02088 202.001522224475
56.041 211
56.06111 188.993184747768
56.08122 191.000785363512
56.10134 186.003030994385
56.12145 199.950374573745
56.14157 207.027511540273
56.16168 176.017939199786
56.18179 187.983360510972
56.20191 218.005057407891
56.22202 211.997849088408
56.24213 214.984343533627
56.26225 194.982690333394
56.28236 203.989324828215
56.30248 198.005460334926
56.32259 202.993243890084
56.3427 216
56.36282 205.974955441515
56.38293 192.035180716674
56.40304 233.024082966455
56.42316 202.082961624201
56.44327 180.006156813254
56.46338 185.989998439111
56.4835 198
56.50361 215.002651134297
56.52373 206.981708708464
56.54384 195.973528176466
56.56395 199.889957598747
56.58407 252.989374593629
56.60418 204.060003000279
56.62429 173.002935388727
56.64441 182.008870647361
56.66452 201.018480782979
56.68464 206.965778332953
56.70475 181.982714728216
56.72486 194.982082594809
56.74498 191.999091223179
56.76509 192.010775715261
56.7852 162
56.80532 186.020390800777
56.82543 186.995699222926
56.84554 195.035993459003
56.86566 209.007098682549
56.88577 185.05062227181
56.90589 170.987430964993
56.926 212
56.94611 194.995897303307
56.96623 202.988457096487
56.98634 183.006044133907
57.00645 208.966617238003
57.02657 199.01311702894
57.04668 206.984378006337
57.0668 216
57.08691 210.002733618639
57.10702 220.996102786172
57.12714 211.0261662417
57.14725 234.024160522839
57.16736 203.990731196867
57.18748 243.979474102378
57.20759 231.003024469827
57.22771 241.99882871674
57.24782 217.976525417926
57.26793 211.005667209212
57.28805 210.968663815329
57.30816 195.99672503582
57.32827 218.955090535982
57.34839 235.002496141298
57.3685 213
57.38861 191.993956627604
57.40873 190.011309774435
57.42884 200.011690897789
57.44896 196.025908294075
57.46907 185.993693031186
57.48918 195.006948229385
57.5093 178
57.52941 202.014305639306
57.54952 205.969248054228
57.56964 167.985708576002
57.58975 188.978582593254
57.60987 169.036122153595
57.62998 163.986874149783
57.65009 179.9978356844
57.67021 175.001221028938
57.69032 183.997875844225
57.71043 176.013495376548
57.73055 200.035050233358
57.75066 198.993130620722
57.77078 209.998024799922
57.79089 196.010119310736
57.811 186
57.83112 200.00272327531
57.85123 194.008345050022
57.87134 206.991994545538
57.89146 189.008735912011
57.91157 200.994485895202
57.93168 187.016204527293
57.9518 185
57.97191 196.996255852161
57.99203 183.01591985882
58.01214 210.008060458988
58.03225 183.066285458803
58.05237 174.007949766652
58.07248 173.979205208767
58.09259 196.006151255599
58.11271 162.99786007416
58.13282 193.020603253012
58.15294 190.004722625786
58.17305 206.022271750748
58.19316 196.040007823977
58.21328 175.021346866554
58.23339 155.00849806141
58.2535 154
58.27362 184.999936203981
58.29373 169.027387588124
58.31385 213.027053989628
58.33396 182.045443958496
58.35407 193.964858449956
58.37419 200.008644193806
58.3943 177
58.41441 185.9976361174
58.43453 171.008911597412
58.45464 195.016038269434
58.47475 183.998060980416
58.49487 197.007837329018
58.51498 172.015550783432
58.5351 180
58.55521 193.005896452821
58.57532 195.983961533444
58.59544 173.991220246812
58.61555 188.968420092978
58.63566 190.990892142693
58.65578 198.004024109016
58.67589 187.998681218504
58.69601 191.987748415366
58.71612 153.993827301759
58.73623 188.056220176079
58.75635 200.991027118641
58.77646 196.992640551658
58.79657 196.038993602086
58.81669 155.012426602701
58.8368 170
58.85691 207.995956056863
58.87703 164.954370658591
58.89714 177.075118722203
58.91726 206.989384783295
58.93737 188.039408172138
58.95748 173.001701533259
58.9776 177
58.99771 173.000510501674
59.01782 182.010696931236
59.03794 183.977964343075
59.05805 173.976269272832
59.07817 193.995661801686
59.09828 181.997053066343
59.11839 201.995445657816
59.13851 190.993762355593
59.15862 197.025941322102
59.17873 217.983971409658
59.19885 186.966908833205
59.21896 198.986010453881
59.23908 194.9908353323
59.25919 209.006925700124
59.2793 177
59.29942 195.001662595962
59.31953 181.018854840014
59.33964 218.033876961217
59.35976 202.035094732081
59.37987 204.978305034008
59.39998 212.010501253211
59.4201 202
59.44021 236.00368408717
59.46033 223.021747453016
59.48044 262.025022906499
59.50055 238.049101825343
59.52067 240.994932522638
59.54078 236.996860060217
59.56089 257.982625123765
59.58101 298.019953418423
59.60112 322.999602922538
59.62124 314.018777925956
59.64135 343.056969342447
59.66146 347.998414388987
59.68158 363.963479063804
59.70169 412.97648098948
59.7218 471
59.74192 588.09635606566
59.76203 674.188551407717
59.78215 845.420914417495
59.80226 974.805269447486
59.82237 1102.68477817046
59.84249 1386.85442205232
59.8626 1653
59.88271 1904.09219633011
59.90283 2031.18557066756
59.92294 2146.0862660061
59.94305 2042.65441409247
59.96317 1691.52841479515
59.98328 1388.28141513127
60.0034 1156
60.02351 1150.02380176486
60.04362 1183.00929598302
60.06374 1167.93759226313
60.08385 1133.08322273464
60.10396 1067.27288859026
60.12408 866.217121300385
60.14419 667.094498877726
60.16431 496.935811792301
60.18442 398.90259616681
60.20453 303.912828056175
60.22465 293.034589785529
60.24476 292.065646210533
60.26487 245.038617394467
60.28499 251.991915197362
60.3051 255
60.32522 235.972621285836
60.34533 205.958549079659
60.36544 199.055193476144
60.38556 231.016556657225
60.40567 196.005547185023
60.42578 218.015997488181
60.4459 178
60.46601 243.016879435538
60.48612 217.969964700036
60.50624 216.011794340681
60.52635 212.02845235328
60.54647 200.012131263473
60.56658 198.995116682713
60.58669 203.001257759677
60.60681 198.001110728398
60.62692 204.999620032862
60.64703 186.949559688772
60.66715 160.001440933545
60.68726 185.943580760822
60.70738 197.003160991404
60.72749 191.99878963186
60.7476 190
60.76772 155.999939958741
60.78783 191.04634196977
60.80794 198.003399749218
60.82806 199.027589656108
60.84817 169.049506649017
60.86828 156.979604598516
60.8884 186
60.90851 161.993293479474
60.92863 170.005939382926
60.94874 168.030828699051
60.96885 190.015023560269
60.98897 165.996083703943
61.00908 191.998660790366
61.02919 168.000924966753
61.04931 201.016421557655
61.06942 202.97482850421
61.08954 175.986377044494
61.10965 186.004744144949
61.12976 174.013399794002
61.14988 180.989991991312
61.16999 188.994289284489
61.1901 194
61.21022 166.990539361371
61.23033 180.019641747205
61.25045 178.98205185016
61.27056 176.986702427256
61.29067 190.975390288474
61.31079 202.997334286941
61.3309 198
61.35101 181.999632060872
61.37113 190.998316944261
61.39124 184.022229028005
61.41135 205.996691321392
61.43147 190.993370673406
61.45158 211.00421246012
61.4717 184
61.49181 196.997815781803
61.51192 177.004825403072
61.53204 210.048025198743
61.55215 209.013624586129
61.57226 207.022560614253
61.59238 194.991126560821
61.61249 217.995740423633
61.63261 203.991983810096
61.65272 204.013888452243
61.67283 218.003435827107
61.69295 210.994410218597
61.71306 216.992674818426
61.73317 211.018620868056
61.75329 206.99191426052
61.7734 225
61.79352 193.987220719323
61.81363 205.003176400787
61.83374 196.020373050667
61.85386 230.931268295055
61.87397 240.024919269139
61.89408 223.988659370645
61.9142 250
61.93431 221.989477858554
61.95442 234.035589187533
61.97454 264.0080951677
61.99465 245.047104035421
62.01477 252.942237647576
62.03488 287.009998010759
62.05499 247.008092897841
62.07511 263.001500018497
62.09522 247.004090772963
62.11533 270.00246980935
62.13545 254.02521138811
62.15556 281.018239439781
62.17568 245.997549704383
62.19579 298.973574175572
62.2159 307
62.23602 267.981754086806
62.25613 272.000631724665
62.27624 269.039030723366
62.29636 300.984338855095
62.31647 277.040789635049
62.33659 266.001782637402
62.3567 262
62.37681 253.990581012786
62.39693 227.965801906957
62.41704 226.053185402689
62.43715 250.044819306441
62.45727 205.026358368839
62.47738 226.980680272948
62.49749 224.001472675318
62.51761 237.011156841358
62.53772 250.994251497557
62.55784 228.953409317975
62.57795 216.993828051921
62.59806 221.975498563523
62.61818 226.01970600023
62.63829 197.003968683652
62.6584 209
62.67852 203.023300313592
62.69863 235.980285018144
62.71875 185.945541296406
62.73886 202.002006313219
62.75897 176.005928026375
62.77909 202.99022462258
62.7992 202
62.81931 204.986508795323
62.83943 167.000170791641
62.85954 202.035843764868
62.87965 190.007898895999
62.89977 204.994691310034
62.91988 192.004933035344
62.94 196
62.96011 173.997077284856
62.98022 186.004325053433
63.00034 183.030776992494
63.02045 207.008234870329
63.04056 178.0343845407
63.06068 188.981888117151
63.08079 195.002273598113
63.10091 189.000057521271
63.12102 191.995144826256
63.14113 179.988594812641
63.16125 188.058605368872
63.18136 208.005394468283
63.20147 188.019251599503
63.22159 191.996912452612
63.2417 188
63.26182 183.014549559157
63.28193 205.006751465859
63.30204 188.970366218414
63.32216 190.974118876502
63.34227 196.023998266462
63.36238 170.011477029459
63.3825 180
63.40261 188.00450153853
63.42272 195.997703067241
63.44284 186.994327570416
63.46295 193.980935389792
63.48307 188.037006168316
63.50318 164.995399360168
63.52329 189.993957520448
63.54341 178.994450046071
63.56352 192.038379377757
63.58363 229.010300705234
63.60375 206.94670467304
63.62386 205.980355150015
63.64398 217.985054477959
63.66409 224.007936943331
63.6842 200
63.70432 213.003482967136
63.72443 207.018000861707
63.74454 233.01670548709
63.76466 222.001259238655
63.78477 246.946136559861
63.80489 269.99988285551
63.825 256
63.84511 271.021213215936
63.86523 321.051357278096
63.88534 344.076804290622
63.90545 395.911383840063
63.92557 410.971037497969
63.94568 453.939619308923
63.96579 499.997608221547
63.98591 490.014057657654
64.00602 542.008232494901
64.02614 488.871300491547
64.04625 446.914389377755
64.06636 401.121210266631
64.08648 341.039076204162
64.10659 333.99161052135
64.1267 356
64.14682 364.006108137077
64.16693 362.969655839676
64.18705 335.97787881366
64.20716 339.031600948242
64.22727 291.093111821847
64.24739 241.014187400337
64.2675 234
64.28761 233.993008295871
64.30773 210.972850585363
64.32784 198.963933135428
64.34796 178.016093737679
64.36807 178.018340900766
64.38818 158.002649601114
64.4083 177
64.42841 182.999174435974
64.44852 177.989858442292
64.46864 161.958991142747
64.48875 152.956135214206
64.50886 180.985876605742
64.52898 168.000749822751
64.54909 183.997580440298
64.56921 173.999676758721
64.58932 186.003773888675
64.60943 177.99613967445
64.62955 187.023963063537
64.64966 188.011876828574
64.66977 177.02355027532
64.68989 167.995469738772
64.71 188
64.73012 182.986732216343
64.75023 166.967196483866
64.77034 153.022442481681
64.79046 182.951057123764
64.81057 188.007353173864
64.83068 179.01673221612
64.8508 161
64.87091 170.012381840111
64.89102 182.975301343469
64.91114 143.992682672556
64.93125 176.946825351485
64.95137 171.0013589379
64.97148 182.002756956251
64.99159 164.004438837588
65.01171 176.010164096665
65.03182 189.002153177888
65.05193 182.98785320636
65.07205 181.015982546788
65.09216 184.028825972452
65.11228 159.014368737328
65.13239 172.980510821744
65.1525 215
65.17262 203.951330612994
65.19273 152.976015190461
65.21284 175.052783367398
65.23296 175.047685227392
65.25307 148.017493387369
65.27319 160.985730125891
65.2933 185
65.31341 176.993835214881
65.33353 174.012944125179
65.35364 183.9974929463
65.37375 177.979296115619
65.39387 195.994177726987
65.41398 189.987889961753
65.43409 214.997852673291
65.45421 188.983898234055
65.47432 174.00220982997
65.49444 180.999041555299
65.51455 169.969117320832
65.53466 168.971905072903
65.55478 187.990104533991
65.57489 191.992466348981
65.595 227
65.61512 258.999989362576
65.63523 234.96632055018
65.65535 224.971002901147
65.67546 215.975703283703
65.69557 242.974851987772
65.71569 248.990295493956
65.7358 270
65.75591 237.000051156032
65.77603 271.024704796702
65.79614 246.927067995749
65.81626 226.009426028744
65.83637 223.023986090368
65.85648 201.005855670889
65.8766 213
65.89671 209.997437930033
65.91682 215.017043913788
65.93694 225.969354869613
65.95705 191.067719465638
65.97716 191.955188939088
65.99728 209.008961283954
66.01739 183.006646164551
66.03751 189.00118918846
66.05762 178.991780770349
66.07773 180.00551513767
66.09785 190.066016354336
66.11796 212.027695498822
66.13807 172.037336523038
66.15819 179.991152145047
66.1783 188
66.19842 182.984000458134
66.21853 160.972320445333
66.23864 158.030574940944
66.25876 181.96050132457
66.27887 186.016418154638
66.29898 175.993791866919
66.3191 196
66.33921 194.993516756397
66.35933 181.991333083669
66.37944 186.018591469653
66.39955 189.026197492875
66.41967 172.013716107667
66.43978 177.985861835935
66.45989 183.007297831349
66.48001 159.995294547151
66.50012 170.013506079417
66.52023 178.013647565424
66.54035 188.009584358647
66.56046 180.03675996201
66.58058 162.007832296878
66.60069 167.993086466007
66.6208 177
66.64092 175.017999668206
66.66103 202.008145425746
66.68114 180.95593683723
66.70126 174.001564712067
66.72137 168.020206002756
66.74149 159.993539823667
66.7616 183
66.78171 169.995447102888
66.80183 171.99565342535
66.82194 168.029383927273
66.84205 194.968572714503
66.86217 186.017087005108
66.88228 183.999834861491
66.90239 187.991657190555
66.92251 203.996366632922
66.94262 182.997404445999
66.96274 201.017587507801
66.98285 190.977738707428
67.00296 193.988154214904
67.02308 197.993872543088
67.04319 201.00476958497
67.0633 189
67.08342 208.009609687914
67.10353 206.010533637844
67.12365 217.980464310358
67.14376 196.01111733893
67.16387 212.977141496358
67.18399 215.997820893311
67.2041 220
67.22421 205.004947682666
67.24433 234.021014689052
67.26444 225.99310052503
67.28456 238.970864127675
67.30467 243.006238897214
67.32478 237.00384703405
67.3449 244
67.36501 262.995679819858
67.38512 240.000061617467
67.40524 270.058883953854
67.42535 283.96690019439
67.44546 301.974377115622
67.46558 316.965931581403
67.48569 372.968627762283
67.50581 419.009696281095
67.52592 438.053717375481
67.54603 516.083173917945
67.56615 558.206484364096
67.58626 676.81289972929
67.60637 754.805281402994
67.62649 921.940971368917
67.6466 1014
67.66672 1254.18817858579
67.68683 1332.0370488934
67.70694 1352.01074994558
67.72706 1307.24005130333
67.74717 1126.29852197397
67.76728 942.173402456268
67.7874 782
67.80751 717.019488721538
67.82763 812.102063947893
67.84774 830.051437074913
67.86785 884.884182889204
67.88797 915.932250989346
67.90808 978.94650938713
67.92819 977.038457430521
67.94831 887.991413745685
67.96842 938.029433985624
67.98853 937.06830773895
68.00865 1052.32310382165
68.02876 1171.72577942092
68.04888 1329.84980886151
68.06899 1488.89580500574
68.0891 1703
68.10922 1712.94207740592
68.12933 1637.86205662395
68.14944 1514.66898690736
68.16956 1348.21925659412
68.18967 1323.94623122641
68.20979 1384.96186755169
68.2299 1462
68.25001 1556.0751696998
68.27013 1709.09735401914
68.29024 1651.75116920625
68.31035 1493.5244813474
68.33047 1245.37306502365
68.35058 1009.24013766208
68.3707 788
68.39081 714.991022102906
68.41092 696.955051737504
68.43104 640.953604407331
68.45115 661.076927109812
68.47126 665.056369702374
68.49138 603.091141226482
68.51149 497.05428542533
68.5316 398
68.55172 332.965077636059
68.57183 305.927463967405
68.59195 248.943823566113
68.61206 264.968010191008
68.63217 257.026352538863
68.65229 240.01014832738
68.6724 225
68.69251 236.999182862515
68.71263 219.982507692488
68.73274 224.019202734612
68.75286 228.00576261925
68.77297 217.028505317924
68.79308 204.98973415475
68.8132 222
68.83331 199.000451395858
68.85342 214.982809466346
68.87354 172.980262989908
68.89365 206.918556934127
68.91376 211.014240073225
68.93388 203.015958372764
68.95399 182.007786752522
68.97411 180.004792263515
68.99422 195.016049566425
69.01433 203.996743350964
69.03445 193.97393370774
69.05456 189.995709590486
69.07467 185.037368020381
69.09479 160.994457019713
69.1149 195
69.13502 176.995372225595
69.15513 197.021472324088
69.17524 192.990006907635
69.19536 191.024335879322
69.21547 171.01786087865
69.23558 173.991041521387
69.2557 176
69.27581 165.000145674179
69.29593 177.016309156479
69.31604 181.007844503056
69.33615 180.043805679774
69.35627 158.003579917995
69.37638 178.976088354875
69.39649 185.00632482811
69.41661 164.992479976501
69.43672 158.995234623879
69.45683 157.015352752832
69.47695 177.04410808188
69.49706 184.994761086385
69.51718 181.01631353421
69.53729 161.004473030475
69.5574 173
69.57752 194.997646223591
69.59763 169.958198872489
69.61774 162.03085193592
69.63786 188.954751861184
69.65797 198.993645987095
69.67809 201.00185547665
69.6982 190
69.71831 179.001510408948
69.73843 186.992803938668
69.75854 172.996308675864
69.77865 182.999442815845
69.79877 169.016414992348
69.81888 167.004239887528
69.839 159
69.85911 161.998508474103
69.87922 160.016844572885
69.89934 190.038512578578
69.91945 183.943795351881
69.93956 166.001737116069
69.95968 180.98282807459
69.97979 188.999586626991
69.9999 187
70.02002 180.985470281201
70.04013 168.005914679499
70.06025 183.012069893716
70.08036 174.010718685125
70.10047 178.992981363541
70.12059 181.994730608217
70.1407 195
70.16081 185.998882743059
70.18093 184.96723997324
70.20104 152.98190722276
70.22116 175.938095708305
70.24127 188.015644456322
70.26138 169.009970256653
70.2815 173
70.30161 170.997020475899
70.32172 169.00643948031
70.34184 173.978294978968
70.36195 157.989543665501
70.38207 178.986408655937
70.40218 168.010467333115
70.42229 170.995547212675
70.44241 174.997858567073
70.46252 163.987311265976
70.48263 164.033384276609
70.50275 192.018307218095
70.52286 172.055156594684
70.54297 157.002045316673
70.56309 167.989510819316
70.5832 183
70.60332 164.989991678957
70.62343 164.987025846709
70.64354 157.041407375703
70.66366 188.01135005393
70.68377 150.028653758382
70.70388 162.992749221235
70.724 152
70.74411 166.008594341368
70.76423 171.992154127849
70.78434 169.02534880449
70.80445 183.031584748735
70.82457 156.001385476956
70.84468 181.986864594956
70.86479 162.016800548678
70.88491 140.999467595191
70.90502 158.025970958198
70.92513 177.006938304463
70.94525 170.985580938289
70.96536 166.02851185163
70.98548 154.984859527555
71.00559 183.99635116357
71.0257 172
71.04582 194.999585766961
71.06593 165.965615272771
71.08604 162.993442569451
71.10616 153.999397352581
71.12627 166.978925262758
71.14639 172.999884218569
71.1665 168
71.18661 151.992480649485
71.20673 151.032151624351
71.22684 174.996072998253
71.24695 155.003985746933
71.26707 171.005394743433
71.28718 149.001785901072
71.3073 169
71.32741 150.994615079069
71.34752 160.011651128223
71.36764 166.017851495397
71.38775 179.969546748034
71.40786 180.031926225725
71.42798 156.019808045635
71.44809 150.995701192809
71.4682 166
71.48832 169.987179241643
71.50843 156.009265835561
71.52855 171.985434927281
71.54866 150.001550585175
71.56877 171.986469788147
71.58889 157.007124409167
71.609 165
71.62911 180.988719493868
71.64923 137.97378017255
71.66934 168.108130808116
71.68946 197.045656989761
71.70957 155.998379286354
71.72968 191.996772583141
71.7498 155
71.76991 179.012482435739
71.79002 174.976485058489
71.81014 156.000893060647
71.83025 174.946071979062
71.85037 184.004921271664
71.87048 177.002387225942
71.89059 185.990618765789
71.91071 195.992001542451
71.93082 161.973525997171
71.95093 165.044247802062
71.97105 193.002652192068
71.99116 174.013808481336
72.01127 184.000347936942
72.03139 169.003486692066
72.0515 170
72.07162 143.987052452186
72.09173 158.044697524268
72.11184 172.960559839217
72.13196 148.955547695406
72.15207 195.005054775497
72.17218 148.011308734464
72.1923 190
72.21241 185.995507724841
72.23253 190.003843871662
72.25264 176.943516399555
72.27275 153.992253288234
72.29287 175.980504936216
72.31298 164.025130220566
72.33309 148.996514510746
72.35321 161.995593100395
72.37332 135.989410551637
72.39344 157.07281958659
72.41355 180.998077072322
72.43366 159.054481464436
72.45378 147.988599630277
72.47389 172.988347467487
72.494 180
72.51412 164.989210746842
72.53423 163.002336603935
72.55434 166.015124987378
72.57446 176.980296183023
72.59457 180.007943557045
72.61469 177.992814893532
72.6348 194
72.65491 160.988320974494
72.67503 165.026076809917
72.69514 177.00313606975
72.71525 173.992086622244
72.73537 179.012429659482
72.75548 165.99381543532
72.7756 187
72.79571 168.986765358921
72.81582 158.012055983079
72.83594 177.004342084468
72.85605 162.021850887761
72.87616 162.023848799778
72.89628 152.970314967139
72.91639 198.998274464786
72.9365 168
72.95662 209.020717794027
72.97673 185.953758684476
72.99685 177.017955124509
73.01696 185.995821283342
73.03707 191.956332561659
73.05719 223.004135644207
73.0773 185
73.09741 208.015414053053
73.11753 214.974474323013
73.13764 189.966804793329
73.15776 197.934938168634
73.17787 223.022580889435
73.19798 193.98397583171
73.2181 251
73.23821 241.995118608361
73.25832 257.022800388217
73.27844 280.064030280768
73.29855 310.974951553346
73.31867 323.911658508095
73.33878 410.947426477926
73.35889 427.979267536328
73.37901 502.026549391087
73.39912 519.017631481227
73.41923 550.029578713687
73.43935 536.89245396962
73.45946 500.987444185623
73.47957 505.115710041796
73.49969 364.052967227693
73.5198 336
73.53992 325.003979423726
73.56003 343.013050185805
73.58014 342.02376186366
73.60026 369.951874833962
73.62037 371.03270722709
73.64048 340.026232404091
73.6606 342
73.68071 372.982073200731
73.70083 280.881605265902
73.72094 249.969590486932
73.74105 228.045248572231
73.76117 214.029422056691
73.78128 194.00490639445
73.80139 197.005792479708
73.82151 175.998790704642
73.84162 199.027323466867
73.86174 200.935246681841
73.88185 162.986335790949
73.90196 189.957298015288
73.92208 183.020335661082
73.94219 176.989377271637
73.9623 200
73.98242 156.975021726268
74.00253 170.036863911442
74.02264 178.984575181338
74.04276 166.011176019159
74.06287 168.003971808174
74.08299 159.002331042345
74.1031 162
74.12321 165.004523075971
74.14333 177.007816138832
74.16344 171.981838407776
74.18355 167.989351507257
74.20367 174.002930332732
74.22378 166.002355696128
74.2439 172
74.26401 171.99939743185
74.28412 174.005436327407
74.30424 179.000708142232
74.32435 171.03923502846
74.34446 158.000346179772
74.36458 166.995699196732
74.38469 166.99507425539
74.40481 180.999018513595
74.42492 163.988988560342
74.44503 170.019886681937
74.46515 172.961983736537
74.48526 152.012109817568
74.50537 160.994323314223
74.52549 151.005995660285
74.5456 151
74.56571 173.010128923126
74.58583 179.986707405058
74.60594 168.00040688705
74.62606 180.978144361629
74.64617 180.012268012078
74.66628 175.993108137047
74.6864 183
74.70651 158.992179139272
74.72662 156.995495507228
74.74674 152.025552166594
74.76685 181.930690308642
74.78697 187.029134766997
74.80708 159.018506604822
74.82719 165.984658442991
74.84731 197.004557247501
74.86742 178.97157320269
74.88753 154.968836368327
74.90765 139.987908049297
74.92776 146.967602467896
74.94787 167.96469781655
74.96799 187.993980410914
74.9881 188
75.00822 167.97613266886
