3.00117 20329
3.02128 20156
3.0414 19399
3.06151 19110
3.08162 18203
3.10174 17879
3.12185 17291
3.14197 16775
3.16208 16556
3.18219 15697
3.20231 15637
3.22242 15053
3.24253 14553
3.26265 14247
3.28276 13562
3.30288 13133
3.32299 13177
3.3431 12646
3.36322 12285
3.38333 11790
3.40344 11040
3.42356 11032
3.44367 10306
3.46379 10540
3.4839 9788
3.50401 9476
3.52413 9277
3.54424 8810
3.56435 8847
3.58447 8055
3.60458 7891
3.62469 7704
3.64481 7346
3.66492 7251
3.68504 6723
3.70515 6520
3.72526 6370
3.74538 5944
3.76549 5803
3.7856 5654
3.80572 5198
3.82583 5256
3.84595 4920
3.86606 4871
3.88617 4406
3.90629 4275
3.9264 4195
3.94651 4066
3.96663 3942
3.98674 3649
4.00686 3412
4.02697 3429
4.04708 3247
4.0672 3076
4.08731 2941
4.10742 2804
4.12754 2724
4.14765 2557
4.16776 2581
4.18788 2279
4.20799 2221
4.22811 2229
4.24822 2173
4.26833 2154
4.28845 1922
4.30856 1929
4.32867 1899
4.34879 1915
4.3689 1772
4.38902 1680
4.40913 1627
4.42924 1782
4.44936 1671
4.46947 1580
4.48958 1488
4.5097 1449
4.52981 1480
4.54992 1406
4.57004 1429
4.59015 1333
4.61027 1255
4.63038 1300
4.65049 1257
4.67061 1184
4.69072 1153
4.71083 1139
4.73095 1147
4.75106 1156
4.77118 1059
4.79129 1084
4.8114 1006
4.83152 1065
4.85163 1002
4.87174 951
4.89186 931
4.91197 938
4.93209 926
4.9522 969
4.97231 866
4.99243 798
5.01254 797
5.03265 842
5.05277 809
5.07288 787
5.09299 771
5.11311 717
5.13322 732
5.15334 752
5.17345 708
5.19356 690
5.21368 677
5.23379 671
5.2539 654
5.27402 645
5.29413 669
5.31425 610
5.33436 594
5.35447 620
5.37459 536
5.3947 572
5.41481 544
5.43493 559
5.45504 609
5.47516 551
5.49527 482
5.51538 545
5.5355 534
5.55561 502
5.57572 455
5.59584 499
5.61595 458
5.63606 430
5.65618 474
5.67629 420
5.69641 441
5.71652 432
5.73663 458
5.75675 435
5.77686 391
5.79697 433
5.81709 410
5.8372 392
5.85732 399
5.87743 409
5.89754 428
5.91766 408
5.93777 399
5.95788 402
5.978 367
5.99811 384
6.01823 390
6.03834 391
6.05845 419
6.07857 367
6.09868 380
6.11879 398
6.13891 388
6.15902 353
6.17913 382
6.19925 384
6.21936 396
6.23948 316
6.25959 362
6.2797 340
6.29982 357
6.31993 372
6.34004 347
6.36016 346
6.38027 341
6.40039 344
6.4205 365
6.44061 317
6.46073 304
6.48084 319
6.50095 350
6.52107 331
6.54118 317
6.56129 341
6.58141 319
6.60152 346
6.62164 351
6.64175 282
6.66186 313
6.68198 348
6.70209 348
6.7222 287
6.74232 323
6.76243 296
6.78255 335
6.80266 346
6.82277 335
6.84289 288
6.863 311
6.88311 294
6.90323 307
6.92334 323
6.94346 342
6.96357 287
6.98368 283
7.0038 288
7.02391 330
7.04402 286
7.06414 295
7.08425 309
7.10436 296
7.12448 265
7.14459 270
7.16471 290
7.18482 300
7.20493 311
7.22505 322
7.24516 317
7.26527 306
7.28539 315
7.3055 285
7.32562 327
7.34573 307
7.36584 301
7.38596 280
7.40607 325
7.42618 312
7.4463 346
7.46641 312
7.48653 281
7.50664 286
7.52675 299
7.54687 282
7.56698 335
7.58709 278
7.60721 335
7.62732 287
7.64743 249
7.66755 275
7.68766 279
7.70778 282
7.72789 313
7.748 277
7.76812 307
7.78823 266
7.80834 308
7.82846 306
7.84857 285
7.86869 282
7.8888 297
7.90891 282
7.92903 324
7.94914 327
7.96925 293
7.98937 328
8.00948 304
8.0296 322
8.04971 308
8.06982 288
8.08994 315
8.11005 287
8.13016 320
8.15028 321
8.17039 301
8.1905 316
8.21062 341
8.23073 298
8.25085 293
8.27096 311
8.29107 290
8.31119 310
8.3313 316
8.35141 307
8.37153 274
8.39164 279
8.41176 321
8.43187 281
8.45198 315
8.4721 311
8.49221 320
8.51232 280
8.53244 296
8.55255 316
8.57266 303
8.59278 303
8.61289 315
8.63301 301
8.65312 316
8.67323 282
8.69335 292
8.71346 338
8.73357 312
8.75369 323
8.7738 328
8.79392 299
8.81403 331
8.83414 298
8.85426 333
8.87437 353
8.89448 308
8.9146 286
8.93471 309
8.95483 293
8.97494 309
8.99505 306
9.01517 283
9.03528 335
9.05539 271
9.07551 300
9.09562 314
9.11573 293
9.13585 297
9.15596 322
9.17608 346
9.19619 304
9.2163 305
9.23642 303
9.25653 290
9.27664 308
9.29676 252
9.31687 309
9.33699 307
9.3571 315
9.37721 299
9.39733 336
9.41744 312
9.43755 334
9.45767 330
9.47778 281
9.4979 308
9.51801 259
9.53812 267
9.55824 291
9.57835 287
9.59846 306
9.61858 283
9.63869 286
9.6588 295
9.67892 272
9.69903 279
9.71915 280
9.73926 288
9.75937 313
9.77949 272
9.7996 301
9.81971 302
9.83983 245
9.85994 266
9.88006 274
9.90017 270
9.92028 318
9.9404 306
9.96051 324
9.98062 288
10.00074 304
10.02085 314
10.04097 310
10.06108 283
10.08119 300
10.10131 286
10.12142 297
10.14153 324
10.16165 276
10.18176 304
10.20187 271
10.22199 316
10.2421 279
10.26222 302
10.28233 262
10.30244 269
10.32256 288
10.34267 321
10.36278 309
10.3829 311
10.40301 287
10.42313 301
10.44324 299
10.46335 298
10.48347 297
10.50358 294
10.52369 309
10.54381 268
10.56392 256
10.58403 282
10.60415 282
10.62426 309
10.64438 288
10.66449 300
10.6846 300
10.70472 303
10.72483 277
10.74494 297
10.76506 303
10.78517 306
10.80529 309
10.8254 322
10.84551 276
10.86563 298
10.88574 339
10.90585 307
10.92597 282
10.94608 299
10.9662 287
10.98631 279
11.00642 279
11.02654 295
11.04665 290
11.06676 288
11.08688 289
11.10699 297
11.1271 322
11.14722 269
11.16733 298
11.18745 281
11.20756 320
11.22767 316
11.24779 307
11.2679 318
11.28801 287
11.30813 326
11.32824 325
11.34836 309
11.36847 320
11.38858 316
11.4087 340
11.42881 311
11.44892 316
11.46904 338
11.48915 318
11.50927 310
11.52938 288
11.54949 337
11.56961 327
11.58972 304
11.60983 337
11.62995 367
11.65006 330
11.67017 292
11.69029 334
11.7104 376
11.73052 378
11.75063 312
11.77074 354
11.79086 386
11.81097 338
11.83108 392
11.8512 420
11.87131 433
11.89143 387
11.91154 435
11.93165 411
11.95177 412
11.97188 423
11.99199 520
12.01211 482
12.03222 436
12.05234 464
12.07245 529
12.09256 539
12.11268 589
12.13279 589
12.1529 591
12.17302 637
12.19313 605
12.21324 659
12.23336 640
12.25347 619
12.27359 663
12.2937 736
12.31381 659
12.33393 621
12.35404 622
12.37415 634
12.39427 556
12.41438 597
12.4345 543
12.45461 521
12.47472 505
12.49484 452
12.51495 502
12.53506 418
12.55518 416
12.57529 419
12.5954 404
12.61552 415
12.63563 387
12.65575 401
12.67586 383
12.69597 336
12.71609 376
12.7362 334
12.75631 369
12.77643 358
12.79654 322
12.81666 307
12.83677 306
12.85688 294
12.877 285
12.89711 301
12.91722 268
12.93734 307
12.95745 257
12.97757 307
12.99768 266
13.01779 256
13.03791 298
13.05802 276
13.07813 267
13.09825 277
13.11836 296
13.13847 281
13.15859 291
13.1787 267
13.19882 247
13.21893 247
13.23904 259
13.25916 289
13.27927 274
13.29938 238
13.3195 278
13.33961 259
13.35973 274
13.37984 261
13.39995 263
13.42007 263
13.44018 268
13.46029 262
13.48041 239
13.50052 257
13.52064 237
13.54075 249
13.56086 255
13.58098 272
13.60109 245
13.6212 244
13.64132 256
13.66143 253
13.68154 245
13.70166 262
13.72177 267
13.74189 247
13.762 241
13.78211 289
13.80223 308
13.82234 253
13.84245 251
13.86257 272
13.88268 226
13.9028 246
13.92291 249
13.94302 266
13.96314 259
13.98325 267
14.00336 246
14.02348 245
14.04359 242
14.06371 248
14.08382 264
14.10393 248
14.12405 220
14.14416 241
14.16427 226
14.18439 277
14.2045 225
14.22461 226
14.24473 235
14.26484 238
14.28496 242
14.30507 251
14.32518 248
14.3453 228
14.36541 241
14.38552 221
14.40564 260
14.42575 238
14.44587 228
14.46598 258
14.48609 252
14.50621 252
14.52632 259
14.54643 246
14.56655 254
14.58666 257
14.60677 232
14.62689 244
14.647 253
14.66712 222
14.68723 239
14.70734 228
14.72746 244
14.74757 237
14.76768 243
14.7878 220
14.80791 214
14.82803 242
14.84814 230
14.86825 255
14.88837 241
14.90848 237
14.92859 243
14.94871 239
14.96882 257
14.98894 253
15.00905 228
15.02916 247
15.04928 253
15.06939 224
15.0895 257
15.10962 248
15.12973 223
15.14984 238
15.16996 242
15.19007 225
15.21019 218
15.2303 221
15.25041 222
15.27053 210
15.29064 215
15.31075 234
15.33087 243
15.35098 228
15.3711 244
15.39121 257
15.41132 222
15.43144 250
15.45155 251
15.47166 251
15.49178 225
15.51189 220
15.53201 251
15.55212 246
15.57223 223
15.59235 251
15.61246 214
15.63257 257
15.65269 202
15.6728 228
15.69291 232
15.71303 232
15.73314 247
15.75326 228
15.77337 222
15.79348 232
15.8136 219
15.83371 217
15.85382 208
15.87394 217
15.89405 219
15.91417 220
15.93428 210
15.95439 207
15.97451 213
15.99462 283
16.01473 230
16.03485 204
16.05496 226
16.07508 231
16.09519 221
16.1153 267
16.13542 267
16.15553 206
16.17564 205
16.19576 240
16.21587 228
16.23598 252
16.2561 242
16.27621 207
16.29633 208
16.31644 230
16.33655 199
16.35667 221
16.37678 210
16.39689 242
16.41701 221
16.43712 241
16.45724 243
16.47735 231
16.49746 237
16.51758 239
16.53769 240
16.5578 206
16.57792 214
16.59803 229
16.61814 233
16.63826 244
16.65837 227
16.67849 242
16.6986 231
16.71871 246
16.73883 218
16.75894 241
16.77905 207
16.79917 222
16.81928 240
16.8394 217
16.85951 247
16.87962 239
16.89974 224
16.91985 230
16.93996 232
16.96008 261
16.98019 224
17.00031 247
17.02042 224
17.04053 222
17.06065 220
17.08076 259
17.10087 264
17.12099 250
17.1411 252
17.16121 210
17.18133 247
17.20144 212
17.22156 236
17.24167 235
17.26178 236
17.2819 226
17.30201 230
17.32212 249
17.34224 266
17.36235 223
17.38247 234
17.40258 231
17.42269 224
17.44281 225
17.46292 217
17.48303 229
17.50315 237
17.52326 229
17.54338 290
17.56349 261
17.5836 226
17.60372 259
17.62383 267
17.64394 211
17.66406 251
17.68417 257
17.70428 268
17.7244 237
17.74451 287
17.76463 291
17.78474 263
17.80485 243
17.82497 266
17.84508 244
17.86519 265
17.88531 257
17.90542 247
17.92554 242
17.94565 240
17.96576 243
17.98588 252
18.00599 266
18.0261 259
18.04622 278
18.06633 254
18.08645 263
18.10656 241
18.12667 314
18.14679 314
18.1669 305
18.18701 345
18.20713 350
18.22724 384
18.24735 390
18.26747 433
18.28758 453
18.3077 412
18.32781 394
18.34792 378
18.36804 350
18.38815 293
18.40826 307
18.42838 278
18.44849 265
18.46861 267
18.48872 255
18.50883 241
18.52895 261
18.54906 244
18.56917 253
18.58929 231
18.6094 192
18.62951 250
18.64963 260
18.66974 269
18.68986 216
18.70997 237
18.73008 258
18.7502 222
18.77031 278
18.79042 238
18.81054 259
18.83065 235
18.85077 226
18.87088 237
18.89099 242
18.91111 250
18.93122 223
18.95133 221
18.97145 252
18.99156 255
19.01168 236
19.03179 230
19.0519 253
19.07202 255
19.09213 233
19.11224 260
19.13236 235
19.15247 217
19.17258 249
19.1927 218
19.21281 280
19.23293 247
19.25304 241
19.27315 241
19.29327 256
19.31338 259
19.33349 257
19.35361 249
19.37372 255
19.39384 262
19.41395 283
19.43406 250
19.45418 274
19.47429 278
19.4944 287
19.51452 311
19.53463 336
19.55475 325
19.57486 355
19.59497 378
19.61509 370
19.6352 436
19.65531 393
19.67543 440
19.69554 468
19.71565 525
19.73577 555
19.75588 590
19.776 607
19.79611 657
19.81622 652
19.83634 653
19.85645 690
19.87656 612
19.89668 684
19.91679 683
19.93691 665
19.95702 618
19.97713 648
19.99725 586
20.01736 615
20.03747 571
20.05759 616
20.0777 680
20.09782 587
20.11793 560
20.13804 635
20.15816 602
20.17827 594
20.19838 619
20.2185 652
20.23861 610
20.25872 653
20.27884 617
20.29895 628
20.31907 648
20.33918 637
20.35929 606
20.37941 616
20.39952 635
20.41963 574
20.43975 637
20.45986 651
20.47998 670
20.50009 638
20.5202 701
20.54032 680
20.56043 697
20.58054 720
20.60066 792
20.62077 872
20.64088 938
20.661 1119
20.68111 1356
20.70123 1749
20.72134 2120
20.74145 2985
20.76157 3734
20.78168 4516
20.80179 5362
20.82191 5720
20.84202 5323
20.86214 4614
20.88225 3751
20.90236 2761
20.92248 1979
20.94259 1348
20.9627 1014
20.98282 789
21.00293 692
21.02305 684
21.04316 617
21.06327 658
21.08339 603
21.1035 564
21.12361 603
21.14373 532
21.16384 532
21.18395 477
21.20407 541
21.22418 507
21.2443 561
21.26441 528
21.28452 517
21.30464 432
21.32475 500
21.34486 493
21.36498 502
21.38509 509
21.40521 514
21.42532 496
21.44543 529
21.46555 495
21.48566 479
21.50577 485
21.52589 505
21.546 472
21.56612 501
21.58623 444
21.60634 461
21.62646 440
21.64657 453
21.66668 469
21.6868 445
21.70691 434
21.72702 411
21.74714 437
21.76725 411
21.78737 429
21.80748 450
21.82759 432
21.84771 382
21.86782 384
21.88793 426
21.90805 377
21.92816 426
21.94828 396
21.96839 365
21.9885 378
22.00862 386
22.02873 378
22.04884 387
22.06896 411
22.08907 396
22.10919 412
22.1293 411
22.14941 365
22.16953 393
22.18964 375
22.20975 408
22.22987 377
22.24998 370
22.27009 379
22.29021 348
22.31032 364
22.33044 372
22.35055 393
22.37066 380
22.39078 408
22.41089 416
22.431 378
22.45112 344
22.47123 392
22.49135 369
22.51146 348
22.53157 380
22.55169 347
22.5718 378
22.59191 387
22.61203 359
22.63214 304
22.65225 372
22.67237 353
22.69248 371
22.7126 351
22.73271 354
22.75282 345
22.77294 369
22.79305 324
22.81316 369
22.83328 348
22.85339 343
22.87351 356
22.89362 335
22.91373 361
22.93385 342
22.95396 350
22.97407 353
22.99419 405
23.0143 368
23.03442 347
23.05453 315
23.07464 322
23.09476 383
23.11487 329
23.13498 329
23.1551 306
23.17521 312
23.19532 309
23.21544 305
23.23555 319
23.25567 343
23.27578 358
23.29589 334
23.31601 328
23.33612 329
23.35623 329
23.37635 329
23.39646 323
23.41658 356
23.43669 328
23.4568 314
23.47692 341
23.49703 320
23.51714 352
23.53726 351
23.55737 332
23.57749 337
23.5976 373
23.61771 340
23.63783 336
23.65794 373
23.67805 344
23.69817 361
23.71828 387
23.73839 368
23.75851 378
23.77862 365
23.79874 392
23.81885 373
23.83896 374
23.85908 312
23.87919 362
23.8993 385
23.91942 352
23.93953 421
23.95965 406
23.97976 373
23.99987 384
24.01999 372
24.0401 371
24.06021 335
24.08033 371
24.10044 362
24.12056 338
24.14067 316
24.16078 349
24.1809 366
24.20101 344
24.22112 355
24.24124 353
24.26135 392
24.28146 384
24.30158 365
24.32169 339
24.34181 363
24.36192 390
24.38203 380
24.40215 377
24.42226 400
24.44237 402
24.46249 396
24.4826 391
24.50272 373
24.52283 440
24.54294 476
24.56306 464
24.58317 450
24.60328 437
24.6234 445
24.64351 522
24.66362 478
24.68374 524
24.70385 514
24.72397 538
24.74408 550
24.76419 539
24.78431 586
24.80442 594
24.82453 579
24.84465 585
24.86476 597
24.88488 570
24.90499 594
24.9251 567
24.94522 570
24.96533 520
24.98544 526
25.00556 513
25.02567 532
25.04579 530
25.0659 471
25.08601 514
25.10613 484
25.12624 506
25.14635 480
25.16647 518
25.18658 500
25.20669 516
25.22681 503
25.24692 527
25.26704 528
25.28715 512
25.30726 481
25.32738 434
25.34749 393
25.3676 472
25.38772 422
25.40783 429
25.42795 438
25.44806 392
25.46817 359
25.48829 406
25.5084 436
25.52851 414
25.54863 424
25.56874 392
25.58886 369
25.60897 412
25.62908 416
25.6492 487
25.66931 439
25.68942 460
25.70954 485
25.72965 483
25.74976 497
25.76988 474
25.78999 532
25.81011 516
25.83022 472
25.85033 531
25.87045 482
25.89056 509
25.91067 511
25.93079 540
25.9509 543
25.97102 548
25.99113 566
26.01124 538
26.03136 546
26.05147 581
26.07158 598
26.0917 667
26.11181 677
26.13193 676
26.15204 765
26.17215 774
26.19227 826
26.21238 906
26.23249 938
26.25261 1004
26.27272 1064
26.29283 1198
26.31295 1330
26.33306 1427
26.35318 1607
26.37329 2032
26.3934 2389
26.41352 2971
26.43363 3755
26.45374 5041
26.47386 6923
26.49397 9312
26.51409 12435
26.5342 16086
26.55431 19779
26.57443 22986
26.59454 24569
26.61465 23805
26.63477 21065
26.65488 17025
26.67499 13226
26.69511 9282
26.71522 6312
26.73534 4097
26.75545 2680
26.77556 1875
26.79568 1561
26.81579 1342
26.8359 1236
26.85602 1131
26.87613 1029
26.89625 945
26.91636 855
26.93647 797
26.95659 757
26.9767 748
26.99681 681
27.01693 593
27.03704 540
27.05716 579
27.07727 536
27.09738 579
27.1175 497
27.13761 485
27.15772 506
27.17784 498
27.19795 503
27.21806 473
27.23818 467
27.25829 450
27.27841 414
27.29852 453
27.31863 462
27.33875 442
27.35886 441
27.37897 438
27.39909 467
27.4192 454
27.43932 485
27.45943 473
27.47954 432
27.49966 465
27.51977 422
27.53988 403
27.56 384
27.58011 381
27.60023 383
27.62034 420
27.64045 363
27.66057 389
27.68068 369
27.70079 375
27.72091 399
27.74102 395
27.76113 364
27.78125 386
27.80136 403
27.82148 352
27.84159 363
27.8617 359
27.88182 388
27.90193 360
27.92204 347
27.94216 354
27.96227 346
27.98239 347
28.0025 287
28.02261 330
28.04273 330
28.06284 318
28.08295 349
28.10307 317
28.12318 354
28.1433 314
28.16341 332
28.18352 322
28.20364 336
28.22375 327
28.24386 318
28.26398 336
28.28409 317
28.3042 365
28.32432 293
28.34443 326
28.36455 312
28.38466 289
28.40477 342
28.42489 288
28.445 318
28.46511 320
28.48523 341
28.50534 325
28.52546 326
28.54557 315
28.56568 308
28.5858 270
28.60591 306
28.62602 281
28.64614 287
28.66625 314
28.68636 299
28.70648 321
28.72659 329
28.74671 304
28.76682 258
28.78693 309
28.80705 293
28.82716 310
28.84727 336
28.86739 320
28.8875 306
28.90762 278
28.92773 280
28.94784 276
28.96796 268
28.98807 254
29.00818 277
29.0283 326
29.04841 302
29.06853 304
29.08864 303
29.10875 278
29.12887 299
29.14898 255
29.16909 288
29.18921 259
29.20932 277
29.22943 289
29.24955 277
29.26966 283
29.28978 271
29.30989 290
29.33 296
29.35012 284
29.37023 289
29.39034 269
29.41046 276
29.43057 261
29.45069 292
29.4708 281
29.49091 262
29.51103 279
29.53114 263
29.55125 272
29.57137 284
29.59148 240
29.6116 269
29.63171 239
29.65182 293
29.67194 282
29.69205 289
29.71216 275
29.73228 341
29.75239 271
29.7725 288
29.79262 293
29.81273 289
29.83285 280
29.85296 322
29.87307 287
29.89319 279
29.9133 289
29.93341 262
29.95353 267
29.97364 247
29.99376 293
30.01387 269
30.03398 289
30.0541 295
30.07421 272
30.09432 291
30.11444 265
30.13455 271
30.15467 276
30.17478 272
30.19489 257
30.21501 260
30.23512 280
30.25523 274
30.27535 277
30.29546 259
30.31557 253
30.33569 286
30.3558 246
30.37592 291
30.39603 268
30.41614 276
30.43626 262
30.45637 252
30.47648 278
30.4966 269
30.51671 278
30.53683 251
30.55694 275
30.57705 248
30.59717 249
30.61728 275
30.63739 262
30.65751 265
30.67762 274
30.69773 274
30.71785 278
30.73796 254
30.75808 269
30.77819 271
30.7983 256
30.81842 281
30.83853 268
30.85864 285
30.87876 256
30.89887 235
30.91899 262
30.9391 265
30.95921 299
30.97933 264
30.99944 293
31.01955 249
31.03967 245
31.05978 245
31.0799 262
31.10001 235
31.12012 266
31.14024 270
31.16035 282
31.18046 243
31.20058 264
31.22069 274
31.2408 247
31.26092 280
31.28103 292
31.30115 290
31.32126 277
31.34137 265
31.36149 255
31.3816 261
31.40171 238
31.42183 261
31.44194 270
31.46206 289
31.48217 252
31.50228 237
31.5224 247
31.54251 249
31.56262 227
31.58274 270
31.60285 236
31.62297 263
31.64308 258
31.66319 237
31.68331 262
31.70342 222
31.72353 236
31.74365 228
31.76376 249
31.78387 286
31.80399 259
31.8241 251
31.84422 251
31.86433 269
31.88444 256
31.90456 269
31.92467 265
31.94478 280
31.9649 225
31.98501 234
32.00513 280
32.02524 268
32.04535 256
32.06547 257
32.08558 232
32.10569 260
32.12581 275
32.14592 246
32.16604 266
32.18615 242
32.20626 237
32.22638 254
32.24649 235
32.2666 271
32.28672 243
32.30683 261
32.32694 265
32.34706 288
32.36717 276
32.38729 263
32.4074 257
32.42751 263
32.44763 263
32.46774 281
32.48785 290
32.50797 276
32.52808 289
32.5482 269
32.56831 299
32.58842 234
32.60854 277
32.62865 267
32.64876 261
32.66888 275
32.68899 276
32.7091 241
32.72922 266
32.74933 243
32.76945 251
32.78956 250
32.80967 240
32.82979 259
32.8499 252
32.87001 245
32.89013 270
32.91024 256
32.93036 260
32.95047 263
32.97058 234
32.9907 272
33.01081 258
33.03092 227
33.05104 250
33.07115 232
33.09127 238
33.11138 244
33.13149 239
33.15161 288
33.17172 273
33.19183 256
33.21195 256
33.23206 237
33.25217 298
33.27229 243
33.2924 270
33.31252 240
33.33263 260
33.35274 264
33.37286 275
33.39297 283
33.41308 258
33.4332 282
33.45331 245
33.47343 281
33.49354 254
33.51365 282
33.53377 272
33.55388 250
33.57399 285
33.59411 259
33.61422 269
33.63434 241
33.65445 218
33.67456 221
33.69468 263
33.71479 232
33.7349 196
33.75502 225
33.77513 264
33.79524 252
33.81536 265
33.83547 254
33.85559 264
33.8757 283
33.89581 191
33.91593 248
33.93604 238
33.95615 251
33.97627 236
33.99638 233
34.0165 231
34.03661 259
34.05672 239
34.07684 208
34.09695 222
34.11706 277
34.13718 248
34.15729 214
34.17741 240
34.19752 234
34.21763 239
34.23775 267
34.25786 246
34.27797 252
34.29809 267
34.3182 267
34.33831 267
34.35843 261
34.37854 252
34.39866 265
34.41877 284
34.43888 270
34.459 308
34.47911 278
34.49922 295
34.51934 275
34.53945 282
34.55957 324
34.57968 326
34.59979 335
34.61991 282
34.64002 333
34.66013 355
34.68025 383
34.70036 378
34.72047 346
34.74059 403
34.7607 433
34.78082 406
34.80093 411
34.82104 420
34.84116 470
34.86127 452
34.88138 460
34.9015 427
34.92161 484
34.94173 451
34.96184 472
34.98195 493
35.00207 435
35.02218 385
35.04229 377
35.06241 440
35.08252 434
35.10264 386
35.12275 389
35.14286 410
35.16298 362
35.18309 388
35.2032 384
35.22332 359
35.24343 371
35.26354 393
35.28366 432
35.30377 362
35.32389 377
35.344 371
35.36411 390
35.38423 385
35.40434 426
35.42445 373
35.44457 410
35.46468 364
35.4848 367
35.50491 352
35.52502 399
35.54514 397
35.56525 363
35.58536 386
35.60548 400
35.62559 382
35.64571 386
35.66582 376
35.68593 373
35.70605 414
35.72616 374
35.74627 419
35.76639 392
35.7865 402
35.80661 407
35.82673 396
35.84684 391
35.86696 415
35.88707 429
35.90718 457
35.9273 397
35.94741 394
35.96752 435
35.98764 432
36.00775 404
36.02787 379
36.04798 389
36.06809 363
36.08821 379
36.10832 413
36.12843 373
36.14855 406
36.16866 408
36.18878 423
36.20889 425
36.229 414
36.24912 453
36.26923 466
36.28934 530
36.30946 525
36.32957 615
36.34968 699
36.3698 827
36.38991 1000
36.41003 1169
36.43014 1405
36.45025 1588
36.47037 1774
36.49048 1821
36.51059 1870
36.53071 1637
36.55082 1443
36.57094 1259
36.59105 1095
36.61116 976
36.63128 721
36.65139 619
36.6715 509
36.69162 429
36.71173 399
36.73184 377
36.75196 344
36.77207 352
36.79219 367
36.8123 365
36.83241 304
36.85253 336
36.87264 349
36.89275 323
36.91287 333
36.93298 324
36.9531 336
36.97321 320
36.99332 347
37.01344 337
37.03355 348
37.05366 329
37.07378 341
37.09389 316
37.11401 328
37.13412 380
37.15423 354
37.17435 299
37.19446 337
37.21457 342
37.23469 352
37.2548 342
37.27491 310
37.29503 350
37.31514 329
37.33526 367
37.35537 318
37.37548 352
37.3956 362
37.41571 335
37.43582 330
37.45594 371
37.47605 341
37.49617 339
37.51628 340
37.53639 371
37.55651 347
37.57662 381
37.59673 383
37.61685 384
37.63696 356
37.65708 371
37.67719 402
37.6973 422
37.71742 375
37.73753 357
37.75764 343
37.77776 362
37.79787 342
37.81798 334
37.8381 366
37.85821 376
37.87833 349
37.89844 334
37.91855 357
37.93867 347
37.95878 329
37.97889 334
37.99901 350
38.01912 375
38.03924 385
38.05935 362
38.07946 368
38.09958 377
38.11969 370
38.1398 380
38.15992 360
38.18003 415
38.20015 354
38.22026 382
38.24037 440
38.26049 390
38.2806 417
38.30071 408
38.32083 404
38.34094 416
38.36105 374
38.38117 432
38.40128 368
38.4214 404
38.44151 394
38.46162 398
38.48174 417
38.50185 381
38.52196 387
38.54208 377
38.56219 397
38.58231 353
38.60242 392
38.62253 345
38.64265 356
38.66276 335
38.68287 357
38.70299 340
38.7231 359
38.74321 305
38.76333 365
38.78344 336
38.80356 326
38.82367 317
38.84378 330
38.8639 366
38.88401 358
38.90412 373
38.92424 340
38.94435 323
38.96447 368
38.98458 352
39.00469 349
39.02481 353
39.04492 373
39.06503 366
39.08515 359
39.10526 439
39.12538 423
39.14549 407
39.1656 436
39.18572 461
39.20583 452
39.22594 541
39.24606 565
39.26617 663
39.28628 747
39.3064 883
39.32651 1014
39.34663 1268
39.36674 1426
39.38685 1534
39.40697 1677
39.42708 1783
39.44719 1510
39.46731 1412
39.48742 1183
39.50754 1088
39.52765 913
39.54776 865
39.56788 683
39.58799 534
39.6081 463
39.62822 374
39.64833 330
39.66845 302
39.68856 298
39.70867 287
39.72879 286
39.7489 300
39.76901 305
39.78913 319
39.80924 283
39.82935 298
39.84947 293
39.86958 316
39.8897 290
39.90981 288
39.92992 350
39.95004 346
39.97015 331
39.99026 318
40.01038 379
40.03049 380
40.05061 417
40.07072 408
40.09083 435
40.11095 494
40.13106 594
40.15117 623
40.17129 761
40.1914 834
40.21152 899
40.23163 924
40.25174 944
40.27186 957
40.29197 822
40.31208 705
40.3322 629
40.35231 622
40.37242 528
40.39254 456
40.41265 417
40.43277 362
40.45288 333
40.47299 337
40.49311 321
40.51322 305
40.53333 287
40.55345 272
40.57356 314
40.59368 241
40.61379 267
40.6339 282
40.65402 292
40.67413 288
40.69424 284
40.71436 293
40.73447 302
40.75458 289
40.7747 283
40.79481 278
40.81493 290
40.83504 273
40.85515 244
40.87527 289
40.89538 262
40.91549 262
40.93561 275
40.95572 284
40.97584 292
40.99595 248
41.01606 268
41.03618 292
41.05629 288
41.0764 298
41.09652 272
41.11663 263
41.13675 271
41.15686 267
41.17697 266
41.19709 268
41.2172 262
41.23731 263
41.25743 297
41.27754 278
41.29765 282
41.31777 309
41.33788 271
41.358 297
41.37811 290
41.39822 261
41.41834 261
41.43845 272
41.45856 268
41.47868 286
41.49879 229
41.51891 294
41.53902 252
41.55913 281
41.57925 257
41.59936 247
41.61947 263
41.63959 262
41.6597 284
41.67982 259
41.69993 251
41.72004 269
41.74016 276
41.76027 278
41.78038 283
41.8005 290
41.82061 262
41.84072 252
41.86084 279
41.88095 290
41.90107 275
41.92118 260
41.94129 279
41.96141 273
41.98152 262
42.00163 283
42.02175 277
42.04186 288
42.06198 283
42.08209 293
42.1022 311
42.12232 348
42.14243 342
42.16254 366
42.18266 355
42.20277 398
42.22289 444
42.243 471
42.26311 554
42.28323 652
42.30334 782
42.32345 915
42.34357 1019
42.36368 1204
42.38379 1231
42.40391 1255
42.42402 1109
42.44414 1009
42.46425 923
42.48436 785
42.50448 740
42.52459 632
42.5447 560
42.56482 479
42.58493 384
42.60505 352
42.62516 310
42.64527 262
42.66539 264
42.6855 279
42.70561 256
42.72573 238
42.74584 267
42.76595 234
42.78607 215
42.80618 238
42.8263 258
42.84641 243
42.86652 230
42.88664 233
42.90675 239
42.92686 226
42.94698 233
42.96709 242
42.98721 238
43.00732 235
43.02743 219
43.04755 238
43.06766 229
43.08777 206
43.10789 212
43.128 227
43.14812 218
43.16823 234
43.18834 226
43.20846 229
43.22857 234
43.24868 221
43.2688 235
43.28891 229
43.30902 241
43.32914 239
43.34925 227
43.36937 230
43.38948 228
43.40959 224
43.42971 221
43.44982 211
43.46993 225
43.49005 211
43.51016 239
43.53028 213
43.55039 207
43.5705 212
43.59062 227
43.61073 206
43.63084 229
43.65096 211
43.67107 205
43.69119 216
43.7113 241
43.73141 236
43.75153 211
43.77164 227
43.79175 227
43.81187 211
43.83198 231
43.85209 226
43.87221 236
43.89232 230
43.91244 232
43.93255 242
43.95266 219
43.97278 242
43.99289 227
44.013 231
44.03312 213
44.05323 219
44.07335 253
44.09346 215
44.11357 232
44.13369 238
44.1538 223
44.17391 240
44.19403 238
44.21414 220
44.23426 273
44.25437 237
44.27448 227
44.2946 213
44.31471 244
44.33482 214
44.35494 209
44.37505 244
44.39516 237
44.41528 215
44.43539 244
44.45551 230
44.47562 234
44.49573 210
44.51585 237
44.53596 236
44.55607 213
44.57619 204
44.5963 212
44.61642 266
44.63653 222
44.65664 227
44.67676 234
44.69687 225
44.71698 215
44.7371 232
44.75721 232
44.77732 222
44.79744 260
44.81755 226
44.83767 249
44.85778 244
44.87789 204
44.89801 219
44.91812 226
44.93823 252
44.95835 263
44.97846 247
44.99858 265
45.01869 228
45.0388 251
45.05892 230
45.07903 248
45.09914 271
45.11926 256
45.13937 257
45.15949 249
45.1796 274
45.19971 254
45.21983 267
45.23994 251
45.26005 309
45.28017 241
45.30028 305
45.32039 284
45.34051 307
45.36062 296
45.38074 288
45.40085 320
45.42096 294
45.44108 311
45.46119 306
45.4813 309
45.50142 321
45.52153 380
45.54165 374
45.56176 366
45.58187 437
45.60199 509
45.6221 568
45.64221 580
45.66233 641
45.68244 724
45.70256 843
45.72267 856
45.74278 866
45.7629 828
45.78301 765
45.80312 626
45.82324 647
45.84335 604
45.86346 558
45.88358 533
45.90369 447
45.92381 406
45.94392 329
45.96403 304
45.98415 287
46.00426 279
46.02437 268
46.04449 258
46.0646 245
46.08472 228
46.10483 237
46.12494 271
46.14506 258
46.16517 255
46.18528 264
46.2054 246
46.22551 242
46.24563 228
46.26574 244
46.28585 257
46.30597 255
46.32608 249
46.34619 232
46.36631 223
46.38642 261
46.40653 232
46.42665 260
46.44676 198
46.46688 249
46.48699 225
46.5071 244
46.52722 237
46.54733 266
46.56744 238
46.58756 242
46.60767 216
46.62779 253
46.6479 220
46.66801 224
46.68813 231
46.70824 216
46.72835 256
46.74847 215
46.76858 205
46.78869 248
46.80881 206
46.82892 218
46.84904 234
46.86915 224
46.88926 216
46.90938 242
46.92949 246
46.9496 218
46.96972 214
46.98983 222
47.00995 222
47.03006 238
47.05017 246
47.07029 243
47.0904 249
47.11051 203
47.13063 223
47.15074 225
47.17086 225
47.19097 248
47.21108 212
47.2312 222
47.25131 220
47.27142 218
47.29154 226
47.31165 209
47.33176 210
47.35188 228
47.37199 236
47.39211 242
47.41222 224
47.43233 229
47.45245 200
47.47256 234
47.49267 265
47.51279 199
47.5329 198
47.55302 228
47.57313 241
47.59324 227
47.61336 239
47.63347 219
47.65358 213
47.6737 241
47.69381 235
47.71393 224
47.73404 237
47.75415 219
47.77427 241
47.79438 241
47.81449 242
47.83461 231
47.85472 253
47.87483 251
47.89495 273
47.91506 223
47.93518 250
47.95529 253
47.9754 241
47.99552 241
48.01563 231
48.03574 226
48.05586 231
48.07597 223
48.09609 224
48.1162 234
48.13631 216
48.15643 241
48.17654 239
48.19665 220
48.21677 213
48.23688 238
48.257 209
48.27711 249
48.29722 224
48.31734 245
48.33745 232
48.35756 227
48.37768 214
48.39779 196
48.4179 215
48.43802 218
48.45813 220
48.47825 218
48.49836 200
48.51847 234
48.53859 235
48.5587 238
48.57881 245
48.59893 204
48.61904 233
48.63916 235
48.65927 231
48.67938 224
48.6995 216
48.71961 211
48.73972 247
48.75984 210
48.77995 243
48.80006 228
48.82018 221
48.84029 215
48.86041 244
48.88052 207
48.90063 223
48.92075 234
48.94086 195
48.96097 255
48.98109 259
49.0012 261
49.02132 245
49.04143 227
49.06154 222
49.08166 216
49.10177 222
49.12188 242
49.142 238
49.16211 226
49.18223 213
49.20234 236
49.22245 249
49.24257 224
49.26268 247
49.28279 237
49.30291 252
49.32302 237
49.34313 226
49.36325 263
49.38336 236
49.40348 257
49.42359 240
49.4437 238
49.46382 227
49.48393 233
49.50404 241
49.52416 264
49.54427 253
49.56439 249
49.5845 238
49.60461 285
49.62473 296
49.64484 277
49.66495 296
49.68507 314
49.70518 325
49.7253 350
49.74541 361
49.76552 368
49.78564 379
49.80575 433
49.82586 478
49.84598 498
49.86609 579
49.8862 649
49.90632 759
49.92643 842
49.94655 1005
49.96666 1270
49.98677 1529
50.00689 1714
50.027 2096
50.04711 2288
50.06723 2475
50.08734 2472
50.10746 2361
50.12757 2100
50.14768 1706
50.1678 1585
50.18791 1488
50.20802 1305
50.22814 1274
50.24825 1066
50.26837 865
50.28848 671
50.30859 488
50.32871 422
50.34882 371
50.36893 334
50.38905 335
50.40916 269
50.42927 274
50.44939 310
50.4695 299
50.48962 315
50.50973 324
50.52984 309
50.54996 310
50.57007 330
50.59018 290
50.6103 312
50.63041 296
50.65053 276
50.67064 261
50.69075 289
50.71087 272
50.73098 297
50.75109 259
50.77121 230
50.79132 246
50.81143 228
50.83155 241
50.85166 256
50.87178 246
50.89189 245
50.912 245
50.93212 224
50.95223 233
50.97234 212
50.99246 212
51.01257 257
51.03269 192
51.0528 222
51.07291 203
51.09303 228
51.11314 215
51.13325 210
51.15337 239
51.17348 220
51.1936 222
51.21371 208
51.23382 190
51.25394 197
51.27405 232
51.29416 205
51.31428 207
51.33439 196
51.3545 213
51.37462 202
51.39473 217
51.41485 206
51.43496 194
51.45507 226
51.47519 195
51.4953 216
51.51541 207
51.53553 213
51.55564 228
51.57576 219
51.59587 182
51.61598 186
51.6361 196
51.65621 190
51.67632 198
51.69644 191
51.71655 198
51.73667 215
51.75678 203
51.77689 217
51.79701 211
51.81712 210
51.83723 204
51.85735 202
51.87746 204
51.89757 219
51.91769 209
51.9378 237
51.95792 219
51.97803 187
51.99814 200
52.01826 197
52.03837 218
52.05848 199
52.0786 201
52.09871 218
52.11883 199
52.13894 214
52.15905 195
52.17917 210
52.19928 214
52.21939 191
52.23951 223
52.25962 189
52.27974 216
52.29985 205
52.31996 218
52.34008 202
52.36019 187
52.3803 191
52.40042 195
52.42053 181
52.44064 208
52.46076 211
52.48087 175
52.50099 200
52.5211 222
52.54121 201
52.56133 180
52.58144 206
52.60155 207
52.62167 206
52.64178 211
52.6619 192
52.68201 211
52.70212 202
52.72224 224
52.74235 184
52.76246 200
52.78258 221
52.80269 192
52.8228 207
52.84292 201
52.86303 199
52.88315 201
52.90326 220
52.92337 197
52.94349 238
52.9636 230
52.98371 217
53.00383 209
53.02394 198
53.04406 236
53.06417 236
53.08428 243
53.1044 210
53.12451 222
53.14462 234
53.16474 232
53.18485 238
53.20497 225
53.22508 238
53.24519 221
53.26531 222
53.28542 228
53.30553 232
53.32565 196
53.34576 219
53.36587 213
53.38599 234
53.4061 231
53.42622 238
53.44633 230
53.46644 203
53.48656 223
53.50667 238
53.52678 245
53.5469 262
53.56701 251
53.58713 254
53.60724 225
53.62735 248
53.64747 241
53.66758 272
53.68769 226
53.70781 240
53.72792 232
53.74804 244
53.76815 252
53.78826 269
53.80838 261
53.82849 246
53.8486 228
53.86872 260
53.88883 271
53.90894 297
53.92906 266
53.94917 282
53.96929 264
53.9894 250
54.00951 274
54.02963 291
54.04974 273
54.06985 271
54.08997 296
54.11008 307
54.1302 257
54.15031 286
54.17042 281
54.19054 305
54.21065 288
54.23076 310
54.25088 333
54.27099 291
54.29111 291
54.31122 299
54.33133 268
54.35145 306
54.37156 304
54.39167 345
54.41179 295
54.4319 318
54.45201 294
54.47213 350
54.49224 323
54.51236 344
54.53247 365
54.55258 363
54.5727 351
54.59281 372
54.61292 354
54.63304 446
54.65315 457
54.67327 480
54.69338 551
54.71349 631
54.73361 738
54.75372 785
54.77383 875
54.79395 864
54.81406 889
54.83417 877
54.85429 823
54.8744 711
54.89452 653
54.91463 645
54.93474 598
54.95486 633
54.97497 629
54.99508 567
55.0152 507
55.03531 420
55.05543 401
55.07554 410
55.09565 420
55.11577 374
55.13588 414
55.15599 469
55.17611 455
55.19622 488
55.21634 527
55.23645 545
55.25656 564
55.27668 545
55.29679 537
55.3169 452
55.33702 443
55.35713 441
55.37724 400
55.39736 398
55.41747 400
55.43759 385
55.4577 408
55.47781 346
55.49793 342
55.51804 280
55.53815 280
55.55827 290
55.57838 272
55.5985 281
55.61861 271
55.63872 275
55.65884 315
55.67895 309
55.69906 261
55.71918 274
55.73929 248
55.75941 281
55.77952 258
55.79963 254
55.81975 234
55.83986 279
55.85997 253
55.88009 263
55.9002 237
55.92031 238
55.94043 271
55.96054 249
55.98066 234
56.00077 236
56.02088 272
56.041 241
56.06111 243
56.08122 264
56.10134 238
56.12145 256
56.14157 232
56.16168 250
56.18179 220
56.20191 233
56.22202 240
56.24213 249
56.26225 248
56.28236 235
56.30248 228
56.32259 265
56.3427 232
56.36282 235
56.38293 234
56.40304 214
56.42316 214
56.44327 241
56.46338 245
56.4835 222
56.50361 237
56.52373 211
56.54384 229
56.56395 224
56.58407 217
56.60418 231
56.62429 234
56.64441 214
56.66452 216
56.68464 199
56.70475 217
56.72486 229
56.74498 236
56.76509 216
56.7852 205
56.80532 216
56.82543 227
56.84554 241
56.86566 216
56.88577 202
56.90589 227
56.926 222
56.94611 211
56.96623 229
56.98634 200
57.00645 230
57.02657 233
57.04668 240
57.0668 227
57.08691 239
57.10702 221
57.12714 227
57.14725 261
57.16736 272
57.18748 226
57.20759 271
57.22771 237
57.24782 227
57.26793 246
57.28805 225
57.30816 256
57.32827 224
57.34839 245
57.3685 247
57.38861 208
57.40873 213
57.42884 224
57.44896 181
57.46907 226
57.48918 210
57.5093 194
57.52941 210
57.54952 224
57.56964 189
57.58975 201
57.60987 191
57.62998 207
57.65009 201
57.67021 244
57.69032 218
57.71043 212
57.73055 207
57.75066 223
57.77078 209
57.79089 232
57.811 231
57.83112 232
57.85123 205
57.87134 223
57.89146 219
57.91157 198
57.93168 211
57.9518 232
57.97191 193
57.99203 201
58.01214 197
58.03225 212
58.05237 211
58.07248 228
58.09259 222
58.11271 225
58.13282 213
58.15294 204
58.17305 232
58.19316 185
58.21328 231
58.23339 186
58.2535 193
58.27362 226
58.29373 190
58.31385 209
58.33396 190
58.35407 201
58.37419 187
58.3943 219
58.41441 186
58.43453 220
58.45464 213
58.47475 191
58.49487 184
58.51498 204
58.5351 224
58.55521 205
58.57532 234
58.59544 204
58.61555 219
58.63566 208
58.65578 196
58.67589 212
58.69601 193
58.71612 204
58.73623 194
58.75635 223
58.77646 201
58.79657 201
58.81669 212
58.8368 220
58.85691 206
58.87703 165
58.89714 207
58.91726 201
58.93737 208
58.95748 219
58.9776 196
58.99771 192
59.01782 225
59.03794 216
59.05805 217
59.07817 217
59.09828 208
59.11839 211
59.13851 217
59.15862 223
59.17873 224
59.19885 205
59.21896 220
59.23908 231
59.25919 204
59.2793 220
59.29942 241
59.31953 255
59.33964 245
59.35976 237
59.37987 266
59.39998 237
59.4201 255
59.44021 257
59.46033 261
59.48044 300
59.50055 249
59.52067 283
59.54078 299
59.56089 302
59.58101 346
59.60112 348
59.62124 354
59.64135 415
59.66146 446
59.68158 468
59.70169 568
59.7218 624
59.74192 718
59.76203 840
59.78215 960
59.80226 1081
59.82237 1226
59.84249 1464
59.8626 1546
59.88271 1534
59.90283 1541
59.92294 1438
59.94305 1257
59.96317 1094
59.98328 982
60.0034 933
60.02351 924
60.04362 884
60.06374 848
60.08385 851
60.10396 646
60.12408 524
60.14419 429
60.16431 341
60.18442 324
60.20453 314
60.22465 299
60.24476 239
60.26487 253
60.28499 245
60.3051 238
60.32522 262
60.34533 266
60.36544 221
60.38556 261
60.40567 227
60.42578 220
60.4459 227
60.46601 235
60.48612 205
60.50624 249
60.52635 206
60.54647 270
60.56658 203
60.58669 220
60.60681 199
60.62692 221
60.64703 234
60.66715 205
60.68726 209
60.70738 196
60.72749 202
60.7476 223
60.76772 228
60.78783 219
60.80794 217
60.82806 229
60.84817 199
60.86828 227
60.8884 187
60.90851 209
60.92863 194
60.94874 189
60.96885 191
60.98897 192
61.00908 218
61.02919 213
61.04931 181
61.06942 209
61.08954 192
61.10965 199
61.12976 209
61.14988 211
61.16999 205
61.1901 219
61.21022 179
61.23033 221
61.25045 206
61.27056 216
61.29067 220
61.31079 249
61.3309 202
61.35101 227
61.37113 205
61.39124 207
61.41135 224
61.43147 228
61.45158 258
61.4717 241
61.49181 239
61.51192 258
61.53204 255
61.55215 255
61.57226 224
61.59238 245
61.61249 241
61.63261 238
61.65272 274
61.67283 255
61.69295 255
61.71306 216
61.73317 221
61.75329 258
61.7734 248
61.79352 270
61.81363 275
61.83374 257
61.85386 267
61.87397 265
61.89408 236
61.9142 264
61.93431 254
61.95442 285
61.97454 283
61.99465 288
62.01477 281
62.03488 273
62.05499 319
62.07511 325
62.09522 333
62.11533 313
62.13545 318
62.15556 330
62.17568 306
62.19579 315
62.2159 362
62.23602 297
62.25613 328
62.27624 316
62.29636 323
62.31647 334
62.33659 334
62.3567 315
62.37681 302
62.39693 290
62.41704 282
62.43715 242
62.45727 263
62.47738 260
62.49749 230
62.51761 255
62.53772 230
62.55784 243
62.57795 256
62.59806 228
62.61818 233
62.63829 233
62.6584 228
62.67852 233
62.69863 229
62.71875 237
62.73886 188
62.75897 219
62.77909 241
62.7992 219
62.81931 232
62.83943 225
62.85954 220
62.87965 208
62.89977 235
62.91988 209
62.94 202
62.96011 226
62.98022 195
63.00034 216
63.02045 221
63.04056 226
63.06068 233
63.08079 213
63.10091 199
63.12102 207
63.14113 231
63.16125 218
63.18136 220
63.20147 199
63.22159 216
63.2417 214
63.26182 234
63.28193 220
63.30204 212
63.32216 210
63.34227 227
63.36238 237
63.3825 232
63.40261 223
63.42272 226
63.44284 204
63.46295 228
63.48307 237
63.50318 213
63.52329 210
63.54341 245
63.56352 201
63.58363 233
63.60375 239
63.62386 247
63.64398 237
63.66409 226
63.6842 209
63.70432 282
63.72443 261
63.74454 284
63.76466 287
63.78477 288
63.80489 300
63.825 316
63.84511 312
63.86523 336
63.88534 370
63.90545 423
63.92557 431
63.94568 463
63.96579 446
63.98591 473
64.00602 415
64.02614 416
64.04625 350
64.06636 331
64.08648 335
64.10659 338
64.1267 324
64.14682 362
64.16693 304
64.18705 309
64.20716 253
64.22727 262
64.24739 221
64.2675 220
64.28761 243
64.30773 217
64.32784 221
64.34796 220
64.36807 207
64.38818 200
64.4083 186
64.42841 201
64.44852 212
64.46864 200
64.48875 208
64.50886 212
64.52898 197
64.54909 209
64.56921 194
64.58932 202
64.60943 166
64.62955 211
64.64966 184
64.66977 185
64.68989 206
64.71 199
64.73012 187
64.75023 191
64.77034 200
64.79046 189
64.81057 172
64.83068 174
64.8508 179
64.87091 206
64.89102 204
64.91114 212
64.93125 211
64.95137 192
64.97148 172
64.99159 210
65.01171 191
65.03182 197
65.05193 177
65.07205 206
65.09216 216
65.11228 193
65.13239 185
65.1525 216
65.17262 173
65.19273 211
65.21284 203
65.23296 190
65.25307 204
65.27319 178
65.2933 196
65.31341 203
65.33353 176
65.35364 207
65.37375 188
65.39387 221
65.41398 211
65.43409 191
65.45421 206
65.47432 213
65.49444 216
65.51455 189
65.53466 195
65.55478 235
65.57489 206
65.595 227
65.61512 226
65.63523 216
65.65535 227
65.67546 260
65.69557 258
65.71569 245
65.7358 269
65.75591 242
65.77603 277
65.79614 242
65.81626 205
65.83637 209
65.85648 205
65.8766 243
65.89671 189
65.91682 226
65.93694 205
65.95705 208
65.97716 207
65.99728 201
66.01739 196
66.03751 195
66.05762 171
66.07773 208
66.09785 183
66.11796 211
66.13807 203
66.15819 228
66.1783 203
66.19842 187
66.21853 196
66.23864 183
66.25876 206
66.27887 183
66.29898 194
66.3191 188
66.33921 195
66.35933 179
66.37944 183
66.39955 219
66.41967 200
66.43978 204
66.45989 195
66.48001 190
66.50012 195
66.52023 177
66.54035 187
66.56046 201
66.58058 194
66.60069 207
66.6208 211
66.64092 203
66.66103 235
66.68114 220
66.70126 203
66.72137 181
66.74149 207
66.7616 205
66.78171 175
66.80183 195
66.82194 215
66.84205 197
66.86217 209
66.88228 181
66.90239 220
66.92251 192
66.94262 222
66.96274 219
66.98285 220
67.00296 209
67.02308 199
67.04319 227
67.0633 213
67.08342 218
67.10353 204
67.12365 186
67.14376 219
67.16387 196
67.18399 225
67.2041 247
67.22421 230
67.24433 246
67.26444 259
67.28456 261
67.30467 254
67.32478 268
67.3449 283
67.36501 290
67.38512 295
67.40524 303
67.42535 326
67.44546 315
67.46558 374
67.48569 392
67.50581 444
67.52592 501
67.54603 564
67.56615 675
67.58626 757
67.60637 831
67.62649 920
67.6466 933
67.66672 952
67.68683 1011
67.70694 928
67.72706 811
67.74717 726
67.76728 707
67.7874 706
67.80751 671
67.82763 718
67.84774 775
67.86785 824
67.88797 785
67.90808 828
67.92819 831
67.94831 829
67.96842 860
67.98853 1007
68.00865 1027
68.02876 1138
68.04888 1205
68.06899 1256
68.0891 1258
68.10922 1233
68.12933 1157
68.14944 1161
68.16956 1081
68.18967 1120
68.20979 1189
68.2299 1198
68.25001 1222
68.27013 1175
68.29024 988
68.31035 888
68.33047 762
68.35058 637
68.3707 590
68.39081 501
68.41092 530
68.43104 513
68.45115 498
68.47126 433
68.49138 404
68.51149 340
68.5316 287
68.55172 246
68.57183 261
68.59195 251
68.61206 230
68.63217 218
68.65229 223
68.6724 239
68.69251 246
68.71263 202
68.73274 203
68.75286 225
68.77297 221
68.79308 244
68.8132 183
68.83331 221
68.85342 214
68.87354 212
68.89365 213
68.91376 194
68.93388 179
68.95399 226
68.97411 213
68.99422 210
69.01433 236
69.03445 189
69.05456 191
69.07467 183
69.09479 178
69.1149 201
69.13502 188
69.15513 163
69.17524 177
69.19536 175
69.21547 193
69.23558 184
69.2557 197
69.27581 188
69.29593 217
69.31604 186
69.33615 168
69.35627 169
69.37638 185
69.39649 196
69.41661 181
69.43672 192
69.45683 206
69.47695 186
69.49706 204
69.51718 179
69.53729 208
69.5574 200
69.57752 187
69.59763 203
69.61774 192
69.63786 171
69.65797 202
69.67809 204
69.6982 185
69.71831 197
69.73843 193
69.75854 201
69.77865 167
69.79877 188
69.81888 179
69.839 165
69.85911 172
69.87922 189
69.89934 195
69.91945 200
69.93956 190
69.95968 192
69.97979 179
69.9999 218
70.02002 190
70.04013 202
70.06025 192
70.08036 205
70.10047 183
70.12059 173
70.1407 190
70.16081 181
70.18093 191
70.20104 166
70.22116 186
70.24127 217
70.26138 174
70.2815 191
70.30161 179
70.32172 175
70.34184 169
70.36195 161
70.38207 180
70.40218 185
70.42229 190
70.44241 187
70.46252 195
70.48263 168
70.50275 193
70.52286 189
70.54297 216
70.56309 190
70.5832 170
70.60332 159
70.62343 182
70.64354 189
70.66366 198
70.68377 179
70.70388 168
70.724 157
70.74411 184
70.76423 169
70.78434 193
70.80445 194
70.82457 192
70.84468 161
70.86479 183
70.88491 178
70.90502 175
70.92513 183
70.94525 181
70.96536 145
70.98548 185
71.00559 166
71.0257 172
71.04582 182
71.06593 163
71.08604 145
71.10616 173
71.12627 161
71.14639 155
71.1665 176
71.18661 170
71.20673 189
71.22684 183
71.24695 171
71.26707 161
71.28718 189
71.3073 161
71.32741 165
71.34752 181
71.36764 189
71.38775 169
71.40786 184
71.42798 162
71.44809 161
71.4682 178
71.48832 192
71.50843 168
71.52855 162
71.54866 187
71.56877 162
71.58889 189
71.609 191
71.62911 172
71.64923 162
71.66934 162
71.68946 198
71.70957 177
71.72968 178
71.7498 185
71.76991 191
71.79002 159
71.81014 178
71.83025 173
71.85037 157
71.87048 187
71.89059 170
71.91071 181
71.93082 180
71.95093 193
71.97105 169
71.99116 169
72.01127 169
72.03139 177
72.0515 176
72.07162 189
72.09173 184
72.11184 157
72.13196 194
72.15207 167
72.17218 159
72.1923 160
72.21241 182
72.23253 159
72.25264 179
72.27275 170
72.29287 162
72.31298 151
72.33309 166
72.35321 182
72.37332 173
72.39344 185
72.41355 186
72.43366 179
72.45378 165
72.47389 175
72.494 176
72.51412 153
72.53423 173
72.55434 170
72.57446 192
72.59457 177
72.61469 200
72.6348 164
72.65491 196
72.67503 199
72.69514 189
72.71525 192
72.73537 188
72.75548 169
72.7756 182
72.79571 192
72.81582 159
72.83594 175
72.85605 193
72.87616 170
72.89628 179
72.91639 201
72.9365 198
72.95662 188
72.97673 221
72.99685 199
73.01696 207
73.03707 224
73.05719 205
73.0773 223
73.09741 208
73.11753 200
73.13764 213
73.15776 215
73.17787 242
73.19798 235
73.2181 269
73.23821 279
73.25832 331
73.27844 341
73.29855 342
73.31867 399
73.33878 441
73.35889 412
73.37901 472
73.39912 468
73.41923 421
73.43935 401
73.45946 351
73.47957 358
73.49969 348
73.5198 320
73.53992 326
73.56003 328
73.58014 341
73.60026 346
73.62037 322
73.64048 281
73.6606 265
73.68071 261
73.70083 231
73.72094 215
73.74105 200
73.76117 214
73.78128 216
73.80139 178
73.82151 189
73.84162 201
73.86174 190
73.88185 191
73.90196 191
73.92208 171
73.94219 180
73.9623 173
73.98242 168
74.00253 185
74.02264 194
74.04276 194
74.06287 187
74.08299 166
74.1031 186
74.12321 188
74.14333 188
74.16344 166
74.18355 184
74.20367 168
74.22378 175
74.2439 166
74.26401 170
74.28412 128
74.30424 191
74.32435 174
74.34446 176
74.36458 163
74.38469 189
74.40481 166
74.42492 194
74.44503 185
74.46515 213
74.48526 195
74.50537 167
74.52549 164
74.5456 188
74.56571 183
74.58583 163
74.60594 174
74.62606 169
74.64617 152
74.66628 192
74.6864 173
74.70651 183
74.72662 171
74.74674 194
74.76685 176
74.78697 182
74.80708 179
74.82719 173
74.84731 185
74.86742 176
74.88753 203
74.90765 199
74.92776 180
74.94787 162
74.96799 176
74.9881 183
75.00822 176
