3.00117 20111
3.02128 19293
3.0414 19326
3.06151 18616
3.08162 18185
3.10174 17110
3.12185 16884
3.14197 16724
3.16208 16189
3.18219 15856
3.20231 15352
3.22242 14591
3.24253 14625
3.26265 13677
3.28276 13537
3.30288 13059
3.32299 12386
3.3431 12246
3.36322 11807
3.38333 11324
3.40344 11028
3.42356 10195
3.44367 10400
3.46379 9965
3.4839 9508
3.50401 9165
3.52413 9009
3.54424 8669
3.56435 8056
3.58447 8056
3.60458 7628
3.62469 7305
3.64481 7274
3.66492 6844
3.68504 6636
3.70515 6295
3.72526 6028
3.74538 5868
3.76549 5494
3.7856 5298
3.80572 5188
3.82583 4754
3.84595 4795
3.86606 4569
3.88617 4205
3.90629 4076
3.9264 3922
3.94651 3843
3.96663 3543
3.98674 3511
4.00686 3207
4.02697 3071
4.04708 3160
4.0672 2817
4.08731 2894
4.10742 2645
4.12754 2505
4.14765 2470
4.16776 2352
4.18788 2152
4.20799 2046
4.22811 2019
4.24822 2046
4.26833 1951
4.28845 1908
4.30856 1759
4.32867 1654
4.34879 1764
4.3689 1645
4.38902 1580
4.40913 1444
4.42924 1439
4.44936 1459
4.46947 1422
4.48958 1347
4.5097 1335
4.52981 1279
4.54992 1329
4.57004 1329
4.59015 1119
4.61027 1158
4.63038 1085
4.65049 1150
4.67061 1071
4.69072 1011
4.71083 984
4.73095 949
4.75106 1021
4.77118 971
4.79129 819
4.8114 879
4.83152 829
4.85163 879
4.87174 823
4.89186 822
4.91197 749
4.93209 790
4.9522 779
4.97231 698
4.99243 707
5.01254 746
5.03265 658
5.05277 711
5.07288 752
5.09299 661
5.11311 590
5.13322 662
5.15334 623
5.17345 618
5.19356 531
5.21368 543
5.23379 570
5.2539 536
5.27402 570
5.29413 505
5.31425 481
5.33436 485
5.35447 472
5.37459 520
5.3947 450
5.41481 518
5.43493 405
5.45504 442
5.47516 424
5.49527 375
5.51538 392
5.5355 391
5.55561 359
5.57572 354
5.59584 360
5.61595 348
5.63606 319
5.65618 372
5.67629 341
5.69641 315
5.71652 302
5.73663 303
5.75675 343
5.77686 301
5.79697 305
5.81709 253
5.8372 290
5.85732 278
5.87743 281
5.89754 238
5.91766 292
5.93777 326
5.95788 275
5.978 238
5.99811 279
6.01823 240
6.03834 246
6.05845 291
6.07857 248
6.09868 244
6.11879 224
6.13891 219
6.15902 274
6.17913 225
6.19925 243
6.21936 279
6.23948 251
6.25959 235
6.2797 253
6.29982 271
6.31993 226
6.34004 243
6.36016 258
6.38027 250
6.40039 224
6.4205 238
6.44061 204
6.46073 233
6.48084 209
6.50095 218
6.52107 210
6.54118 211
6.56129 209
6.58141 210
6.60152 252
6.62164 234
6.64175 202
6.66186 231
6.68198 207
6.70209 201
6.7222 199
6.74232 207
6.76243 240
6.78255 200
6.80266 197
6.82277 230
6.84289 189
6.863 213
6.88311 200
6.90323 229
6.92334 201
6.94346 196
6.96357 214
6.98368 219
7.0038 214
7.02391 220
7.04402 222
7.06414 214
7.08425 198
7.10436 235
7.12448 203
7.14459 202
7.16471 237
7.18482 251
7.20493 214
7.22505 217
7.24516 195
7.26527 239
7.28539 220
7.3055 243
7.32562 227
7.34573 178
7.36584 231
7.38596 209
7.40607 231
7.42618 242
7.4463 207
7.46641 239
7.48653 221
7.50664 228
7.52675 200
7.54687 231
7.56698 194
7.58709 231
7.60721 236
7.62732 220
7.64743 244
7.66755 224
7.68766 235
7.70778 202
7.72789 187
7.748 233
7.76812 244
7.78823 219
7.80834 229
7.82846 202
7.84857 251
7.86869 237
7.8888 209
7.90891 238
7.92903 225
7.94914 186
7.96925 229
7.98937 234
8.00948 253
8.0296 234
8.04971 255
8.06982 237
8.08994 230
8.11005 231
8.13016 212
8.15028 241
8.17039 228
8.1905 207
8.21062 262
8.23073 207
8.25085 199
8.27096 240
8.29107 228
8.31119 236
8.3313 252
8.35141 265
8.37153 229
8.39164 225
8.41176 237
8.43187 227
8.45198 280
8.4721 259
8.49221 239
8.51232 227
8.53244 223
8.55255 214
8.57266 230
8.59278 231
8.61289 238
8.63301 225
8.65312 230
8.67323 224
8.69335 256
8.71346 226
8.73357 228
8.75369 257
8.7738 237
8.79392 264
8.81403 235
8.83414 242
8.85426 250
8.87437 232
8.89448 237
8.9146 240
8.93471 284
8.95483 242
8.97494 227
8.99505 235
9.01517 245
9.03528 249
9.05539 266
9.07551 242
9.09562 250
9.11573 242
9.13585 270
9.15596 232
9.17608 293
9.19619 226
9.2163 241
9.23642 232
9.25653 250
9.27664 264
9.29676 236
9.31687 235
9.33699 259
9.3571 243
9.37721 236
9.39733 226
9.41744 271
9.43755 251
9.45767 244
9.47778 229
9.4979 258
9.51801 240
9.53812 249
9.55824 245
9.57835 244
9.59846 259
9.61858 247
9.63869 228
9.6588 255
9.67892 264
9.69903 260
9.71915 258
9.73926 257
9.75937 273
9.77949 255
9.7996 242
9.81971 229
9.83983 258
9.85994 235
9.88006 237
9.90017 218
9.92028 254
9.9404 258
9.96051 240
9.98062 216
10.00074 233
10.02085 250
10.04097 301
10.06108 254
10.08119 245
10.10131 237
10.12142 271
10.14153 246
10.16165 247
10.18176 244
10.20187 242
10.22199 241
10.2421 271
10.26222 234
10.28233 234
10.30244 264
10.32256 248
10.34267 260
10.36278 268
10.3829 250
10.40301 252
10.42313 225
10.44324 247
10.46335 241
10.48347 236
10.50358 269
10.52369 235
10.54381 270
10.56392 274
10.58403 222
10.60415 257
10.62426 272
10.64438 258
10.66449 244
10.6846 251
10.70472 245
10.72483 251
10.74494 265
10.76506 257
10.78517 273
10.80529 265
10.8254 239
10.84551 246
10.86563 227
10.88574 254
10.90585 243
10.92597 269
10.94608 272
10.9662 249
10.98631 221
11.00642 254
11.02654 246
11.04665 238
11.06676 263
11.08688 219
11.10699 244
11.1271 247
11.14722 244
11.16733 264
11.18745 223
11.20756 238
11.22767 239
11.24779 253
11.2679 239
11.28801 249
11.30813 256
11.32824 267
11.34836 220
11.36847 232
11.38858 228
11.4087 274
11.42881 246
11.44892 263
11.46904 272
11.48915 240
11.50927 240
11.52938 242
11.54949 250
11.56961 244
11.58972 260
11.60983 217
11.62995 230
11.65006 260
11.67017 234
11.69029 259
11.7104 236
11.73052 238
11.75063 251
11.77074 261
11.79086 207
11.81097 246
11.83108 261
11.8512 276
11.87131 281
11.89143 241
11.91154 268
11.93165 226
11.95177 255
11.97188 253
11.99199 274
12.01211 283
12.03222 307
12.05234 272
12.07245 276
12.09256 303
12.11268 298
12.13279 313
12.1529 298
12.17302 326
12.19313 331
12.21324 305
12.23336 297
12.25347 355
12.27359 322
12.2937 317
12.31381 358
12.33393 343
12.35404 335
12.37415 323
12.39427 307
12.41438 296
12.4345 277
12.45461 283
12.47472 275
12.49484 278
12.51495 242
12.53506 250
12.55518 255
12.57529 251
12.5954 286
12.61552 265
12.63563 222
12.65575 282
12.67586 258
12.69597 269
12.71609 241
12.7362 229
12.75631 223
12.77643 247
12.79654 229
12.81666 252
12.83677 239
12.85688 236
12.877 232
12.89711 257
12.91722 250
12.93734 258
12.95745 208
12.97757 238
12.99768 230
13.01779 232
13.03791 239
13.05802 213
13.07813 218
13.09825 221
13.11836 197
13.13847 248
13.15859 210
13.1787 218
13.19882 211
13.21893 216
13.23904 220
13.25916 232
13.27927 249
13.29938 223
13.3195 237
13.33961 202
13.35973 221
13.37984 213
13.39995 236
13.42007 206
13.44018 217
13.46029 226
13.48041 251
13.50052 252
13.52064 195
13.54075 213
13.56086 210
13.58098 249
13.60109 226
13.6212 237
13.64132 224
13.66143 213
13.68154 204
13.70166 229
13.72177 212
13.74189 248
13.762 229
13.78211 239
13.80223 218
13.82234 218
13.84245 226
13.86257 216
13.88268 220
13.9028 216
13.92291 217
13.94302 241
13.96314 229
13.98325 207
14.00336 216
14.02348 218
14.04359 243
14.06371 221
14.08382 218
14.10393 223
14.12405 220
14.14416 218
14.16427 257
14.18439 223
14.2045 193
14.22461 212
14.24473 218
14.26484 230
14.28496 229
14.30507 203
14.32518 226
14.3453 227
14.36541 232
14.38552 197
14.40564 232
14.42575 195
14.44587 221
14.46598 194
14.48609 218
14.50621 192
14.52632 203
14.54643 219
14.56655 200
14.58666 189
14.60677 198
14.62689 242
14.647 215
14.66712 207
14.68723 205
14.70734 211
14.72746 231
14.74757 227
14.76768 215
14.7878 214
14.80791 212
14.82803 222
14.84814 217
14.86825 205
14.88837 222
14.90848 195
14.92859 195
14.94871 244
14.96882 183
14.98894 191
15.00905 181
15.02916 196
15.04928 204
15.06939 178
15.0895 201
15.10962 213
15.12973 183
15.14984 240
15.16996 221
15.19007 207
15.21019 210
15.2303 205
15.25041 204
15.27053 221
15.29064 226
15.31075 214
15.33087 192
15.35098 235
15.3711 217
15.39121 200
15.41132 219
15.43144 216
15.45155 195
15.47166 232
15.49178 218
15.51189 241
15.53201 212
15.55212 198
15.57223 225
15.59235 223
15.61246 216
15.63257 220
15.65269 218
15.6728 237
15.69291 191
15.71303 184
15.73314 193
15.75326 212
15.77337 209
15.79348 219
15.8136 210
15.83371 205
15.85382 213
15.87394 180
15.89405 237
15.91417 216
15.93428 205
15.95439 225
15.97451 186
15.99462 208
16.01473 200
16.03485 203
16.05496 201
16.07508 191
16.09519 215
16.1153 234
16.13542 219
16.15553 204
16.17564 214
16.19576 211
16.21587 218
16.23598 188
16.2561 227
16.27621 221
16.29633 216
16.31644 174
16.33655 212
16.35667 183
16.37678 190
16.39689 190
16.41701 207
16.43712 202
16.45724 175
16.47735 210
16.49746 205
16.51758 192
16.53769 217
16.5578 203
16.57792 197
16.59803 211
16.61814 196
16.63826 196
16.65837 210
16.67849 178
16.6986 169
16.71871 186
16.73883 210
16.75894 176
16.77905 183
16.79917 170
16.81928 200
16.8394 164
16.85951 201
16.87962 221
16.89974 204
16.91985 187
16.93996 195
16.96008 235
16.98019 186
17.00031 226
17.02042 196
17.04053 173
17.06065 223
17.08076 218
17.10087 196
17.12099 202
17.1411 191
17.16121 179
17.18133 187
17.20144 184
17.22156 198
17.24167 209
17.26178 194
17.2819 213
17.30201 189
17.32212 182
17.34224 203
17.36235 190
17.38247 199
17.40258 211
17.42269 180
17.44281 195
17.46292 190
17.48303 192
17.50315 217
17.52326 182
17.54338 199
17.56349 208
17.5836 190
17.60372 196
17.62383 199
17.64394 190
17.66406 189
17.68417 179
17.70428 190
17.7244 203
17.74451 198
17.76463 173
17.78474 190
17.80485 181
17.82497 180
17.84508 199
17.86519 215
17.88531 217
17.90542 200
17.92554 191
17.94565 202
17.96576 172
17.98588 212
18.00599 193
18.0261 203
18.04622 217
18.06633 218
18.08645 207
18.10656 195
18.12667 196
18.14679 190
18.1669 198
18.18701 206
18.20713 181
18.22724 178
18.24735 213
18.26747 192
18.28758 212
18.3077 207
18.32781 178
18.34792 194
18.36804 180
18.38815 205
18.40826 186
18.42838 178
18.44849 199
18.46861 174
18.48872 219
18.50883 217
18.52895 206
18.54906 182
18.56917 193
18.58929 209
18.6094 192
18.62951 216
18.64963 201
18.66974 194
18.68986 209
18.70997 226
18.73008 222
18.7502 253
18.77031 171
18.79042 205
18.81054 196
18.83065 205
18.85077 222
18.87088 202
18.89099 200
18.91111 195
18.93122 193
18.95133 179
18.97145 185
18.99156 190
19.01168 198
19.03179 204
19.0519 197
19.07202 206
19.09213 183
19.11224 186
19.13236 201
19.15247 204
19.17258 186
19.1927 204
19.21281 219
19.23293 176
19.25304 209
19.27315 204
19.29327 195
19.31338 209
19.33349 170
19.35361 235
19.37372 198
19.39384 197
19.41395 212
19.43406 218
19.45418 209
19.47429 224
19.4944 231
19.51452 235
19.53463 215
19.55475 192
19.57486 188
19.59497 191
19.61509 233
19.6352 233
19.65531 209
19.67543 228
19.69554 226
19.71565 221
19.73577 275
19.75588 227
19.776 272
19.79611 245
19.81622 269
19.83634 290
19.85645 289
19.87656 285
19.89668 261
19.91679 264
19.93691 264
19.95702 300
19.97713 314
19.99725 275
20.01736 290
20.03747 297
20.05759 321
20.0777 272
20.09782 316
20.11793 327
20.13804 318
20.15816 317
20.17827 357
20.19838 356
20.2185 313
20.23861 309
20.25872 370
20.27884 362
20.29895 355
20.31907 343
20.33918 359
20.35929 360
20.37941 366
20.39952 347
20.41963 416
20.43975 393
20.45986 424
20.47998 423
20.50009 425
20.5202 487
20.54032 478
20.56043 512
20.58054 552
20.60066 561
20.62077 667
20.64088 871
20.661 1017
20.68111 1377
20.70123 1878
20.72134 2626
20.74145 3781
20.76157 4920
20.78168 6245
20.80179 7271
20.82191 7880
20.84202 7644
20.86214 6610
20.88225 4975
20.90236 3468
20.92248 2285
20.94259 1419
20.9627 847
20.98282 703
21.00293 596
21.02305 548
21.04316 529
21.06327 489
21.08339 477
21.1035 420
21.12361 385
21.14373 414
21.16384 411
21.18395 374
21.20407 353
21.22418 344
21.2443 305
21.26441 342
21.28452 308
21.30464 290
21.32475 305
21.34486 278
21.36498 320
21.38509 306
21.40521 281
21.42532 281
21.44543 268
21.46555 290
21.48566 272
21.50577 275
21.52589 252
21.546 270
21.56612 276
21.58623 286
21.60634 274
21.62646 227
21.64657 295
21.66668 249
21.6868 249
21.70691 235
21.72702 271
21.74714 252
21.76725 254
21.78737 263
21.80748 290
21.82759 267
21.84771 283
21.86782 264
21.88793 264
21.90805 301
21.92816 236
21.94828 238
21.96839 290
21.9885 242
22.00862 267
22.02873 258
22.04884 279
22.06896 249
22.08907 240
22.10919 241
22.1293 246
22.14941 249
22.16953 258
22.18964 249
22.20975 264
22.22987 215
22.24998 239
22.27009 221
22.29021 246
22.31032 258
22.33044 238
22.35055 256
22.37066 226
22.39078 240
22.41089 220
22.431 243
22.45112 215
22.47123 231
22.49135 233
22.51146 254
22.53157 274
22.55169 245
22.5718 255
22.59191 233
22.61203 252
22.63214 206
22.65225 226
22.67237 244
22.69248 218
22.7126 230
22.73271 269
22.75282 249
22.77294 227
22.79305 234
22.81316 214
22.83328 223
22.85339 229
22.87351 217
22.89362 268
22.91373 228
22.93385 217
22.95396 241
22.97407 234
22.99419 212
23.0143 213
23.03442 229
23.05453 219
23.07464 244
23.09476 224
23.11487 228
23.13498 252
23.1551 241
23.17521 225
23.19532 214
23.21544 259
23.23555 247
23.25567 230
23.27578 217
23.29589 217
23.31601 238
23.33612 235
23.35623 229
23.37635 235
23.39646 233
23.41658 239
23.43669 230
23.4568 243
23.47692 232
23.49703 232
23.51714 246
23.53726 235
23.55737 213
23.57749 203
23.5976 219
23.61771 243
23.63783 251
23.65794 256
23.67805 271
23.69817 229
23.71828 226
23.73839 238
23.75851 242
23.77862 275
23.79874 247
23.81885 246
23.83896 272
23.85908 278
23.87919 278
23.8993 289
23.91942 297
23.93953 310
23.95965 295
23.97976 320
23.99987 307
24.01999 298
24.0401 289
24.06021 262
24.08033 271
24.10044 265
24.12056 271
24.14067 235
24.16078 262
24.1809 214
24.20101 217
24.22112 229
24.24124 259
24.26135 240
24.28146 255
24.30158 229
24.32169 218
24.34181 246
24.36192 257
24.38203 247
24.40215 257
24.42226 252
24.44237 246
24.46249 250
24.4826 240
24.50272 218
24.52283 265
24.54294 232
24.56306 269
24.58317 266
24.60328 271
24.6234 259
24.64351 275
24.66362 269
24.68374 295
24.70385 273
24.72397 253
24.74408 290
24.76419 296
24.78431 298
24.80442 256
24.82453 287
24.84465 265
24.86476 285
24.88488 307
24.90499 285
24.9251 280
24.94522 273
24.96533 279
24.98544 281
25.00556 295
25.02567 271
25.04579 284
25.0659 266
25.08601 255
25.10613 266
25.12624 270
25.14635 249
25.16647 264
25.18658 270
25.20669 294
25.22681 280
25.24692 235
25.26704 268
25.28715 249
25.30726 265
25.32738 288
25.34749 252
25.3676 264
25.38772 304
25.40783 274
25.42795 264
25.44806 277
25.46817 266
25.48829 257
25.5084 296
25.52851 309
25.54863 293
25.56874 285
25.58886 335
25.60897 366
25.62908 371
25.6492 377
25.66931 435
25.68942 433
25.70954 461
25.72965 480
25.74976 455
25.76988 439
25.78999 489
25.81011 507
25.83022 449
25.85033 474
25.87045 464
25.89056 488
25.91067 526
25.93079 539
25.9509 514
25.97102 551
25.99113 529
26.01124 594
26.03136 579
26.05147 605
26.07158 672
26.0917 680
26.11181 742
26.13193 777
26.15204 856
26.17215 918
26.19227 916
26.21238 1044
26.23249 1071
26.25261 1204
26.27272 1263
26.29283 1373
26.31295 1464
26.33306 1681
26.35318 2003
26.37329 2275
26.3934 2840
26.41352 3496
26.43363 4647
26.45374 6282
26.47386 8541
26.49397 12065
26.51409 16498
26.5342 21991
26.55431 28310
26.57443 33597
26.59454 36106
26.61465 34988
26.63477 30713
26.65488 25135
26.67499 18598
26.69511 13496
26.71522 8698
26.73534 5494
26.75545 3505
26.77556 2456
26.79568 2003
26.81579 1723
26.8359 1479
26.85602 1409
26.87613 1241
26.89625 1185
26.91636 1020
26.93647 905
26.95659 852
26.9767 738
26.99681 725
27.01693 650
27.03704 673
27.05716 601
27.07727 539
27.09738 540
27.1175 559
27.13761 513
27.15772 493
27.17784 510
27.19795 482
27.21806 457
27.23818 456
27.25829 388
27.27841 443
27.29852 421
27.31863 446
27.33875 394
27.35886 402
27.37897 417
27.39909 360
27.4192 394
27.43932 396
27.45943 366
27.47954 396
27.49966 390
27.51977 366
27.53988 357
27.56 362
27.58011 357
27.60023 320
27.62034 329
27.64045 331
27.66057 330
27.68068 342
27.70079 350
27.72091 331
27.74102 332
27.76113 290
27.78125 330
27.80136 321
27.82148 312
27.84159 302
27.8617 356
27.88182 316
27.90193 355
27.92204 281
27.94216 294
27.96227 287
27.98239 302
28.0025 269
28.02261 288
28.04273 318
28.06284 265
28.08295 292
28.10307 289
28.12318 276
28.1433 291
28.16341 264
28.18352 286
28.20364 284
28.22375 292
28.24386 276
28.26398 280
28.28409 288
28.3042 282
28.32432 270
28.34443 285
28.36455 259
28.38466 313
28.40477 271
28.42489 287
28.445 270
28.46511 305
28.48523 250
28.50534 265
28.52546 250
28.54557 300
28.56568 256
28.5858 284
28.60591 270
28.62602 265
28.64614 252
28.66625 230
28.68636 267
28.70648 260
28.72659 259
28.74671 242
28.76682 242
28.78693 280
28.80705 272
28.82716 278
28.84727 270
28.86739 296
28.8875 272
28.90762 267
28.92773 231
28.94784 234
28.96796 260
28.98807 244
29.00818 287
29.0283 269
29.04841 273
29.06853 252
29.08864 238
29.10875 251
29.12887 248
29.14898 253
29.16909 233
29.18921 225
29.20932 277
29.22943 236
29.24955 277
29.26966 253
29.28978 244
29.30989 249
29.33 239
29.35012 223
29.37023 246
29.39034 236
29.41046 253
29.43057 265
29.45069 241
29.4708 241
29.49091 245
29.51103 228
29.53114 255
29.55125 257
29.57137 228
29.59148 258
29.6116 233
29.63171 214
29.65182 214
29.67194 252
29.69205 255
29.71216 229
29.73228 239
29.75239 196
29.7725 220
29.79262 253
29.81273 229
29.83285 226
29.85296 223
29.87307 228
29.89319 224
29.9133 256
29.93341 236
29.95353 206
29.97364 267
29.99376 264
30.01387 233
30.03398 228
30.0541 242
30.07421 226
30.09432 220
30.11444 220
30.13455 237
30.15467 236
30.17478 258
30.19489 227
30.21501 243
30.23512 222
30.25523 259
30.27535 233
30.29546 220
30.31557 281
30.33569 242
30.3558 247
30.37592 220
30.39603 213
30.41614 227
30.43626 211
30.45637 228
30.47648 233
30.4966 227
30.51671 264
30.53683 231
30.55694 239
30.57705 221
30.59717 223
30.61728 228
30.63739 232
30.65751 229
30.67762 235
30.69773 241
30.71785 233
30.73796 250
30.75808 237
30.77819 204
30.7983 226
30.81842 230
30.83853 245
30.85864 219
30.87876 249
30.89887 174
30.91899 197
30.9391 218
30.95921 207
30.97933 228
30.99944 238
31.01955 225
31.03967 220
31.05978 242
31.0799 220
31.10001 220
31.12012 217
31.14024 214
31.16035 200
31.18046 219
31.20058 203
31.22069 234
31.2408 234
31.26092 221
31.28103 245
31.30115 194
31.32126 198
31.34137 220
31.36149 182
31.3816 228
31.40171 194
31.42183 185
31.44194 208
31.46206 187
31.48217 212
31.50228 220
31.5224 228
31.54251 205
31.56262 188
31.58274 198
31.60285 213
31.62297 217
31.64308 221
31.66319 220
31.68331 207
31.70342 221
31.72353 205
31.74365 190
31.76376 212
31.78387 196
31.80399 188
31.8241 206
31.84422 228
31.86433 225
31.88444 224
31.90456 170
31.92467 211
31.94478 226
31.9649 197
31.98501 219
32.00513 186
32.02524 200
32.04535 202
32.06547 222
32.08558 228
32.10569 193
32.12581 222
32.14592 220
32.16604 208
32.18615 214
32.20626 231
32.22638 231
32.24649 226
32.2666 196
32.28672 225
32.30683 219
32.32694 220
32.34706 202
32.36717 195
32.38729 235
32.4074 240
32.42751 238
32.44763 203
32.46774 216
32.48785 275
32.50797 221
32.52808 225
32.5482 199
32.56831 228
32.58842 241
32.60854 218
32.62865 222
32.64876 194
32.66888 220
32.68899 188
32.7091 209
32.72922 202
32.74933 206
32.76945 237
32.78956 220
32.80967 216
32.82979 209
32.8499 246
32.87001 229
32.89013 182
32.91024 190
32.93036 213
32.95047 210
32.97058 253
32.9907 205
33.01081 222
33.03092 195
33.05104 200
33.07115 219
33.09127 230
33.11138 221
33.13149 193
33.15161 219
33.17172 194
33.19183 199
33.21195 210
33.23206 198
33.25217 234
33.27229 204
33.2924 180
33.31252 204
33.33263 220
33.35274 195
33.37286 200
33.39297 222
33.41308 207
33.4332 174
33.45331 201
33.47343 215
33.49354 176
33.51365 196
33.53377 186
33.55388 194
33.57399 186
33.59411 215
33.61422 220
33.63434 182
33.65445 185
33.67456 173
33.69468 171
33.71479 227
33.7349 184
33.75502 188
33.77513 191
33.79524 160
33.81536 181
33.83547 172
33.85559 188
33.8757 199
33.89581 208
33.91593 197
33.93604 186
33.95615 189
33.97627 187
33.99638 184
34.0165 187
34.03661 183
34.05672 184
34.07684 184
34.09695 172
34.11706 198
34.13718 194
34.15729 190
34.17741 180
34.19752 190
34.21763 176
34.23775 207
34.25786 186
34.27797 193
34.29809 186
34.3182 178
34.33831 216
34.35843 185
34.37854 196
34.39866 198
34.41877 176
34.43888 203
34.459 186
34.47911 192
34.49922 206
34.51934 200
34.53945 170
34.55957 187
34.57968 204
34.59979 187
34.61991 178
34.64002 209
34.66013 197
34.68025 207
34.70036 206
34.72047 230
34.74059 196
34.7607 229
34.78082 206
34.80093 220
34.82104 192
34.84116 229
34.86127 222
34.88138 226
34.9015 226
34.92161 235
34.94173 195
34.96184 198
34.98195 224
35.00207 256
35.02218 206
35.04229 227
35.06241 196
35.08252 223
35.10264 228
35.12275 227
35.14286 248
35.16298 223
35.18309 252
35.2032 256
35.22332 236
35.24343 228
35.26354 225
35.28366 225
35.30377 237
35.32389 247
35.344 272
35.36411 252
35.38423 264
35.40434 268
35.42445 237
35.44457 248
35.46468 280
35.4848 292
35.50491 262
35.52502 263
35.54514 249
35.56525 245
35.58536 267
35.60548 287
35.62559 263
35.64571 252
35.66582 287
35.68593 277
35.70605 265
35.72616 268
35.74627 234
35.76639 261
35.7865 297
35.80661 262
35.82673 274
35.84684 236
35.86696 247
35.88707 235
35.90718 272
35.9273 302
35.94741 269
35.96752 257
35.98764 270
36.00775 259
36.02787 281
36.04798 281
36.06809 307
36.08821 307
36.10832 286
36.12843 275
36.14855 294
36.16866 300
36.18878 276
36.20889 289
36.229 341
36.24912 371
36.26923 378
36.28934 455
36.30946 530
36.32957 616
36.34968 735
36.3698 852
36.38991 1177
36.41003 1404
36.43014 1741
36.45025 2057
36.47037 2302
36.49048 2410
36.51059 2392
36.53071 2138
36.55082 1815
36.57094 1663
36.59105 1403
36.61116 1129
36.63128 900
36.65139 699
36.6715 499
36.69162 389
36.71173 378
36.73184 327
36.75196 328
36.77207 263
36.79219 289
36.8123 255
36.83241 242
36.85253 255
36.87264 226
36.89275 266
36.91287 252
36.93298 252
36.9531 234
36.97321 223
36.99332 242
37.01344 212
37.03355 230
37.05366 211
37.07378 215
37.09389 206
37.11401 224
37.13412 206
37.15423 192
37.17435 211
37.19446 215
37.21457 196
37.23469 186
37.2548 209
37.27491 173
37.29503 206
37.31514 215
37.33526 200
37.35537 194
37.37548 183
37.3956 214
37.41571 173
37.43582 209
37.45594 228
37.47605 215
37.49617 218
37.51628 214
37.53639 210
37.55651 199
37.57662 219
37.59673 198
37.61685 241
37.63696 213
37.65708 226
37.67719 182
37.6973 199
37.71742 194
37.73753 212
37.75764 228
37.77776 202
37.79787 200
37.81798 216
37.8381 185
37.85821 189
37.87833 178
37.89844 208
37.91855 213
37.93867 200
37.95878 199
37.97889 214
37.99901 214
38.01912 206
38.03924 197
38.05935 220
38.07946 189
38.09958 232
38.11969 224
38.1398 228
38.15992 202
38.18003 192
38.20015 218
38.22026 208
38.24037 202
38.26049 222
38.2806 204
38.30071 216
38.32083 209
38.34094 231
38.36105 210
38.38117 207
38.40128 192
38.4214 242
38.44151 193
38.46162 228
38.48174 232
38.50185 195
38.52196 212
38.54208 211
38.56219 206
38.58231 217
38.60242 193
38.62253 224
38.64265 235
38.66276 241
38.68287 195
38.70299 228
38.7231 215
38.74321 240
38.76333 223
38.78344 191
38.80356 215
38.82367 233
38.84378 208
38.8639 218
38.88401 199
38.90412 268
38.92424 265
38.94435 231
38.96447 212
38.98458 262
39.00469 223
39.02481 261
39.04492 261
39.06503 255
39.08515 255
39.10526 303
39.12538 320
39.14549 350
39.1656 358
39.18572 365
39.20583 417
39.22594 450
39.24606 558
39.26617 643
39.28628 761
39.3064 929
39.32651 1212
39.34663 1506
39.36674 1865
39.38685 2075
39.40697 2274
39.42708 2248
39.44719 2086
39.46731 1733
39.48742 1498
39.50754 1289
39.52765 1178
39.54776 1008
39.56788 773
39.58799 540
39.6081 419
39.62822 357
39.64833 326
39.66845 297
39.68856 283
39.70867 265
39.72879 270
39.7489 246
39.76901 268
39.78913 255
39.80924 249
39.82935 282
39.84947 246
39.86958 231
39.8897 236
39.90981 273
39.92992 249
39.95004 267
39.97015 283
39.99026 257
40.01038 301
40.03049 333
40.05061 354
40.07072 380
40.09083 456
40.11095 503
40.13106 593
40.15117 720
40.17129 845
40.1914 1031
40.21152 1136
40.23163 1220
40.25174 1186
40.27186 1086
40.29197 946
40.31208 805
40.3322 763
40.35231 676
40.37242 612
40.39254 503
40.41265 398
40.43277 305
40.45288 272
40.47299 240
40.49311 241
40.51322 249
40.53333 261
40.55345 224
40.57356 189
40.59368 219
40.61379 205
40.6339 225
40.65402 217
40.67413 216
40.69424 227
40.71436 191
40.73447 190
40.75458 206
40.7747 188
40.79481 202
40.81493 197
40.83504 194
40.85515 211
40.87527 222
40.89538 191
40.91549 205
40.93561 232
40.95572 219
40.97584 215
40.99595 223
41.01606 207
41.03618 203
41.05629 204
41.0764 211
41.09652 199
41.11663 244
41.13675 201
41.15686 196
41.17697 222
41.19709 217
41.2172 209
41.23731 205
41.25743 215
41.27754 218
41.29765 206
41.31777 214
41.33788 198
41.358 214
41.37811 200
41.39822 192
41.41834 196
41.43845 213
41.45856 191
41.47868 185
41.49879 175
41.51891 207
41.53902 202
41.55913 223
41.57925 202
41.59936 216
41.61947 179
41.63959 215
41.6597 196
41.67982 217
41.69993 198
41.72004 190
41.74016 198
41.76027 202
41.78038 163
41.8005 206
41.82061 199
41.84072 201
41.86084 204
41.88095 229
41.90107 176
41.92118 222
41.94129 212
41.96141 205
41.98152 196
42.00163 233
42.02175 222
42.04186 233
42.06198 256
42.08209 239
42.1022 263
42.12232 264
42.14243 284
42.16254 312
42.18266 357
42.20277 392
42.22289 422
42.243 484
42.26311 617
42.28323 715
42.30334 874
42.32345 1084
42.34357 1281
42.36368 1473
42.38379 1547
42.40391 1645
42.42402 1533
42.44414 1374
42.46425 1176
42.48436 1045
42.50448 974
42.52459 897
42.5447 708
42.56482 557
42.58493 414
42.60505 308
42.62516 290
42.64527 267
42.66539 232
42.6855 214
42.70561 225
42.72573 234
42.74584 221
42.76595 216
42.78607 225
42.80618 205
42.8263 201
42.84641 213
42.86652 208
42.88664 226
42.90675 211
42.92686 188
42.94698 183
42.96709 186
42.98721 186
43.00732 160
43.02743 175
43.04755 205
43.06766 193
43.08777 199
43.10789 210
43.128 181
43.14812 186
43.16823 201
43.18834 184
43.20846 207
43.22857 195
43.24868 181
43.2688 193
43.28891 201
43.30902 184
43.32914 182
43.34925 192
43.36937 173
43.38948 180
43.40959 195
43.42971 191
43.44982 219
43.46993 188
43.49005 195
43.51016 206
43.53028 180
43.55039 168
43.5705 188
43.59062 174
43.61073 166
43.63084 188
43.65096 177
43.67107 193
43.69119 196
43.7113 193
43.73141 191
43.75153 183
43.77164 171
43.79175 180
43.81187 178
43.83198 167
43.85209 170
43.87221 169
43.89232 171
43.91244 156
43.93255 174
43.95266 176
43.97278 162
43.99289 189
44.013 173
44.03312 180
44.05323 184
44.07335 191
44.09346 184
44.11357 174
44.13369 173
44.1538 177
44.17391 180
44.19403 160
44.21414 178
44.23426 183
44.25437 160
44.27448 162
44.2946 177
44.31471 189
44.33482 186
44.35494 169
44.37505 175
44.39516 187
44.41528 169
44.43539 164
44.45551 182
44.47562 195
44.49573 170
44.51585 170
44.53596 142
44.55607 175
44.57619 189
44.5963 169
44.61642 182
44.63653 167
44.65664 175
44.67676 184
44.69687 178
44.71698 179
44.7371 161
44.75721 180
44.77732 163
44.79744 204
44.81755 189
44.83767 183
44.85778 182
44.87789 166
44.89801 181
44.91812 180
44.93823 202
44.95835 198
44.97846 209
44.99858 168
45.01869 185
45.0388 201
45.05892 189
45.07903 182
45.09914 187
45.11926 199
45.13937 175
45.15949 168
45.1796 185
45.19971 180
45.21983 174
45.23994 188
45.26005 202
45.28017 190
45.30028 195
45.32039 204
45.34051 209
45.36062 229
45.38074 191
45.40085 240
45.42096 229
45.44108 254
45.46119 257
45.4813 236
45.50142 224
45.52153 261
45.54165 309
45.56176 353
45.58187 339
45.60199 397
45.6221 526
45.64221 625
45.66233 773
45.68244 950
45.70256 1005
45.72267 1116
45.74278 1110
45.7629 1066
45.78301 906
45.80312 872
45.82324 753
45.84335 676
45.86346 634
45.88358 538
45.90369 508
45.92381 353
45.94392 303
45.96403 241
45.98415 218
46.00426 218
46.02437 222
46.04449 216
46.0646 211
46.08472 210
46.10483 182
46.12494 192
46.14506 180
46.16517 184
46.18528 184
46.2054 198
46.22551 166
46.24563 180
46.26574 170
46.28585 160
46.30597 182
46.32608 173
46.34619 199
46.36631 187
46.38642 168
46.40653 196
46.42665 193
46.44676 195
46.46688 173
46.48699 197
46.5071 180
46.52722 158
46.54733 187
46.56744 180
46.58756 160
46.60767 173
46.62779 180
46.6479 172
46.66801 156
46.68813 184
46.70824 196
46.72835 167
46.74847 178
46.76858 162
46.78869 183
46.80881 167
46.82892 158
46.84904 168
46.86915 167
46.88926 156
46.90938 189
46.92949 170
46.9496 155
46.96972 188
46.98983 178
47.00995 182
47.03006 167
47.05017 164
47.07029 165
47.0904 170
47.11051 153
47.13063 186
47.15074 182
47.17086 180
47.19097 163
47.21108 183
47.2312 163
47.25131 178
47.27142 172
47.29154 183
47.31165 156
47.33176 175
47.35188 163
47.37199 174
47.39211 193
47.41222 179
47.43233 178
47.45245 198
47.47256 177
47.49267 181
47.51279 132
47.5329 182
47.55302 145
47.57313 180
47.59324 166
47.61336 178
47.63347 182
47.65358 163
47.6737 156
47.69381 193
47.71393 161
47.73404 156
47.75415 182
47.77427 178
47.79438 156
47.81449 157
47.83461 158
47.85472 158
47.87483 167
47.89495 153
47.91506 193
47.93518 141
47.95529 168
47.9754 173
47.99552 211
48.01563 173
48.03574 160
48.05586 140
48.07597 169
48.09609 183
48.1162 142
48.13631 184
48.15643 164
48.17654 167
48.19665 169
48.21677 176
48.23688 159
48.257 155
48.27711 157
48.29722 198
48.31734 163
48.33745 180
48.35756 159
48.37768 178
48.39779 184
48.4179 179
48.43802 184
48.45813 174
48.47825 191
48.49836 174
48.51847 182
48.53859 195
48.5587 181
48.57881 194
48.59893 174
48.61904 192
48.63916 168
48.65927 181
48.67938 166
48.6995 171
48.71961 186
48.73972 211
48.75984 192
48.77995 150
48.80006 178
48.82018 185
48.84029 182
48.86041 186
48.88052 183
48.90063 194
48.92075 189
48.94086 179
48.96097 183
48.98109 185
49.0012 209
49.02132 189
49.04143 199
49.06154 225
49.08166 159
49.10177 197
49.12188 196
49.142 190
49.16211 202
49.18223 152
49.20234 163
49.22245 195
49.24257 199
49.26268 188
49.28279 210
49.30291 217
49.32302 185
49.34313 221
49.36325 206
49.38336 201
49.40348 206
49.42359 228
49.4437 209
49.46382 187
49.48393 225
49.50404 239
49.52416 251
49.54427 240
49.56439 242
49.5845 231
49.60461 253
49.62473 276
49.64484 256
49.66495 274
49.68507 307
49.70518 324
49.7253 332
49.74541 330
49.76552 363
49.78564 422
49.80575 413
49.82586 463
49.84598 538
49.86609 638
49.8862 736
49.90632 847
49.92643 970
49.94655 1183
49.96666 1485
49.98677 1850
50.00689 2239
50.027 2747
50.04711 3147
50.06723 3559
50.08734 3546
50.10746 3298
50.12757 2927
50.14768 2371
50.1678 2050
50.18791 2006
50.20802 1940
50.22814 1788
50.24825 1462
50.26837 1139
50.28848 788
50.30859 571
50.32871 498
50.34882 388
50.36893 365
50.38905 307
50.40916 345
50.42927 338
50.44939 288
50.4695 285
50.48962 300
50.50973 313
50.52984 326
50.54996 313
50.57007 286
50.59018 298
50.6103 268
50.63041 245
50.65053 225
50.67064 205
50.69075 260
50.71087 242
50.73098 235
50.75109 195
50.77121 210
50.79132 203
50.81143 220
50.83155 192
50.85166 178
50.87178 190
50.89189 199
50.912 193
50.93212 170
50.95223 165
50.97234 167
50.99246 196
51.01257 189
51.03269 170
51.0528 170
51.07291 170
51.09303 182
51.11314 165
51.13325 191
51.15337 168
51.17348 187
51.1936 180
51.21371 176
51.23382 161
51.25394 146
51.27405 162
51.29416 163
51.31428 190
51.33439 171
51.3545 186
51.37462 158
51.39473 177
51.41485 174
51.43496 181
51.45507 136
51.47519 148
51.4953 181
51.51541 165
51.53553 157
51.55564 166
51.57576 176
51.59587 149
51.61598 164
51.6361 154
51.65621 152
51.67632 159
51.69644 179
51.71655 155
51.73667 170
51.75678 169
51.77689 160
51.79701 154
51.81712 151
51.83723 171
51.85735 160
51.87746 154
51.89757 139
51.91769 159
51.9378 159
51.95792 168
51.97803 179
51.99814 184
52.01826 166
52.03837 171
52.05848 150
52.0786 155
52.09871 154
52.11883 164
52.13894 160
52.15905 146
52.17917 171
52.19928 154
52.21939 136
52.23951 161
52.25962 160
52.27974 167
52.29985 149
52.31996 183
52.34008 140
52.36019 173
52.3803 166
52.40042 143
52.42053 176
52.44064 161
52.46076 193
52.48087 167
52.50099 165
52.5211 161
52.54121 189
52.56133 174
52.58144 167
52.60155 179
52.62167 168
52.64178 159
52.6619 181
52.68201 149
52.70212 179
52.72224 152
52.74235 161
52.76246 146
52.78258 163
52.80269 178
52.8228 169
52.84292 174
52.86303 155
52.88315 174
52.90326 172
52.92337 183
52.94349 180
52.9636 193
52.98371 163
53.00383 184
53.02394 172
53.04406 153
53.06417 167
53.08428 162
53.1044 167
53.12451 179
53.14462 203
53.16474 182
53.18485 177
53.20497 179
53.22508 167
53.24519 208
53.26531 180
53.28542 169
53.30553 173
53.32565 184
53.34576 201
53.36587 180
53.38599 181
53.4061 181
53.42622 200
53.44633 180
53.46644 173
53.48656 172
53.50667 203
53.52678 179
53.5469 179
53.56701 188
53.58713 211
53.60724 168
53.62735 182
53.64747 184
53.66758 212
53.68769 178
53.70781 194
53.72792 212
53.74804 169
53.76815 200
53.78826 176
53.80838 183
53.82849 182
53.8486 183
53.86872 200
53.88883 192
53.90894 163
53.92906 185
53.94917 192
53.96929 215
53.9894 196
54.00951 200
54.02963 219
54.04974 210
54.06985 193
54.08997 172
54.11008 202
54.1302 173
54.15031 193
54.17042 208
54.19054 191
54.21065 200
54.23076 176
54.25088 183
54.27099 203
54.29111 190
54.31122 222
54.33133 215
54.35145 242
54.37156 199
54.39167 214
54.41179 204
54.4319 229
54.45201 218
54.47213 221
54.49224 251
54.51236 263
54.53247 286
54.55258 274
54.5727 318
54.59281 296
54.61292 320
54.63304 343
54.65315 430
54.67327 442
54.69338 521
54.71349 626
54.73361 717
54.75372 867
54.77383 976
54.79395 1065
54.81406 1069
54.83417 1018
54.85429 960
54.8744 831
54.89452 702
54.91463 714
54.93474 697
54.95486 635
54.97497 611
54.99508 556
55.0152 452
55.03531 430
55.05543 348
55.07554 337
55.09565 323
55.11577 327
55.13588 344
55.15599 372
55.17611 440
55.19622 478
55.21634 507
55.23645 514
55.25656 546
55.27668 588
55.29679 544
55.3169 479
55.33702 435
55.35713 386
55.37724 387
55.39736 364
55.41747 372
55.43759 347
55.4577 306
55.47781 290
55.49793 203
55.51804 222
55.53815 209
55.55827 203
55.57838 215
55.5985 198
55.61861 171
55.63872 188
55.65884 191
55.67895 181
55.69906 170
55.71918 185
55.73929 164
55.75941 190
55.77952 158
55.79963 156
55.81975 181
55.83986 156
55.85997 197
55.88009 155
55.9002 171
55.92031 180
55.94043 173
55.96054 180
55.98066 151
56.00077 169
56.02088 166
56.041 153
56.06111 159
56.08122 134
56.10134 164
56.12145 182
56.14157 159
56.16168 148
56.18179 162
56.20191 173
56.22202 151
56.24213 169
56.26225 151
56.28236 165
56.30248 163
56.32259 149
56.3427 172
56.36282 187
56.38293 179
56.40304 156
56.42316 163
56.44327 168
56.46338 148
56.4835 169
56.50361 171
56.52373 175
56.54384 174
56.56395 161
56.58407 154
56.60418 147
56.62429 187
56.64441 149
56.66452 183
56.68464 168
56.70475 153
56.72486 183
56.74498 165
56.76509 169
56.7852 156
56.80532 171
56.82543 166
56.84554 155
56.86566 188
56.88577 155
56.90589 138
56.926 151
56.94611 150
56.96623 185
56.98634 173
57.00645 164
57.02657 172
57.04668 178
57.0668 197
57.08691 207
57.10702 206
57.12714 171
57.14725 226
57.16736 205
57.18748 200
57.20759 199
57.22771 206
57.24782 201
57.26793 203
57.28805 197
57.30816 185
57.32827 187
57.34839 180
57.3685 186
57.38861 165
57.40873 167
57.42884 145
57.44896 148
57.46907 163
57.48918 178
57.5093 158
57.52941 159
57.54952 157
57.56964 179
57.58975 172
57.60987 169
57.62998 148
57.65009 127
57.67021 167
57.69032 161
57.71043 155
57.73055 162
57.75066 155
57.77078 159
57.79089 153
57.811 176
57.83112 167
57.85123 157
57.87134 160
57.89146 175
57.91157 173
57.93168 180
57.9518 167
57.97191 178
57.99203 143
58.01214 137
58.03225 148
58.05237 167
58.07248 150
58.09259 148
58.11271 149
58.13282 141
58.15294 157
58.17305 156
58.19316 157
58.21328 156
58.23339 175
58.2535 170
58.27362 149
58.29373 161
58.31385 179
58.33396 157
58.35407 164
58.37419 168
58.3943 157
58.41441 144
58.43453 178
58.45464 155
58.47475 166
58.49487 201
58.51498 163
58.5351 174
58.55521 146
58.57532 173
58.59544 167
58.61555 175
58.63566 184
58.65578 162
58.67589 168
58.69601 174
58.71612 185
58.73623 152
58.75635 188
58.77646 163
58.79657 180
58.81669 193
58.8368 176
58.85691 170
58.87703 186
58.89714 163
58.91726 177
58.93737 180
58.95748 192
58.9776 169
58.99771 185
59.01782 183
59.03794 172
59.05805 175
59.07817 176
59.09828 172
59.11839 179
59.13851 168
59.15862 159
59.17873 186
59.19885 159
59.21896 184
59.23908 186
59.25919 175
59.2793 199
59.29942 189
59.31953 186
59.33964 217
59.35976 181
59.37987 198
59.39998 227
59.4201 230
59.44021 198
59.46033 243
59.48044 204
59.50055 254
59.52067 243
59.54078 270
59.56089 304
59.58101 329
59.60112 356
59.62124 369
59.64135 418
59.66146 444
59.68158 493
59.70169 574
59.7218 685
59.74192 712
59.76203 925
59.78215 1093
59.80226 1304
59.82237 1543
59.84249 1833
59.8626 2093
59.88271 2175
59.90283 2151
59.92294 1973
59.94305 1729
59.96317 1429
59.98328 1317
60.0034 1231
60.02351 1198
60.04362 1186
60.06374 1081
60.08385 1035
60.10396 834
60.12408 648
60.14419 506
60.16431 422
60.18442 320
60.20453 312
60.22465 286
60.24476 256
60.26487 238
60.28499 228
60.3051 224
60.32522 211
60.34533 229
60.36544 204
60.38556 202
60.40567 210
60.42578 207
60.4459 199
60.46601 184
60.48612 170
60.50624 184
60.52635 188
60.54647 188
60.56658 175
60.58669 167
60.60681 178
60.62692 176
60.64703 194
60.66715 170
60.68726 160
60.70738 196
60.72749 169
60.7476 151
60.76772 177
60.78783 172
60.80794 164
60.82806 145
60.84817 169
60.86828 187
60.8884 148
60.90851 178
60.92863 181
60.94874 167
60.96885 150
60.98897 152
61.00908 168
61.02919 150
61.04931 137
61.06942 156
61.08954 156
61.10965 160
61.12976 154
61.14988 144
61.16999 169
61.1901 162
61.21022 165
61.23033 172
61.25045 167
61.27056 156
61.29067 165
61.31079 149
61.3309 160
61.35101 167
61.37113 157
61.39124 166
61.41135 165
61.43147 163
61.45158 163
61.4717 163
61.49181 147
61.51192 158
61.53204 166
61.55215 187
61.57226 183
61.59238 136
61.61249 183
61.63261 165
61.65272 175
61.67283 162
61.69295 181
61.71306 183
61.73317 166
61.75329 164
61.7734 158
61.79352 154
61.81363 172
61.83374 171
61.85386 170
61.87397 185
61.89408 188
61.9142 175
61.93431 149
61.95442 169
61.97454 168
61.99465 179
62.01477 183
62.03488 184
62.05499 173
62.07511 179
62.09522 173
62.11533 170
62.13545 173
62.15556 188
62.17568 161
62.19579 180
62.2159 179
62.23602 175
62.25613 176
62.27624 194
62.29636 183
62.31647 182
62.33659 184
62.3567 183
62.37681 169
62.39693 190
62.41704 195
62.43715 162
62.45727 167
62.47738 178
62.49749 144
62.51761 172
62.53772 151
62.55784 158
62.57795 172
62.59806 181
62.61818 169
62.63829 160
62.6584 163
62.67852 152
62.69863 158
62.71875 165
62.73886 151
62.75897 181
62.77909 157
62.7992 172
62.81931 173
62.83943 176
62.85954 158
62.87965 166
62.89977 160
62.91988 166
62.94 147
62.96011 161
62.98022 166
63.00034 162
63.02045 162
63.04056 160
63.06068 187
63.08079 169
63.10091 174
63.12102 181
63.14113 159
63.16125 145
63.18136 164
63.20147 162
63.22159 155
63.2417 144
63.26182 157
63.28193 184
63.30204 198
63.32216 157
63.34227 175
63.36238 174
63.3825 182
63.40261 160
63.42272 185
63.44284 158
63.46295 160
63.48307 187
63.50318 168
63.52329 177
63.54341 168
63.56352 182
63.58363 191
63.60375 184
63.62386 183
63.64398 175
63.66409 185
63.6842 193
63.70432 207
63.72443 206
63.74454 188
63.76466 213
63.78477 218
63.80489 228
63.825 270
63.84511 314
63.86523 332
63.88534 385
63.90545 406
63.92557 446
63.94568 508
63.96579 551
63.98591 489
64.00602 468
64.02614 430
64.04625 382
64.06636 338
64.08648 326
64.10659 315
64.1267 304
64.14682 353
64.16693 338
64.18705 311
64.20716 260
64.22727 198
64.24739 196
64.2675 176
64.28761 198
64.30773 177
64.32784 171
64.34796 156
64.36807 168
64.38818 176
64.4083 175
64.42841 167
64.44852 162
64.46864 168
64.48875 158
64.50886 179
64.52898 147
64.54909 164
64.56921 165
64.58932 144
64.60943 150
64.62955 141
64.64966 150
64.66977 164
64.68989 168
64.71 146
64.73012 148
64.75023 151
64.77034 140
64.79046 170
64.81057 156
64.83068 145
64.8508 150
64.87091 155
64.89102 128
64.91114 144
64.93125 148
64.95137 147
64.97148 137
64.99159 149
65.01171 167
65.03182 137
65.05193 138
65.07205 149
65.09216 122
65.11228 151
65.13239 158
65.1525 151
65.17262 157
65.19273 140
65.21284 144
65.23296 153
65.25307 159
65.27319 139
65.2933 142
65.31341 129
65.33353 151
65.35364 145
65.37375 151
65.39387 163
65.41398 164
65.43409 145
65.45421 168
65.47432 167
65.49444 163
65.51455 149
65.53466 184
65.55478 188
65.57489 181
65.595 206
65.61512 183
65.63523 219
65.65535 216
65.67546 256
65.69557 234
65.71569 232
65.7358 237
65.75591 238
65.77603 216
65.79614 198
65.81626 182
65.83637 207
65.85648 200
65.8766 213
65.89671 192
65.91682 188
65.93694 199
65.95705 171
65.97716 176
65.99728 138
66.01739 174
66.03751 168
66.05762 175
66.07773 173
66.09785 162
66.11796 184
66.13807 166
66.15819 162
66.1783 143
66.19842 161
66.21853 184
66.23864 150
66.25876 146
66.27887 182
66.29898 156
66.3191 146
66.33921 160
66.35933 178
66.37944 161
66.39955 183
66.41967 151
66.43978 144
66.45989 165
66.48001 170
66.50012 166
66.52023 160
66.54035 154
66.56046 160
66.58058 152
66.60069 173
66.6208 158
66.64092 143
66.66103 147
66.68114 150
66.70126 152
66.72137 164
66.74149 154
66.7616 150
66.78171 164
66.80183 164
66.82194 149
66.84205 179
66.86217 176
66.88228 170
66.90239 186
66.92251 162
66.94262 160
66.96274 167
66.98285 155
67.00296 180
67.02308 178
67.04319 184
67.0633 159
67.08342 214
67.10353 196
67.12365 172
67.14376 198
67.16387 176
67.18399 190
67.2041 212
67.22421 208
67.24433 242
67.26444 211
67.28456 227
67.30467 238
67.32478 221
67.3449 268
67.36501 267
67.38512 285
67.40524 322
67.42535 330
67.44546 367
67.46558 389
67.48569 436
67.50581 499
67.52592 591
67.54603 661
67.56615 738
67.58626 888
67.60637 986
67.62649 1167
67.6466 1265
67.66672 1317
67.68683 1245
67.70694 1188
67.72706 1047
67.74717 941
67.76728 862
67.7874 853
67.80751 870
67.82763 882
67.84774 906
67.86785 1014
67.88797 996
67.90808 1006
67.92819 1004
67.94831 1003
67.96842 1075
67.98853 1133
68.00865 1306
68.02876 1409
68.04888 1652
68.06899 1729
68.0891 1643
68.10922 1689
68.12933 1513
68.14944 1398
68.16956 1419
68.18967 1393
68.20979 1508
68.2299 1547
68.25001 1598
68.27013 1542
68.29024 1367
68.31035 1169
68.33047 1027
68.35058 826
68.3707 741
68.39081 667
68.41092 660
68.43104 615
68.45115 595
68.47126 525
68.49138 474
68.51149 404
68.5316 312
68.55172 313
68.57183 248
68.59195 255
68.61206 254
68.63217 214
68.65229 201
68.6724 232
68.69251 207
68.71263 165
68.73274 208
68.75286 181
68.77297 182
68.79308 183
68.8132 191
68.83331 166
68.85342 196
68.87354 166
68.89365 193
68.91376 193
68.93388 151
68.95399 170
68.97411 168
68.99422 157
69.01433 143
69.03445 151
69.05456 152
69.07467 167
69.09479 147
69.1149 148
69.13502 165
69.15513 144
69.17524 172
69.19536 150
69.21547 159
69.23558 149
69.2557 146
69.27581 136
69.29593 150
69.31604 157
69.33615 161
69.35627 155
69.37638 149
69.39649 159
69.41661 166
69.43672 156
69.45683 154
69.47695 142
69.49706 149
69.51718 133
69.53729 154
69.5574 144
69.57752 157
69.59763 154
69.61774 134
69.63786 155
69.65797 155
69.67809 146
69.6982 143
69.71831 152
69.73843 124
69.75854 156
69.77865 140
69.79877 150
69.81888 158
69.839 137
69.85911 148
69.87922 163
69.89934 152
69.91945 142
69.93956 144
69.95968 159
69.97979 144
69.9999 154
70.02002 123
70.04013 138
70.06025 144
70.08036 163
70.10047 148
70.12059 155
70.1407 129
70.16081 118
70.18093 142
70.20104 139
70.22116 133
70.24127 125
70.26138 153
70.2815 132
70.30161 136
70.32172 143
70.34184 142
70.36195 128
70.38207 140
70.40218 126
70.42229 140
70.44241 134
70.46252 149
70.48263 120
70.50275 142
70.52286 157
70.54297 141
70.56309 145
70.5832 152
70.60332 126
70.62343 131
70.64354 135
70.66366 156
70.68377 128
70.70388 131
70.724 160
70.74411 142
70.76423 141
70.78434 129
70.80445 152
70.82457 150
70.84468 124
70.86479 144
70.88491 134
70.90502 114
70.92513 154
70.94525 156
70.96536 141
70.98548 149
71.00559 163
71.0257 145
71.04582 130
71.06593 136
71.08604 146
71.10616 145
71.12627 157
71.14639 163
71.1665 154
71.18661 135
71.20673 129
71.22684 138
71.24695 135
71.26707 122
71.28718 133
71.3073 138
71.32741 139
71.34752 156
71.36764 139
71.38775 143
71.40786 136
71.42798 130
71.44809 149
71.4682 143
71.48832 139
71.50843 146
71.52855 128
71.54866 135
71.56877 115
71.58889 154
71.609 147
71.62911 127
71.64923 135
71.66934 143
71.68946 112
71.70957 138
71.72968 131
71.7498 136
71.76991 136
71.79002 129
71.81014 115
71.83025 151
71.85037 128
71.87048 124
71.89059 148
71.91071 118
71.93082 140
71.95093 142
71.97105 144
71.99116 121
72.01127 123
72.03139 164
72.0515 152
72.07162 151
72.09173 120
72.11184 138
72.13196 141
72.15207 131
72.17218 138
72.1923 142
72.21241 134
72.23253 155
72.25264 151
72.27275 131
72.29287 126
72.31298 140
72.33309 130
72.35321 131
72.37332 131
72.39344 120
72.41355 126
72.43366 126
72.45378 134
72.47389 121
72.494 119
72.51412 118
72.53423 121
72.55434 131
72.57446 132
72.59457 130
72.61469 139
72.6348 131
72.65491 137
72.67503 146
72.69514 136
72.71525 129
72.73537 126
72.75548 153
72.7756 119
72.79571 173
72.81582 123
72.83594 155
72.85605 133
72.87616 152
72.89628 160
72.91639 139
72.9365 131
72.95662 159
72.97673 144
72.99685 139
73.01696 167
73.03707 161
73.05719 163
73.0773 178
73.09741 169
73.11753 179
73.13764 183
73.15776 216
73.17787 215
73.19798 230
73.2181 251
73.23821 246
73.25832 284
73.27844 323
73.29855 353
73.31867 397
73.33878 424
73.35889 447
73.37901 514
73.39912 505
73.41923 502
73.43935 479
73.45946 392
73.47957 366
73.49969 330
73.5198 305
73.53992 329
73.56003 315
73.58014 333
73.60026 307
73.62037 324
73.64048 301
73.6606 269
73.68071 267
73.70083 199
73.72094 196
73.74105 157
73.76117 152
73.78128 155
73.80139 159
73.82151 145
73.84162 153
73.86174 174
73.88185 159
73.90196 133
73.92208 157
73.94219 147
73.9623 153
73.98242 164
74.00253 130
74.02264 148
74.04276 131
74.06287 152
74.08299 125
74.1031 167
74.12321 134
74.14333 137
74.16344 134
74.18355 150
74.20367 136
74.22378 123
74.2439 127
74.26401 145
74.28412 145
74.30424 162
74.32435 132
74.34446 140
74.36458 144
74.38469 135
74.40481 144
74.42492 141
74.44503 124
74.46515 129
74.48526 143
74.50537 149
74.52549 137
74.5456 137
74.56571 144
74.58583 128
74.60594 128
74.62606 138
74.64617 130
74.66628 143
74.6864 143
74.70651 134
74.72662 138
74.74674 132
74.76685 131
74.78697 136
74.80708 132
74.82719 141
74.84731 141
74.86742 135
74.88753 137
74.90765 152
74.92776 141
74.94787 139
74.96799 140
74.9881 138
75.00822 159
