3.00117 21041
3.02128 20195
3.0414 19766
3.06151 19227
3.08162 18291
3.10174 18486
3.12185 17845
3.14197 17284
3.16208 16756
3.18219 16276
3.20231 15974
3.22242 15043
3.24253 14667
3.26265 14653
3.28276 13807
3.30288 13602
3.32299 12975
3.3431 12548
3.36322 12076
3.38333 11632
3.40344 11532
3.42356 10834
3.44367 10481
3.46379 10383
3.4839 10004
3.50401 9462
3.52413 9255
3.54424 9021
3.56435 8679
3.58447 8234
3.60458 8129
3.62469 7870
3.64481 7528
3.66492 7135
3.68504 6694
3.70515 6708
3.72526 6308
3.74538 6086
3.76549 5871
3.7856 5350
3.80572 5420
3.82583 5244
3.84595 5151
3.86606 4669
3.88617 4485
3.90629 4446
3.9264 4120
3.94651 3985
3.96663 3816
3.98674 3648
4.00686 3504
4.02697 3396
4.04708 3201
4.0672 3039
4.08731 2910
4.10742 2841
4.12754 2700
4.14765 2479
4.16776 2360
4.18788 2202
4.20799 2248
4.22811 2189
4.24822 2083
4.26833 1962
4.28845 1905
4.30856 1781
4.32867 1855
4.34879 1696
4.3689 1591
4.38902 1510
4.40913 1545
4.42924 1567
4.44936 1451
4.46947 1410
4.48958 1335
4.5097 1392
4.52981 1430
4.54992 1203
4.57004 1212
4.59015 1140
4.61027 1248
4.63038 1223
4.65049 1074
4.67061 1080
4.69072 1034
4.71083 1035
4.73095 998
4.75106 927
4.77118 973
4.79129 869
4.8114 891
4.83152 901
4.85163 833
4.87174 827
4.89186 888
4.91197 800
4.93209 865
4.9522 748
4.97231 815
4.99243 772
5.01254 702
5.03265 770
5.05277 710
5.07288 655
5.09299 667
5.11311 684
5.13322 654
5.15334 566
5.17345 658
5.19356 568
5.21368 564
5.23379 570
5.2539 504
5.27402 514
5.29413 538
5.31425 481
5.33436 550
5.35447 470
5.37459 442
5.3947 508
5.41481 447
5.43493 422
5.45504 424
5.47516 421
5.49527 408
5.51538 423
5.5355 383
5.55561 392
5.57572 419
5.59584 388
5.61595 341
5.63606 330
5.65618 360
5.67629 310
5.69641 352
5.71652 330
5.73663 290
5.75675 303
5.77686 294
5.79697 287
5.81709 309
5.8372 303
5.85732 307
5.87743 274
5.89754 282
5.91766 292
5.93777 277
5.95788 275
5.978 268
5.99811 263
6.01823 243
6.03834 251
6.05845 269
6.07857 276
6.09868 239
6.11879 290
6.13891 249
6.15902 275
6.17913 247
6.19925 257
6.21936 229
6.23948 247
6.25959 237
6.2797 256
6.29982 256
6.31993 262
6.34004 231
6.36016 239
6.38027 257
6.40039 212
6.4205 214
6.44061 257
6.46073 241
6.48084 227
6.50095 213
6.52107 258
6.54118 209
6.56129 214
6.58141 201
6.60152 252
6.62164 199
6.64175 208
6.66186 222
6.68198 189
6.70209 232
6.7222 199
6.74232 228
6.76243 227
6.78255 194
6.80266 198
6.82277 205
6.84289 262
6.863 230
6.88311 236
6.90323 231
6.92334 209
6.94346 220
6.96357 249
6.98368 201
7.0038 219
7.02391 192
7.04402 219
7.06414 229
7.08425 216
7.10436 211
7.12448 237
7.14459 226
7.16471 208
7.18482 208
7.20493 208
7.22505 210
7.24516 235
7.26527 231
7.28539 243
7.3055 207
7.32562 249
7.34573 215
7.36584 225
7.38596 221
7.40607 209
7.42618 250
7.4463 206
7.46641 213
7.48653 225
7.50664 240
7.52675 254
7.54687 236
7.56698 227
7.58709 225
7.60721 229
7.62732 236
7.64743 243
7.66755 205
7.68766 202
7.70778 242
7.72789 236
7.748 208
7.76812 226
7.78823 241
7.80834 231
7.82846 257
7.84857 224
7.86869 267
7.8888 216
7.90891 235
7.92903 202
7.94914 240
7.96925 237
7.98937 243
8.00948 234
8.0296 241
8.04971 254
8.06982 237
8.08994 226
8.11005 230
8.13016 257
8.15028 248
8.17039 221
8.1905 235
8.21062 235
8.23073 221
8.25085 234
8.27096 223
8.29107 225
8.31119 256
8.3313 245
8.35141 227
8.37153 247
8.39164 242
8.41176 229
8.43187 235
8.45198 223
8.4721 250
8.49221 225
8.51232 251
8.53244 253
8.55255 255
8.57266 264
8.59278 221
8.61289 242
8.63301 261
8.65312 234
8.67323 251
8.69335 237
8.71346 237
8.73357 256
8.75369 266
8.7738 228
8.79392 266
8.81403 262
8.83414 248
8.85426 280
8.87437 241
8.89448 241
8.9146 222
8.93471 252
8.95483 245
8.97494 252
8.99505 260
9.01517 232
9.03528 219
9.05539 234
9.07551 247
9.09562 230
9.11573 268
9.13585 225
9.15596 233
9.17608 244
9.19619 297
9.2163 222
9.23642 269
9.25653 226
9.27664 222
9.29676 222
9.31687 249
9.33699 242
9.3571 267
9.37721 218
9.39733 261
9.41744 242
9.43755 251
9.45767 262
9.47778 259
9.4979 227
9.51801 222
9.53812 254
9.55824 245
9.57835 243
9.59846 263
9.61858 234
9.63869 249
9.6588 219
9.67892 239
9.69903 217
9.71915 240
9.73926 225
9.75937 228
9.77949 247
9.7996 240
9.81971 266
9.83983 228
9.85994 262
9.88006 286
9.90017 247
9.92028 244
9.9404 238
9.96051 228
9.98062 239
10.00074 260
10.02085 247
10.04097 240
10.06108 248
10.08119 259
10.10131 227
10.12142 246
10.14153 242
10.16165 256
10.18176 251
10.20187 248
10.22199 232
10.2421 248
10.26222 282
10.28233 241
10.30244 222
10.32256 239
10.34267 266
10.36278 275
10.3829 266
10.40301 261
10.42313 246
10.44324 238
10.46335 225
10.48347 261
10.50358 249
10.52369 241
10.54381 242
10.56392 254
10.58403 215
10.60415 253
10.62426 283
10.64438 248
10.66449 240
10.6846 232
10.70472 240
10.72483 245
10.74494 244
10.76506 260
10.78517 249
10.80529 246
10.8254 270
10.84551 253
10.86563 242
10.88574 243
10.90585 207
10.92597 245
10.94608 248
10.9662 262
10.98631 268
11.00642 220
11.02654 227
11.04665 231
11.06676 231
11.08688 240
11.10699 244
11.1271 238
11.14722 224
11.16733 247
11.18745 230
11.20756 225
11.22767 229
11.24779 273
11.2679 255
11.28801 255
11.30813 231
11.32824 251
11.34836 267
11.36847 253
11.38858 236
11.4087 269
11.42881 251
11.44892 266
11.46904 215
11.48915 230
11.50927 239
11.52938 229
11.54949 233
11.56961 262
11.58972 252
11.60983 243
11.62995 279
11.65006 253
11.67017 262
11.69029 258
11.7104 248
11.73052 235
11.75063 276
11.77074 245
11.79086 244
11.81097 264
11.83108 246
11.8512 278
11.87131 264
11.89143 286
11.91154 275
11.93165 297
11.95177 259
11.97188 241
11.99199 243
12.01211 283
12.03222 265
12.05234 267
12.07245 252
12.09256 277
12.11268 264
12.13279 253
12.1529 293
12.17302 304
12.19313 290
12.21324 299
12.23336 305
12.25347 269
12.27359 268
12.2937 297
12.31381 311
12.33393 296
12.35404 290
12.37415 282
12.39427 264
12.41438 273
12.4345 260
12.45461 256
12.47472 263
12.49484 247
12.51495 239
12.53506 253
12.55518 231
12.57529 234
12.5954 268
12.61552 246
12.63563 246
12.65575 266
12.67586 231
12.69597 249
12.71609 179
12.7362 210
12.75631 206
12.77643 240
12.79654 247
12.81666 234
12.83677 233
12.85688 227
12.877 235
12.89711 213
12.91722 240
12.93734 232
12.95745 224
12.97757 237
12.99768 208
13.01779 246
13.03791 223
13.05802 235
13.07813 221
13.09825 205
13.11836 225
13.13847 216
13.15859 194
13.1787 224
13.19882 242
13.21893 225
13.23904 221
13.25916 238
13.27927 201
13.29938 238
13.3195 195
13.33961 199
13.35973 211
13.37984 196
13.39995 206
13.42007 209
13.44018 235
13.46029 227
13.48041 257
13.50052 206
13.52064 214
13.54075 224
13.56086 230
13.58098 223
13.60109 235
13.6212 198
13.64132 220
13.66143 231
13.68154 194
13.70166 190
13.72177 201
13.74189 216
13.762 224
13.78211 216
13.80223 197
13.82234 189
13.84245 177
13.86257 199
13.88268 184
13.9028 218
13.92291 203
13.94302 202
13.96314 182
13.98325 216
14.00336 193
14.02348 215
14.04359 235
14.06371 200
14.08382 199
14.10393 224
14.12405 178
14.14416 235
14.16427 212
14.18439 214
14.2045 223
14.22461 217
14.24473 206
14.26484 190
14.28496 193
14.30507 190
14.32518 198
14.3453 174
14.36541 180
14.38552 190
14.40564 203
14.42575 199
14.44587 210
14.46598 207
14.48609 217
14.50621 201
14.52632 186
14.54643 208
14.56655 226
14.58666 171
14.60677 212
14.62689 192
14.647 204
14.66712 188
14.68723 178
14.70734 187
14.72746 168
14.74757 183
14.76768 231
14.7878 193
14.80791 226
14.82803 201
14.84814 177
14.86825 208
14.88837 188
14.90848 187
14.92859 176
14.94871 185
14.96882 215
14.98894 190
15.00905 196
15.02916 215
15.04928 192
15.06939 196
15.0895 182
15.10962 180
15.12973 206
15.14984 190
15.16996 197
15.19007 175
15.21019 197
15.2303 209
15.25041 154
15.27053 184
15.29064 190
15.31075 193
15.33087 146
15.35098 208
15.3711 172
15.39121 199
15.41132 179
15.43144 207
15.45155 206
15.47166 175
15.49178 178
15.51189 180
15.53201 176
15.55212 198
15.57223 203
15.59235 162
15.61246 169
15.63257 183
15.65269 167
15.6728 179
15.69291 192
15.71303 182
15.73314 181
15.75326 211
15.77337 190
15.79348 184
15.8136 197
15.83371 192
15.85382 200
15.87394 197
15.89405 197
15.91417 207
15.93428 176
15.95439 172
15.97451 190
15.99462 213
16.01473 180
16.03485 194
16.05496 206
16.07508 190
16.09519 173
16.1153 185
16.13542 179
16.15553 166
16.17564 206
16.19576 207
16.21587 202
16.23598 181
16.2561 173
16.27621 178
16.29633 209
16.31644 196
16.33655 203
16.35667 203
16.37678 174
16.39689 227
16.41701 194
16.43712 161
16.45724 188
16.47735 161
16.49746 184
16.51758 184
16.53769 188
16.5578 197
16.57792 211
16.59803 172
16.61814 188
16.63826 183
16.65837 191
16.67849 177
16.6986 176
16.71871 174
16.73883 184
16.75894 187
16.77905 185
16.79917 207
16.81928 190
16.8394 217
16.85951 189
16.87962 169
16.89974 187
16.91985 187
16.93996 190
16.96008 190
16.98019 163
17.00031 201
17.02042 154
17.04053 190
17.06065 192
17.08076 171
17.10087 179
17.12099 175
17.1411 183
17.16121 180
17.18133 225
17.20144 194
17.22156 204
17.24167 169
17.26178 197
17.2819 171
17.30201 183
17.32212 167
17.34224 205
17.36235 186
17.38247 203
17.40258 201
17.42269 184
17.44281 196
17.46292 178
17.48303 183
17.50315 173
17.52326 178
17.54338 180
17.56349 198
17.5836 182
17.60372 169
17.62383 196
17.64394 175
17.66406 212
17.68417 195
17.70428 226
17.7244 188
17.74451 231
17.76463 216
17.78474 177
17.80485 175
17.82497 180
17.84508 155
17.86519 201
17.88531 173
17.90542 180
17.92554 174
17.94565 183
17.96576 206
17.98588 193
18.00599 193
18.0261 187
18.04622 185
18.06633 157
18.08645 172
18.10656 179
18.12667 172
18.14679 203
18.1669 186
18.18701 186
18.20713 177
18.22724 180
18.24735 198
18.26747 188
18.28758 157
18.3077 173
18.32781 177
18.34792 171
18.36804 174
18.38815 190
18.40826 174
18.42838 179
18.44849 151
18.46861 180
18.48872 197
18.50883 188
18.52895 154
18.54906 184
18.56917 187
18.58929 193
18.6094 197
18.62951 195
18.64963 168
18.66974 200
18.68986 214
18.70997 213
18.73008 185
18.7502 203
18.77031 192
18.79042 191
18.81054 166
18.83065 175
18.85077 180
18.87088 209
18.89099 178
18.91111 187
18.93122 173
18.95133 199
18.97145 180
18.99156 194
19.01168 200
19.03179 167
19.0519 208
19.07202 181
19.09213 162
19.11224 184
19.13236 197
19.15247 217
19.17258 187
19.1927 201
19.21281 181
19.23293 202
19.25304 204
19.27315 188
19.29327 210
19.31338 201
19.33349 187
19.35361 200
19.37372 185
19.39384 205
19.41395 213
19.43406 207
19.45418 223
19.47429 199
19.4944 194
19.51452 201
19.53463 183
19.55475 192
19.57486 202
19.59497 222
19.61509 255
19.6352 212
19.65531 229
19.67543 241
19.69554 249
19.71565 277
19.73577 294
19.75588 289
19.776 331
19.79611 369
19.81622 339
19.83634 355
19.85645 377
19.87656 354
19.89668 362
19.91679 341
19.93691 372
19.95702 351
19.97713 374
19.99725 370
20.01736 370
20.03747 329
20.05759 317
20.0777 344
20.09782 311
20.11793 337
20.13804 361
20.15816 336
20.17827 346
20.19838 346
20.2185 373
20.23861 358
20.25872 309
20.27884 370
20.29895 350
20.31907 345
20.33918 370
20.35929 365
20.37941 370
20.39952 377
20.41963 359
20.43975 391
20.45986 369
20.47998 421
20.50009 428
20.5202 455
20.54032 495
20.56043 445
20.58054 467
20.60066 510
20.62077 581
20.64088 560
20.661 723
20.68111 801
20.70123 964
20.72134 1304
20.74145 1823
20.76157 2527
20.78168 3671
20.80179 5070
20.82191 6737
20.84202 8027
20.86214 8761
20.88225 8213
20.90236 6521
20.92248 4676
20.94259 3167
20.9627 1856
20.98282 1104
21.00293 768
21.02305 623
21.04316 648
21.06327 554
21.08339 490
21.1035 538
21.12361 488
21.14373 426
21.16384 383
21.18395 416
21.20407 406
21.22418 368
21.2443 377
21.26441 326
21.28452 364
21.30464 339
21.32475 343
21.34486 353
21.36498 314
21.38509 327
21.40521 323
21.42532 319
21.44543 303
21.46555 302
21.48566 288
21.50577 313
21.52589 297
21.546 280
21.56612 296
21.58623 308
21.60634 263
21.62646 266
21.64657 298
21.66668 294
21.6868 262
21.70691 257
21.72702 277
21.74714 283
21.76725 267
21.78737 268
21.80748 290
21.82759 247
21.84771 272
21.86782 261
21.88793 268
21.90805 271
21.92816 264
21.94828 262
21.96839 278
21.9885 241
22.00862 232
22.02873 258
22.04884 258
22.06896 274
22.08907 270
22.10919 269
22.1293 253
22.14941 274
22.16953 251
22.18964 294
22.20975 230
22.22987 272
22.24998 249
22.27009 279
22.29021 250
22.31032 269
22.33044 225
22.35055 251
22.37066 227
22.39078 211
22.41089 240
22.431 267
22.45112 243
22.47123 244
22.49135 264
22.51146 225
22.53157 235
22.55169 238
22.5718 217
22.59191 256
22.61203 237
22.63214 232
22.65225 281
22.67237 259
22.69248 238
22.7126 238
22.73271 239
22.75282 247
22.77294 241
22.79305 243
22.81316 254
22.83328 262
22.85339 266
22.87351 238
22.89362 232
22.91373 228
22.93385 246
22.95396 221
22.97407 228
22.99419 235
23.0143 245
23.03442 267
23.05453 244
23.07464 289
23.09476 276
23.11487 259
23.13498 251
23.1551 234
23.17521 246
23.19532 264
23.21544 271
23.23555 266
23.25567 254
23.27578 241
23.29589 224
23.31601 199
23.33612 241
23.35623 234
23.37635 239
23.39646 251
23.41658 240
23.43669 247
23.4568 231
23.47692 225
23.49703 210
23.51714 199
23.53726 241
23.55737 236
23.57749 251
23.5976 216
23.61771 245
23.63783 218
23.65794 244
23.67805 225
23.69817 232
23.71828 234
23.73839 221
23.75851 260
23.77862 244
23.79874 261
23.81885 234
23.83896 261
23.85908 235
23.87919 256
23.8993 263
23.91942 238
23.93953 299
23.95965 339
23.97976 327
23.99987 360
24.01999 375
24.0401 320
24.06021 323
24.08033 274
24.10044 279
24.12056 270
24.14067 252
24.16078 251
24.1809 258
24.20101 276
24.22112 255
24.24124 239
24.26135 247
24.28146 258
24.30158 243
24.32169 240
24.34181 257
24.36192 241
24.38203 267
24.40215 246
24.42226 259
24.44237 242
24.46249 239
24.4826 246
24.50272 260
24.52283 230
24.54294 235
24.56306 268
24.58317 285
24.60328 273
24.6234 273
24.64351 263
24.66362 272
24.68374 255
24.70385 237
24.72397 253
24.74408 260
24.76419 286
24.78431 254
24.80442 259
24.82453 288
24.84465 290
24.86476 265
24.88488 291
24.90499 281
24.9251 262
24.94522 278
24.96533 303
24.98544 269
25.00556 292
25.02567 306
25.04579 252
25.0659 271
25.08601 259
25.10613 231
25.12624 289
25.14635 295
25.16647 286
25.18658 298
25.20669 313
25.22681 264
25.24692 296
25.26704 310
25.28715 334
25.30726 349
25.32738 319
25.34749 283
25.3676 347
25.38772 325
25.40783 240
25.42795 300
25.44806 288
25.46817 275
25.48829 277
25.5084 296
25.52851 337
25.54863 299
25.56874 309
25.58886 294
25.60897 331
25.62908 338
25.6492 371
25.66931 374
25.68942 385
25.70954 399
25.72965 457
25.74976 496
25.76988 463
25.78999 464
25.81011 441
25.83022 452
25.85033 499
25.87045 509
25.89056 479
25.91067 468
25.93079 439
25.9509 507
25.97102 455
25.99113 501
26.01124 524
26.03136 548
26.05147 557
26.07158 548
26.0917 550
26.11181 642
26.13193 654
26.15204 646
26.17215 670
26.19227 780
26.21238 783
26.23249 870
26.25261 945
26.27272 988
26.29283 1061
26.31295 1123
26.33306 1239
26.35318 1359
26.37329 1579
26.3934 1875
26.41352 2131
26.43363 2585
26.45374 3283
26.47386 4489
26.49397 6107
26.51409 8545
26.5342 12102
26.55431 16706
26.57443 23083
26.59454 30046
26.61465 36246
26.63477 39479
26.65488 37355
26.67499 30461
26.69511 23032
26.71522 17714
26.73534 11890
26.75545 6876
26.77556 3624
26.79568 2501
26.81579 2006
26.8359 1645
26.85602 1536
26.87613 1399
26.89625 1170
26.91636 1154
26.93647 1051
26.95659 965
26.9767 886
26.99681 885
27.01693 704
27.03704 680
27.05716 624
27.07727 580
27.09738 628
27.1175 545
27.13761 555
27.15772 491
27.17784 471
27.19795 437
27.21806 466
27.23818 476
27.25829 449
27.27841 426
27.29852 451
27.31863 454
27.33875 436
27.35886 450
27.37897 446
27.39909 435
27.4192 454
27.43932 479
27.45943 469
27.47954 436
27.49966 410
27.51977 466
27.53988 395
27.56 367
27.58011 383
27.60023 358
27.62034 348
27.64045 308
27.66057 339
27.68068 344
27.70079 289
27.72091 276
27.74102 347
27.76113 304
27.78125 321
27.80136 320
27.82148 327
27.84159 311
27.8617 327
27.88182 344
27.90193 303
27.92204 295
27.94216 319
27.96227 301
27.98239 276
28.0025 311
28.02261 273
28.04273 296
28.06284 270
28.08295 288
28.10307 314
28.12318 267
28.1433 281
28.16341 289
28.18352 297
28.20364 285
28.22375 269
28.24386 290
28.26398 252
28.28409 269
28.3042 314
28.32432 269
28.34443 270
28.36455 279
28.38466 299
28.40477 274
28.42489 269
28.445 282
28.46511 235
28.48523 260
28.50534 251
28.52546 256
28.54557 271
28.56568 263
28.5858 252
28.60591 264
28.62602 264
28.64614 268
28.66625 237
28.68636 230
28.70648 256
28.72659 264
28.74671 260
28.76682 267
28.78693 274
28.80705 283
28.82716 246
28.84727 234
28.86739 264
28.8875 237
28.90762 240
28.92773 266
28.94784 249
28.96796 264
28.98807 263
29.00818 267
29.0283 261
29.04841 258
29.06853 250
29.08864 238
29.10875 276
29.12887 255
29.14898 245
29.16909 227
29.18921 242
29.20932 235
29.22943 255
29.24955 244
29.26966 236
29.28978 238
29.30989 237
29.33 230
29.35012 246
29.37023 228
29.39034 255
29.41046 258
29.43057 249
29.45069 242
29.4708 274
29.49091 239
29.51103 264
29.53114 230
29.55125 220
29.57137 248
29.59148 232
29.6116 268
29.63171 229
29.65182 230
29.67194 260
29.69205 252
29.71216 256
29.73228 235
29.75239 258
29.7725 205
29.79262 250
29.81273 229
29.83285 221
29.85296 239
29.87307 219
29.89319 251
29.9133 217
29.93341 247
29.95353 237
29.97364 199
29.99376 211
30.01387 245
30.03398 241
30.0541 233
30.07421 208
30.09432 220
30.11444 233
30.13455 264
30.15467 220
30.17478 216
30.19489 212
30.21501 225
30.23512 217
30.25523 251
30.27535 217
30.29546 236
30.31557 244
30.33569 228
30.3558 213
30.37592 210
30.39603 185
30.41614 218
30.43626 204
30.45637 215
30.47648 218
30.4966 235
30.51671 242
30.53683 210
30.55694 217
30.57705 224
30.59717 260
30.61728 222
30.63739 201
30.65751 233
30.67762 226
30.69773 223
30.71785 257
30.73796 251
30.75808 252
30.77819 236
30.7983 207
30.81842 222
30.83853 230
30.85864 229
30.87876 207
30.89887 214
30.91899 205
30.9391 223
30.95921 227
30.97933 194
30.99944 227
31.01955 232
31.03967 204
31.05978 194
31.0799 230
31.10001 199
31.12012 180
31.14024 194
31.16035 184
31.18046 203
31.20058 179
31.22069 169
31.2408 230
31.26092 202
31.28103 211
31.30115 200
31.32126 182
31.34137 226
31.36149 235
31.3816 199
31.40171 173
31.42183 205
31.44194 202
31.46206 198
31.48217 191
31.50228 217
31.5224 185
31.54251 184
31.56262 187
31.58274 181
31.60285 177
31.62297 196
31.64308 183
31.66319 207
31.68331 192
31.70342 163
31.72353 167
31.74365 157
31.76376 174
31.78387 171
31.80399 185
31.8241 202
31.84422 222
31.86433 170
31.88444 187
31.90456 172
31.92467 176
31.94478 182
31.9649 195
31.98501 185
32.00513 180
32.02524 175
32.04535 166
32.06547 191
32.08558 194
32.10569 157
32.12581 182
32.14592 197
32.16604 205
32.18615 159
32.20626 188
32.22638 182
32.24649 178
32.2666 212
32.28672 197
32.30683 180
32.32694 165
32.34706 179
32.36717 186
32.38729 206
32.4074 209
32.42751 190
32.44763 189
32.46774 193
32.48785 235
32.50797 185
32.52808 199
32.5482 177
32.56831 164
32.58842 199
32.60854 223
32.62865 204
32.64876 161
32.66888 189
32.68899 189
32.7091 185
32.72922 188
32.74933 192
32.76945 167
32.78956 185
32.80967 176
32.82979 210
32.8499 192
32.87001 214
32.89013 189
32.91024 188
32.93036 215
32.95047 173
32.97058 203
32.9907 188
33.01081 184
33.03092 199
33.05104 184
33.07115 190
33.09127 214
33.11138 209
33.13149 203
33.15161 196
33.17172 202
33.19183 188
33.21195 183
33.23206 193
33.25217 209
33.27229 184
33.2924 174
33.31252 200
33.33263 169
33.35274 206
33.37286 204
33.39297 206
33.41308 197
33.4332 184
33.45331 199
33.47343 177
33.49354 199
33.51365 178
33.53377 181
33.55388 185
33.57399 200
33.59411 220
33.61422 180
33.63434 173
33.65445 202
33.67456 193
33.69468 193
33.71479 182
33.7349 158
33.75502 177
33.77513 205
33.79524 195
33.81536 192
33.83547 213
33.85559 160
33.8757 141
33.89581 144
33.91593 148
33.93604 169
33.95615 173
33.97627 175
33.99638 181
34.0165 191
34.03661 192
34.05672 184
34.07684 176
34.09695 155
34.11706 171
34.13718 147
34.15729 180
34.17741 189
34.19752 177
34.21763 171
34.23775 195
34.25786 186
34.27797 176
34.29809 167
34.3182 196
34.33831 167
34.35843 184
34.37854 188
34.39866 174
34.41877 169
34.43888 160
34.459 175
34.47911 184
34.49922 215
34.51934 169
34.53945 186
34.55957 216
34.57968 214
34.59979 197
34.61991 198
34.64002 203
34.66013 205
34.68025 247
34.70036 214
34.72047 212
34.74059 212
34.7607 267
34.78082 200
34.80093 233
34.82104 244
34.84116 238
34.86127 239
34.88138 267
34.9015 249
34.92161 264
34.94173 279
34.96184 255
34.98195 288
35.00207 277
35.02218 258
35.04229 269
35.06241 261
35.08252 248
35.10264 220
35.12275 239
35.14286 232
35.16298 247
35.18309 227
35.2032 224
35.22332 240
35.24343 226
35.26354 245
35.28366 231
35.30377 242
35.32389 224
35.344 234
35.36411 227
35.38423 232
35.40434 210
35.42445 239
35.44457 252
35.46468 239
35.4848 235
35.50491 252
35.52502 239
35.54514 263
35.56525 280
35.58536 283
35.60548 259
35.62559 260
35.64571 254
35.66582 249
35.68593 234
35.70605 255
35.72616 226
35.74627 255
35.76639 276
35.7865 252
35.80661 232
35.82673 232
35.84684 256
35.86696 222
35.88707 228
35.90718 210
35.9273 236
35.94741 232
35.96752 261
35.98764 217
36.00775 235
36.02787 226
36.04798 235
36.06809 241
36.08821 250
36.10832 264
36.12843 264
36.14855 258
36.16866 272
36.18878 285
36.20889 274
36.229 327
36.24912 307
36.26923 300
36.28934 374
36.30946 364
36.32957 433
36.34968 495
36.3698 594
36.38991 746
36.41003 959
36.43014 1187
36.45025 1444
36.47037 1744
36.49048 2135
36.51059 2440
36.53071 2511
36.55082 2460
36.57094 2049
36.59105 1713
36.61116 1431
36.63128 1280
36.65139 1037
36.6715 764
36.69162 477
36.71173 388
36.73184 371
36.75196 314
36.77207 313
36.79219 281
36.8123 292
36.83241 311
36.85253 281
36.87264 275
36.89275 250
36.91287 246
36.93298 265
36.9531 257
36.97321 239
36.99332 226
37.01344 230
37.03355 224
37.05366 251
37.07378 254
37.09389 207
37.11401 199
37.13412 207
37.15423 207
37.17435 243
37.19446 204
37.21457 208
37.23469 203
37.2548 200
37.27491 186
37.29503 201
37.31514 201
37.33526 195
37.35537 209
37.37548 211
37.3956 208
37.41571 196
37.43582 212
37.45594 189
37.47605 195
37.49617 240
37.51628 196
37.53639 213
37.55651 209
37.57662 189
37.59673 202
37.61685 212
37.63696 208
37.65708 223
37.67719 191
37.6973 207
37.71742 245
37.73753 173
37.75764 217
37.77776 198
37.79787 231
37.81798 187
37.8381 220
37.85821 233
37.87833 216
37.89844 206
37.91855 212
37.93867 181
37.95878 209
37.97889 203
37.99901 230
38.01912 214
38.03924 231
38.05935 205
38.07946 216
38.09958 192
38.11969 206
38.1398 206
38.15992 216
38.18003 232
38.20015 218
38.22026 182
38.24037 205
38.26049 205
38.2806 234
38.30071 235
38.32083 232
38.34094 212
38.36105 216
38.38117 234
38.40128 224
38.4214 198
38.44151 229
38.46162 219
38.48174 231
38.50185 207
38.52196 214
38.54208 211
38.56219 242
38.58231 226
38.60242 209
38.62253 222
38.64265 185
38.66276 226
38.68287 212
38.70299 216
38.7231 212
38.74321 227
38.76333 214
38.78344 220
38.80356 232
38.82367 188
38.84378 187
38.8639 224
38.88401 215
38.90412 221
38.92424 234
38.94435 224
38.96447 210
38.98458 235
39.00469 185
39.02481 225
39.04492 251
39.06503 231
39.08515 240
39.10526 240
39.12538 272
39.14549 285
39.1656 285
39.18572 300
39.20583 327
39.22594 357
39.24606 414
39.26617 441
39.28628 527
39.3064 680
39.32651 887
39.34663 1000
39.36674 1227
39.38685 1591
39.40697 1930
39.42708 2236
39.44719 2356
39.46731 2303
39.48742 1990
39.50754 1640
39.52765 1328
39.54776 1211
39.56788 1161
39.58799 937
39.6081 644
39.62822 426
39.64833 378
39.66845 318
39.68856 281
39.70867 248
39.72879 246
39.7489 235
39.76901 245
39.78913 237
39.80924 222
39.82935 223
39.84947 245
39.86958 224
39.8897 232
39.90981 221
39.92992 243
39.95004 243
39.97015 238
39.99026 234
40.01038 249
40.03049 264
40.05061 309
40.07072 308
40.09083 337
40.11095 386
40.13106 458
40.15117 498
40.17129 627
40.1914 756
40.21152 873
40.23163 1044
40.25174 1145
40.27186 1238
40.29197 1183
40.31208 1036
40.3322 873
40.35231 747
40.37242 706
40.39254 663
40.41265 542
40.43277 383
40.45288 320
40.47299 242
40.49311 260
40.51322 232
40.53333 204
40.55345 233
40.57356 224
40.59368 221
40.61379 210
40.6339 198
40.65402 192
40.67413 192
40.69424 191
40.71436 167
40.73447 197
40.75458 190
40.7747 161
40.79481 207
40.81493 183
40.83504 194
40.85515 183
40.87527 185
40.89538 197
40.91549 197
40.93561 215
40.95572 186
40.97584 188
40.99595 210
41.01606 161
41.03618 211
41.05629 189
41.0764 180
41.09652 178
41.11663 187
41.13675 179
41.15686 204
41.17697 192
41.19709 201
41.2172 153
41.23731 205
41.25743 192
41.27754 192
41.29765 176
41.31777 184
41.33788 180
41.358 195
41.37811 183
41.39822 183
41.41834 181
41.43845 198
41.45856 191
41.47868 183
41.49879 197
41.51891 198
41.53902 181
41.55913 193
41.57925 189
41.59936 191
41.61947 192
41.63959 195
41.6597 195
41.67982 181
41.69993 189
41.72004 213
41.74016 196
41.76027 215
41.78038 207
41.8005 201
41.82061 201
41.84072 225
41.86084 185
41.88095 204
41.90107 181
41.92118 191
41.94129 201
41.96141 190
41.98152 205
42.00163 221
42.02175 212
42.04186 201
42.06198 197
42.08209 229
42.1022 235
42.12232 253
42.14243 260
42.16254 260
42.18266 282
42.20277 323
42.22289 356
42.243 387
42.26311 433
42.28323 485
42.30334 595
42.32345 773
42.34357 921
42.36368 1132
42.38379 1322
42.40391 1496
42.42402 1665
42.44414 1643
42.46425 1464
42.48436 1178
42.50448 1042
42.52459 953
42.5447 921
42.56482 742
42.58493 665
42.60505 452
42.62516 320
42.64527 298
42.66539 270
42.6855 232
42.70561 237
42.72573 217
42.74584 241
42.76595 208
42.78607 236
42.80618 202
42.8263 208
42.84641 170
42.86652 177
42.88664 181
42.90675 192
42.92686 180
42.94698 181
42.96709 159
42.98721 181
43.00732 178
43.02743 179
43.04755 162
43.06766 159
43.08777 175
43.10789 179
43.128 159
43.14812 171
43.16823 155
43.18834 165
43.20846 160
43.22857 175
43.24868 176
43.2688 165
43.28891 161
43.30902 178
43.32914 174
43.34925 174
43.36937 135
43.38948 183
43.40959 178
43.42971 151
43.44982 167
43.46993 175
43.49005 182
43.51016 184
43.53028 147
43.55039 139
43.5705 176
43.59062 174
43.61073 167
43.63084 180
43.65096 169
43.67107 164
43.69119 151
43.7113 186
43.73141 168
43.75153 168
43.77164 179
43.79175 168
43.81187 172
43.83198 170
43.85209 193
43.87221 166
43.89232 183
43.91244 186
43.93255 171
43.95266 169
43.97278 161
43.99289 160
44.013 166
44.03312 169
44.05323 194
44.07335 154
44.09346 166
44.11357 176
44.13369 165
44.1538 171
44.17391 171
44.19403 158
44.21414 158
44.23426 157
44.25437 179
44.27448 162
44.2946 175
44.31471 176
44.33482 166
44.35494 184
44.37505 153
44.39516 152
44.41528 155
44.43539 173
44.45551 151
44.47562 166
44.49573 155
44.51585 178
44.53596 180
44.55607 178
44.57619 166
44.5963 167
44.61642 177
44.63653 166
44.65664 168
44.67676 148
44.69687 175
44.71698 173
44.7371 173
44.75721 170
44.77732 160
44.79744 155
44.81755 196
44.83767 171
44.85778 161
44.87789 177
44.89801 166
44.91812 177
44.93823 182
44.95835 183
44.97846 164
44.99858 164
45.01869 181
45.0388 183
45.05892 171
45.07903 162
45.09914 178
45.11926 170
45.13937 160
45.15949 166
45.1796 160
45.19971 172
45.21983 169
45.23994 205
45.26005 170
45.28017 191
45.30028 195
45.32039 176
45.34051 186
45.36062 200
45.38074 191
45.40085 172
45.42096 216
45.44108 235
45.46119 184
45.4813 255
45.50142 227
45.52153 256
45.54165 259
45.56176 289
45.58187 307
45.60199 380
45.6221 411
45.64221 483
45.66233 582
45.68244 674
45.70256 760
45.72267 928
45.74278 1001
45.7629 1171
45.78301 1116
45.80312 950
45.82324 809
45.84335 701
45.86346 655
45.88358 649
45.90369 611
45.92381 520
45.94392 396
45.96403 303
45.98415 248
46.00426 229
46.02437 216
46.04449 203
46.0646 192
46.08472 191
46.10483 199
46.12494 184
46.14506 160
46.16517 188
46.18528 176
46.2054 166
46.22551 179
46.24563 175
46.26574 186
46.28585 177
46.30597 182
46.32608 184
46.34619 168
46.36631 197
46.38642 160
46.40653 154
46.42665 157
46.44676 143
46.46688 146
46.48699 155
46.5071 169
46.52722 163
46.54733 157
46.56744 151
46.58756 149
46.60767 137
46.62779 139
46.6479 147
46.66801 168
46.68813 160
46.70824 151
46.72835 150
46.74847 152
46.76858 159
46.78869 154
46.80881 139
46.82892 176
46.84904 145
46.86915 138
46.88926 184
46.90938 147
46.92949 154
46.9496 156
46.96972 143
46.98983 152
47.00995 146
47.03006 158
47.05017 172
47.07029 188
47.0904 130
47.11051 159
47.13063 172
47.15074 202
47.17086 171
47.19097 170
47.21108 136
47.2312 154
47.25131 172
47.27142 164
47.29154 177
47.31165 166
47.33176 149
47.35188 168
47.37199 152
47.39211 155
47.41222 146
47.43233 152
47.45245 169
47.47256 154
47.49267 163
47.51279 164
47.5329 162
47.55302 153
47.57313 164
47.59324 164
47.61336 142
47.63347 139
47.65358 161
47.6737 150
47.69381 159
47.71393 182
47.73404 141
47.75415 151
47.77427 138
47.79438 163
47.81449 184
47.83461 147
47.85472 175
47.87483 144
47.89495 165
47.91506 187
47.93518 141
47.95529 166
47.9754 160
47.99552 160
48.01563 150
48.03574 174
48.05586 166
48.07597 150
48.09609 162
48.1162 163
48.13631 159
48.15643 160
48.17654 158
48.19665 164
48.21677 136
48.23688 165
48.257 157
48.27711 140
48.29722 118
48.31734 157
48.33745 156
48.35756 159
48.37768 167
48.39779 152
48.4179 156
48.43802 148
48.45813 160
48.47825 164
48.49836 176
48.51847 149
48.53859 175
48.5587 153
48.57881 173
48.59893 177
48.61904 152
48.63916 183
48.65927 136
48.67938 172
48.6995 169
48.71961 157
48.73972 148
48.75984 147
48.77995 177
48.80006 167
48.82018 156
48.84029 157
48.86041 162
48.88052 168
48.90063 165
48.92075 171
48.94086 162
48.96097 169
48.98109 147
49.0012 158
49.02132 161
49.04143 182
49.06154 164
49.08166 171
49.10177 174
49.12188 165
49.142 169
49.16211 181
49.18223 149
49.20234 154
49.22245 169
49.24257 180
49.26268 178
49.28279 151
49.30291 163
49.32302 175
49.34313 174
49.36325 160
49.38336 170
49.40348 190
49.42359 189
49.4437 156
49.46382 197
49.48393 188
49.50404 190
49.52416 190
49.54427 184
49.56439 204
49.5845 197
49.60461 185
49.62473 218
49.64484 240
49.66495 243
49.68507 247
49.70518 223
49.7253 272
49.74541 298
49.76552 290
49.78564 295
49.80575 360
49.82586 356
49.84598 415
49.86609 487
49.8862 520
49.90632 625
49.92643 777
49.94655 940
49.96666 1063
49.98677 1325
50.00689 1647
50.027 1969
50.04711 2456
50.06723 2883
50.08734 3247
50.10746 3378
50.12757 3543
50.14768 3121
50.1678 2604
50.18791 2127
50.20802 1861
50.22814 1911
50.24825 1776
50.26837 1643
50.28848 1298
50.30859 928
50.32871 592
50.34882 454
50.36893 385
50.38905 336
50.40916 293
50.42927 290
50.44939 296
50.4695 301
50.48962 260
50.50973 274
50.52984 276
50.54996 263
50.57007 288
50.59018 279
50.6103 276
50.63041 290
50.65053 224
50.67064 231
50.69075 229
50.71087 230
50.73098 203
50.75109 214
50.77121 227
50.79132 166
50.81143 200
50.83155 187
50.85166 202
50.87178 179
50.89189 169
50.912 180
50.93212 168
50.95223 193
50.97234 166
50.99246 142
51.01257 167
51.03269 156
51.0528 170
51.07291 173
51.09303 190
51.11314 155
51.13325 145
51.15337 161
51.17348 176
51.1936 164
51.21371 151
51.23382 153
51.25394 164
51.27405 161
51.29416 145
51.31428 151
51.33439 143
51.3545 134
51.37462 158
51.39473 142
51.41485 136
51.43496 159
51.45507 161
51.47519 153
51.4953 149
51.51541 130
51.53553 149
51.55564 145
51.57576 141
51.59587 140
51.61598 147
51.6361 136
51.65621 169
51.67632 135
51.69644 164
51.71655 146
51.73667 147
51.75678 146
51.77689 150
51.79701 136
51.81712 137
51.83723 146
51.85735 155
51.87746 135
51.89757 137
51.91769 144
51.9378 149
51.95792 137
51.97803 130
51.99814 136
52.01826 155
52.03837 145
52.05848 169
52.0786 143
52.09871 155
52.11883 153
52.13894 128
52.15905 143
52.17917 149
52.19928 169
52.21939 175
52.23951 147
52.25962 151
52.27974 155
52.29985 140
52.31996 152
52.34008 161
52.36019 135
52.3803 147
52.40042 139
52.42053 145
52.44064 152
52.46076 154
52.48087 135
52.50099 125
52.5211 148
52.54121 135
52.56133 171
52.58144 126
52.60155 159
52.62167 127
52.64178 128
52.6619 136
52.68201 148
52.70212 142
52.72224 144
52.74235 126
52.76246 141
52.78258 164
52.80269 140
52.8228 138
52.84292 164
52.86303 126
52.88315 175
52.90326 136
52.92337 160
52.94349 133
52.9636 143
52.98371 138
53.00383 147
53.02394 144
53.04406 146
53.06417 140
53.08428 172
53.1044 168
53.12451 153
53.14462 141
53.16474 169
53.18485 130
53.20497 156
53.22508 159
53.24519 156
53.26531 140
53.28542 141
53.30553 153
53.32565 160
53.34576 175
53.36587 153
53.38599 174
53.4061 156
53.42622 171
53.44633 158
53.46644 174
53.48656 180
53.50667 193
53.52678 157
53.5469 181
53.56701 188
53.58713 187
53.60724 174
53.62735 173
53.64747 155
53.66758 150
53.68769 170
53.70781 160
53.72792 154
53.74804 166
53.76815 157
53.78826 166
53.80838 187
53.82849 172
53.8486 158
53.86872 138
53.88883 165
53.90894 177
53.92906 167
53.94917 186
53.96929 175
53.9894 188
54.00951 182
54.02963 182
54.04974 175
54.06985 167
54.08997 171
54.11008 179
54.1302 186
54.15031 182
54.17042 158
54.19054 165
54.21065 178
54.23076 179
54.25088 183
54.27099 184
54.29111 195
54.31122 214
54.33133 191
54.35145 179
54.37156 192
54.39167 210
54.41179 203
54.4319 198
54.45201 193
54.47213 239
54.49224 206
54.51236 216
54.53247 226
54.55258 211
54.5727 277
54.59281 282
54.61292 311
54.63304 275
54.65315 357
54.67327 364
54.69338 437
54.71349 511
54.73361 561
54.75372 682
54.77383 781
54.79395 933
54.81406 979
54.83417 1051
54.85429 1031
54.8744 1013
54.89452 864
54.91463 741
54.93474 669
54.95486 662
54.97497 653
54.99508 667
55.0152 610
55.03531 539
55.05543 411
55.07554 360
55.09565 320
55.11577 311
55.13588 320
55.15599 304
55.17611 321
55.19622 372
55.21634 404
55.23645 455
55.25656 532
55.27668 586
55.29679 592
55.3169 551
55.33702 486
55.35713 444
55.37724 367
55.39736 398
55.41747 379
55.43759 365
55.4577 327
55.47781 323
55.49793 290
55.51804 240
55.53815 228
55.55827 192
55.57838 201
55.5985 206
55.61861 175
55.63872 160
55.65884 178
55.67895 165
55.69906 190
55.71918 171
55.73929 180
55.75941 167
55.77952 167
55.79963 160
55.81975 147
55.83986 189
55.85997 162
55.88009 161
55.9002 173
55.92031 148
55.94043 161
55.96054 155
55.98066 157
56.00077 167
56.02088 153
56.041 152
56.06111 156
56.08122 150
56.10134 143
56.12145 146
56.14157 130
56.16168 162
56.18179 158
56.20191 133
56.22202 144
56.24213 173
56.26225 175
56.28236 181
56.30248 151
56.32259 156
56.3427 157
56.36282 118
56.38293 158
56.40304 133
56.42316 145
56.44327 143
56.46338 148
56.4835 166
56.50361 169
56.52373 172
56.54384 160
56.56395 130
56.58407 162
56.60418 145
56.62429 136
56.64441 152
56.66452 148
56.68464 169
56.70475 132
56.72486 138
56.74498 139
56.76509 145
56.7852 136
56.80532 159
56.82543 149
56.84554 155
56.86566 149
56.88577 156
56.90589 167
56.926 145
56.94611 151
56.96623 155
56.98634 165
57.00645 143
57.02657 161
57.04668 158
57.0668 169
57.08691 159
57.10702 175
57.12714 197
57.14725 191
57.16736 197
57.18748 183
57.20759 206
57.22771 187
57.24782 195
57.26793 190
57.28805 169
57.30816 177
57.32827 163
57.34839 162
57.3685 170
57.38861 172
57.40873 175
57.42884 181
57.44896 141
57.46907 143
57.48918 141
57.5093 138
57.52941 165
57.54952 141
57.56964 138
57.58975 164
57.60987 141
57.62998 167
57.65009 148
57.67021 137
57.69032 150
57.71043 151
57.73055 169
57.75066 149
57.77078 122
57.79089 153
57.811 150
57.83112 134
57.85123 162
57.87134 138
57.89146 154
57.91157 149
57.93168 151
57.9518 152
57.97191 139
57.99203 147
58.01214 165
58.03225 130
58.05237 145
58.07248 173
58.09259 140
58.11271 123
58.13282 148
58.15294 141
58.17305 128
58.19316 138
58.21328 124
58.23339 127
58.2535 145
58.27362 151
58.29373 171
58.31385 145
58.33396 148
58.35407 135
58.37419 150
58.3943 166
58.41441 124
58.43453 136
58.45464 136
58.47475 146
58.49487 163
58.51498 132
58.5351 150
58.55521 144
58.57532 150
58.59544 140
58.61555 162
58.63566 146
58.65578 160
58.67589 141
58.69601 145
58.71612 133
58.73623 150
58.75635 142
58.77646 136
58.79657 144
58.81669 152
58.8368 145
58.85691 159
58.87703 137
58.89714 142
58.91726 150
58.93737 148
58.95748 157
58.9776 137
58.99771 145
59.01782 155
59.03794 160
59.05805 184
59.07817 147
59.09828 170
59.11839 174
59.13851 140
59.15862 146
59.17873 168
59.19885 167
59.21896 152
59.23908 175
59.25919 161
59.2793 178
59.29942 178
59.31953 166
59.33964 178
59.35976 183
59.37987 190
59.39998 168
59.4201 221
59.44021 198
59.46033 181
59.48044 216
59.50055 240
59.52067 254
59.54078 260
59.56089 246
59.58101 292
59.60112 301
59.62124 330
59.64135 349
59.66146 388
59.68158 397
59.70169 456
59.7218 542
59.74192 601
59.76203 725
59.78215 941
59.80226 982
59.82237 1244
59.84249 1425
59.8626 1693
59.88271 1809
59.90283 2013
59.92294 2133
59.94305 2044
59.96317 1841
59.98328 1504
60.0034 1288
60.02351 1191
60.04362 1134
60.06374 1124
60.08385 1103
60.10396 1030
60.12408 919
60.14419 663
60.16431 558
60.18442 415
60.20453 296
60.22465 251
60.24476 248
60.26487 259
60.28499 215
60.3051 219
60.32522 195
60.34533 210
60.36544 182
60.38556 173
60.40567 203
60.42578 174
60.4459 183
60.46601 184
60.48612 184
60.50624 178
60.52635 171
60.54647 174
60.56658 156
60.58669 152
60.60681 128
60.62692 165
60.64703 151
60.66715 143
60.68726 155
60.70738 149
60.72749 148
60.7476 150
60.76772 147
60.78783 133
60.80794 143
60.82806 143
60.84817 145
60.86828 147
60.8884 166
60.90851 162
60.92863 145
60.94874 151
60.96885 153
60.98897 129
61.00908 164
61.02919 157
61.04931 173
61.06942 151
61.08954 155
61.10965 155
61.12976 141
61.14988 153
61.16999 155
61.1901 184
61.21022 142
61.23033 160
61.25045 178
61.27056 146
61.29067 128
61.31079 166
61.3309 139
61.35101 168
61.37113 129
61.39124 147
61.41135 124
61.43147 151
61.45158 116
61.4717 153
61.49181 150
61.51192 158
61.53204 150
61.55215 148
61.57226 135
61.59238 133
61.61249 160
61.63261 150
61.65272 166
61.67283 149
61.69295 173
61.71306 175
61.73317 147
61.75329 163
61.7734 177
61.79352 175
61.81363 166
61.83374 166
61.85386 168
61.87397 192
61.89408 190
61.9142 188
61.93431 186
61.95442 165
61.97454 168
61.99465 184
62.01477 194
62.03488 177
62.05499 204
62.07511 188
62.09522 164
62.11533 184
62.13545 197
62.15556 201
62.17568 147
62.19579 192
62.2159 183
62.23602 171
62.25613 142
62.27624 183
62.29636 175
62.31647 172
62.33659 162
62.3567 164
62.37681 162
62.39693 137
62.41704 137
62.43715 172
62.45727 169
62.47738 168
62.49749 155
62.51761 132
62.53772 158
62.55784 145
62.57795 146
62.59806 166
62.61818 150
62.63829 137
62.6584 142
62.67852 145
62.69863 154
62.71875 149
62.73886 137
62.75897 150
62.77909 161
62.7992 157
62.81931 146
62.83943 150
62.85954 146
62.87965 156
62.89977 127
62.91988 129
62.94 146
62.96011 129
62.98022 150
63.00034 154
63.02045 148
63.04056 128
63.06068 157
63.08079 144
63.10091 148
63.12102 131
63.14113 155
63.16125 149
63.18136 140
63.20147 129
63.22159 136
63.2417 138
63.26182 133
63.28193 145
63.30204 151
63.32216 145
63.34227 163
63.36238 136
63.3825 152
63.40261 146
63.42272 138
63.44284 128
63.46295 149
63.48307 139
63.50318 134
63.52329 164
63.54341 126
63.56352 161
63.58363 169
63.60375 151
63.62386 154
63.64398 136
63.66409 154
63.6842 167
63.70432 170
63.72443 152
63.74454 165
63.76466 188
63.78477 198
63.80489 232
63.825 237
63.84511 243
63.86523 248
63.88534 298
63.90545 344
63.92557 358
63.94568 373
63.96579 428
63.98591 488
64.00602 464
64.02614 483
64.04625 400
64.06636 368
64.08648 319
64.10659 307
64.1267 320
64.14682 305
64.16693 330
64.18705 324
64.20716 268
64.22727 247
64.24739 208
64.2675 223
64.28761 138
64.30773 173
64.32784 162
64.34796 143
64.36807 118
64.38818 150
64.4083 172
64.42841 129
64.44852 139
64.46864 152
64.48875 157
64.50886 160
64.52898 143
64.54909 138
64.56921 146
64.58932 127
64.60943 132
64.62955 109
64.64966 140
64.66977 132
64.68989 143
64.71 119
64.73012 146
64.75023 128
64.77034 145
64.79046 107
64.81057 132
64.83068 143
64.8508 151
64.87091 151
64.89102 146
64.91114 128
64.93125 136
64.95137 129
64.97148 110
64.99159 158
65.01171 126
65.03182 130
65.05193 155
65.07205 143
65.09216 124
65.11228 126
65.13239 165
65.1525 132
65.17262 131
65.19273 128
65.21284 114
65.23296 142
65.25307 130
65.27319 124
65.2933 132
65.31341 143
65.33353 158
65.35364 157
65.37375 136
65.39387 129
65.41398 159
65.43409 162
65.45421 134
65.47432 121
65.49444 156
65.51455 151
65.53466 167
65.55478 140
65.57489 177
65.595 161
65.61512 171
65.63523 181
65.65535 202
65.67546 192
65.69557 218
65.71569 199
65.7358 210
65.75591 217
65.77603 236
65.79614 211
65.81626 185
65.83637 187
65.85648 176
65.8766 183
65.89671 172
65.91682 193
65.93694 183
65.95705 159
65.97716 179
65.99728 160
66.01739 134
66.03751 130
66.05762 150
66.07773 145
66.09785 132
66.11796 151
66.13807 143
66.15819 168
66.1783 137
66.19842 144
66.21853 139
66.23864 139
66.25876 136
66.27887 156
66.29898 148
66.3191 163
66.33921 148
66.35933 144
66.37944 120
66.39955 131
66.41967 160
66.43978 148
66.45989 129
66.48001 152
66.50012 162
66.52023 146
66.54035 151
66.56046 144
66.58058 147
66.60069 134
66.6208 147
66.64092 140
66.66103 125
66.68114 134
66.70126 138
66.72137 144
66.74149 148
66.7616 145
66.78171 155
66.80183 129
66.82194 145
66.84205 132
66.86217 113
66.88228 153
66.90239 141
66.92251 133
66.94262 144
66.96274 153
66.98285 147
67.00296 171
67.02308 157
67.04319 166
67.0633 169
67.08342 141
67.10353 178
67.12365 178
67.14376 145
67.16387 176
67.18399 180
67.2041 178
67.22421 179
67.24433 196
67.26444 195
67.28456 180
67.30467 206
67.32478 208
67.3449 213
67.36501 240
67.38512 250
67.40524 263
67.42535 273
67.44546 287
67.46558 317
67.48569 377
67.50581 397
67.52592 469
67.54603 567
67.56615 611
67.58626 708
67.60637 813
67.62649 936
67.6466 1049
67.66672 1134
67.68683 1188
67.70694 1243
67.72706 1196
67.74717 1138
67.76728 986
67.7874 869
67.80751 828
67.82763 824
67.84774 862
67.86785 894
67.88797 927
67.90808 948
67.92819 902
67.94831 974
67.96842 1007
67.98853 1043
68.00865 1036
68.02876 1288
68.04888 1392
68.06899 1435
68.0891 1649
68.10922 1765
68.12933 1687
68.14944 1615
68.16956 1448
68.18967 1341
68.20979 1401
68.2299 1431
68.25001 1417
68.27013 1428
68.29024 1475
68.31035 1405
68.33047 1211
68.35058 1056
68.3707 812
68.39081 706
68.41092 661
68.43104 594
68.45115 561
68.47126 568
68.49138 544
68.51149 501
68.5316 360
68.55172 321
68.57183 284
68.59195 211
68.61206 237
68.63217 239
68.65229 202
68.6724 173
68.69251 177
68.71263 172
68.73274 189
68.75286 180
68.77297 181
68.79308 175
68.8132 176
68.83331 171
68.85342 165
68.87354 174
68.89365 165
68.91376 163
68.93388 167
68.95399 173
68.97411 131
68.99422 146
69.01433 145
69.03445 160
69.05456 135
69.07467 171
69.09479 116
69.1149 144
69.13502 160
69.15513 165
69.17524 159
69.19536 135
69.21547 148
69.23558 125
69.2557 169
69.27581 142
69.29593 155
69.31604 152
69.33615 141
69.35627 136
69.37638 142
69.39649 140
69.41661 156
69.43672 134
69.45683 147
69.47695 110
69.49706 143
69.51718 142
69.53729 143
69.5574 128
69.57752 131
69.59763 126
69.61774 135
69.63786 149
69.65797 149
69.67809 127
69.6982 134
69.71831 139
69.73843 131
69.75854 149
69.77865 109
69.79877 124
69.81888 139
69.839 124
69.85911 120
69.87922 125
69.89934 132
69.91945 128
69.93956 120
69.95968 121
69.97979 162
69.9999 153
70.02002 152
70.04013 138
70.06025 130
70.08036 132
70.10047 149
70.12059 130
70.1407 140
70.16081 133
70.18093 115
70.20104 130
70.22116 149
70.24127 127
70.26138 137
70.2815 133
70.30161 130
70.32172 138
70.34184 117
70.36195 135
70.38207 123
70.40218 142
70.42229 125
70.44241 106
70.46252 131
70.48263 119
70.50275 111
70.52286 127
70.54297 136
70.56309 118
70.5832 120
70.60332 121
70.62343 131
70.64354 140
70.66366 127
70.68377 145
70.70388 135
70.724 118
70.74411 107
70.76423 146
70.78434 139
70.80445 143
70.82457 136
70.84468 133
70.86479 140
70.88491 141
70.90502 132
70.92513 137
70.94525 148
70.96536 140
70.98548 124
71.00559 115
71.0257 134
71.04582 122
71.06593 162
71.08604 120
71.10616 126
71.12627 144
71.14639 114
71.1665 131
71.18661 138
71.20673 122
71.22684 116
71.24695 126
71.26707 106
71.28718 121
71.3073 128
71.32741 115
71.34752 124
71.36764 126
71.38775 126
71.40786 126
71.42798 132
71.44809 110
71.4682 133
71.48832 117
71.50843 107
71.52855 138
71.54866 128
71.56877 116
71.58889 122
71.609 118
71.62911 133
71.64923 146
71.66934 132
71.68946 139
71.70957 128
71.72968 130
71.7498 136
71.76991 146
71.79002 135
71.81014 112
71.83025 116
71.85037 120
71.87048 148
71.89059 127
71.91071 116
71.93082 115
71.95093 119
71.97105 139
71.99116 142
72.01127 153
72.03139 120
72.0515 143
72.07162 102
72.09173 135
72.11184 140
72.13196 144
72.15207 137
72.17218 117
72.1923 149
72.21241 140
72.23253 132
72.25264 127
72.27275 120
72.29287 136
72.31298 118
72.33309 116
72.35321 129
72.37332 124
72.39344 125
72.41355 128
72.43366 132
72.45378 133
72.47389 118
72.494 128
72.51412 124
72.53423 125
72.55434 125
72.57446 135
72.59457 133
72.61469 105
72.6348 134
72.65491 125
72.67503 123
72.69514 124
72.71525 131
72.73537 133
72.75548 124
72.7756 130
72.79571 134
72.81582 120
72.83594 134
72.85605 120
72.87616 126
72.89628 125
72.91639 144
72.9365 146
72.95662 118
72.97673 148
72.99685 155
73.01696 154
73.03707 133
73.05719 163
73.0773 142
73.09741 167
73.11753 154
73.13764 174
73.15776 187
73.17787 185
73.19798 214
73.2181 213
73.23821 206
73.25832 228
73.27844 290
73.29855 275
73.31867 359
73.33878 374
73.35889 392
73.37901 444
73.39912 481
73.41923 501
73.43935 480
73.45946 475
73.47957 476
73.49969 334
73.5198 296
73.53992 296
73.56003 280
73.58014 339
73.60026 290
73.62037 336
73.64048 283
73.6606 297
73.68071 268
73.70083 268
73.72094 178
73.74105 187
73.76117 168
73.78128 153
73.80139 168
73.82151 169
73.84162 149
73.86174 142
73.88185 119
73.90196 136
73.92208 129
73.94219 137
73.9623 142
73.98242 135
74.00253 133
74.02264 135
74.04276 140
74.06287 150
74.08299 127
74.1031 118
74.12321 126
74.14333 129
74.16344 143
74.18355 140
74.20367 136
74.22378 133
74.2439 125
74.26401 124
74.28412 142
74.30424 122
74.32435 124
74.34446 132
74.36458 111
74.38469 117
74.40481 122
74.42492 118
74.44503 126
74.46515 130
74.48526 128
74.50537 113
74.52549 130
74.5456 120
74.56571 131
74.58583 121
74.60594 122
74.62606 109
74.64617 142
74.66628 121
74.6864 120
74.70651 135
74.72662 97
74.74674 110
74.76685 133
74.78697 115
74.80708 139
74.82719 125
74.84731 144
74.86742 121
74.88753 115
74.90765 118
74.92776 137
74.94787 123
74.96799 139
74.9881 119
75.00822 121
