3.00117 20092
3.02128 19337
3.0414 19053
3.06151 18579
3.08162 17676
3.10174 17208
3.12185 16447
3.14197 16373
3.16208 15897
3.18219 15258
3.20231 15072
3.22242 14704
3.24253 14425
3.26265 13649
3.28276 13173
3.30288 13029
3.32299 12469
3.3431 12229
3.36322 11780
3.38333 10979
3.40344 11218
3.42356 10674
3.44367 10281
3.46379 10064
3.4839 9584
3.50401 9503
3.52413 8929
3.54424 8789
3.56435 8369
3.58447 8102
3.60458 7896
3.62469 7389
3.64481 7138
3.66492 6883
3.68504 6815
3.70515 6464
3.72526 6100
3.74538 6013
3.76549 5837
3.7856 5487
3.80572 5439
3.82583 5068
3.84595 4784
3.86606 4526
3.88617 4358
3.90629 4286
3.9264 4018
3.94651 4040
3.96663 3778
3.98674 3424
4.00686 3527
4.02697 3376
4.04708 3119
4.0672 2931
4.08731 2751
4.10742 2785
4.12754 2636
4.14765 2543
4.16776 2496
4.18788 2308
4.20799 2314
4.22811 2202
4.24822 2124
4.26833 1972
4.28845 1943
4.30856 1984
4.32867 1891
4.34879 1863
4.3689 1695
4.38902 1616
4.40913 1698
4.42924 1664
4.44936 1480
4.46947 1409
4.48958 1432
4.5097 1473
4.52981 1511
4.54992 1400
4.57004 1308
4.59015 1296
4.61027 1253
4.63038 1295
4.65049 1219
4.67061 1170
4.69072 1175
4.71083 1179
4.73095 1205
4.75106 1135
4.77118 1071
4.79129 952
4.8114 1071
4.83152 1059
4.85163 982
4.87174 973
4.89186 985
4.91197 917
4.93209 988
4.9522 890
4.97231 928
4.99243 859
5.01254 890
5.03265 877
5.05277 775
5.07288 816
5.09299 785
5.11311 835
5.13322 742
5.15334 742
5.17345 746
5.19356 655
5.21368 689
5.23379 703
5.2539 644
5.27402 657
5.29413 642
5.31425 644
5.33436 614
5.35447 601
5.37459 636
5.3947 632
5.41481 571
5.43493 641
5.45504 580
5.47516 534
5.49527 587
5.51538 567
5.5355 564
5.55561 538
5.57572 502
5.59584 579
5.61595 529
5.63606 511
5.65618 501
5.67629 511
5.69641 504
5.71652 474
5.73663 511
5.75675 464
5.77686 456
5.79697 507
5.81709 471
5.8372 443
5.85732 450
5.87743 396
5.89754 412
5.91766 446
5.93777 437
5.95788 425
5.978 404
5.99811 445
6.01823 433
6.03834 474
6.05845 403
6.07857 387
6.09868 440
6.11879 370
6.13891 397
6.15902 449
6.17913 414
6.19925 407
6.21936 417
6.23948 402
6.25959 386
6.2797 446
6.29982 415
6.31993 418
6.34004 405
6.36016 420
6.38027 394
6.40039 405
6.4205 395
6.44061 414
6.46073 383
6.48084 405
6.50095 394
6.52107 383
6.54118 395
6.56129 414
6.58141 389
6.60152 400
6.62164 389
6.64175 365
6.66186 419
6.68198 430
6.70209 350
6.7222 419
6.74232 383
6.76243 383
6.78255 318
6.80266 392
6.82277 373
6.84289 358
6.863 380
6.88311 390
6.90323 445
6.92334 370
6.94346 390
6.96357 391
6.98368 377
7.0038 386
7.02391 388
7.04402 366
7.06414 388
7.08425 377
7.10436 401
7.12448 399
7.14459 373
7.16471 377
7.18482 357
7.20493 418
7.22505 386
7.24516 419
7.26527 417
7.28539 408
7.3055 365
7.32562 430
7.34573 413
7.36584 392
7.38596 396
7.40607 380
7.42618 416
7.4463 400
7.46641 402
7.48653 397
7.50664 400
7.52675 423
7.54687 385
7.56698 389
7.58709 390
7.60721 402
7.62732 405
7.64743 410
7.66755 354
7.68766 381
7.70778 401
7.72789 385
7.748 420
7.76812 382
7.78823 384
7.80834 435
7.82846 407
7.84857 425
7.86869 397
7.8888 403
7.90891 446
7.92903 397
7.94914 377
7.96925 391
7.98937 461
8.00948 346
8.0296 418
8.04971 413
8.06982 402
8.08994 405
8.11005 379
8.13016 402
8.15028 421
8.17039 391
8.1905 426
8.21062 391
8.23073 416
8.25085 380
8.27096 420
8.29107 376
8.31119 412
8.3313 404
8.35141 401
8.37153 430
8.39164 427
8.41176 435
8.43187 399
8.45198 422
8.4721 415
8.49221 387
8.51232 387
8.53244 409
8.55255 398
8.57266 439
8.59278 394
8.61289 427
8.63301 439
8.65312 446
8.67323 412
8.69335 424
8.71346 426
8.73357 436
8.75369 489
8.7738 437
8.79392 411
8.81403 444
8.83414 409
8.85426 461
8.87437 438
8.89448 426
8.9146 422
8.93471 407
8.95483 434
8.97494 424
8.99505 426
9.01517 384
9.03528 423
9.05539 432
9.07551 421
9.09562 401
9.11573 368
9.13585 428
9.15596 391
9.17608 405
9.19619 401
9.2163 380
9.23642 415
9.25653 406
9.27664 383
9.29676 369
9.31687 385
9.33699 428
9.3571 390
9.37721 398
9.39733 372
9.41744 395
9.43755 381
9.45767 373
9.47778 387
9.4979 413
9.51801 360
9.53812 435
9.55824 396
9.57835 350
9.59846 351
9.61858 378
9.63869 394
9.6588 386
9.67892 421
9.69903 387
9.71915 416
9.73926 363
9.75937 404
9.77949 428
9.7996 382
9.81971 395
9.83983 439
9.85994 412
9.88006 435
9.90017 428
9.92028 445
9.9404 417
9.96051 377
9.98062 377
10.00074 379
10.02085 432
10.04097 394
10.06108 388
10.08119 413
10.10131 417
10.12142 416
10.14153 381
10.16165 382
10.18176 369
10.20187 399
10.22199 387
10.2421 414
10.26222 413
10.28233 369
10.30244 382
10.32256 416
10.34267 432
10.36278 353
10.3829 348
10.40301 398
10.42313 337
10.44324 367
10.46335 373
10.48347 383
10.50358 385
10.52369 403
10.54381 387
10.56392 412
10.58403 425
10.60415 419
10.62426 401
10.64438 411
10.66449 394
10.6846 409
10.70472 404
10.72483 395
10.74494 367
10.76506 392
10.78517 374
10.80529 392
10.8254 404
10.84551 396
10.86563 430
10.88574 391
10.90585 421
10.92597 403
10.94608 412
10.9662 396
10.98631 409
11.00642 383
11.02654 371
11.04665 408
11.06676 408
11.08688 390
11.10699 414
11.1271 425
11.14722 411
11.16733 456
11.18745 434
11.20756 394
11.22767 418
11.24779 458
11.2679 429
11.28801 409
11.30813 373
11.32824 415
11.34836 424
11.36847 421
11.38858 445
11.4087 403
11.42881 406
11.44892 363
11.46904 419
11.48915 428
11.50927 422
11.52938 411
11.54949 462
11.56961 452
11.58972 429
11.60983 452
11.62995 384
11.65006 436
11.67017 450
11.69029 478
11.7104 454
11.73052 449
11.75063 435
11.77074 503
11.79086 440
11.81097 473
11.83108 484
11.8512 509
11.87131 480
11.89143 481
11.91154 476
11.93165 507
11.95177 590
11.97188 569
11.99199 585
12.01211 609
12.03222 583
12.05234 589
12.07245 647
12.09256 633
12.11268 669
12.13279 660
12.1529 750
12.17302 705
12.19313 746
12.21324 755
12.23336 851
12.25347 829
12.27359 876
12.2937 831
12.31381 851
12.33393 819
12.35404 777
12.37415 778
12.39427 727
12.41438 736
12.4345 698
12.45461 606
12.47472 616
12.49484 615
12.51495 570
12.53506 510
12.55518 514
12.57529 495
12.5954 500
12.61552 508
12.63563 432
12.65575 474
12.67586 495
12.69597 457
12.71609 426
12.7362 439
12.75631 408
12.77643 437
12.79654 408
12.81666 402
12.83677 437
12.85688 370
12.877 407
12.89711 388
12.91722 410
12.93734 416
12.95745 418
12.97757 419
12.99768 409
13.01779 414
13.03791 420
13.05802 402
13.07813 384
13.09825 346
13.11836 373
13.13847 401
13.15859 369
13.1787 366
13.19882 351
13.21893 360
13.23904 401
13.25916 346
13.27927 399
13.29938 390
13.3195 395
13.33961 391
13.35973 395
13.37984 360
13.39995 400
13.42007 346
13.44018 401
13.46029 370
13.48041 414
13.50052 343
13.52064 405
13.54075 415
13.56086 396
13.58098 355
13.60109 358
13.6212 379
13.64132 428
13.66143 373
13.68154 399
13.70166 346
13.72177 424
13.74189 392
13.762 380
13.78211 388
13.80223 372
13.82234 395
13.84245 384
13.86257 369
13.88268 354
13.9028 346
13.92291 369
13.94302 369
13.96314 369
13.98325 348
14.00336 386
14.02348 364
14.04359 412
14.06371 374
14.08382 373
14.10393 375
14.12405 387
14.14416 396
14.16427 407
14.18439 385
14.2045 364
14.22461 373
14.24473 349
14.26484 377
14.28496 368
14.30507 380
14.32518 381
14.3453 342
14.36541 403
14.38552 353
14.40564 353
14.42575 377
14.44587 342
14.46598 400
14.48609 372
14.50621 317
14.52632 358
14.54643 343
14.56655 375
14.58666 367
14.60677 355
14.62689 357
14.647 334
14.66712 341
14.68723 392
14.70734 355
14.72746 381
14.74757 387
14.76768 343
14.7878 350
14.80791 420
14.82803 382
14.84814 340
14.86825 350
14.88837 356
14.90848 388
14.92859 384
14.94871 362
14.96882 379
14.98894 396
15.00905 350
15.02916 358
15.04928 361
15.06939 361
15.0895 352
15.10962 360
15.12973 351
15.14984 365
15.16996 378
15.19007 368
15.21019 380
15.2303 367
15.25041 380
15.27053 316
15.29064 354
15.31075 366
15.33087 348
15.35098 353
15.3711 363
15.39121 397
15.41132 338
15.43144 360
15.45155 378
15.47166 327
15.49178 402
15.51189 357
15.53201 354
15.55212 359
15.57223 380
15.59235 355
15.61246 357
15.63257 360
15.65269 361
15.6728 351
15.69291 346
15.71303 336
15.73314 372
15.75326 323
15.77337 321
15.79348 366
15.8136 344
15.83371 361
15.85382 345
15.87394 331
15.89405 357
15.91417 354
15.93428 360
15.95439 365
15.97451 354
15.99462 397
16.01473 334
16.03485 340
16.05496 385
16.07508 323
16.09519 389
16.1153 398
16.13542 335
16.15553 346
16.17564 340
16.19576 379
16.21587 362
16.23598 335
16.2561 361
16.27621 374
16.29633 406
16.31644 378
16.33655 361
16.35667 383
16.37678 337
16.39689 326
16.41701 374
16.43712 361
16.45724 399
16.47735 363
16.49746 358
16.51758 393
16.53769 330
16.5578 334
16.57792 356
16.59803 321
16.61814 373
16.63826 353
16.65837 389
16.67849 359
16.6986 339
16.71871 364
16.73883 375
16.75894 361
16.77905 351
16.79917 323
16.81928 342
16.8394 389
16.85951 356
16.87962 332
16.89974 345
16.91985 332
16.93996 358
16.96008 337
16.98019 372
17.00031 350
17.02042 361
17.04053 353
17.06065 345
17.08076 383
17.10087 366
17.12099 358
17.1411 349
17.16121 331
17.18133 348
17.20144 345
17.22156 367
17.24167 348
17.26178 334
17.2819 339
17.30201 365
17.32212 369
17.34224 364
17.36235 342
17.38247 323
17.40258 386
17.42269 368
17.44281 359
17.46292 396
17.48303 329
17.50315 331
17.52326 367
17.54338 362
17.56349 348
17.5836 350
17.60372 369
17.62383 382
17.64394 361
17.66406 382
17.68417 338
17.70428 396
17.7244 368
17.74451 395
17.76463 364
17.78474 354
17.80485 410
17.82497 345
17.84508 370
17.86519 398
17.88531 353
17.90542 363
17.92554 403
17.94565 360
17.96576 388
17.98588 398
18.00599 368
18.0261 382
18.04622 429
18.06633 422
18.08645 440
18.10656 463
18.12667 443
18.14679 482
18.1669 524
18.18701 535
18.20713 615
18.22724 657
18.24735 599
18.26747 593
18.28758 584
18.3077 509
18.32781 488
18.34792 473
18.36804 403
18.38815 383
18.40826 424
18.42838 378
18.44849 374
18.46861 345
18.48872 359
18.50883 345
18.52895 371
18.54906 369
18.56917 392
18.58929 366
18.6094 342
18.62951 379
18.64963 347
18.66974 372
18.68986 374
18.70997 385
18.73008 351
18.7502 354
18.77031 372
18.79042 368
18.81054 361
18.83065 391
18.85077 369
18.87088 319
18.89099 354
18.91111 354
18.93122 343
18.95133 350
18.97145 347
18.99156 366
19.01168 345
19.03179 383
19.0519 396
19.07202 378
19.09213 380
19.11224 349
19.13236 364
19.15247 363
19.17258 381
19.1927 348
19.21281 389
19.23293 407
19.25304 398
19.27315 413
19.29327 377
19.31338 379
19.33349 400
19.35361 400
19.37372 400
19.39384 415
19.41395 387
19.43406 353
19.45418 395
19.47429 403
19.4944 400
19.51452 426
19.53463 414
19.55475 407
19.57486 412
19.59497 477
19.61509 475
19.6352 508
19.65531 568
19.67543 502
19.69554 551
19.71565 570
19.73577 616
19.75588 613
19.776 631
19.79611 688
19.81622 598
19.83634 656
19.85645 720
19.87656 646
19.89668 641
19.91679 644
19.93691 670
19.95702 675
19.97713 661
19.99725 626
20.01736 577
20.03747 627
20.05759 601
20.0777 691
20.09782 672
20.11793 657
20.13804 630
20.15816 730
20.17827 661
20.19838 664
20.2185 724
20.23861 735
20.25872 754
20.27884 690
20.29895 668
20.31907 694
20.33918 721
20.35929 678
20.37941 688
20.39952 736
20.41963 685
20.43975 674
20.45986 729
20.47998 741
20.50009 693
20.5202 803
20.54032 769
20.56043 815
20.58054 879
20.60066 915
20.62077 1093
20.64088 1238
20.661 1475
20.68111 1690
20.70123 1922
20.72134 2325
20.74145 2626
20.76157 2930
20.78168 3071
20.80179 3084
20.82191 3020
20.84202 2819
20.86214 2450
20.88225 1990
20.90236 1583
20.92248 1241
20.94259 1041
20.9627 866
20.98282 761
21.00293 744
21.02305 732
21.04316 743
21.06327 663
21.08339 687
21.1035 672
21.12361 645
21.14373 641
21.16384 608
21.18395 593
21.20407 668
21.22418 605
21.2443 624
21.26441 595
21.28452 592
21.30464 579
21.32475 579
21.34486 560
21.36498 592
21.38509 564
21.40521 604
21.42532 582
21.44543 604
21.46555 567
21.48566 542
21.50577 547
21.52589 540
21.546 556
21.56612 538
21.58623 537
21.60634 487
21.62646 516
21.64657 500
21.66668 543
21.6868 530
21.70691 502
21.72702 558
21.74714 496
21.76725 500
21.78737 530
21.80748 478
21.82759 502
21.84771 522
21.86782 518
21.88793 503
21.90805 471
21.92816 474
21.94828 461
21.96839 488
21.9885 460
22.00862 522
22.02873 507
22.04884 485
22.06896 494
22.08907 485
22.10919 467
22.1293 477
22.14941 505
22.16953 508
22.18964 465
22.20975 463
22.22987 448
22.24998 499
22.27009 508
22.29021 473
22.31032 458
22.33044 471
22.35055 478
22.37066 498
22.39078 504
22.41089 442
22.431 479
22.45112 481
22.47123 481
22.49135 496
22.51146 467
22.53157 511
22.55169 526
22.5718 459
22.59191 455
22.61203 478
22.63214 482
22.65225 456
22.67237 479
22.69248 495
22.7126 446
22.73271 449
22.75282 490
22.77294 511
22.79305 448
22.81316 466
22.83328 481
22.85339 486
22.87351 523
22.89362 505
22.91373 468
22.93385 470
22.95396 478
22.97407 434
22.99419 513
23.0143 490
23.03442 457
23.05453 458
23.07464 525
23.09476 436
23.11487 515
23.13498 483
23.1551 510
23.17521 459
23.19532 452
23.21544 454
23.23555 442
23.25567 463
23.27578 429
23.29589 468
23.31601 481
23.33612 468
23.35623 456
23.37635 476
23.39646 435
23.41658 460
23.43669 433
23.4568 482
23.47692 512
23.49703 489
23.51714 468
23.53726 488
23.55737 453
23.57749 452
23.5976 508
23.61771 467
23.63783 505
23.65794 500
23.67805 483
23.69817 504
23.71828 473
23.73839 453
23.75851 526
23.77862 519
23.79874 528
23.81885 517
23.83896 503
23.85908 526
23.87919 550
23.8993 506
23.91942 505
23.93953 564
23.95965 539
23.97976 546
23.99987 562
24.01999 499
24.0401 523
24.06021 536
24.08033 523
24.10044 534
24.12056 561
24.14067 553
24.16078 560
24.1809 539
24.20101 540
24.22112 546
24.24124 551
24.26135 522
24.28146 553
24.30158 557
24.32169 519
24.34181 521
24.36192 527
24.38203 572
24.40215 540
24.42226 538
24.44237 529
24.46249 589
24.4826 539
24.50272 535
24.52283 590
24.54294 570
24.56306 579
24.58317 595
24.60328 630
24.6234 634
24.64351 668
24.66362 698
24.68374 691
24.70385 659
24.72397 676
24.74408 753
24.76419 719
24.78431 753
24.80442 755
24.82453 714
24.84465 732
24.86476 706
24.88488 666
24.90499 691
24.9251 670
24.94522 609
24.96533 652
24.98544 700
25.00556 638
25.02567 640
25.04579 599
25.0659 609
25.08601 592
25.10613 515
25.12624 520
25.14635 499
25.16647 507
25.18658 526
25.20669 559
25.22681 495
25.24692 539
25.26704 520
25.28715 482
25.30726 528
25.32738 459
25.34749 498
25.3676 532
25.38772 469
25.40783 479
25.42795 520
25.44806 519
25.46817 506
25.48829 493
25.5084 490
25.52851 548
25.54863 558
25.56874 548
25.58886 507
25.60897 503
25.62908 519
25.6492 533
25.66931 508
25.68942 561
25.70954 512
25.72965 571
25.74976 512
25.76988 537
25.78999 564
25.81011 575
25.83022 547
25.85033 527
25.87045 545
25.89056 539
25.91067 567
25.93079 588
25.9509 593
25.97102 545
25.99113 625
26.01124 613
26.03136 639
26.05147 653
26.07158 643
26.0917 725
26.11181 720
26.13193 759
26.15204 757
26.17215 819
26.19227 921
26.21238 914
26.23249 1017
26.25261 1124
26.27272 1213
26.29283 1367
26.31295 1570
26.33306 1834
26.35318 2123
26.37329 2603
26.3934 3309
26.41352 4191
26.43363 5083
26.45374 6319
26.47386 7685
26.49397 9189
26.51409 10404
26.5342 11621
26.55431 12280
26.57443 12623
26.59454 12134
26.61465 11263
26.63477 9647
26.65488 7729
26.67499 5802
26.69511 4290
26.71522 3090
26.73534 2089
26.75545 1483
26.77556 1238
26.79568 1057
26.81579 976
26.8359 914
26.85602 859
26.87613 772
26.89625 783
26.91636 783
26.93647 747
26.95659 735
26.9767 626
26.99681 663
27.01693 662
27.03704 669
27.05716 582
27.07727 617
27.09738 608
27.1175 559
27.13761 587
27.15772 529
27.17784 569
27.19795 546
27.21806 551
27.23818 540
27.25829 568
27.27841 546
27.29852 577
27.31863 532
27.33875 653
27.35886 546
27.37897 588
27.39909 593
27.4192 524
27.43932 577
27.45943 611
27.47954 566
27.49966 526
27.51977 522
27.53988 541
27.56 479
27.58011 469
27.60023 524
27.62034 503
27.64045 510
27.66057 507
27.68068 437
27.70079 456
27.72091 474
27.74102 448
27.76113 445
27.78125 464
27.80136 507
27.82148 426
27.84159 465
27.8617 415
27.88182 463
27.90193 494
27.92204 442
27.94216 445
27.96227 448
27.98239 450
28.0025 472
28.02261 425
28.04273 451
28.06284 436
28.08295 444
28.10307 434
28.12318 422
28.1433 462
28.16341 412
28.18352 451
28.20364 437
28.22375 415
28.24386 418
28.26398 413
28.28409 430
28.3042 396
28.32432 456
28.34443 415
28.36455 422
28.38466 437
28.40477 422
28.42489 406
28.445 435
28.46511 407
28.48523 434
28.50534 410
28.52546 455
28.54557 432
28.56568 435
28.5858 368
28.60591 404
28.62602 432
28.64614 455
28.66625 424
28.68636 412
28.70648 428
28.72659 409
28.74671 430
28.76682 408
28.78693 429
28.80705 408
28.82716 415
28.84727 389
28.86739 413
28.8875 437
28.90762 392
28.92773 437
28.94784 422
28.96796 417
28.98807 424
29.00818 433
29.0283 386
29.04841 429
29.06853 398
29.08864 427
29.10875 432
29.12887 417
29.14898 395
29.16909 417
29.18921 395
29.20932 432
29.22943 397
29.24955 397
29.26966 441
29.28978 430
29.30989 425
29.33 442
29.35012 431
29.37023 432
29.39034 417
29.41046 406
29.43057 423
29.45069 429
29.4708 417
29.49091 410
29.51103 426
29.53114 411
29.55125 463
29.57137 443
29.59148 449
29.6116 433
29.63171 397
29.65182 436
29.67194 462
29.69205 454
29.71216 433
29.73228 488
29.75239 465
29.7725 468
29.79262 474
29.81273 486
29.83285 465
29.85296 479
29.87307 529
29.89319 507
29.9133 482
29.93341 547
29.95353 551
29.97364 524
29.99376 531
30.01387 542
30.03398 511
30.0541 521
30.07421 575
30.09432 528
30.11444 499
30.13455 488
30.15467 468
30.17478 414
30.19489 453
30.21501 395
30.23512 390
30.25523 413
30.27535 427
30.29546 428
30.31557 468
30.33569 416
30.3558 465
30.37592 438
30.39603 451
30.41614 443
30.43626 432
30.45637 419
30.47648 434
30.4966 396
30.51671 420
30.53683 405
30.55694 414
30.57705 430
30.59717 393
30.61728 444
30.63739 407
30.65751 387
30.67762 430
30.69773 412
30.71785 393
30.73796 420
30.75808 444
30.77819 409
30.7983 434
30.81842 392
30.83853 415
30.85864 412
30.87876 407
30.89887 415
30.91899 375
30.9391 381
30.95921 402
30.97933 424
30.99944 408
31.01955 387
31.03967 405
31.05978 409
31.0799 401
31.10001 399
31.12012 404
31.14024 393
31.16035 388
31.18046 389
31.20058 432
31.22069 390
31.2408 386
31.26092 413
31.28103 416
31.30115 377
31.32126 390
31.34137 384
31.36149 386
31.3816 404
31.40171 389
31.42183 397
31.44194 397
31.46206 389
31.48217 405
31.50228 374
31.5224 374
31.54251 406
31.56262 376
31.58274 388
31.60285 419
31.62297 406
31.64308 414
31.66319 396
31.68331 375
31.70342 407
31.72353 383
31.74365 398
31.76376 405
31.78387 348
31.80399 360
31.8241 369
31.84422 417
31.86433 412
31.88444 379
31.90456 417
31.92467 384
31.94478 392
31.9649 404
31.98501 387
32.00513 421
32.02524 374
32.04535 438
32.06547 430
32.08558 407
32.10569 386
32.12581 400
32.14592 390
32.16604 384
32.18615 431
32.20626 423
32.22638 434
32.24649 389
32.2666 445
32.28672 413
32.30683 400
32.32694 397
32.34706 443
32.36717 394
32.38729 412
32.4074 432
32.42751 424
32.44763 431
32.46774 418
32.48785 418
32.50797 428
32.52808 445
32.5482 379
32.56831 417
32.58842 415
32.60854 421
32.62865 390
32.64876 424
32.66888 455
32.68899 420
32.7091 429
32.72922 420
32.74933 459
32.76945 450
32.78956 449
32.80967 463
32.82979 462
32.8499 490
32.87001 490
32.89013 482
32.91024 520
32.93036 461
32.95047 497
32.97058 530
32.9907 571
33.01081 545
33.03092 581
33.05104 593
33.07115 562
33.09127 599
33.11138 542
33.13149 621
33.15161 563
33.17172 539
33.19183 538
33.21195 474
33.23206 528
33.25217 514
33.27229 522
33.2924 466
33.31252 442
33.33263 494
33.35274 412
33.37286 419
33.39297 414
33.41308 449
33.4332 455
33.45331 422
33.47343 443
33.49354 422
33.51365 449
33.53377 431
33.55388 442
33.57399 390
33.59411 395
33.61422 414
33.63434 414
33.65445 433
33.67456 387
33.69468 390
33.71479 403
33.7349 357
33.75502 396
33.77513 419
33.79524 398
33.81536 458
33.83547 428
33.85559 427
33.8757 403
33.89581 405
33.91593 418
33.93604 417
33.95615 446
33.97627 431
33.99638 468
34.0165 430
34.03661 420
34.05672 425
34.07684 412
34.09695 430
34.11706 494
34.13718 477
34.15729 497
34.17741 448
34.19752 465
34.21763 511
34.23775 472
34.25786 479
34.27797 486
34.29809 492
34.3182 418
34.33831 469
34.35843 476
34.37854 443
34.39866 455
34.41877 441
34.43888 446
34.459 442
34.47911 443
34.49922 442
34.51934 465
34.53945 461
34.55957 467
34.57968 458
34.59979 485
34.61991 524
34.64002 518
34.66013 537
34.68025 486
34.70036 536
34.72047 543
34.74059 528
34.7607 516
34.78082 532
34.80093 563
34.82104 607
34.84116 633
34.86127 605
34.88138 593
34.9015 617
34.92161 593
34.94173 544
34.96184 580
34.98195 585
35.00207 615
35.02218 630
35.04229 613
35.06241 625
35.08252 605
35.10264 594
35.12275 669
35.14286 650
35.16298 696
35.18309 735
35.2032 770
35.22332 790
35.24343 806
35.26354 811
35.28366 833
35.30377 892
35.32389 914
35.344 921
35.36411 889
35.38423 904
35.40434 931
35.42445 878
35.44457 878
35.46468 854
35.4848 849
35.50491 852
35.52502 785
35.54514 790
35.56525 816
35.58536 710
35.60548 734
35.62559 735
35.64571 711
35.66582 705
35.68593 724
35.70605 634
35.72616 711
35.74627 661
35.76639 656
35.7865 628
35.80661 615
35.82673 657
35.84684 594
35.86696 640
35.88707 610
35.90718 614
35.9273 567
35.94741 582
35.96752 533
35.98764 503
36.00775 517
36.02787 559
36.04798 507
36.06809 530
36.08821 505
36.10832 482
36.12843 520
36.14855 538
36.16866 526
36.18878 528
36.20889 582
36.229 590
36.24912 604
36.26923 661
36.28934 704
36.30946 777
36.32957 843
36.34968 847
36.3698 996
36.38991 1077
36.41003 1123
36.43014 1161
36.45025 1217
36.47037 1246
36.49048 1210
36.51059 1122
36.53071 1041
36.55082 1009
36.57094 851
36.59105 797
36.61116 690
36.63128 638
36.65139 582
36.6715 518
36.69162 455
36.71173 454
36.73184 491
36.75196 465
36.77207 484
36.79219 458
36.8123 489
36.83241 480
36.85253 466
36.87264 470
36.89275 516
36.91287 515
36.93298 488
36.9531 502
36.97321 448
36.99332 469
37.01344 503
37.03355 436
37.05366 467
37.07378 471
37.09389 485
37.11401 478
37.13412 479
37.15423 451
37.17435 457
37.19446 473
37.21457 443
37.23469 459
37.2548 449
37.27491 446
37.29503 441
37.31514 462
37.33526 409
37.35537 467
37.37548 441
37.3956 482
37.41571 464
37.43582 492
37.45594 519
37.47605 454
37.49617 507
37.51628 459
37.53639 473
37.55651 487
37.57662 504
37.59673 478
37.61685 468
37.63696 511
37.65708 489
37.67719 502
37.6973 483
37.71742 440
37.73753 432
37.75764 458
37.77776 465
37.79787 431
37.81798 434
37.8381 451
37.85821 433
37.87833 418
37.89844 441
37.91855 476
37.93867 430
37.95878 465
37.97889 473
37.99901 475
38.01912 482
38.03924 486
38.05935 495
38.07946 513
38.09958 569
38.11969 512
38.1398 514
38.15992 486
38.18003 520
38.20015 494
38.22026 567
38.24037 574
38.26049 569
38.2806 597
38.30071 542
38.32083 565
38.34094 603
38.36105 596
38.38117 549
38.40128 574
38.4214 535
38.44151 541
38.46162 497
38.48174 524
38.50185 561
38.52196 517
38.54208 523
38.56219 508
38.58231 511
38.60242 487
38.62253 480
38.64265 478
38.66276 495
38.68287 466
38.70299 462
38.7231 458
38.74321 479
38.76333 460
38.78344 496
38.80356 488
38.82367 509
38.84378 482
38.8639 506
38.88401 530
38.90412 433
38.92424 521
38.94435 495
38.96447 499
38.98458 534
39.00469 498
39.02481 562
39.04492 523
39.06503 499
39.08515 557
39.10526 609
39.12538 569
39.14549 625
39.1656 648
39.18572 668
39.20583 737
39.22594 788
39.24606 807
39.26617 901
39.28628 926
39.3064 963
39.32651 997
39.34663 1098
39.36674 1127
39.38685 1141
39.40697 1157
39.42708 1115
39.44719 1012
39.46731 917
39.48742 844
39.50754 769
39.52765 704
39.54776 601
39.56788 571
39.58799 520
39.6081 500
39.62822 470
39.64833 468
39.66845 436
39.68856 472
39.70867 446
39.72879 464
39.7489 407
39.76901 437
39.78913 466
39.80924 457
39.82935 451
39.84947 451
39.86958 450
39.8897 419
39.90981 466
39.92992 466
39.95004 461
39.97015 505
39.99026 468
40.01038 502
40.03049 524
40.05061 567
40.07072 572
40.09083 573
40.11095 643
40.13106 679
40.15117 725
40.17129 734
40.1914 761
40.21152 760
40.23163 774
40.25174 759
40.27186 703
40.29197 675
40.31208 655
40.3322 590
40.35231 551
40.37242 511
40.39254 519
40.41265 475
40.43277 440
40.45288 469
40.47299 466
40.49311 395
40.51322 406
40.53333 458
40.55345 436
40.57356 445
40.59368 404
40.61379 472
40.6339 459
40.65402 433
40.67413 461
40.69424 441
40.71436 454
40.73447 459
40.75458 466
40.7747 455
40.79481 448
40.81493 431
40.83504 464
40.85515 484
40.87527 475
40.89538 459
40.91549 440
40.93561 468
40.95572 449
40.97584 455
40.99595 422
41.01606 421
41.03618 475
41.05629 444
41.0764 471
41.09652 415
41.11663 469
41.13675 415
41.15686 451
41.17697 429
41.19709 435
41.2172 418
41.23731 417
41.25743 419
41.27754 420
41.29765 447
41.31777 417
41.33788 443
41.358 400
41.37811 405
41.39822 422
41.41834 433
41.43845 432
41.45856 431
41.47868 424
41.49879 406
41.51891 425
41.53902 439
41.55913 429
41.57925 387
41.59936 442
41.61947 409
41.63959 431
41.6597 424
41.67982 424
41.69993 425
41.72004 404
41.74016 428
41.76027 440
41.78038 400
41.8005 439
41.82061 410
41.84072 379
41.86084 412
41.88095 401
41.90107 390
41.92118 430
41.94129 396
41.96141 414
41.98152 415
42.00163 403
42.02175 424
42.04186 439
42.06198 437
42.08209 430
42.1022 479
42.12232 479
42.14243 506
42.16254 561
42.18266 549
42.20277 633
42.22289 615
42.243 648
42.26311 704
42.28323 783
42.30334 854
42.32345 866
42.34357 874
42.36368 899
42.38379 880
42.40391 815
42.42402 809
42.44414 742
42.46425 735
42.48436 649
42.50448 631
42.52459 571
42.5447 549
42.56482 464
42.58493 465
42.60505 401
42.62516 394
42.64527 393
42.66539 400
42.6855 435
42.70561 419
42.72573 447
42.74584 449
42.76595 417
42.78607 441
42.80618 414
42.8263 411
42.84641 435
42.86652 437
42.88664 444
42.90675 458
42.92686 431
42.94698 462
42.96709 463
42.98721 443
43.00732 481
43.02743 429
43.04755 464
43.06766 460
43.08777 442
43.10789 449
43.128 456
43.14812 431
43.16823 380
43.18834 394
43.20846 367
43.22857 360
43.24868 411
43.2688 393
43.28891 416
43.30902 366
43.32914 374
43.34925 355
43.36937 369
43.38948 398
43.40959 415
43.42971 384
43.44982 397
43.46993 393
43.49005 373
43.51016 377
43.53028 393
43.55039 377
43.5705 354
43.59062 386
43.61073 357
43.63084 385
43.65096 383
43.67107 387
43.69119 389
43.7113 359
43.73141 376
43.75153 405
43.77164 406
43.79175 380
43.81187 372
43.83198 374
43.85209 393
43.87221 344
43.89232 369
43.91244 346
43.93255 384
43.95266 415
43.97278 415
43.99289 386
44.013 400
44.03312 397
44.05323 380
44.07335 408
44.09346 380
44.11357 413
44.13369 391
44.1538 393
44.17391 419
44.19403 424
44.21414 343
44.23426 416
44.25437 370
44.27448 377
44.2946 383
44.31471 360
44.33482 389
44.35494 389
44.37505 369
44.39516 388
44.41528 357
44.43539 361
44.45551 369
44.47562 338
44.49573 383
44.51585 411
44.53596 391
44.55607 384
44.57619 406
44.5963 396
44.61642 367
44.63653 372
44.65664 405
44.67676 378
44.69687 336
44.71698 405
44.7371 370
44.75721 375
44.77732 366
44.79744 375
44.81755 398
44.83767 385
44.85778 410
44.87789 387
44.89801 395
44.91812 388
44.93823 410
44.95835 400
44.97846 421
44.99858 381
45.01869 424
45.0388 410
45.05892 410
45.07903 402
45.09914 434
45.11926 411
45.13937 430
45.15949 400
45.1796 421
45.19971 416
45.21983 453
45.23994 412
45.26005 444
45.28017 460
45.30028 440
45.32039 459
45.34051 452
45.36062 455
45.38074 476
45.40085 467
45.42096 476
45.44108 516
45.46119 491
45.4813 520
45.50142 577
45.52153 546
45.54165 581
45.56176 568
45.58187 617
45.60199 658
45.6221 666
45.64221 660
45.66233 734
45.68244 724
45.70256 719
45.72267 720
45.74278 729
45.7629 689
45.78301 655
45.80312 582
45.82324 565
45.84335 560
45.86346 553
45.88358 494
45.90369 471
45.92381 497
45.94392 440
45.96403 393
45.98415 441
46.00426 408
46.02437 391
46.04449 438
46.0646 383
46.08472 412
46.10483 387
46.12494 432
46.14506 415
46.16517 391
46.18528 398
46.2054 394
46.22551 399
46.24563 398
46.26574 394
46.28585 379
46.30597 394
46.32608 362
46.34619 356
46.36631 390
46.38642 366
46.40653 363
46.42665 394
46.44676 389
46.46688 434
46.48699 381
46.5071 370
46.52722 374
46.54733 380
46.56744 389
46.58756 393
46.60767 379
46.62779 391
46.6479 395
46.66801 408
46.68813 377
46.70824 409
46.72835 367
46.74847 385
46.76858 366
46.78869 354
46.80881 389
46.82892 364
46.84904 402
46.86915 351
46.88926 398
46.90938 401
46.92949 403
46.9496 403
46.96972 396
46.98983 411
47.00995 381
47.03006 353
47.05017 392
47.07029 388
47.0904 412
47.11051 407
47.13063 418
47.15074 411
47.17086 439
47.19097 424
47.21108 391
47.2312 361
47.25131 379
47.27142 383
47.29154 388
47.31165 396
47.33176 382
47.35188 357
47.37199 404
47.39211 405
47.41222 380
47.43233 390
47.45245 350
47.47256 347
47.49267 391
47.51279 388
47.5329 355
47.55302 398
47.57313 347
47.59324 417
47.61336 394
47.63347 357
47.65358 413
47.6737 381
47.69381 413
47.71393 402
47.73404 357
47.75415 394
47.77427 375
47.79438 400
47.81449 375
47.83461 384
47.85472 365
47.87483 373
47.89495 395
47.91506 408
47.93518 399
47.95529 403
47.9754 411
47.99552 388
48.01563 385
48.03574 367
48.05586 371
48.07597 389
48.09609 389
48.1162 333
48.13631 420
48.15643 419
48.17654 392
48.19665 357
48.21677 403
48.23688 339
48.257 398
48.27711 390
48.29722 370
48.31734 437
48.33745 351
48.35756 399
48.37768 392
48.39779 370
48.4179 384
48.43802 372
48.45813 391
48.47825 376
48.49836 406
48.51847 405
48.53859 355
48.5587 365
48.57881 382
48.59893 388
48.61904 392
48.63916 402
48.65927 412
48.67938 394
48.6995 382
48.71961 375
48.73972 402
48.75984 394
48.77995 406
48.80006 401
48.82018 378
48.84029 362
48.86041 424
48.88052 393
48.90063 399
48.92075 382
48.94086 430
48.96097 417
48.98109 416
49.0012 405
49.02132 373
49.04143 415
49.06154 407
49.08166 435
49.10177 416
49.12188 401
49.142 378
49.16211 432
49.18223 446
49.20234 433
49.22245 399
49.24257 390
49.26268 406
49.28279 438
49.30291 463
49.32302 422
49.34313 421
49.36325 430
49.38336 447
49.40348 459
49.42359 444
49.4437 454
49.46382 449
49.48393 427
49.50404 443
49.52416 417
49.54427 436
49.56439 431
49.5845 436
49.60461 473
49.62473 429
49.64484 509
49.66495 446
49.68507 544
49.70518 521
49.7253 519
49.74541 604
49.76552 593
49.78564 609
49.80575 618
49.82586 689
49.84598 772
49.86609 833
49.8862 913
49.90632 997
49.92643 1012
49.94655 1193
49.96666 1330
49.98677 1336
50.00689 1471
50.027 1591
50.04711 1592
50.06723 1560
50.08734 1478
50.10746 1394
50.12757 1393
50.14768 1138
50.1678 1032
50.18791 965
50.20802 796
50.22814 811
50.24825 785
50.26837 614
50.28848 600
50.30859 504
50.32871 516
50.34882 433
50.36893 492
50.38905 461
50.40916 447
50.42927 470
50.44939 430
50.4695 436
50.48962 445
50.50973 477
50.52984 471
50.54996 442
50.57007 422
50.59018 441
50.6103 405
50.63041 447
50.65053 413
50.67064 433
50.69075 414
50.71087 430
50.73098 389
50.75109 422
50.77121 389
50.79132 379
50.81143 380
50.83155 390
50.85166 379
50.87178 372
50.89189 380
50.912 388
50.93212 378
50.95223 392
50.97234 383
50.99246 384
51.01257 367
51.03269 375
51.0528 374
51.07291 376
51.09303 402
51.11314 376
51.13325 368
51.15337 357
51.17348 345
51.1936 395
51.21371 362
51.23382 355
51.25394 383
51.27405 336
51.29416 339
51.31428 357
51.33439 344
51.3545 379
51.37462 337
51.39473 388
51.41485 357
51.43496 383
51.45507 360
51.47519 398
51.4953 340
51.51541 343
51.53553 343
51.55564 342
51.57576 401
51.59587 358
51.61598 376
51.6361 339
51.65621 365
51.67632 349
51.69644 379
51.71655 388
51.73667 351
51.75678 367
51.77689 366
51.79701 324
51.81712 357
51.83723 370
51.85735 360
51.87746 365
51.89757 343
51.91769 380
51.9378 367
51.95792 344
51.97803 353
51.99814 342
52.01826 386
52.03837 355
52.05848 377
52.0786 386
52.09871 340
52.11883 398
52.13894 384
52.15905 379
52.17917 357
52.19928 359
52.21939 342
52.23951 376
52.25962 385
52.27974 352
52.29985 359
52.31996 379
52.34008 364
52.36019 371
52.3803 397
52.40042 373
52.42053 372
52.44064 354
52.46076 327
52.48087 388
52.50099 401
52.5211 359
52.54121 374
52.56133 406
52.58144 353
52.60155 352
52.62167 354
52.64178 415
52.6619 359
52.68201 396
52.70212 373
52.72224 397
52.74235 372
52.76246 365
52.78258 381
52.80269 381
52.8228 372
52.84292 372
52.86303 376
52.88315 365
52.90326 367
52.92337 425
52.94349 363
52.9636 376
52.98371 396
53.00383 402
53.02394 344
53.04406 376
53.06417 398
53.08428 395
53.1044 396
53.12451 401
53.14462 406
53.16474 373
53.18485 431
53.20497 391
53.22508 436
53.24519 392
53.26531 391
53.28542 404
53.30553 409
53.32565 411
53.34576 425
53.36587 440
53.38599 400
53.4061 384
53.42622 419
53.44633 412
53.46644 392
53.48656 408
53.50667 385
53.52678 399
53.5469 451
53.56701 420
53.58713 410
53.60724 406
53.62735 433
53.64747 408
53.66758 428
53.68769 418
53.70781 442
53.72792 472
53.74804 429
53.76815 435
53.78826 450
53.80838 450
53.82849 445
53.8486 468
53.86872 475
53.88883 495
53.90894 483
53.92906 509
53.94917 525
53.96929 489
53.9894 511
54.00951 471
54.02963 479
54.04974 478
54.06985 536
54.08997 520
54.11008 452
54.1302 477
54.15031 508
54.17042 461
54.19054 493
54.21065 484
54.23076 511
54.25088 476
54.27099 477
54.29111 494
54.31122 495
54.33133 437
54.35145 473
54.37156 486
54.39167 455
54.41179 502
54.4319 463
54.45201 499
54.47213 466
54.49224 523
54.51236 520
54.53247 518
54.55258 525
54.5727 568
54.59281 574
54.61292 640
54.63304 586
54.65315 636
54.67327 693
54.69338 676
54.71349 757
54.73361 748
54.75372 795
54.77383 788
54.79395 810
54.81406 833
54.83417 740
54.85429 700
54.8744 769
54.89452 690
54.91463 660
54.93474 641
54.95486 584
54.97497 578
54.99508 568
55.0152 550
55.03531 556
55.05543 536
55.07554 552
55.09565 567
55.11577 533
55.13588 544
55.15599 511
55.17611 559
55.19622 590
55.21634 597
55.23645 620
55.25656 585
55.27668 587
55.29679 565
55.3169 532
55.33702 535
55.35713 535
55.37724 510
55.39736 466
55.41747 502
55.43759 482
55.4577 478
55.47781 464
55.49793 471
55.51804 461
55.53815 456
55.55827 412
55.57838 422
55.5985 442
55.61861 410
55.63872 432
55.65884 420
55.67895 399
55.69906 419
55.71918 417
55.73929 426
55.75941 430
55.77952 420
55.79963 412
55.81975 392
55.83986 391
55.85997 393
55.88009 432
55.9002 377
55.92031 394
55.94043 394
55.96054 407
55.98066 414
56.00077 394
56.02088 390
56.041 375
56.06111 392
56.08122 384
56.10134 381
56.12145 386
56.14157 443
56.16168 403
56.18179 410
56.20191 429
56.22202 401
56.24213 387
56.26225 395
56.28236 390
56.30248 373
56.32259 411
56.3427 401
56.36282 428
56.38293 416
56.40304 396
56.42316 419
56.44327 427
56.46338 434
56.4835 405
56.50361 421
56.52373 454
56.54384 452
56.56395 445
56.58407 403
56.60418 430
56.62429 466
56.64441 449
56.66452 466
56.68464 447
56.70475 418
56.72486 433
56.74498 446
56.76509 469
56.7852 472
56.80532 468
56.82543 450
56.84554 468
56.86566 479
56.88577 440
56.90589 473
56.926 492
56.94611 474
56.96623 442
56.98634 442
57.00645 417
57.02657 466
57.04668 432
57.0668 444
57.08691 427
57.10702 433
57.12714 435
57.14725 414
57.16736 436
57.18748 420
57.20759 412
57.22771 416
57.24782 420
57.26793 412
57.28805 419
57.30816 387
57.32827 399
57.34839 390
57.3685 389
57.38861 377
57.40873 424
57.42884 384
57.44896 371
57.46907 421
57.48918 398
57.5093 389
57.52941 395
57.54952 366
57.56964 432
57.58975 395
57.60987 389
57.62998 384
57.65009 399
57.67021 383
57.69032 391
57.71043 388
57.73055 394
57.75066 382
57.77078 344
57.79089 386
57.811 396
57.83112 375
57.85123 394
57.87134 426
57.89146 392
57.91157 363
57.93168 360
57.9518 417
57.97191 415
57.99203 397
58.01214 374
58.03225 378
58.05237 375
58.07248 364
58.09259 415
58.11271 373
58.13282 372
58.15294 356
58.17305 367
58.19316 364
58.21328 367
58.23339 377
58.2535 381
58.27362 412
58.29373 356
58.31385 390
58.33396 390
58.35407 391
58.37419 409
58.3943 347
58.41441 380
58.43453 378
58.45464 344
58.47475 373
58.49487 363
58.51498 409
58.5351 364
58.55521 376
58.57532 370
58.59544 364
58.61555 338
58.63566 404
58.65578 365
58.67589 357
58.69601 368
58.71612 363
58.73623 368
58.75635 383
58.77646 385
58.79657 381
58.81669 382
58.8368 365
58.85691 370
58.87703 406
58.89714 382
58.91726 384
58.93737 367
58.95748 382
58.9776 391
58.99771 380
59.01782 402
59.03794 393
59.05805 386
59.07817 407
59.09828 404
59.11839 369
59.13851 351
59.15862 408
59.17873 391
59.19885 402
59.21896 422
59.23908 422
59.25919 398
59.2793 394
59.29942 395
59.31953 392
59.33964 389
59.35976 431
59.37987 405
59.39998 473
59.4201 428
59.44021 435
59.46033 484
59.48044 450
59.50055 481
59.52067 514
59.54078 514
59.56089 561
59.58101 542
59.60112 557
59.62124 579
59.64135 591
59.66146 630
59.68158 694
59.70169 711
59.7218 777
59.74192 871
59.76203 925
59.78215 941
59.80226 1122
59.82237 1102
59.84249 1141
59.8626 1150
59.88271 1135
59.90283 1060
59.92294 997
59.94305 946
59.96317 906
59.98328 834
60.0034 800
60.02351 771
60.04362 738
60.06374 657
60.08385 682
60.10396 565
60.12408 537
60.14419 502
60.16431 446
60.18442 454
60.20453 441
60.22465 458
60.24476 442
60.26487 433
60.28499 442
60.3051 435
60.32522 434
60.34533 396
60.36544 456
60.38556 399
60.40567 401
60.42578 412
60.4459 410
60.46601 369
60.48612 391
60.50624 369
60.52635 384
60.54647 368
60.56658 400
60.58669 382
60.60681 376
60.62692 368
60.64703 405
60.66715 400
60.68726 362
60.70738 376
60.72749 348
60.7476 381
60.76772 361
60.78783 368
60.80794 400
60.82806 384
60.84817 387
60.86828 350
60.8884 349
60.90851 407
60.92863 387
60.94874 418
60.96885 400
60.98897 371
61.00908 386
61.02919 349
61.04931 384
61.06942 337
61.08954 420
61.10965 375
61.12976 408
61.14988 377
61.16999 400
61.1901 393
61.21022 377
61.23033 362
61.25045 362
61.27056 391
61.29067 371
61.31079 434
61.3309 409
61.35101 432
61.37113 370
61.39124 398
61.41135 388
61.43147 397
61.45158 344
61.4717 386
61.49181 366
61.51192 410
61.53204 405
61.55215 409
61.57226 425
61.59238 434
61.61249 418
61.63261 384
61.65272 415
61.67283 433
61.69295 448
61.71306 398
61.73317 433
61.75329 404
61.7734 422
61.79352 400
61.81363 464
61.83374 432
61.85386 435
61.87397 445
61.89408 464
61.9142 491
61.93431 436
61.95442 486
61.97454 487
61.99465 486
62.01477 502
62.03488 542
62.05499 532
62.07511 525
62.09522 530
62.11533 563
62.13545 537
62.15556 557
62.17568 532
62.19579 521
62.2159 630
62.23602 581
62.25613 588
62.27624 580
62.29636 549
62.31647 615
62.33659 605
62.3567 602
62.37681 603
62.39693 598
62.41704 566
62.43715 575
62.45727 562
62.47738 514
62.49749 539
62.51761 546
62.53772 521
62.55784 511
62.57795 508
62.59806 506
62.61818 471
62.63829 466
62.6584 491
62.67852 465
62.69863 476
62.71875 468
62.73886 458
62.75897 453
62.77909 420
62.7992 435
62.81931 437
62.83943 436
62.85954 438
62.87965 411
62.89977 441
62.91988 388
62.94 382
62.96011 376
62.98022 413
63.00034 396
63.02045 396
63.04056 391
63.06068 385
63.08079 348
63.10091 362
63.12102 365
63.14113 387
63.16125 379
63.18136 360
63.20147 431
63.22159 410
63.2417 380
63.26182 401
63.28193 370
63.30204 378
63.32216 385
63.34227 430
63.36238 384
63.3825 383
63.40261 383
63.42272 413
63.44284 420
63.46295 401
63.48307 412
63.50318 383
63.52329 419
63.54341 431
63.56352 399
63.58363 439
63.60375 399
63.62386 409
63.64398 412
63.66409 442
63.6842 463
63.70432 445
63.72443 440
63.74454 481
63.76466 466
63.78477 461
63.80489 499
63.825 483
63.84511 493
63.86523 543
63.88534 596
63.90545 538
63.92557 557
63.94568 590
63.96579 545
63.98591 517
64.00602 510
64.02614 531
64.04625 509
64.06636 478
64.08648 472
64.10659 513
64.1267 476
64.14682 451
64.16693 442
64.18705 467
64.20716 428
64.22727 438
64.24739 409
64.2675 389
64.28761 399
64.30773 400
64.32784 423
64.34796 384
64.36807 409
64.38818 413
64.4083 350
64.42841 366
64.44852 407
64.46864 367
64.48875 373
64.50886 342
64.52898 379
64.54909 386
64.56921 386
64.58932 354
64.60943 363
64.62955 400
64.64966 398
64.66977 371
64.68989 351
64.71 332
64.73012 340
64.75023 385
64.77034 391
64.79046 399
64.81057 348
64.83068 345
64.8508 352
64.87091 348
64.89102 361
64.91114 361
64.93125 365
64.95137 349
64.97148 356
64.99159 336
65.01171 359
65.03182 403
65.05193 363
65.07205 362
65.09216 354
65.11228 356
65.13239 343
65.1525 400
65.17262 379
65.19273 378
65.21284 346
65.23296 350
65.25307 354
65.27319 359
65.2933 339
65.31341 369
65.33353 361
65.35364 377
65.37375 376
65.39387 346
65.41398 359
65.43409 386
65.45421 373
65.47432 369
65.49444 395
65.51455 408
65.53466 350
65.55478 380
65.57489 401
65.595 404
65.61512 393
65.63523 358
65.65535 413
65.67546 356
65.69557 396
65.71569 344
65.7358 451
65.75591 369
65.77603 376
65.79614 368
65.81626 357
65.83637 386
65.85648 353
65.8766 378
65.89671 391
65.91682 387
65.93694 385
65.95705 357
65.97716 340
65.99728 386
66.01739 357
66.03751 376
66.05762 388
66.07773 352
66.09785 385
66.11796 374
66.13807 378
66.15819 367
66.1783 401
66.19842 385
66.21853 353
66.23864 360
66.25876 358
66.27887 322
66.29898 391
66.3191 355
66.33921 406
66.35933 341
66.37944 380
66.39955 337
66.41967 375
66.43978 347
66.45989 360
66.48001 357
66.50012 379
66.52023 386
66.54035 385
66.56046 388
66.58058 344
66.60069 364
66.6208 388
66.64092 355
66.66103 375
66.68114 372
66.70126 374
66.72137 358
66.74149 340
66.7616 347
66.78171 350
66.80183 370
66.82194 375
66.84205 426
66.86217 350
66.88228 344
66.90239 376
66.92251 385
66.94262 370
66.96274 348
66.98285 344
67.00296 364
67.02308 364
67.04319 332
67.0633 376
67.08342 380
67.10353 379
67.12365 372
67.14376 362
67.16387 416
67.18399 370
67.2041 417
67.22421 376
67.24433 437
67.26444 428
67.28456 465
67.30467 428
67.32478 466
67.3449 517
67.36501 449
67.38512 462
67.40524 504
67.42535 555
67.44546 567
67.46558 543
67.48569 617
67.50581 581
67.52592 666
67.54603 689
67.56615 760
67.58626 801
67.60637 822
67.62649 845
67.6466 861
67.66672 840
67.68683 827
67.70694 769
67.72706 779
67.74717 779
67.76728 719
67.7874 696
67.80751 758
67.82763 760
67.84774 772
67.86785 822
67.88797 826
67.90808 837
67.92819 848
67.94831 843
67.96842 923
67.98853 929
68.00865 980
68.02876 964
68.04888 1037
68.06899 1026
68.0891 996
68.10922 989
68.12933 999
68.14944 1011
68.16956 903
68.18967 920
68.20979 888
68.2299 878
68.25001 821
68.27013 836
68.29024 786
68.31035 680
68.33047 603
68.35058 647
68.3707 625
68.39081 540
68.41092 575
68.43104 523
68.45115 504
68.47126 462
68.49138 470
68.51149 433
68.5316 400
68.55172 391
68.57183 400
68.59195 426
68.61206 367
68.63217 385
68.65229 396
68.6724 384
68.69251 371
68.71263 401
68.73274 401
68.75286 384
68.77297 348
68.79308 411
68.8132 392
68.83331 391
68.85342 369
68.87354 371
68.89365 369
68.91376 355
68.93388 379
68.95399 361
68.97411 393
68.99422 376
69.01433 376
69.03445 354
69.05456 382
69.07467 356
69.09479 333
69.1149 365
69.13502 347
69.15513 362
69.17524 349
69.19536 362
69.21547 362
69.23558 361
69.2557 373
69.27581 352
69.29593 314
69.31604 348
69.33615 341
69.35627 353
69.37638 360
69.39649 354
69.41661 386
69.43672 351
69.45683 347
69.47695 371
69.49706 372
69.51718 368
69.53729 361
69.5574 365
69.57752 338
69.59763 360
69.61774 345
69.63786 343
69.65797 385
69.67809 393
69.6982 371
69.71831 365
69.73843 363
69.75854 370
69.77865 368
69.79877 388
69.81888 331
69.839 389
69.85911 346
69.87922 366
69.89934 373
69.91945 367
69.93956 328
69.95968 369
69.97979 381
69.9999 357
70.02002 358
70.04013 343
70.06025 376
70.08036 326
70.10047 369
70.12059 359
70.1407 330
70.16081 342
70.18093 347
70.20104 355
70.22116 349
70.24127 363
70.26138 319
70.2815 358
70.30161 392
70.32172 349
70.34184 358
70.36195 356
70.38207 359
70.40218 332
70.42229 360
70.44241 356
70.46252 348
70.48263 382
70.50275 358
70.52286 339
70.54297 382
70.56309 359
70.5832 364
70.60332 396
70.62343 341
70.64354 358
70.66366 340
70.68377 352
70.70388 325
70.724 369
70.74411 365
70.76423 366
70.78434 352
70.80445 339
70.82457 368
70.84468 371
70.86479 326
70.88491 370
70.90502 341
70.92513 365
70.94525 361
70.96536 348
70.98548 384
71.00559 373
71.0257 324
71.04582 327
71.06593 368
71.08604 366
71.10616 371
71.12627 340
71.14639 365
71.1665 381
71.18661 373
71.20673 368
71.22684 340
71.24695 338
71.26707 369
71.28718 382
71.3073 361
71.32741 367
71.34752 348
71.36764 323
71.38775 328
71.40786 344
71.42798 378
71.44809 366
71.4682 344
71.48832 388
71.50843 390
71.52855 388
71.54866 365
71.56877 362
71.58889 354
71.609 347
71.62911 339
71.64923 354
71.66934 346
71.68946 336
71.70957 368
71.72968 358
71.7498 391
71.76991 393
71.79002 385
71.81014 368
71.83025 383
71.85037 359
71.87048 381
71.89059 354
71.91071 345
71.93082 352
71.95093 350
71.97105 346
71.99116 389
72.01127 385
72.03139 337
72.0515 355
72.07162 319
72.09173 367
72.11184 370
72.13196 361
72.15207 351
72.17218 374
72.1923 391
72.21241 398
72.23253 395
72.25264 401
72.27275 381
72.29287 365
72.31298 380
72.33309 369
72.35321 376
72.37332 336
72.39344 353
72.41355 373
72.43366 347
72.45378 346
72.47389 374
72.494 387
72.51412 345
72.53423 372
72.55434 361
72.57446 340
72.59457 328
72.61469 349
72.6348 395
72.65491 372
72.67503 351
72.69514 363
72.71525 337
72.73537 359
72.75548 381
72.7756 355
72.79571 381
72.81582 357
72.83594 389
72.85605 384
72.87616 368
72.89628 348
72.91639 367
72.9365 377
72.95662 352
72.97673 355
72.99685 385
73.01696 340
73.03707 422
73.05719 409
73.0773 426
73.09741 401
73.11753 413
73.13764 440
73.15776 407
73.17787 391
73.19798 421
73.2181 424
73.23821 469
73.25832 483
73.27844 489
73.29855 497
73.31867 478
73.33878 508
73.35889 551
73.37901 529
73.39912 522
73.41923 514
73.43935 487
73.45946 490
73.47957 457
73.49969 436
73.5198 478
73.53992 473
73.56003 459
73.58014 456
73.60026 458
73.62037 478
73.64048 401
73.6606 383
73.68071 389
73.70083 394
73.72094 371
73.74105 374
73.76117 367
73.78128 363
73.80139 395
73.82151 391
73.84162 414
73.86174 356
73.88185 337
73.90196 380
73.92208 381
73.94219 345
73.9623 358
73.98242 362
74.00253 363
74.02264 373
74.04276 345
74.06287 370
74.08299 339
74.1031 356
74.12321 390
74.14333 329
74.16344 356
74.18355 362
74.20367 365
74.22378 377
74.2439 343
74.26401 354
74.28412 378
74.30424 357
74.32435 355
74.34446 384
74.36458 338
74.38469 389
74.40481 337
74.42492 356
74.44503 334
74.46515 342
74.48526 340
74.50537 365
74.52549 341
74.5456 321
74.56571 372
74.58583 365
74.60594 367
74.62606 356
74.64617 331
74.66628 355
74.6864 359
74.70651 342
74.72662 329
74.74674 360
74.76685 396
74.78697 344
74.80708 380
74.82719 348
74.84731 375
74.86742 345
74.88753 355
74.90765 310
74.92776 365
74.94787 375
74.96799 375
74.9881 349
75.00822 348
