3.00117 20452
3.02128 19811
3.0414 19337
3.06151 19169
3.08162 18564
3.10174 17899
3.12185 17363
3.14197 16949
3.16208 16362
3.18219 16159
3.20231 15521
3.22242 14927
3.24253 15006
3.26265 14257
3.28276 13923
3.30288 13380
3.32299 12642
3.3431 12868
3.36322 11871
3.38333 11707
3.40344 11187
3.42356 10903
3.44367 10696
3.46379 10137
3.4839 9973
3.50401 9484
3.52413 9468
3.54424 8924
3.56435 8475
3.58447 8327
3.60458 7800
3.62469 7707
3.64481 7444
3.66492 7007
3.68504 6878
3.70515 6648
3.72526 6347
3.74538 6305
3.76549 5584
3.7856 5525
3.80572 5131
3.82583 5100
3.84595 5153
3.86606 4654
3.88617 4426
3.90629 4309
3.9264 4217
3.94651 3995
3.96663 3574
3.98674 3681
4.00686 3581
4.02697 3301
4.04708 3359
4.0672 3045
4.08731 2965
4.10742 2715
4.12754 2783
4.14765 2573
4.16776 2280
4.18788 2409
4.20799 2275
4.22811 2185
4.24822 2234
4.26833 1855
4.28845 1978
4.30856 1896
4.32867 1826
4.34879 1876
4.3689 1597
4.38902 1698
4.40913 1682
4.42924 1548
4.44936 1688
4.46947 1486
4.48958 1466
4.5097 1469
4.52981 1405
4.54992 1470
4.57004 1217
4.59015 1260
4.61027 1343
4.63038 1223
4.65049 1207
4.67061 1131
4.69072 1148
4.71083 1193
4.73095 1129
4.75106 1135
4.77118 1023
4.79129 994
4.8114 1028
4.83152 1000
4.85163 888
4.87174 923
4.89186 908
4.91197 917
4.93209 882
4.9522 861
4.97231 825
4.99243 808
5.01254 793
5.03265 818
5.05277 782
5.07288 718
5.09299 773
5.11311 769
5.13322 696
5.15334 683
5.17345 673
5.19356 636
5.21368 665
5.23379 622
5.2539 638
5.27402 650
5.29413 627
5.31425 578
5.33436 569
5.35447 570
5.37459 588
5.3947 560
5.41481 551
5.43493 538
5.45504 486
5.47516 543
5.49527 437
5.51538 484
5.5355 539
5.55561 437
5.57572 474
5.59584 444
5.61595 432
5.63606 441
5.65618 412
5.67629 365
5.69641 445
5.71652 421
5.73663 449
5.75675 425
5.77686 394
5.79697 354
5.81709 363
5.8372 412
5.85732 384
5.87743 360
5.89754 327
5.91766 359
5.93777 395
5.95788 350
5.978 374
5.99811 355
6.01823 344
6.03834 347
6.05845 356
6.07857 381
6.09868 343
6.11879 325
6.13891 331
6.15902 316
6.17913 343
6.19925 281
6.21936 327
6.23948 334
6.25959 323
6.2797 339
6.29982 313
6.31993 338
6.34004 324
6.36016 316
6.38027 315
6.40039 305
6.4205 296
6.44061 296
6.46073 312
6.48084 287
6.50095 310
6.52107 325
6.54118 343
6.56129 296
6.58141 288
6.60152 284
6.62164 285
6.64175 326
6.66186 282
6.68198 286
6.70209 281
6.7222 313
6.74232 284
6.76243 297
6.78255 301
6.80266 293
6.82277 300
6.84289 306
6.863 285
6.88311 291
6.90323 244
6.92334 266
6.94346 286
6.96357 300
6.98368 260
7.0038 280
7.02391 257
7.04402 272
7.06414 263
7.08425 307
7.10436 272
7.12448 284
7.14459 278
7.16471 271
7.18482 284
7.20493 311
7.22505 268
7.24516 297
7.26527 283
7.28539 305
7.3055 269
7.32562 258
7.34573 285
7.36584 304
7.38596 290
7.40607 260
7.42618 297
7.4463 289
7.46641 302
7.48653 247
7.50664 252
7.52675 279
7.54687 277
7.56698 295
7.58709 287
7.60721 299
7.62732 253
7.64743 298
7.66755 260
7.68766 263
7.70778 229
7.72789 304
7.748 292
7.76812 265
7.78823 277
7.80834 288
7.82846 275
7.84857 265
7.86869 297
7.8888 310
7.90891 263
7.92903 275
7.94914 272
7.96925 286
7.98937 268
8.00948 271
8.0296 302
8.04971 299
8.06982 256
8.08994 269
8.11005 292
8.13016 241
8.15028 279
8.17039 313
8.1905 286
8.21062 283
8.23073 313
8.25085 267
8.27096 283
8.29107 269
8.31119 248
8.3313 269
8.35141 308
8.37153 316
8.39164 315
8.41176 303
8.43187 275
8.45198 277
8.4721 275
8.49221 304
8.51232 303
8.53244 276
8.55255 268
8.57266 285
8.59278 296
8.61289 309
8.63301 292
8.65312 262
8.67323 323
8.69335 291
8.71346 303
8.73357 325
8.75369 297
8.7738 346
8.79392 320
8.81403 297
8.83414 300
8.85426 276
8.87437 339
8.89448 296
8.9146 266
8.93471 312
8.95483 291
8.97494 277
8.99505 279
9.01517 281
9.03528 290
9.05539 258
9.07551 265
9.09562 264
9.11573 271
9.13585 273
9.15596 310
9.17608 238
9.19619 300
9.2163 286
9.23642 272
9.25653 281
9.27664 276
9.29676 297
9.31687 276
9.33699 320
9.3571 294
9.37721 304
9.39733 295
9.41744 314
9.43755 270
9.45767 301
9.47778 279
9.4979 326
9.51801 339
9.53812 282
9.55824 288
9.57835 299
9.59846 297
9.61858 304
9.63869 318
9.6588 290
9.67892 291
9.69903 309
9.71915 292
9.73926 299
9.75937 261
9.77949 304
9.7996 256
9.81971 284
9.83983 271
9.85994 314
9.88006 272
9.90017 269
9.92028 261
9.9404 294
9.96051 303
9.98062 252
10.00074 275
10.02085 275
10.04097 304
10.06108 278
10.08119 278
10.10131 297
10.12142 288
10.14153 268
10.16165 288
10.18176 263
10.20187 274
10.22199 277
10.2421 299
10.26222 293
10.28233 286
10.30244 296
10.32256 279
10.34267 276
10.36278 269
10.3829 293
10.40301 294
10.42313 283
10.44324 258
10.46335 319
10.48347 268
10.50358 271
10.52369 264
10.54381 324
10.56392 285
10.58403 301
10.60415 253
10.62426 314
10.64438 288
10.66449 302
10.6846 296
10.70472 256
10.72483 279
10.74494 307
10.76506 293
10.78517 296
10.80529 279
10.8254 281
10.84551 270
10.86563 307
10.88574 272
10.90585 282
10.92597 299
10.94608 304
10.9662 275
10.98631 291
11.00642 290
11.02654 271
11.04665 291
11.06676 292
11.08688 309
11.10699 295
11.1271 285
11.14722 300
11.16733 274
11.18745 327
11.20756 286
11.22767 319
11.24779 326
11.2679 281
11.28801 290
11.30813 299
11.32824 310
11.34836 302
11.36847 289
11.38858 302
11.4087 302
11.42881 317
11.44892 296
11.46904 310
11.48915 316
11.50927 297
11.52938 326
11.54949 298
11.56961 282
11.58972 295
11.60983 337
11.62995 294
11.65006 332
11.67017 346
11.69029 315
11.7104 320
11.73052 354
11.75063 358
11.77074 343
11.79086 343
11.81097 333
11.83108 361
11.8512 352
11.87131 395
11.89143 366
11.91154 363
11.93165 418
11.95177 402
11.97188 426
11.99199 444
12.01211 442
12.03222 456
12.05234 500
12.07245 533
12.09256 497
12.11268 498
12.13279 544
12.1529 617
12.17302 608
12.19313 608
12.21324 616
12.23336 631
12.25347 654
12.27359 694
12.2937 626
12.31381 682
12.33393 611
12.35404 584
12.37415 561
12.39427 607
12.41438 565
12.4345 504
12.45461 461
12.47472 434
12.49484 432
12.51495 422
12.53506 436
12.55518 369
12.57529 403
12.5954 369
12.61552 305
12.63563 296
12.65575 328
12.67586 313
12.69597 309
12.71609 292
12.7362 311
12.75631 305
12.77643 290
12.79654 314
12.81666 344
12.83677 290
12.85688 318
12.877 312
12.89711 280
12.91722 277
12.93734 275
12.95745 303
12.97757 286
12.99768 265
13.01779 256
13.03791 279
13.05802 292
13.07813 295
13.09825 286
13.11836 285
13.13847 286
13.15859 257
13.1787 286
13.19882 267
13.21893 302
13.23904 288
13.25916 265
13.27927 270
13.29938 269
13.3195 257
13.33961 265
13.35973 256
13.37984 249
13.39995 257
13.42007 275
13.44018 280
13.46029 235
13.48041 263
13.50052 205
13.52064 250
13.54075 277
13.56086 254
13.58098 266
13.60109 241
13.6212 262
13.64132 250
13.66143 216
13.68154 256
13.70166 246
13.72177 250
13.74189 268
13.762 254
13.78211 262
13.80223 269
13.82234 253
13.84245 245
13.86257 228
13.88268 267
13.9028 235
13.92291 255
13.94302 249
13.96314 275
13.98325 261
14.00336 252
14.02348 276
14.04359 261
14.06371 273
14.08382 263
14.10393 253
14.12405 240
14.14416 245
14.16427 279
14.18439 260
14.2045 242
14.22461 264
14.24473 272
14.26484 259
14.28496 251
14.30507 263
14.32518 258
14.3453 250
14.36541 232
14.38552 257
14.40564 267
14.42575 245
14.44587 255
14.46598 225
14.48609 245
14.50621 245
14.52632 247
14.54643 244
14.56655 254
14.58666 229
14.60677 253
14.62689 204
14.647 242
14.66712 230
14.68723 220
14.70734 238
14.72746 269
14.74757 236
14.76768 209
14.7878 210
14.80791 235
14.82803 272
14.84814 271
14.86825 245
14.88837 270
14.90848 236
14.92859 269
14.94871 225
14.96882 223
14.98894 232
15.00905 268
15.02916 255
15.04928 244
15.06939 255
15.0895 267
15.10962 213
15.12973 225
15.14984 200
15.16996 226
15.19007 243
15.21019 256
15.2303 229
15.25041 204
15.27053 204
15.29064 244
15.31075 245
15.33087 224
15.35098 241
15.3711 252
15.39121 269
15.41132 244
15.43144 203
15.45155 236
15.47166 218
15.49178 269
15.51189 237
15.53201 228
15.55212 233
15.57223 223
15.59235 229
15.61246 256
15.63257 251
15.65269 219
15.6728 212
15.69291 246
15.71303 247
15.73314 231
15.75326 231
15.77337 229
15.79348 221
15.8136 239
15.83371 235
15.85382 239
15.87394 241
15.89405 256
15.91417 229
15.93428 229
15.95439 219
15.97451 231
15.99462 249
16.01473 215
16.03485 232
16.05496 215
16.07508 235
16.09519 222
16.1153 235
16.13542 252
16.15553 234
16.17564 230
16.19576 261
16.21587 252
16.23598 230
16.2561 243
16.27621 234
16.29633 233
16.31644 233
16.33655 223
16.35667 226
16.37678 192
16.39689 216
16.41701 260
16.43712 238
16.45724 216
16.47735 210
16.49746 212
16.51758 231
16.53769 250
16.5578 218
16.57792 247
16.59803 231
16.61814 250
16.63826 243
16.65837 233
16.67849 219
16.6986 214
16.71871 225
16.73883 224
16.75894 233
16.77905 229
16.79917 213
16.81928 214
16.8394 238
16.85951 224
16.87962 235
16.89974 230
16.91985 255
16.93996 222
16.96008 242
16.98019 229
17.00031 245
17.02042 215
17.04053 227
17.06065 228
17.08076 231
17.10087 214
17.12099 215
17.1411 238
17.16121 185
17.18133 255
17.20144 233
17.22156 244
17.24167 238
17.26178 247
17.2819 261
17.30201 256
17.32212 219
17.34224 250
17.36235 214
17.38247 260
17.40258 216
17.42269 230
17.44281 239
17.46292 238
17.48303 236
17.50315 230
17.52326 253
17.54338 230
17.56349 223
17.5836 231
17.60372 197
17.62383 263
17.64394 233
17.66406 245
17.68417 258
17.70428 243
17.7244 258
17.74451 246
17.76463 227
17.78474 236
17.80485 232
17.82497 235
17.84508 244
17.86519 247
17.88531 235
17.90542 267
17.92554 269
17.94565 267
17.96576 244
17.98588 261
18.00599 241
18.0261 247
18.04622 298
18.06633 243
18.08645 248
18.10656 283
18.12667 282
18.14679 242
18.1669 268
18.18701 291
18.20713 267
18.22724 292
18.24735 273
18.26747 274
18.28758 307
18.3077 261
18.32781 262
18.34792 278
18.36804 249
18.38815 264
18.40826 266
18.42838 263
18.44849 238
18.46861 233
18.48872 258
18.50883 256
18.52895 207
18.54906 241
18.56917 203
18.58929 260
18.6094 231
18.62951 259
18.64963 255
18.66974 256
18.68986 245
18.70997 247
18.73008 267
18.7502 237
18.77031 275
18.79042 248
18.81054 242
18.83065 232
18.85077 255
18.87088 244
18.89099 248
18.91111 231
18.93122 217
18.95133 254
18.97145 285
18.99156 224
19.01168 263
19.03179 246
19.0519 262
19.07202 219
19.09213 243
19.11224 247
19.13236 286
19.15247 233
19.17258 248
19.1927 263
19.21281 271
19.23293 242
19.25304 234
19.27315 240
19.29327 271
19.31338 266
19.33349 265
19.35361 261
19.37372 295
19.39384 298
19.41395 283
19.43406 277
19.45418 278
19.47429 297
19.4944 285
19.51452 304
19.53463 299
19.55475 314
19.57486 324
19.59497 318
19.61509 346
19.6352 388
19.65531 340
19.67543 466
19.69554 436
19.71565 519
19.73577 488
19.75588 526
19.776 516
19.79611 522
19.81622 558
19.83634 546
19.85645 570
19.87656 600
19.89668 607
19.91679 528
19.93691 515
19.95702 572
19.97713 544
19.99725 518
20.01736 511
20.03747 522
20.05759 525
20.0777 540
20.09782 529
20.11793 489
20.13804 579
20.15816 519
20.17827 515
20.19838 523
20.2185 578
20.23861 523
20.25872 518
20.27884 541
20.29895 557
20.31907 588
20.33918 586
20.35929 569
20.37941 602
20.39952 577
20.41963 589
20.43975 563
20.45986 608
20.47998 628
20.50009 653
20.5202 635
20.54032 731
20.56043 774
20.58054 859
20.60066 987
20.62077 1104
20.64088 1279
20.661 1623
20.68111 2065
20.70123 2702
20.72134 3312
20.74145 4152
20.76157 4759
20.78168 5303
20.80179 5397
20.82191 5155
20.84202 4579
20.86214 3744
20.88225 3000
20.90236 2162
20.92248 1563
20.94259 1134
20.9627 875
20.98282 744
21.00293 703
21.02305 640
21.04316 630
21.06327 587
21.08339 619
21.1035 572
21.12361 607
21.14373 508
21.16384 543
21.18395 548
21.20407 518
21.22418 524
21.2443 562
21.26441 499
21.28452 537
21.30464 559
21.32475 498
21.34486 507
21.36498 500
21.38509 478
21.40521 515
21.42532 448
21.44543 538
21.46555 482
21.48566 450
21.50577 426
21.52589 454
21.546 430
21.56612 443
21.58623 438
21.60634 457
21.62646 411
21.64657 409
21.66668 419
21.6868 421
21.70691 391
21.72702 420
21.74714 419
21.76725 407
21.78737 376
21.80748 352
21.82759 345
21.84771 394
21.86782 386
21.88793 371
21.90805 398
21.92816 383
21.94828 398
21.96839 390
21.9885 374
22.00862 399
22.02873 384
22.04884 389
22.06896 389
22.08907 371
22.10919 418
22.1293 372
22.14941 369
22.16953 378
22.18964 345
22.20975 374
22.22987 382
22.24998 421
22.27009 388
22.29021 364
22.31032 360
22.33044 373
22.35055 339
22.37066 359
22.39078 341
22.41089 370
22.431 332
22.45112 334
22.47123 336
22.49135 342
22.51146 341
22.53157 331
22.55169 332
22.5718 346
22.59191 350
22.61203 325
22.63214 352
22.65225 317
22.67237 368
22.69248 349
22.7126 351
22.73271 353
22.75282 356
22.77294 336
22.79305 354
22.81316 359
22.83328 347
22.85339 267
22.87351 309
22.89362 362
22.91373 342
22.93385 322
22.95396 300
22.97407 335
22.99419 323
23.0143 314
23.03442 328
23.05453 339
23.07464 310
23.09476 334
23.11487 311
23.13498 296
23.1551 300
23.17521 338
23.19532 315
23.21544 332
23.23555 294
23.25567 315
23.27578 298
23.29589 318
23.31601 326
23.33612 323
23.35623 287
23.37635 319
23.39646 345
23.41658 329
23.43669 273
23.4568 299
23.47692 295
23.49703 313
23.51714 330
23.53726 339
23.55737 343
23.57749 351
23.5976 338
23.61771 329
23.63783 339
23.65794 335
23.67805 336
23.69817 331
23.71828 310
23.73839 337
23.75851 323
23.77862 341
23.79874 323
23.81885 352
23.83896 381
23.85908 347
23.87919 364
23.8993 384
23.91942 385
23.93953 385
23.95965 348
23.97976 384
23.99987 402
24.01999 343
24.0401 389
24.06021 363
24.08033 362
24.10044 338
24.12056 326
24.14067 335
24.16078 342
24.1809 350
24.20101 333
24.22112 317
24.24124 330
24.26135 341
24.28146 364
24.30158 340
24.32169 367
24.34181 339
24.36192 357
24.38203 386
24.40215 374
24.42226 329
24.44237 376
24.46249 371
24.4826 381
24.50272 378
24.52283 418
24.54294 407
24.56306 421
24.58317 400
24.60328 455
24.6234 435
24.64351 516
24.66362 490
24.68374 453
24.70385 558
24.72397 522
24.74408 543
24.76419 553
24.78431 559
24.80442 607
24.82453 572
24.84465 584
24.86476 551
24.88488 574
24.90499 552
24.9251 537
24.94522 539
24.96533 463
24.98544 541
25.00556 494
25.02567 481
25.04579 486
25.0659 502
25.08601 461
25.10613 485
25.12624 473
25.14635 448
25.16647 514
25.18658 476
25.20669 445
25.22681 441
25.24692 481
25.26704 428
25.28715 434
25.30726 419
25.32738 444
25.34749 395
25.3676 409
25.38772 448
25.40783 422
25.42795 398
25.44806 400
25.46817 369
25.48829 381
25.5084 442
25.52851 392
25.54863 396
25.56874 386
25.58886 466
25.60897 432
25.62908 433
25.6492 438
25.66931 457
25.68942 475
25.70954 489
25.72965 509
25.74976 492
25.76988 503
25.78999 493
25.81011 521
25.83022 513
25.85033 505
25.87045 507
25.89056 512
25.91067 555
25.93079 561
25.9509 555
25.97102 583
25.99113 575
26.01124 623
26.03136 601
26.05147 678
26.07158 671
26.0917 738
26.11181 748
26.13193 798
26.15204 903
26.17215 929
26.19227 1005
26.21238 1112
26.23249 1149
26.25261 1271
26.27272 1366
26.29283 1558
26.31295 1789
26.33306 2080
26.35318 2564
26.37329 3215
26.3934 4093
26.41352 5048
26.43363 6653
26.45374 8632
26.47386 11393
26.49397 14641
26.51409 17655
26.5342 20828
26.55431 22725
26.57443 23761
26.59454 22914
26.61465 20291
26.63477 17163
26.65488 13334
26.67499 9902
26.69511 7044
26.71522 4825
26.73534 3142
26.75545 2223
26.77556 1728
26.79568 1466
26.81579 1303
26.8359 1172
26.85602 1057
26.87613 970
26.89625 919
26.91636 824
26.93647 750
26.95659 718
26.9767 648
26.99681 637
27.01693 569
27.03704 565
27.05716 574
27.07727 547
27.09738 518
27.1175 480
27.13761 478
27.15772 468
27.17784 508
27.19795 470
27.21806 448
27.23818 469
27.25829 430
27.27841 472
27.29852 488
27.31863 407
27.33875 448
27.35886 438
27.37897 440
27.39909 442
27.4192 418
27.43932 419
27.45943 391
27.47954 378
27.49966 385
27.51977 367
27.53988 372
27.56 403
27.58011 385
27.60023 384
27.62034 388
27.64045 406
27.66057 376
27.68068 387
27.70079 355
27.72091 388
27.74102 362
27.76113 370
27.78125 342
27.80136 378
27.82148 342
27.84159 361
27.8617 350
27.88182 334
27.90193 341
27.92204 366
27.94216 359
27.96227 374
27.98239 317
28.0025 340
28.02261 333
28.04273 326
28.06284 315
28.08295 304
28.10307 322
28.12318 314
28.1433 353
28.16341 321
28.18352 330
28.20364 292
28.22375 336
28.24386 317
28.26398 333
28.28409 335
28.3042 294
28.32432 325
28.34443 305
28.36455 310
28.38466 336
28.40477 296
28.42489 317
28.445 321
28.46511 317
28.48523 315
28.50534 351
28.52546 336
28.54557 308
28.56568 296
28.5858 285
28.60591 304
28.62602 280
28.64614 305
28.66625 318
28.68636 304
28.70648 320
28.72659 263
28.74671 276
28.76682 272
28.78693 276
28.80705 257
28.82716 306
28.84727 278
28.86739 256
28.8875 281
28.90762 291
28.92773 298
28.94784 303
28.96796 266
28.98807 277
29.00818 293
29.0283 283
29.04841 266
29.06853 273
29.08864 300
29.10875 276
29.12887 271
29.14898 255
29.16909 272
29.18921 258
29.20932 264
29.22943 293
29.24955 306
29.26966 275
29.28978 267
29.30989 316
29.33 287
29.35012 297
29.37023 291
29.39034 285
29.41046 250
29.43057 295
29.45069 277
29.4708 270
29.49091 275
29.51103 291
29.53114 311
29.55125 287
29.57137 301
29.59148 252
29.6116 278
29.63171 276
29.65182 295
29.67194 301
29.69205 267
29.71216 290
29.73228 285
29.75239 295
29.7725 274
29.79262 258
29.81273 277
29.83285 257
29.85296 284
29.87307 278
29.89319 246
29.9133 281
29.93341 266
29.95353 263
29.97364 244
29.99376 272
30.01387 325
30.03398 278
30.0541 281
30.07421 286
30.09432 228
30.11444 289
30.13455 272
30.15467 281
30.17478 272
30.19489 256
30.21501 278
30.23512 277
30.25523 269
30.27535 302
30.29546 282
30.31557 264
30.33569 269
30.3558 266
30.37592 257
30.39603 247
30.41614 251
30.43626 227
30.45637 271
30.47648 256
30.4966 265
30.51671 254
30.53683 269
30.55694 268
30.57705 260
30.59717 254
30.61728 240
30.63739 252
30.65751 253
30.67762 250
30.69773 255
30.71785 295
30.73796 258
30.75808 264
30.77819 277
30.7983 249
30.81842 246
30.83853 266
30.85864 233
30.87876 271
30.89887 246
30.91899 240
30.9391 240
30.95921 281
30.97933 266
30.99944 291
31.01955 272
31.03967 251
31.05978 249
31.0799 241
31.10001 274
31.12012 255
31.14024 276
31.16035 262
31.18046 246
31.20058 268
31.22069 227
31.2408 263
31.26092 282
31.28103 231
31.30115 248
31.32126 243
31.34137 266
31.36149 243
31.3816 222
31.40171 248
31.42183 240
31.44194 217
31.46206 247
31.48217 249
31.50228 214
31.5224 226
31.54251 249
31.56262 248
31.58274 265
31.60285 248
31.62297 235
31.64308 231
31.66319 232
31.68331 262
31.70342 259
31.72353 256
31.74365 276
31.76376 240
31.78387 233
31.80399 233
31.8241 241
31.84422 247
31.86433 216
31.88444 246
31.90456 235
31.92467 243
31.94478 266
31.9649 254
31.98501 243
32.00513 236
32.02524 235
32.04535 224
32.06547 216
32.08558 253
32.10569 252
32.12581 255
32.14592 207
32.16604 242
32.18615 241
32.20626 234
32.22638 254
32.24649 233
32.2666 262
32.28672 255
32.30683 262
32.32694 244
32.34706 238
32.36717 272
32.38729 278
32.4074 268
32.42751 219
32.44763 231
32.46774 216
32.48785 262
32.50797 235
32.52808 252
32.5482 246
32.56831 263
32.58842 275
32.60854 251
32.62865 243
32.64876 238
32.66888 271
32.68899 305
32.7091 243
32.72922 285
32.74933 233
32.76945 252
32.78956 260
32.80967 246
32.82979 273
32.8499 231
32.87001 243
32.89013 248
32.91024 276
32.93036 282
32.95047 269
32.97058 284
32.9907 301
33.01081 286
33.03092 292
33.05104 332
33.07115 272
33.09127 280
33.11138 297
33.13149 292
33.15161 303
33.17172 266
33.19183 287
33.21195 278
33.23206 270
33.25217 290
33.27229 290
33.2924 255
33.31252 252
33.33263 256
33.35274 287
33.37286 252
33.39297 262
33.41308 254
33.4332 275
33.45331 280
33.47343 288
33.49354 248
33.51365 279
33.53377 267
33.55388 231
33.57399 247
33.59411 241
33.61422 269
33.63434 279
33.65445 262
33.67456 237
33.69468 263
33.71479 282
33.7349 257
33.75502 247
33.77513 240
33.79524 258
33.81536 269
33.83547 265
33.85559 225
33.8757 269
33.89581 232
33.91593 221
33.93604 254
33.95615 231
33.97627 243
33.99638 241
34.0165 227
34.03661 246
34.05672 218
34.07684 244
34.09695 246
34.11706 258
34.13718 203
34.15729 269
34.17741 237
34.19752 242
34.21763 237
34.23775 246
34.25786 271
34.27797 267
34.29809 262
34.3182 240
34.33831 258
34.35843 265
34.37854 233
34.39866 252
34.41877 261
34.43888 254
34.459 274
34.47911 273
34.49922 285
34.51934 293
34.53945 255
34.55957 275
34.57968 290
34.59979 314
34.61991 307
34.64002 320
34.66013 307
34.68025 362
34.70036 349
34.72047 379
34.74059 371
34.7607 369
34.78082 378
34.80093 395
34.82104 383
34.84116 391
34.86127 387
34.88138 386
34.9015 418
34.92161 406
34.94173 432
34.96184 396
34.98195 365
35.00207 397
35.02218 354
35.04229 377
35.06241 372
35.08252 379
35.10264 354
35.12275 324
35.14286 373
35.16298 336
35.18309 339
35.2032 332
35.22332 369
35.24343 353
35.26354 333
35.28366 351
35.30377 357
35.32389 363
35.344 345
35.36411 349
35.38423 383
35.40434 365
35.42445 374
35.44457 376
35.46468 384
35.4848 398
35.50491 396
35.52502 389
35.54514 374
35.56525 388
35.58536 368
35.60548 370
35.62559 345
35.64571 374
35.66582 366
35.68593 378
35.70605 356
35.72616 378
35.74627 353
35.76639 394
35.7865 407
35.80661 386
35.82673 404
35.84684 421
35.86696 385
35.88707 381
35.90718 436
35.9273 397
35.94741 402
35.96752 387
35.98764 391
36.00775 402
36.02787 381
36.04798 384
36.06809 348
36.08821 383
36.10832 363
36.12843 349
36.14855 362
36.16866 424
36.18878 442
36.20889 387
36.229 473
36.24912 507
36.26923 549
36.28934 645
36.30946 648
36.32957 803
36.34968 951
36.3698 1095
36.38991 1253
36.41003 1455
36.43014 1593
36.45025 1698
36.47037 1743
36.49048 1708
36.51059 1639
36.53071 1474
36.55082 1298
36.57094 1147
36.59105 973
36.61116 729
36.63128 671
36.65139 510
36.6715 457
36.69162 399
36.71173 391
36.73184 385
36.75196 360
36.77207 354
36.79219 310
36.8123 352
36.83241 337
36.85253 339
36.87264 331
36.89275 333
36.91287 319
36.93298 313
36.9531 341
36.97321 302
36.99332 312
37.01344 346
37.03355 323
37.05366 307
37.07378 330
37.09389 309
37.11401 319
37.13412 338
37.15423 325
37.17435 335
37.19446 284
37.21457 297
37.23469 313
37.2548 307
37.27491 299
37.29503 299
37.31514 307
37.33526 329
37.35537 322
37.37548 303
37.3956 317
37.41571 344
37.43582 278
37.45594 281
37.47605 360
37.49617 299
37.51628 320
37.53639 320
37.55651 333
37.57662 316
37.59673 314
37.61685 322
37.63696 352
37.65708 326
37.67719 337
37.6973 322
37.71742 311
37.73753 336
37.75764 367
37.77776 326
37.79787 332
37.81798 360
37.8381 316
37.85821 337
37.87833 305
37.89844 318
37.91855 338
37.93867 309
37.95878 328
37.97889 370
37.99901 339
38.01912 287
38.03924 346
38.05935 350
38.07946 350
38.09958 352
38.11969 355
38.1398 347
38.15992 380
38.18003 354
38.20015 407
38.22026 398
38.24037 394
38.26049 410
38.2806 421
38.30071 420
38.32083 435
38.34094 390
38.36105 434
38.38117 385
38.40128 449
38.4214 391
38.44151 372
38.46162 404
38.48174 365
38.50185 343
38.52196 377
38.54208 353
38.56219 374
38.58231 386
38.60242 312
38.62253 337
38.64265 359
38.66276 319
38.68287 354
38.70299 302
38.7231 331
38.74321 324
38.76333 338
38.78344 351
38.80356 315
38.82367 315
38.84378 326
38.8639 358
38.88401 325
38.90412 345
38.92424 335
38.94435 330
38.96447 378
38.98458 325
39.00469 369
39.02481 381
39.04492 427
39.06503 428
39.08515 403
39.10526 471
39.12538 445
39.14549 482
39.1656 511
39.18572 519
39.20583 603
39.22594 704
39.24606 786
39.26617 882
39.28628 999
39.3064 1142
39.32651 1361
39.34663 1543
39.36674 1621
39.38685 1674
39.40697 1640
39.42708 1562
39.44719 1449
39.46731 1250
39.48742 1067
39.50754 920
39.52765 822
39.54776 649
39.56788 583
39.58799 423
39.6081 341
39.62822 381
39.64833 337
39.66845 375
39.68856 327
39.70867 342
39.72879 320
39.7489 295
39.76901 304
39.78913 333
39.80924 312
39.82935 322
39.84947 328
39.86958 290
39.8897 300
39.90981 298
39.92992 328
39.95004 315
39.97015 310
39.99026 350
40.01038 396
40.03049 427
40.05061 507
40.07072 516
40.09083 582
40.11095 611
40.13106 687
40.15117 798
40.17129 841
40.1914 898
40.21152 924
40.23163 910
40.25174 908
40.27186 776
40.29197 705
40.31208 677
40.3322 575
40.35231 536
40.37242 463
40.39254 393
40.41265 361
40.43277 334
40.45288 308
40.47299 285
40.49311 293
40.51322 310
40.53333 299
40.55345 296
40.57356 301
40.59368 291
40.61379 273
40.6339 255
40.65402 249
40.67413 272
40.69424 294
40.71436 303
40.73447 252
40.75458 286
40.7747 281
40.79481 269
40.81493 270
40.83504 291
40.85515 281
40.87527 297
40.89538 291
40.91549 271
40.93561 293
40.95572 270
40.97584 273
40.99595 283
41.01606 282
41.03618 286
41.05629 261
41.0764 287
41.09652 273
41.11663 256
41.13675 253
41.15686 280
41.17697 267
41.19709 265
41.2172 285
41.23731 263
41.25743 272
41.27754 293
41.29765 259
41.31777 235
41.33788 275
41.358 265
41.37811 266
41.39822 227
41.41834 246
41.43845 262
41.45856 256
41.47868 262
41.49879 273
41.51891 259
41.53902 259
41.55913 296
41.57925 253
41.59936 259
41.61947 249
41.63959 262
41.6597 257
41.67982 260
41.69993 262
41.72004 260
41.74016 251
41.76027 266
41.78038 259
41.8005 242
41.82061 263
41.84072 271
41.86084 253
41.88095 257
41.90107 300
41.92118 271
41.94129 261
41.96141 268
41.98152 272
42.00163 277
42.02175 295
42.04186 290
42.06198 311
42.08209 342
42.1022 356
42.12232 338
42.14243 403
42.16254 427
42.18266 484
42.20277 492
42.22289 548
42.243 682
42.26311 779
42.28323 900
42.30334 1002
42.32345 1102
42.34357 1203
42.36368 1208
42.38379 1172
42.40391 1174
42.42402 1119
42.44414 1015
42.46425 854
42.48436 720
42.50448 680
42.52459 590
42.5447 491
42.56482 408
42.58493 337
42.60505 296
42.62516 304
42.64527 273
42.66539 285
42.6855 277
42.70561 275
42.72573 247
42.74584 243
42.76595 264
42.78607 234
42.80618 227
42.8263 269
42.84641 255
42.86652 215
42.88664 214
42.90675 263
42.92686 236
42.94698 216
42.96709 209
42.98721 218
43.00732 231
43.02743 223
43.04755 253
43.06766 252
43.08777 230
43.10789 214
43.128 214
43.14812 230
43.16823 235
43.18834 209
43.20846 259
43.22857 236
43.24868 214
43.2688 231
43.28891 221
43.30902 185
43.32914 218
43.34925 244
43.36937 223
43.38948 253
43.40959 223
43.42971 230
43.44982 244
43.46993 235
43.49005 223
43.51016 229
43.53028 220
43.55039 211
43.5705 236
43.59062 234
43.61073 228
43.63084 229
43.65096 221
43.67107 223
43.69119 236
43.7113 230
43.73141 223
43.75153 216
43.77164 222
43.79175 219
43.81187 206
43.83198 218
43.85209 229
43.87221 216
43.89232 222
43.91244 224
43.93255 235
43.95266 230
43.97278 202
43.99289 229
44.013 234
44.03312 225
44.05323 210
44.07335 218
44.09346 204
44.11357 231
44.13369 211
44.1538 198
44.17391 241
44.19403 237
44.21414 223
44.23426 223
44.25437 211
44.27448 229
44.2946 234
44.31471 198
44.33482 197
44.35494 208
44.37505 222
44.39516 210
44.41528 231
44.43539 214
44.45551 225
44.47562 212
44.49573 208
44.51585 222
44.53596 246
44.55607 223
44.57619 205
44.5963 227
44.61642 217
44.63653 188
44.65664 256
44.67676 242
44.69687 208
44.71698 217
44.7371 250
44.75721 218
44.77732 204
44.79744 220
44.81755 233
44.83767 247
44.85778 218
44.87789 244
44.89801 231
44.91812 246
44.93823 212
44.95835 256
44.97846 266
44.99858 251
45.01869 227
45.0388 227
45.05892 239
45.07903 223
45.09914 242
45.11926 242
45.13937 253
45.15949 250
45.1796 252
45.19971 267
45.21983 269
45.23994 267
45.26005 274
45.28017 292
45.30028 287
45.32039 255
45.34051 287
45.36062 298
45.38074 306
45.40085 289
45.42096 296
45.44108 335
45.46119 327
45.4813 353
45.50142 410
45.52153 434
45.54165 421
45.56176 467
45.58187 523
45.60199 585
45.6221 659
45.64221 698
45.66233 802
45.68244 919
45.70256 860
45.72267 929
45.74278 824
45.7629 871
45.78301 715
45.80312 696
45.82324 637
45.84335 549
45.86346 522
45.88358 446
45.90369 377
45.92381 339
45.94392 301
45.96403 260
45.98415 289
46.00426 263
46.02437 248
46.04449 256
46.0646 266
46.08472 254
46.10483 243
46.12494 251
46.14506 244
46.16517 220
46.18528 273
46.2054 210
46.22551 243
46.24563 245
46.26574 245
46.28585 249
46.30597 210
46.32608 215
46.34619 216
46.36631 209
46.38642 231
46.40653 237
46.42665 242
46.44676 227
46.46688 224
46.48699 216
46.5071 247
46.52722 230
46.54733 242
46.56744 225
46.58756 227
46.60767 249
46.62779 227
46.6479 250
46.66801 225
46.68813 216
46.70824 237
46.72835 212
46.74847 240
46.76858 213
46.78869 260
46.80881 234
46.82892 214
46.84904 234
46.86915 233
46.88926 240
46.90938 217
46.92949 232
46.9496 223
46.96972 215
46.98983 217
47.00995 205
47.03006 214
47.05017 215
47.07029 247
47.0904 208
47.11051 247
47.13063 238
47.15074 228
47.17086 243
47.19097 231
47.21108 272
47.2312 223
47.25131 206
47.27142 246
47.29154 252
47.31165 207
47.33176 199
47.35188 240
47.37199 213
47.39211 197
47.41222 218
47.43233 226
47.45245 225
47.47256 214
47.49267 223
47.51279 222
47.5329 229
47.55302 216
47.57313 240
47.59324 233
47.61336 219
47.63347 245
47.65358 239
47.6737 231
47.69381 198
47.71393 246
47.73404 220
47.75415 230
47.77427 237
47.79438 240
47.81449 242
47.83461 227
47.85472 241
47.87483 261
47.89495 240
47.91506 266
47.93518 232
47.95529 222
47.9754 235
47.99552 250
48.01563 237
48.03574 232
48.05586 208
48.07597 215
48.09609 232
48.1162 212
48.13631 214
48.15643 232
48.17654 202
48.19665 204
48.21677 240
48.23688 223
48.257 199
48.27711 212
48.29722 210
48.31734 198
48.33745 220
48.35756 216
48.37768 212
48.39779 223
48.4179 246
48.43802 238
48.45813 215
48.47825 215
48.49836 205
48.51847 223
48.53859 205
48.5587 256
48.57881 229
48.59893 218
48.61904 231
48.63916 255
48.65927 254
48.67938 235
48.6995 242
48.71961 203
48.73972 219
48.75984 216
48.77995 199
48.80006 240
48.82018 225
48.84029 235
48.86041 242
48.88052 235
48.90063 226
48.92075 235
48.94086 248
48.96097 249
48.98109 237
49.0012 259
49.02132 233
49.04143 241
49.06154 234
49.08166 241
49.10177 246
49.12188 220
49.142 247
49.16211 261
49.18223 247
49.20234 236
49.22245 255
49.24257 228
49.26268 255
49.28279 255
49.30291 248
49.32302 259
49.34313 259
49.36325 291
49.38336 264
49.40348 262
49.42359 295
49.4437 242
49.46382 287
49.48393 250
49.50404 283
49.52416 297
49.54427 281
49.56439 290
49.5845 295
49.60461 312
49.62473 290
49.64484 332
49.66495 375
49.68507 323
49.70518 387
49.7253 389
49.74541 423
49.76552 437
49.78564 499
49.80575 507
49.82586 606
49.84598 728
49.86609 806
49.8862 972
49.90632 1044
49.92643 1177
49.94655 1449
49.96666 1693
49.98677 1949
50.00689 2131
50.027 2288
50.04711 2520
50.06723 2479
50.08734 2368
50.10746 2122
50.12757 1979
50.14768 1681
50.1678 1491
50.18791 1344
50.20802 1224
50.22814 1166
50.24825 882
50.26837 699
50.28848 506
50.30859 467
50.32871 386
50.34882 391
50.36893 350
50.38905 320
50.40916 320
50.42927 331
50.44939 314
50.4695 288
50.48962 306
50.50973 298
50.52984 301
50.54996 309
50.57007 290
50.59018 313
50.6103 266
50.63041 296
50.65053 285
50.67064 264
50.69075 291
50.71087 250
50.73098 251
50.75109 260
50.77121 265
50.79132 259
50.81143 227
50.83155 260
50.85166 239
50.87178 221
50.89189 254
50.912 262
50.93212 230
50.95223 207
50.97234 243
50.99246 258
51.01257 249
51.03269 224
51.0528 208
51.07291 252
51.09303 237
51.11314 209
51.13325 212
51.15337 206
51.17348 226
51.1936 197
51.21371 190
51.23382 202
51.25394 228
51.27405 208
51.29416 236
51.31428 227
51.33439 204
51.3545 204
51.37462 215
51.39473 217
51.41485 235
51.43496 224
51.45507 217
51.47519 235
51.4953 199
51.51541 212
51.53553 197
51.55564 205
51.57576 175
51.59587 206
51.61598 212
51.6361 190
51.65621 198
51.67632 183
51.69644 211
51.71655 224
51.73667 203
51.75678 214
51.77689 208
51.79701 201
51.81712 195
51.83723 179
51.85735 185
51.87746 233
51.89757 205
51.91769 198
51.9378 207
51.95792 201
51.97803 174
51.99814 230
52.01826 211
52.03837 206
52.05848 206
52.0786 208
52.09871 220
52.11883 214
52.13894 195
52.15905 214
52.17917 204
52.19928 209
52.21939 208
52.23951 216
52.25962 204
52.27974 204
52.29985 195
52.31996 220
52.34008 214
52.36019 210
52.3803 215
52.40042 248
52.42053 180
52.44064 236
52.46076 199
52.48087 224
52.50099 195
52.5211 213
52.54121 205
52.56133 209
52.58144 184
52.60155 222
52.62167 203
52.64178 189
52.6619 212
52.68201 213
52.70212 217
52.72224 210
52.74235 204
52.76246 216
52.78258 207
52.80269 198
52.8228 212
52.84292 223
52.86303 214
52.88315 201
52.90326 188
52.92337 228
52.94349 216
52.9636 182
52.98371 198
53.00383 205
53.02394 230
53.04406 220
53.06417 221
53.08428 228
53.1044 201
53.12451 218
53.14462 232
53.16474 223
53.18485 216
53.20497 229
53.22508 247
53.24519 211
53.26531 248
53.28542 238
53.30553 247
53.32565 252
53.34576 221
53.36587 239
53.38599 235
53.4061 252
53.42622 244
53.44633 216
53.46644 250
53.48656 235
53.50667 264
53.52678 228
53.5469 251
53.56701 234
53.58713 231
53.60724 249
53.62735 254
53.64747 253
53.66758 247
53.68769 265
53.70781 245
53.72792 268
53.74804 238
53.76815 250
53.78826 253
53.80838 269
53.82849 302
53.8486 269
53.86872 294
53.88883 261
53.90894 303
53.92906 264
53.94917 286
53.96929 264
53.9894 257
54.00951 274
54.02963 289
54.04974 301
54.06985 281
54.08997 272
54.11008 282
54.1302 277
54.15031 317
54.17042 281
54.19054 302
54.21065 316
54.23076 303
54.25088 318
54.27099 305
54.29111 314
54.31122 290
54.33133 293
54.35145 330
54.37156 306
54.39167 315
54.41179 325
54.4319 305
54.45201 345
54.47213 332
54.49224 324
54.51236 390
54.53247 351
54.55258 382
54.5727 399
54.59281 431
54.61292 476
54.63304 502
54.65315 564
54.67327 599
54.69338 676
54.71349 744
54.73361 832
54.75372 929
54.77383 939
54.79395 922
54.81406 914
54.83417 856
54.85429 736
54.8744 741
54.89452 707
54.91463 692
54.93474 644
54.95486 596
54.97497 566
54.99508 519
55.0152 474
55.03531 431
55.05543 391
55.07554 435
55.09565 405
55.11577 420
55.13588 480
55.15599 481
55.17611 529
55.19622 560
55.21634 571
55.23645 555
55.25656 552
55.27668 529
55.29679 546
55.3169 465
55.33702 458
55.35713 435
55.37724 409
55.39736 401
55.41747 396
55.43759 352
55.4577 357
55.47781 318
55.49793 338
55.51804 282
55.53815 272
55.55827 247
55.57838 285
55.5985 274
55.61861 253
55.63872 251
55.65884 242
55.67895 248
55.69906 262
55.71918 252
55.73929 267
55.75941 234
55.77952 258
55.79963 220
55.81975 257
55.83986 269
55.85997 256
55.88009 262
55.9002 265
55.92031 236
55.94043 251
55.96054 234
55.98066 214
56.00077 244
56.02088 233
56.041 220
56.06111 215
56.08122 239
56.10134 247
56.12145 242
56.14157 230
56.16168 238
56.18179 235
56.20191 239
56.22202 223
56.24213 255
56.26225 254
56.28236 231
56.30248 253
56.32259 242
56.3427 224
56.36282 217
56.38293 242
56.40304 248
56.42316 229
56.44327 261
56.46338 248
56.4835 236
56.50361 243
56.52373 243
56.54384 244
56.56395 214
56.58407 222
56.60418 226
56.62429 228
56.64441 235
56.66452 228
56.68464 234
56.70475 208
56.72486 229
56.74498 243
56.76509 246
56.7852 244
56.80532 229
56.82543 219
56.84554 225
56.86566 247
56.88577 217
56.90589 245
56.926 215
56.94611 202
56.96623 249
56.98634 248
57.00645 236
57.02657 241
57.04668 252
57.0668 230
57.08691 233
57.10702 220
57.12714 250
57.14725 272
57.16736 227
57.18748 252
57.20759 237
57.22771 236
57.24782 256
57.26793 251
57.28805 248
57.30816 232
57.32827 204
57.34839 226
57.3685 220
57.38861 217
57.40873 207
57.42884 214
57.44896 223
57.46907 216
57.48918 223
57.5093 206
57.52941 223
57.54952 219
57.56964 220
57.58975 214
57.60987 204
57.62998 238
57.65009 208
57.67021 220
57.69032 227
57.71043 226
57.73055 217
57.75066 206
57.77078 242
57.79089 204
57.811 205
57.83112 240
57.85123 210
57.87134 210
57.89146 209
57.91157 204
57.93168 228
57.9518 229
57.97191 202
57.99203 226
58.01214 202
58.03225 236
58.05237 247
58.07248 254
58.09259 198
58.11271 195
58.13282 224
58.15294 223
58.17305 213
58.19316 203
58.21328 232
58.23339 204
58.2535 208
58.27362 184
58.29373 228
58.31385 203
58.33396 219
58.35407 212
58.37419 212
58.3943 192
58.41441 207
58.43453 204
58.45464 205
58.47475 207
58.49487 221
58.51498 206
58.5351 236
58.55521 189
58.57532 215
58.59544 186
58.61555 192
58.63566 230
58.65578 214
58.67589 184
58.69601 191
58.71612 237
58.73623 261
58.75635 221
58.77646 222
58.79657 210
58.81669 223
58.8368 212
58.85691 204
58.87703 209
58.89714 199
58.91726 217
58.93737 213
58.95748 219
58.9776 221
58.99771 238
59.01782 213
59.03794 205
59.05805 235
59.07817 206
59.09828 219
59.11839 200
59.13851 227
59.15862 237
59.17873 244
59.19885 261
59.21896 233
59.23908 244
59.25919 246
59.2793 236
59.29942 256
59.31953 238
59.33964 273
59.35976 258
59.37987 244
59.39998 267
59.4201 273
59.44021 279
59.46033 311
59.48044 324
59.50055 337
59.52067 343
59.54078 381
59.56089 396
59.58101 416
59.60112 479
59.62124 458
59.64135 505
59.66146 607
59.68158 648
59.70169 718
59.7218 815
59.74192 897
59.76203 1060
59.78215 1280
59.80226 1377
59.82237 1497
59.84249 1573
59.8626 1693
59.88271 1647
59.90283 1514
59.92294 1389
59.94305 1308
59.96317 1183
59.98328 1042
60.0034 945
60.02351 967
60.04362 937
60.06374 843
60.08385 726
60.10396 602
60.12408 565
60.14419 432
60.16431 342
60.18442 339
60.20453 308
60.22465 285
60.24476 302
60.26487 240
60.28499 236
60.3051 239
60.32522 232
60.34533 226
60.36544 239
60.38556 260
60.40567 240
60.42578 216
60.4459 242
60.46601 239
60.48612 235
60.50624 223
60.52635 218
60.54647 221
60.56658 223
60.58669 208
60.60681 231
60.62692 227
60.64703 212
60.66715 216
60.68726 220
60.70738 210
60.72749 242
60.7476 229
60.76772 227
60.78783 216
60.80794 204
60.82806 227
60.84817 207
60.86828 207
60.8884 212
60.90851 203
60.92863 200
60.94874 183
60.96885 205
60.98897 216
61.00908 213
61.02919 223
61.04931 230
61.06942 235
61.08954 219
61.10965 216
61.12976 195
61.14988 216
61.16999 214
61.1901 217
61.21022 187
61.23033 223
61.25045 208
61.27056 201
61.29067 234
61.31079 240
61.3309 227
61.35101 203
61.37113 244
61.39124 208
61.41135 199
61.43147 219
61.45158 228
61.4717 195
61.49181 202
61.51192 237
61.53204 235
61.55215 219
61.57226 223
61.59238 199
61.61249 225
61.63261 217
61.65272 255
61.67283 236
61.69295 222
61.71306 219
61.73317 234
61.75329 247
61.7734 252
61.79352 229
61.81363 241
61.83374 245
61.85386 241
61.87397 244
61.89408 243
61.9142 269
61.93431 262
61.95442 262
61.97454 282
61.99465 287
62.01477 289
62.03488 269
62.05499 306
62.07511 304
62.09522 317
62.11533 310
62.13545 325
62.15556 357
62.17568 318
62.19579 362
62.2159 316
62.23602 314
62.25613 318
62.27624 325
62.29636 322
62.31647 311
62.33659 285
62.3567 300
62.37681 275
62.39693 297
62.41704 287
62.43715 294
62.45727 267
62.47738 279
62.49749 257
62.51761 255
62.53772 194
62.55784 233
62.57795 248
62.59806 217
62.61818 230
62.63829 212
62.6584 211
62.67852 238
62.69863 238
62.71875 226
62.73886 214
62.75897 204
62.77909 218
62.7992 211
62.81931 211
62.83943 213
62.85954 228
62.87965 199
62.89977 257
62.91988 204
62.94 206
62.96011 218
62.98022 189
63.00034 206
63.02045 230
63.04056 224
63.06068 194
63.08079 226
63.10091 211
63.12102 224
63.14113 226
63.16125 187
63.18136 197
63.20147 220
63.22159 211
63.2417 218
63.26182 203
63.28193 240
63.30204 222
63.32216 209
63.34227 222
63.36238 214
63.3825 212
63.40261 214
63.42272 215
63.44284 234
63.46295 237
63.48307 227
63.50318 209
63.52329 226
63.54341 258
63.56352 225
63.58363 258
63.60375 238
63.62386 238
63.64398 251
63.66409 246
63.6842 290
63.70432 268
63.72443 280
63.74454 323
63.76466 326
63.78477 341
63.80489 309
63.825 390
63.84511 372
63.86523 390
63.88534 445
63.90545 434
63.92557 486
63.94568 485
63.96579 501
63.98591 443
64.00602 444
64.02614 396
64.04625 378
64.06636 359
64.08648 350
64.10659 341
64.1267 320
64.14682 313
64.16693 331
64.18705 296
64.20716 259
64.22727 266
64.24739 237
64.2675 235
64.28761 195
64.30773 214
64.32784 223
64.34796 207
64.36807 201
64.38818 228
64.4083 212
64.42841 186
64.44852 193
64.46864 211
64.48875 185
64.50886 206
64.52898 200
64.54909 200
64.56921 198
64.58932 214
64.60943 200
64.62955 194
64.64966 192
64.66977 212
64.68989 193
64.71 190
64.73012 187
64.75023 207
64.77034 188
64.79046 216
64.81057 199
64.83068 191
64.8508 189
64.87091 199
64.89102 209
64.91114 193
64.93125 176
64.95137 180
64.97148 185
64.99159 225
65.01171 211
65.03182 210
65.05193 194
65.07205 184
65.09216 212
65.11228 179
65.13239 174
65.1525 198
65.17262 192
65.19273 199
65.21284 205
65.23296 193
65.25307 213
65.27319 194
65.2933 204
65.31341 203
65.33353 185
65.35364 240
65.37375 185
65.39387 199
65.41398 228
65.43409 229
65.45421 206
65.47432 236
65.49444 227
65.51455 192
65.53466 213
65.55478 219
65.57489 259
65.595 233
65.61512 275
65.63523 276
65.65535 289
65.67546 284
65.69557 284
65.71569 259
65.7358 224
65.75591 247
65.77603 244
65.79614 222
65.81626 213
65.83637 238
65.85648 223
65.8766 223
65.89671 226
65.91682 223
65.93694 242
65.95705 196
65.97716 218
65.99728 203
66.01739 212
66.03751 212
66.05762 224
66.07773 175
66.09785 171
66.11796 192
66.13807 197
66.15819 193
66.1783 193
66.19842 208
66.21853 210
66.23864 229
66.25876 197
66.27887 216
66.29898 202
66.3191 187
66.33921 197
66.35933 212
66.37944 178
66.39955 239
66.41967 236
66.43978 205
66.45989 208
66.48001 245
66.50012 210
66.52023 192
66.54035 216
66.56046 199
66.58058 197
66.60069 213
66.6208 204
66.64092 201
66.66103 212
66.68114 192
66.70126 184
66.72137 233
66.74149 225
66.7616 198
66.78171 214
66.80183 223
66.82194 213
66.84205 216
66.86217 191
66.88228 226
66.90239 233
66.92251 229
66.94262 224
66.96274 253
66.98285 218
67.00296 222
67.02308 202
67.04319 255
67.0633 219
67.08342 239
67.10353 235
67.12365 252
67.14376 242
67.16387 257
67.18399 265
67.2041 237
67.22421 273
67.24433 282
67.26444 262
67.28456 296
67.30467 255
67.32478 310
67.3449 330
67.36501 334
67.38512 383
67.40524 401
67.42535 406
67.44546 455
67.46558 469
67.48569 527
67.50581 595
67.52592 619
67.54603 736
67.56615 827
67.58626 940
67.60637 1010
67.62649 978
67.6466 1042
67.66672 983
67.68683 974
67.70694 905
67.72706 822
67.74717 811
67.76728 794
67.7874 801
67.80751 801
67.82763 854
67.84774 901
67.86785 904
67.88797 936
67.90808 950
67.92819 982
67.94831 1025
67.96842 1141
67.98853 1141
68.00865 1252
68.02876 1342
68.04888 1354
68.06899 1438
68.0891 1380
68.10922 1305
68.12933 1349
68.14944 1212
68.16956 1231
68.18967 1291
68.20979 1285
68.2299 1305
68.25001 1266
68.27013 1004
68.29024 941
68.31035 844
68.33047 755
68.35058 655
68.3707 591
68.39081 546
68.41092 539
68.43104 525
68.45115 420
68.47126 422
68.49138 355
68.51149 345
68.5316 283
68.55172 273
68.57183 266
68.59195 267
68.61206 245
68.63217 247
68.65229 240
68.6724 247
68.69251 227
68.71263 225
68.73274 257
68.75286 224
68.77297 235
68.79308 211
68.8132 231
68.83331 199
68.85342 233
68.87354 189
68.89365 224
68.91376 242
68.93388 217
68.95399 192
68.97411 206
68.99422 229
69.01433 190
69.03445 200
69.05456 224
69.07467 195
69.09479 209
69.1149 191
69.13502 185
69.15513 231
69.17524 200
69.19536 192
69.21547 219
69.23558 200
69.2557 209
69.27581 202
69.29593 211
69.31604 181
69.33615 207
69.35627 206
69.37638 220
69.39649 195
69.41661 212
69.43672 178
69.45683 194
69.47695 193
69.49706 176
69.51718 199
69.53729 192
69.5574 210
69.57752 186
69.59763 176
69.61774 187
69.63786 191
69.65797 184
69.67809 187
69.6982 178
69.71831 201
69.73843 191
69.75854 218
69.77865 180
69.79877 206
69.81888 202
69.839 165
69.85911 187
69.87922 201
69.89934 195
69.91945 188
69.93956 201
69.95968 188
69.97979 216
69.9999 220
70.02002 194
70.04013 192
70.06025 204
70.08036 200
70.10047 205
70.12059 196
70.1407 177
70.16081 191
70.18093 189
70.20104 223
70.22116 197
70.24127 178
70.26138 199
70.2815 190
70.30161 173
70.32172 196
70.34184 193
70.36195 201
70.38207 195
70.40218 201
70.42229 199
70.44241 187
70.46252 180
70.48263 168
70.50275 186
70.52286 189
70.54297 176
70.56309 175
70.5832 196
70.60332 159
70.62343 171
70.64354 177
70.66366 200
70.68377 194
70.70388 180
70.724 198
70.74411 175
70.76423 182
70.78434 191
70.80445 191
70.82457 201
70.84468 184
70.86479 211
70.88491 172
70.90502 207
70.92513 206
70.94525 175
70.96536 170
70.98548 164
71.00559 175
71.0257 193
71.04582 202
71.06593 196
71.08604 192
71.10616 191
71.12627 197
71.14639 188
71.1665 178
71.18661 183
71.20673 171
71.22684 185
71.24695 187
71.26707 194
71.28718 193
71.3073 205
71.32741 176
71.34752 186
71.36764 180
71.38775 174
71.40786 186
71.42798 191
71.44809 180
71.4682 195
71.48832 199
71.50843 184
71.52855 200
71.54866 207
71.56877 172
71.58889 168
71.609 199
71.62911 179
71.64923 198
71.66934 223
71.68946 193
71.70957 218
71.72968 184
71.7498 192
71.76991 175
71.79002 177
71.81014 177
71.83025 182
71.85037 190
71.87048 195
71.89059 177
71.91071 200
71.93082 186
71.95093 165
71.97105 183
71.99116 195
72.01127 178
72.03139 167
72.0515 198
72.07162 196
72.09173 180
72.11184 190
72.13196 185
72.15207 199
72.17218 181
72.1923 192
72.21241 203
72.23253 220
72.25264 184
72.27275 197
72.29287 211
72.31298 189
72.33309 196
72.35321 194
72.37332 190
72.39344 209
72.41355 187
72.43366 201
72.45378 180
72.47389 176
72.494 190
72.51412 212
72.53423 196
72.55434 185
72.57446 184
72.59457 188
72.61469 168
72.6348 171
72.65491 171
72.67503 195
72.69514 174
72.71525 176
72.73537 201
72.75548 202
72.7756 196
72.79571 203
72.81582 194
72.83594 196
72.85605 195
72.87616 222
72.89628 187
72.91639 206
72.9365 217
72.95662 200
72.97673 219
72.99685 206
73.01696 209
73.03707 226
73.05719 222
73.0773 246
73.09741 249
73.11753 234
73.13764 265
73.15776 282
73.17787 280
73.19798 322
73.2181 283
73.23821 320
73.25832 373
73.27844 402
73.29855 410
73.31867 427
73.33878 442
73.35889 480
73.37901 494
73.39912 436
73.41923 451
73.43935 349
73.45946 374
73.47957 357
73.49969 340
73.5198 345
73.53992 327
73.56003 314
73.58014 349
73.60026 306
73.62037 286
73.64048 323
73.6606 274
73.68071 241
73.70083 232
73.72094 222
73.74105 235
73.76117 215
73.78128 196
73.80139 190
73.82151 202
73.84162 238
73.86174 204
73.88185 214
73.90196 190
73.92208 191
73.94219 197
73.9623 190
73.98242 179
74.00253 189
74.02264 174
74.04276 195
74.06287 185
74.08299 190
74.1031 187
74.12321 212
74.14333 197
74.16344 177
74.18355 185
74.20367 180
74.22378 178
74.2439 201
74.26401 199
74.28412 170
74.30424 177
74.32435 171
74.34446 183
74.36458 176
74.38469 160
74.40481 178
74.42492 214
74.44503 186
74.46515 187
74.48526 205
74.50537 185
74.52549 159
74.5456 180
74.56571 176
74.58583 186
74.60594 175
74.62606 214
74.64617 188
74.66628 174
74.6864 200
74.70651 177
74.72662 180
74.74674 183
74.76685 198
74.78697 188
74.80708 179
74.82719 186
74.84731 175
74.86742 183
74.88753 199
74.90765 183
74.92776 178
74.94787 166
74.96799 197
74.9881 196
75.00822 180
