3.00117 20579
3.02128 20329
3.0414 19935
3.06151 19163
3.08162 18964
3.10174 18291
3.12185 18023
3.14197 17387
3.16208 16713
3.18219 16821
3.20231 15586
3.22242 15660
3.24253 14986
3.26265 14088
3.28276 14199
3.30288 13597
3.32299 13208
3.3431 13110
3.36322 12391
3.38333 12099
3.40344 11441
3.42356 11127
3.44367 11122
3.46379 10388
3.4839 10210
3.50401 9759
3.52413 9435
3.54424 9122
3.56435 8796
3.58447 8755
3.60458 8228
3.62469 7989
3.64481 7870
3.66492 7205
3.68504 7137
3.70515 6914
3.72526 6644
3.74538 6203
3.76549 5766
3.7856 5905
3.80572 5435
3.82583 5319
3.84595 5248
3.86606 4769
3.88617 4854
3.90629 4479
3.9264 4273
3.94651 4096
3.96663 3836
3.98674 3791
4.00686 3515
4.02697 3481
4.04708 3315
4.0672 3068
4.08731 2979
4.10742 3024
4.12754 2808
4.14765 2859
4.16776 2397
4.18788 2425
4.20799 2291
4.22811 2235
4.24822 2317
4.26833 2040
4.28845 2064
4.30856 1913
4.32867 1983
4.34879 1906
4.3689 1739
4.38902 1776
4.40913 1723
4.42924 1670
4.44936 1672
4.46947 1525
4.48958 1513
4.5097 1474
4.52981 1502
4.54992 1443
4.57004 1293
4.59015 1362
4.61027 1324
4.63038 1332
4.65049 1272
4.67061 1182
4.69072 1164
4.71083 1202
4.73095 1240
4.75106 1138
4.77118 1080
4.79129 1140
4.8114 1054
4.83152 1036
4.85163 1077
4.87174 929
4.89186 957
4.91197 965
4.93209 955
4.9522 903
4.97231 898
4.99243 870
5.01254 949
5.03265 919
5.05277 799
5.07288 786
5.09299 857
5.11311 797
5.13322 803
5.15334 813
5.17345 705
5.19356 743
5.21368 801
5.23379 694
5.2539 705
5.27402 741
5.29413 645
5.31425 664
5.33436 639
5.35447 588
5.37459 642
5.3947 611
5.41481 620
5.43493 681
5.45504 586
5.47516 545
5.49527 526
5.51538 579
5.5355 530
5.55561 518
5.57572 568
5.59584 559
5.61595 508
5.63606 518
5.65618 484
5.67629 511
5.69641 543
5.71652 448
5.73663 474
5.75675 438
5.77686 477
5.79697 484
5.81709 442
5.8372 503
5.85732 437
5.87743 429
5.89754 428
5.91766 436
5.93777 418
5.95788 438
5.978 443
5.99811 451
6.01823 449
6.03834 441
6.05845 426
6.07857 422
6.09868 411
6.11879 399
6.13891 473
6.15902 425
6.17913 421
6.19925 416
6.21936 401
6.23948 387
6.25959 387
6.2797 396
6.29982 427
6.31993 433
6.34004 397
6.36016 369
6.38027 411
6.40039 411
6.4205 358
6.44061 396
6.46073 382
6.48084 403
6.50095 388
6.52107 376
6.54118 380
6.56129 387
6.58141 420
6.60152 406
6.62164 369
6.64175 389
6.66186 423
6.68198 380
6.70209 391
6.7222 426
6.74232 386
6.76243 390
6.78255 393
6.80266 398
6.82277 392
6.84289 427
6.863 386
6.88311 406
6.90323 423
6.92334 399
6.94346 402
6.96357 412
6.98368 348
7.0038 372
7.02391 361
7.04402 386
7.06414 377
7.08425 384
7.10436 396
7.12448 340
7.14459 397
7.16471 365
7.18482 358
7.20493 377
7.22505 407
7.24516 410
7.26527 404
7.28539 389
7.3055 357
7.32562 363
7.34573 371
7.36584 375
7.38596 348
7.40607 379
7.42618 360
7.4463 366
7.46641 382
7.48653 349
7.50664 369
7.52675 358
7.54687 369
7.56698 397
7.58709 410
7.60721 380
7.62732 390
7.64743 351
7.66755 365
7.68766 407
7.70778 416
7.72789 374
7.748 377
7.76812 383
7.78823 376
7.80834 356
7.82846 371
7.84857 411
7.86869 351
7.8888 367
7.90891 333
7.92903 382
7.94914 371
7.96925 372
7.98937 358
8.00948 445
8.0296 384
8.04971 363
8.06982 389
8.08994 399
8.11005 390
8.13016 388
8.15028 370
8.17039 365
8.1905 392
8.21062 398
8.23073 396
8.25085 355
8.27096 393
8.29107 375
8.31119 392
8.3313 390
8.35141 392
8.37153 399
8.39164 348
8.41176 371
8.43187 410
8.45198 417
8.4721 367
8.49221 388
8.51232 336
8.53244 375
8.55255 414
8.57266 397
8.59278 390
8.61289 410
8.63301 380
8.65312 401
8.67323 389
8.69335 373
8.71346 396
8.73357 397
8.75369 396
8.7738 403
8.79392 403
8.81403 402
8.83414 378
8.85426 397
8.87437 390
8.89448 359
8.9146 377
8.93471 375
8.95483 386
8.97494 399
8.99505 373
9.01517 398
9.03528 369
9.05539 420
9.07551 371
9.09562 404
9.11573 359
9.13585 394
9.15596 383
9.17608 403
9.19619 425
9.2163 378
9.23642 380
9.25653 385
9.27664 359
9.29676 361
9.31687 390
9.33699 359
9.3571 365
9.37721 404
9.39733 381
9.41744 368
9.43755 388
9.45767 404
9.47778 395
9.4979 358
9.51801 356
9.53812 382
9.55824 405
9.57835 402
9.59846 379
9.61858 385
9.63869 383
9.6588 374
9.67892 345
9.69903 411
9.71915 422
9.73926 366
9.75937 361
9.77949 361
9.7996 357
9.81971 377
9.83983 407
9.85994 408
9.88006 367
9.90017 368
9.92028 348
9.9404 392
9.96051 379
9.98062 367
10.00074 389
10.02085 342
10.04097 396
10.06108 373
10.08119 385
10.10131 405
10.12142 402
10.14153 410
10.16165 384
10.18176 362
10.20187 401
10.22199 323
10.2421 364
10.26222 430
10.28233 380
10.30244 392
10.32256 372
10.34267 409
10.36278 418
10.3829 414
10.40301 393
10.42313 384
10.44324 426
10.46335 387
10.48347 388
10.50358 410
10.52369 420
10.54381 479
10.56392 410
10.58403 471
10.60415 421
10.62426 444
10.64438 412
10.66449 417
10.6846 416
10.70472 411
10.72483 367
10.74494 379
10.76506 399
10.78517 372
10.80529 414
10.8254 412
10.84551 367
10.86563 391
10.88574 396
10.90585 389
10.92597 365
10.94608 412
10.9662 376
10.98631 412
11.00642 369
11.02654 386
11.04665 406
11.06676 362
11.08688 394
11.10699 398
11.1271 386
11.14722 420
11.16733 394
11.18745 404
11.20756 425
11.22767 417
11.24779 381
11.2679 377
11.28801 389
11.30813 373
11.32824 423
11.34836 395
11.36847 433
11.38858 436
11.4087 408
11.42881 451
11.44892 384
11.46904 377
11.48915 426
11.50927 415
11.52938 390
11.54949 364
11.56961 390
11.58972 421
11.60983 422
11.62995 423
11.65006 417
11.67017 453
11.69029 406
11.7104 416
11.73052 441
11.75063 407
11.77074 423
11.79086 455
11.81097 424
11.83108 451
11.8512 483
11.87131 469
11.89143 481
11.91154 510
11.93165 481
11.95177 511
11.97188 497
11.99199 534
12.01211 565
12.03222 511
12.05234 588
12.07245 555
12.09256 587
12.11268 664
12.13279 654
12.1529 679
12.17302 710
12.19313 722
12.21324 814
12.23336 803
12.25347 800
12.27359 792
12.2937 836
12.31381 882
12.33393 862
12.35404 849
12.37415 847
12.39427 834
12.41438 782
12.4345 763
12.45461 722
12.47472 680
12.49484 632
12.51495 611
12.53506 622
12.55518 596
12.57529 533
12.5954 490
12.61552 548
12.63563 486
12.65575 456
12.67586 456
12.69597 494
12.71609 423
12.7362 423
12.75631 406
12.77643 416
12.79654 419
12.81666 394
12.83677 413
12.85688 393
12.877 421
12.89711 403
12.91722 413
12.93734 391
12.95745 419
12.97757 377
12.99768 373
13.01779 400
13.03791 393
13.05802 410
13.07813 366
13.09825 378
13.11836 406
13.13847 365
13.15859 424
13.1787 379
13.19882 391
13.21893 388
13.23904 369
13.25916 373
13.27927 408
13.29938 386
13.3195 398
13.33961 394
13.35973 358
13.37984 374
13.39995 374
13.42007 359
13.44018 346
13.46029 380
13.48041 353
13.50052 375
13.52064 399
13.54075 359
13.56086 365
13.58098 383
13.60109 401
13.6212 341
13.64132 362
13.66143 361
13.68154 414
13.70166 355
13.72177 364
13.74189 349
13.762 351
13.78211 387
13.80223 362
13.82234 357
13.84245 405
13.86257 405
13.88268 343
13.9028 372
13.92291 407
13.94302 351
13.96314 373
13.98325 367
14.00336 329
14.02348 382
14.04359 364
14.06371 364
14.08382 335
14.10393 350
14.12405 364
14.14416 367
14.16427 340
14.18439 364
14.2045 351
14.22461 338
14.24473 335
14.26484 348
14.28496 378
14.30507 369
14.32518 340
14.3453 354
14.36541 357
14.38552 329
14.40564 372
14.42575 360
14.44587 356
14.46598 394
14.48609 382
14.50621 355
14.52632 390
14.54643 340
14.56655 358
14.58666 359
14.60677 358
14.62689 372
14.647 360
14.66712 358
14.68723 336
14.70734 349
14.72746 327
14.74757 373
14.76768 358
14.7878 344
14.80791 374
14.82803 346
14.84814 340
14.86825 346
14.88837 418
14.90848 321
14.92859 376
14.94871 359
14.96882 317
14.98894 377
15.00905 352
15.02916 377
15.04928 353
15.06939 319
15.0895 374
15.10962 355
15.12973 357
15.14984 369
15.16996 350
15.19007 375
15.21019 381
15.2303 340
15.25041 327
15.27053 357
15.29064 362
15.31075 371
15.33087 375
15.35098 332
15.3711 352
15.39121 370
15.41132 345
15.43144 361
15.45155 357
15.47166 329
15.49178 340
15.51189 368
15.53201 359
15.55212 366
15.57223 359
15.59235 338
15.61246 366
15.63257 367
15.65269 363
15.6728 345
15.69291 346
15.71303 329
15.73314 325
15.75326 334
15.77337 347
15.79348 328
15.8136 361
15.83371 321
15.85382 325
15.87394 356
15.89405 360
15.91417 329
15.93428 375
15.95439 354
15.97451 355
15.99462 340
16.01473 324
16.03485 368
16.05496 365
16.07508 375
16.09519 370
16.1153 367
16.13542 330
16.15553 365
16.17564 380
16.19576 336
16.21587 368
16.23598 339
16.2561 342
16.27621 316
16.29633 338
16.31644 381
16.33655 368
16.35667 357
16.37678 320
16.39689 306
16.41701 338
16.43712 348
16.45724 301
16.47735 381
16.49746 357
16.51758 364
16.53769 357
16.5578 327
16.57792 337
16.59803 335
16.61814 339
16.63826 348
16.65837 336
16.67849 310
16.6986 385
16.71871 331
16.73883 351
16.75894 350
16.77905 321
16.79917 346
16.81928 348
16.8394 355
16.85951 371
16.87962 320
16.89974 361
16.91985 376
16.93996 337
16.96008 349
16.98019 353
17.00031 355
17.02042 368
17.04053 357
17.06065 352
17.08076 348
17.10087 347
17.12099 350
17.1411 341
17.16121 370
17.18133 375
17.20144 343
17.22156 332
17.24167 359
17.26178 337
17.2819 349
17.30201 366
17.32212 381
17.34224 364
17.36235 346
17.38247 351
17.40258 341
17.42269 333
17.44281 332
17.46292 319
17.48303 322
17.50315 402
17.52326 370
17.54338 369
17.56349 358
17.5836 360
17.60372 360
17.62383 364
17.64394 380
17.66406 366
17.68417 377
17.70428 366
17.7244 354
17.74451 363
17.76463 374
17.78474 340
17.80485 383
17.82497 367
17.84508 342
17.86519 407
17.88531 362
17.90542 368
17.92554 338
17.94565 361
17.96576 328
17.98588 369
18.00599 363
18.0261 372
18.04622 359
18.06633 323
18.08645 346
18.10656 382
18.12667 335
18.14679 364
18.1669 355
18.18701 342
18.20713 364
18.22724 360
18.24735 360
18.26747 329
18.28758 368
18.3077 385
18.32781 351
18.34792 350
18.36804 386
18.38815 348
18.40826 362
18.42838 381
18.44849 336
18.46861 357
18.48872 339
18.50883 327
18.52895 356
18.54906 387
18.56917 382
18.58929 372
18.6094 318
18.62951 363
18.64963 339
18.66974 376
18.68986 373
18.70997 371
18.73008 371
18.7502 370
18.77031 365
18.79042 371
18.81054 401
18.83065 367
18.85077 384
18.87088 383
18.89099 390
18.91111 373
18.93122 416
18.95133 356
18.97145 348
18.99156 356
19.01168 364
19.03179 382
19.0519 349
19.07202 350
19.09213 359
19.11224 339
19.13236 388
19.15247 326
19.17258 354
19.1927 353
19.21281 387
19.23293 350
19.25304 334
19.27315 393
19.29327 342
19.31338 358
19.33349 379
19.35361 351
19.37372 399
19.39384 393
19.41395 373
19.43406 388
19.45418 382
19.47429 441
19.4944 416
19.51452 409
19.53463 407
19.55475 375
19.57486 391
19.59497 374
19.61509 426
19.6352 439
19.65531 446
19.67543 450
19.69554 514
19.71565 511
19.73577 561
19.75588 601
19.776 592
19.79611 637
19.81622 690
19.83634 701
19.85645 664
19.87656 668
19.89668 651
19.91679 658
19.93691 661
19.95702 647
19.97713 611
19.99725 640
20.01736 599
20.03747 596
20.05759 613
20.0777 548
20.09782 590
20.11793 644
20.13804 591
20.15816 637
20.17827 643
20.19838 598
20.2185 628
20.23861 608
20.25872 595
20.27884 623
20.29895 661
20.31907 615
20.33918 609
20.35929 624
20.37941 719
20.39952 626
20.41963 650
20.43975 662
20.45986 661
20.47998 720
20.50009 676
20.5202 695
20.54032 691
20.56043 724
20.58054 717
20.60066 802
20.62077 823
20.64088 935
20.661 1058
20.68111 1158
20.70123 1407
20.72134 1690
20.74145 2154
20.76157 2609
20.78168 3002
20.80179 3395
20.82191 3327
20.84202 3230
20.86214 3043
20.88225 2557
20.90236 2062
20.92248 1593
20.94259 1242
20.9627 919
20.98282 808
21.00293 749
21.02305 672
21.04316 738
21.06327 740
21.08339 748
21.1035 717
21.12361 656
21.14373 691
21.16384 732
21.18395 747
21.20407 709
21.22418 726
21.2443 695
21.26441 755
21.28452 723
21.30464 766
21.32475 703
21.34486 765
21.36498 707
21.38509 695
21.40521 667
21.42532 664
21.44543 660
21.46555 652
21.48566 649
21.50577 570
21.52589 594
21.546 591
21.56612 552
21.58623 571
21.60634 573
21.62646 546
21.64657 572
21.66668 559
21.6868 549
21.70691 531
21.72702 600
21.74714 541
21.76725 521
21.78737 490
21.80748 533
21.82759 563
21.84771 486
21.86782 528
21.88793 510
21.90805 510
21.92816 527
21.94828 483
21.96839 536
21.9885 461
22.00862 527
22.02873 534
22.04884 444
22.06896 508
22.08907 482
22.10919 532
22.1293 501
22.14941 472
22.16953 500
22.18964 505
22.20975 508
22.22987 505
22.24998 504
22.27009 499
22.29021 464
22.31032 526
22.33044 473
22.35055 449
22.37066 448
22.39078 466
22.41089 466
22.431 446
22.45112 418
22.47123 467
22.49135 456
22.51146 447
22.53157 448
22.55169 459
22.5718 438
22.59191 453
22.61203 493
22.63214 459
22.65225 474
22.67237 448
22.69248 493
22.7126 423
22.73271 482
22.75282 453
22.77294 414
22.79305 464
22.81316 434
22.83328 484
22.85339 481
22.87351 425
22.89362 410
22.91373 451
22.93385 468
22.95396 388
22.97407 454
22.99419 453
23.0143 397
23.03442 416
23.05453 444
23.07464 454
23.09476 438
23.11487 429
23.13498 420
23.1551 433
23.17521 440
23.19532 414
23.21544 411
23.23555 458
23.25567 444
23.27578 410
23.29589 425
23.31601 401
23.33612 418
23.35623 430
23.37635 439
23.39646 429
23.41658 435
23.43669 449
23.4568 448
23.47692 452
23.49703 424
23.51714 471
23.53726 415
23.55737 425
23.57749 417
23.5976 462
23.61771 440
23.63783 477
23.65794 469
23.67805 448
23.69817 438
23.71828 466
23.73839 486
23.75851 453
23.77862 474
23.79874 491
23.81885 474
23.83896 467
23.85908 472
23.87919 474
23.8993 438
23.91942 475
23.93953 489
23.95965 494
23.97976 478
23.99987 468
24.01999 474
24.0401 480
24.06021 518
24.08033 493
24.10044 497
24.12056 493
24.14067 437
24.16078 467
24.1809 495
24.20101 467
24.22112 508
24.24124 437
24.26135 492
24.28146 454
24.30158 475
24.32169 460
24.34181 505
24.36192 498
24.38203 512
24.40215 487
24.42226 486
24.44237 512
24.46249 486
24.4826 539
24.50272 560
24.52283 547
24.54294 500
24.56306 541
24.58317 527
24.60328 643
24.6234 586
24.64351 552
24.66362 598
24.68374 620
24.70385 622
24.72397 730
24.74408 698
24.76419 740
24.78431 747
24.80442 767
24.82453 776
24.84465 780
24.86476 733
24.88488 743
24.90499 763
24.9251 715
24.94522 762
24.96533 742
24.98544 669
25.00556 652
25.02567 681
25.04579 632
25.0659 601
25.08601 649
25.10613 611
25.12624 588
25.14635 572
25.16647 589
25.18658 573
25.20669 524
25.22681 534
25.24692 541
25.26704 505
25.28715 462
25.30726 532
25.32738 525
25.34749 499
25.3676 506
25.38772 483
25.40783 487
25.42795 450
25.44806 459
25.46817 462
25.48829 465
25.5084 477
25.52851 484
25.54863 478
25.56874 495
25.58886 458
25.60897 456
25.62908 498
25.6492 482
25.66931 496
25.68942 481
25.70954 528
25.72965 511
25.74976 514
25.76988 511
25.78999 525
25.81011 512
25.83022 562
25.85033 535
25.87045 547
25.89056 557
25.91067 592
25.93079 515
25.9509 558
25.97102 561
25.99113 560
26.01124 638
26.03136 538
26.05147 578
26.07158 597
26.0917 583
26.11181 678
26.13193 636
26.15204 639
26.17215 734
26.19227 713
26.21238 743
26.23249 795
26.25261 867
26.27272 905
26.29283 997
26.31295 1080
26.33306 1176
26.35318 1322
26.37329 1550
26.3934 1988
26.41352 2385
26.43363 2911
26.45374 3882
26.47386 5033
26.49397 6519
26.51409 8268
26.5342 10006
26.55431 12065
26.57443 13106
26.59454 13817
26.61465 13548
26.63477 12311
26.65488 10162
26.67499 8148
26.69511 6091
26.71522 4237
26.73534 2946
26.75545 1974
26.77556 1383
26.79568 1099
26.81579 967
26.8359 922
26.85602 845
26.87613 780
26.89625 761
26.91636 740
26.93647 655
26.95659 593
26.9767 638
26.99681 600
27.01693 639
27.03704 549
27.05716 554
27.07727 473
27.09738 525
27.1175 545
27.13761 521
27.15772 492
27.17784 508
27.19795 482
27.21806 486
27.23818 494
27.25829 516
27.27841 541
27.29852 469
27.31863 506
27.33875 484
27.35886 487
27.37897 501
27.39909 508
27.4192 478
27.43932 499
27.45943 467
27.47954 440
27.49966 461
27.51977 475
27.53988 462
27.56 453
27.58011 475
27.60023 435
27.62034 442
27.64045 470
27.66057 478
27.68068 429
27.70079 480
27.72091 440
27.74102 445
27.76113 445
27.78125 424
27.80136 478
27.82148 402
27.84159 455
27.8617 421
27.88182 423
27.90193 446
27.92204 469
27.94216 458
27.96227 437
27.98239 458
28.0025 436
28.02261 404
28.04273 381
28.06284 412
28.08295 423
28.10307 405
28.12318 417
28.1433 410
28.16341 420
28.18352 437
28.20364 412
28.22375 395
28.24386 408
28.26398 421
28.28409 426
28.3042 421
28.32432 417
28.34443 429
28.36455 455
28.38466 384
28.40477 398
28.42489 441
28.445 422
28.46511 447
28.48523 425
28.50534 413
28.52546 432
28.54557 438
28.56568 420
28.5858 417
28.60591 412
28.62602 398
28.64614 432
28.66625 426
28.68636 402
28.70648 398
28.72659 393
28.74671 426
28.76682 405
28.78693 396
28.80705 433
28.82716 400
28.84727 398
28.86739 388
28.8875 405
28.90762 455
28.92773 393
28.94784 406
28.96796 422
28.98807 413
29.00818 438
29.0283 397
29.04841 426
29.06853 424
29.08864 406
29.10875 472
29.12887 436
29.14898 423
29.16909 399
29.18921 410
29.20932 405
29.22943 384
29.24955 406
29.26966 412
29.28978 427
29.30989 428
29.33 432
29.35012 416
29.37023 408
29.39034 448
29.41046 448
29.43057 463
29.45069 473
29.4708 455
29.49091 527
29.51103 577
29.53114 590
29.55125 677
29.57137 599
29.59148 680
29.6116 641
29.63171 578
29.65182 559
29.67194 545
29.69205 487
29.71216 466
29.73228 417
29.75239 425
29.7725 420
29.79262 395
29.81273 424
29.83285 389
29.85296 398
29.87307 382
29.89319 417
29.9133 408
29.93341 435
29.95353 394
29.97364 362
29.99376 398
30.01387 423
30.03398 408
30.0541 378
30.07421 378
30.09432 427
30.11444 384
30.13455 369
30.15467 415
30.17478 403
30.19489 405
30.21501 397
30.23512 391
30.25523 402
30.27535 365
30.29546 382
30.31557 408
30.33569 365
30.3558 359
30.37592 363
30.39603 377
30.41614 339
30.43626 379
30.45637 392
30.47648 385
30.4966 405
30.51671 380
30.53683 420
30.55694 385
30.57705 379
30.59717 349
30.61728 356
30.63739 407
30.65751 394
30.67762 393
30.69773 397
30.71785 371
30.73796 333
30.75808 361
30.77819 406
30.7983 416
30.81842 403
30.83853 372
30.85864 364
30.87876 421
30.89887 370
30.91899 386
30.9391 349
30.95921 367
30.97933 363
30.99944 372
31.01955 397
31.03967 369
31.05978 374
31.0799 403
31.10001 398
31.12012 382
31.14024 400
31.16035 373
31.18046 410
31.20058 427
31.22069 431
31.2408 395
31.26092 434
31.28103 443
31.30115 412
31.32126 407
31.34137 392
31.36149 435
31.3816 429
31.40171 414
31.42183 409
31.44194 415
31.46206 440
31.48217 421
31.50228 419
31.5224 448
31.54251 462
31.56262 415
31.58274 436
31.60285 454
31.62297 465
31.64308 397
31.66319 394
31.68331 337
31.70342 406
31.72353 360
31.74365 434
31.76376 369
31.78387 366
31.80399 412
31.8241 374
31.84422 386
31.86433 385
31.88444 394
31.90456 404
31.92467 380
31.94478 378
31.9649 406
31.98501 433
32.00513 411
32.02524 389
32.04535 418
32.06547 428
32.08558 390
32.10569 441
32.12581 469
32.14592 465
32.16604 459
32.18615 512
32.20626 502
32.22638 554
32.24649 502
32.2666 505
32.28672 509
32.30683 501
32.32694 533
32.34706 424
32.36717 503
32.38729 526
32.4074 521
32.42751 468
32.44763 524
32.46774 514
32.48785 486
32.50797 439
32.52808 465
32.5482 462
32.56831 465
32.58842 439
32.60854 474
32.62865 441
32.64876 451
32.66888 439
32.68899 443
32.7091 407
32.72922 437
32.74933 434
32.76945 423
32.78956 451
32.80967 475
32.82979 445
32.8499 498
32.87001 456
32.89013 484
32.91024 447
32.93036 473
32.95047 482
32.97058 488
32.9907 550
33.01081 570
33.03092 570
33.05104 562
33.07115 612
33.09127 651
33.11138 684
33.13149 741
33.15161 713
33.17172 753
33.19183 767
33.21195 733
33.23206 736
33.25217 754
33.27229 590
33.2924 668
33.31252 613
33.33263 589
33.35274 576
33.37286 536
33.39297 509
33.41308 535
33.4332 498
33.45331 520
33.47343 474
33.49354 497
33.51365 463
33.53377 448
33.55388 443
33.57399 445
33.59411 451
33.61422 475
33.63434 415
33.65445 419
33.67456 458
33.69468 453
33.71479 400
33.7349 383
33.75502 426
33.77513 406
33.79524 386
33.81536 405
33.83547 403
33.85559 395
33.8757 397
33.89581 393
33.91593 380
33.93604 398
33.95615 416
33.97627 410
33.99638 375
34.0165 370
34.03661 391
34.05672 385
34.07684 402
34.09695 380
34.11706 387
34.13718 398
34.15729 420
34.17741 392
34.19752 386
34.21763 432
34.23775 370
34.25786 391
34.27797 375
34.29809 342
34.3182 421
34.33831 399
34.35843 365
34.37854 415
34.39866 390
34.41877 405
34.43888 415
34.459 417
34.47911 410
34.49922 415
34.51934 420
34.53945 436
34.55957 468
34.57968 432
34.59979 441
34.61991 471
34.64002 479
34.66013 478
34.68025 460
34.70036 472
34.72047 517
34.74059 516
34.7607 547
34.78082 530
34.80093 546
34.82104 568
34.84116 617
34.86127 636
34.88138 653
34.9015 648
34.92161 624
34.94173 584
34.96184 615
34.98195 636
35.00207 671
35.02218 623
35.04229 643
35.06241 708
35.08252 673
35.10264 650
35.12275 626
35.14286 634
35.16298 636
35.18309 623
35.2032 578
35.22332 601
35.24343 563
35.26354 582
35.28366 549
35.30377 595
35.32389 539
35.344 580
35.36411 548
35.38423 528
35.40434 586
35.42445 554
35.44457 564
35.46468 528
35.4848 542
35.50491 542
35.52502 540
35.54514 586
35.56525 564
35.58536 573
35.60548 587
35.62559 606
35.64571 614
35.66582 590
35.68593 635
35.70605 595
35.72616 570
35.74627 606
35.76639 603
35.7865 607
35.80661 627
35.82673 603
35.84684 597
35.86696 620
35.88707 598
35.90718 598
35.9273 589
35.94741 519
35.96752 577
35.98764 574
36.00775 554
36.02787 521
36.04798 525
36.06809 493
36.08821 490
36.10832 516
36.12843 494
36.14855 506
36.16866 503
36.18878 498
36.20889 486
36.229 499
36.24912 558
36.26923 566
36.28934 571
36.30946 596
36.32957 737
36.34968 691
36.3698 832
36.38991 877
36.41003 1014
36.43014 1115
36.45025 1227
36.47037 1309
36.49048 1332
36.51059 1268
36.53071 1235
36.55082 1122
36.57094 992
36.59105 908
36.61116 851
36.63128 758
36.65139 722
36.6715 576
36.69162 543
36.71173 549
36.73184 605
36.75196 484
36.77207 490
36.79219 558
36.8123 511
36.83241 505
36.85253 525
36.87264 496
36.89275 520
36.91287 532
36.93298 503
36.9531 474
36.97321 490
36.99332 512
37.01344 512
37.03355 504
37.05366 492
37.07378 462
37.09389 468
37.11401 487
37.13412 472
37.15423 473
37.17435 492
37.19446 501
37.21457 516
37.23469 532
37.2548 614
37.27491 619
37.29503 603
37.31514 679
37.33526 691
37.35537 792
37.37548 770
37.3956 756
37.41571 733
37.43582 697
37.45594 626
37.47605 666
37.49617 570
37.51628 562
37.53639 525
37.55651 499
37.57662 544
37.59673 514
37.61685 461
37.63696 525
37.65708 458
37.67719 495
37.6973 472
37.71742 505
37.73753 507
37.75764 582
37.77776 598
37.79787 623
37.81798 606
37.8381 607
37.85821 696
37.87833 575
37.89844 631
37.91855 597
37.93867 556
37.95878 589
37.97889 552
37.99901 632
38.01912 598
38.03924 611
38.05935 614
38.07946 611
38.09958 639
38.11969 658
38.1398 605
38.15992 643
38.18003 596
38.20015 622
38.22026 685
38.24037 581
38.26049 582
38.2806 593
38.30071 599
38.32083 610
38.34094 608
38.36105 584
38.38117 623
38.40128 632
38.4214 638
38.44151 568
38.46162 568
38.48174 540
38.50185 523
38.52196 552
38.54208 529
38.56219 505
38.58231 573
38.60242 508
38.62253 512
38.64265 517
38.66276 485
38.68287 472
38.70299 524
38.7231 481
38.74321 442
38.76333 476
38.78344 450
38.80356 470
38.82367 459
38.84378 461
38.8639 439
38.88401 497
38.90412 471
38.92424 463
38.94435 504
38.96447 500
38.98458 557
39.00469 516
39.02481 511
39.04492 555
39.06503 566
39.08515 537
39.10526 550
39.12538 538
39.14549 568
39.1656 631
39.18572 587
39.20583 677
39.22594 651
39.24606 668
39.26617 728
39.28628 789
39.3064 844
39.32651 951
39.34663 1089
39.36674 1159
39.38685 1175
39.40697 1228
39.42708 1169
39.44719 1157
39.46731 1161
39.48742 1031
39.50754 913
39.52765 816
39.54776 708
39.56788 652
39.58799 598
39.6081 535
39.62822 504
39.64833 496
39.66845 480
39.68856 436
39.70867 513
39.72879 481
39.7489 465
39.76901 463
39.78913 424
39.80924 424
39.82935 455
39.84947 429
39.86958 436
39.8897 414
39.90981 488
39.92992 419
39.95004 415
39.97015 438
39.99026 451
40.01038 468
40.03049 496
40.05061 551
40.07072 568
40.09083 582
40.11095 626
40.13106 595
40.15117 700
40.17129 743
40.1914 707
40.21152 815
40.23163 799
40.25174 808
40.27186 793
40.29197 742
40.31208 705
40.3322 627
40.35231 611
40.37242 556
40.39254 521
40.41265 516
40.43277 443
40.45288 434
40.47299 437
40.49311 463
40.51322 432
40.53333 444
40.55345 412
40.57356 459
40.59368 420
40.61379 411
40.6339 426
40.65402 398
40.67413 419
40.69424 447
40.71436 376
40.73447 417
40.75458 411
40.7747 430
40.79481 450
40.81493 414
40.83504 439
40.85515 430
40.87527 428
40.89538 456
40.91549 453
40.93561 465
40.95572 423
40.97584 447
40.99595 433
41.01606 434
41.03618 450
41.05629 420
41.0764 441
41.09652 389
41.11663 448
41.13675 441
41.15686 422
41.17697 415
41.19709 440
41.2172 426
41.23731 420
41.25743 433
41.27754 412
41.29765 419
41.31777 433
41.33788 440
41.358 403
41.37811 421
41.39822 437
41.41834 398
41.43845 421
41.45856 425
41.47868 388
41.49879 422
41.51891 415
41.53902 395
41.55913 400
41.57925 426
41.59936 427
41.61947 375
41.63959 365
41.6597 409
41.67982 391
41.69993 377
41.72004 390
41.74016 400
41.76027 357
41.78038 408
41.8005 399
41.82061 371
41.84072 388
41.86084 417
41.88095 395
41.90107 374
41.92118 356
41.94129 382
41.96141 339
41.98152 373
42.00163 362
42.02175 406
42.04186 379
42.06198 387
42.08209 391
42.1022 393
42.12232 450
42.14243 455
42.16254 442
42.18266 453
42.20277 480
42.22289 499
42.243 527
42.26311 582
42.28323 627
42.30334 690
42.32345 794
42.34357 879
42.36368 933
42.38379 938
42.40391 901
42.42402 932
42.44414 876
42.46425 776
42.48436 709
42.50448 694
42.52459 621
42.5447 637
42.56482 536
42.58493 502
42.60505 471
42.62516 421
42.64527 415
42.66539 448
42.6855 419
42.70561 468
42.72573 442
42.74584 453
42.76595 472
42.78607 439
42.80618 432
42.8263 425
42.84641 438
42.86652 399
42.88664 420
42.90675 394
42.92686 389
42.94698 374
42.96709 397
42.98721 365
43.00732 375
43.02743 349
43.04755 382
43.06766 374
43.08777 331
43.10789 351
43.128 348
43.14812 345
43.16823 373
43.18834 338
43.20846 352
43.22857 403
43.24868 353
43.2688 369
43.28891 346
43.30902 327
43.32914 323
43.34925 352
43.36937 365
43.38948 319
43.40959 344
43.42971 375
43.44982 368
43.46993 353
43.49005 366
43.51016 377
43.53028 374
43.55039 332
43.5705 346
43.59062 353
43.61073 392
43.63084 370
43.65096 374
43.67107 321
43.69119 340
43.7113 328
43.73141 366
43.75153 332
43.77164 360
43.79175 357
43.81187 359
43.83198 367
43.85209 370
43.87221 347
43.89232 373
43.91244 334
43.93255 359
43.95266 362
43.97278 367
43.99289 342
44.013 324
44.03312 342
44.05323 365
44.07335 335
44.09346 355
44.11357 377
44.13369 340
44.1538 361
44.17391 350
44.19403 350
44.21414 360
44.23426 370
44.25437 331
44.27448 371
44.2946 349
44.31471 346
44.33482 367
44.35494 365
44.37505 394
44.39516 345
44.41528 344
44.43539 365
44.45551 329
44.47562 354
44.49573 364
44.51585 344
44.53596 343
44.55607 325
44.57619 373
44.5963 327
44.61642 382
44.63653 413
44.65664 347
44.67676 355
44.69687 340
44.71698 376
44.7371 380
44.75721 374
44.77732 371
44.79744 403
44.81755 370
44.83767 354
44.85778 373
44.87789 369
44.89801 376
44.91812 374
44.93823 366
44.95835 350
44.97846 388
44.99858 369
45.01869 341
45.0388 411
45.05892 384
45.07903 413
45.09914 387
45.11926 399
45.13937 401
45.15949 419
45.1796 427
45.19971 403
45.21983 435
45.23994 457
45.26005 382
45.28017 411
45.30028 392
45.32039 417
45.34051 417
45.36062 512
45.38074 442
45.40085 441
45.42096 428
45.44108 464
45.46119 480
45.4813 467
45.50142 470
45.52153 532
45.54165 509
45.56176 574
45.58187 553
45.60199 652
45.6221 699
45.64221 788
45.66233 759
45.68244 778
45.70256 866
45.72267 928
45.74278 940
45.7629 869
45.78301 824
45.80312 822
45.82324 759
45.84335 672
45.86346 665
45.88358 606
45.90369 601
45.92381 566
45.94392 479
45.96403 504
45.98415 466
46.00426 516
46.02437 485
46.04449 507
46.0646 480
46.08472 466
46.10483 435
46.12494 436
46.14506 420
46.16517 425
46.18528 415
46.2054 411
46.22551 403
46.24563 389
46.26574 354
46.28585 398
46.30597 369
46.32608 379
46.34619 377
46.36631 364
46.38642 369
46.40653 369
46.42665 380
46.44676 393
46.46688 370
46.48699 355
46.5071 349
46.52722 366
46.54733 422
46.56744 406
46.58756 392
46.60767 368
46.62779 404
46.6479 383
46.66801 367
46.68813 367
46.70824 369
46.72835 384
46.74847 401
46.76858 369
46.78869 380
46.80881 358
46.82892 379
46.84904 369
46.86915 385
46.88926 376
46.90938 376
46.92949 374
46.9496 375
46.96972 388
46.98983 353
47.00995 383
47.03006 380
47.05017 346
47.07029 366
47.0904 342
47.11051 394
47.13063 337
47.15074 348
47.17086 375
47.19097 364
47.21108 320
47.2312 384
47.25131 384
47.27142 371
47.29154 362
47.31165 368
47.33176 361
47.35188 390
47.37199 371
47.39211 356
47.41222 385
47.43233 386
47.45245 350
47.47256 361
47.49267 392
47.51279 378
47.5329 393
47.55302 375
47.57313 376
47.59324 340
47.61336 364
47.63347 347
47.65358 391
47.6737 413
47.69381 403
47.71393 354
47.73404 341
47.75415 386
47.77427 359
47.79438 385
47.81449 396
47.83461 358
47.85472 370
47.87483 384
47.89495 408
47.91506 360
47.93518 388
47.95529 391
47.9754 370
47.99552 387
48.01563 374
48.03574 346
48.05586 377
48.07597 381
48.09609 354
48.1162 388
48.13631 352
48.15643 360
48.17654 372
48.19665 350
48.21677 384
48.23688 356
48.257 370
48.27711 417
48.29722 354
48.31734 364
48.33745 394
48.35756 361
48.37768 367
48.39779 352
48.4179 375
48.43802 388
48.45813 402
48.47825 394
48.49836 367
48.51847 386
48.53859 360
48.5587 353
48.57881 393
48.59893 388
48.61904 400
48.63916 392
48.65927 400
48.67938 394
48.6995 385
48.71961 358
48.73972 365
48.75984 364
48.77995 392
48.80006 367
48.82018 389
48.84029 349
48.86041 389
48.88052 378
48.90063 414
48.92075 377
48.94086 399
48.96097 372
48.98109 364
49.0012 390
49.02132 422
49.04143 362
49.06154 383
49.08166 387
49.10177 383
49.12188 397
49.142 366
49.16211 384
49.18223 385
49.20234 391
49.22245 416
49.24257 375
49.26268 399
49.28279 421
49.30291 399
49.32302 415
49.34313 433
49.36325 385
49.38336 427
49.40348 392
49.42359 418
49.4437 429
49.46382 417
49.48393 428
49.50404 416
49.52416 422
49.54427 436
49.56439 406
49.5845 416
49.60461 392
49.62473 424
49.64484 455
49.66495 419
49.68507 434
49.70518 444
49.7253 418
49.74541 451
49.76552 467
49.78564 506
49.80575 507
49.82586 570
49.84598 595
49.86609 631
49.8862 710
49.90632 694
49.92643 861
49.94655 951
49.96666 1070
49.98677 1212
50.00689 1390
50.027 1463
50.04711 1561
50.06723 1677
50.08734 1684
50.10746 1625
50.12757 1515
50.14768 1377
50.1678 1221
50.18791 1036
50.20802 964
50.22814 919
50.24825 883
50.26837 730
50.28848 639
50.30859 529
50.32871 496
50.34882 428
50.36893 440
50.38905 421
50.40916 449
50.42927 385
50.44939 399
50.4695 433
50.48962 421
50.50973 409
50.52984 426
50.54996 401
50.57007 386
50.59018 417
50.6103 408
50.63041 388
50.65053 362
50.67064 385
50.69075 393
50.71087 398
50.73098 397
50.75109 384
50.77121 347
50.79132 409
50.81143 403
50.83155 378
50.85166 408
50.87178 355
50.89189 376
50.912 365
50.93212 348
50.95223 370
50.97234 419
50.99246 404
51.01257 362
51.03269 375
51.0528 362
51.07291 356
51.09303 378
51.11314 387
51.13325 365
51.15337 377
51.17348 355
51.1936 364
51.21371 383
51.23382 377
51.25394 378
51.27405 343
51.29416 370
51.31428 361
51.33439 385
51.3545 345
51.37462 332
51.39473 326
51.41485 362
51.43496 339
51.45507 368
51.47519 367
51.4953 358
51.51541 363
51.53553 378
51.55564 346
51.57576 367
51.59587 340
51.61598 383
51.6361 380
51.65621 363
51.67632 341
51.69644 323
51.71655 351
51.73667 368
51.75678 364
51.77689 354
51.79701 323
51.81712 377
51.83723 356
51.85735 304
51.87746 354
51.89757 356
51.91769 327
51.9378 375
51.95792 322
51.97803 361
51.99814 352
52.01826 379
52.03837 389
52.05848 343
52.0786 345
52.09871 348
52.11883 361
52.13894 369
52.15905 331
52.17917 348
52.19928 368
52.21939 359
52.23951 365
52.25962 369
52.27974 422
52.29985 357
52.31996 371
52.34008 339
52.36019 351
52.3803 361
52.40042 378
52.42053 387
52.44064 384
52.46076 362
52.48087 360
52.50099 367
52.5211 351
52.54121 356
52.56133 364
52.58144 382
52.60155 368
52.62167 370
52.64178 366
52.6619 374
52.68201 318
52.70212 360
52.72224 355
52.74235 347
52.76246 385
52.78258 401
52.80269 407
52.8228 380
52.84292 385
52.86303 385
52.88315 379
52.90326 428
52.92337 435
52.94349 395
52.9636 384
52.98371 380
53.00383 424
53.02394 370
53.04406 400
53.06417 401
53.08428 430
53.1044 400
53.12451 395
53.14462 373
53.16474 392
53.18485 403
53.20497 435
53.22508 427
53.24519 407
53.26531 409
53.28542 391
53.30553 403
53.32565 411
53.34576 406
53.36587 387
53.38599 446
53.4061 437
53.42622 451
53.44633 376
53.46644 417
53.48656 424
53.50667 410
53.52678 394
53.5469 433
53.56701 458
53.58713 425
53.60724 446
53.62735 433
53.64747 412
53.66758 389
53.68769 394
53.70781 398
53.72792 452
53.74804 424
53.76815 434
53.78826 455
53.80838 445
53.82849 453
53.8486 425
53.86872 408
53.88883 450
53.90894 469
53.92906 422
53.94917 452
53.96929 420
53.9894 456
54.00951 469
54.02963 432
54.04974 460
54.06985 453
54.08997 423
54.11008 429
54.1302 461
54.15031 438
54.17042 433
54.19054 440
54.21065 455
54.23076 451
54.25088 416
54.27099 469
54.29111 461
54.31122 446
54.33133 468
54.35145 448
54.37156 452
54.39167 446
54.41179 490
54.4319 471
54.45201 470
54.47213 462
54.49224 456
54.51236 481
54.53247 454
54.55258 458
54.5727 482
54.59281 497
54.61292 526
54.63304 547
54.65315 550
54.67327 614
54.69338 598
54.71349 687
54.73361 700
54.75372 755
54.77383 810
54.79395 809
54.81406 843
54.83417 820
54.85429 759
54.8744 717
54.89452 716
54.91463 637
54.93474 667
54.95486 614
54.97497 647
54.99508 631
55.0152 585
55.03531 595
55.05543 572
55.07554 516
55.09565 540
55.11577 545
55.13588 556
55.15599 557
55.17611 517
55.19622 634
55.21634 590
55.23645 593
55.25656 582
55.27668 602
55.29679 591
55.3169 591
55.33702 584
55.35713 509
55.37724 502
55.39736 494
55.41747 514
55.43759 499
55.4577 498
55.47781 436
55.49793 427
55.51804 438
55.53815 412
55.55827 418
55.57838 406
55.5985 379
55.61861 424
55.63872 408
55.65884 407
55.67895 424
55.69906 379
55.71918 399
55.73929 442
55.75941 404
55.77952 407
55.79963 391
55.81975 416
55.83986 430
55.85997 386
55.88009 417
55.9002 372
55.92031 370
55.94043 392
55.96054 368
55.98066 387
56.00077 404
56.02088 380
56.041 373
56.06111 387
56.08122 386
56.10134 362
56.12145 379
56.14157 430
56.16168 401
56.18179 406
56.20191 361
56.22202 379
56.24213 389
56.26225 366
56.28236 388
56.30248 385
56.32259 373
56.3427 383
56.36282 420
56.38293 369
56.40304 372
56.42316 379
56.44327 420
56.46338 383
56.4835 356
56.50361 375
56.52373 367
56.54384 357
56.56395 364
56.58407 413
56.60418 410
56.62429 370
56.64441 402
56.66452 371
56.68464 351
56.70475 392
56.72486 392
56.74498 374
56.76509 397
56.7852 402
56.80532 429
56.82543 409
56.84554 423
56.86566 430
56.88577 398
56.90589 379
56.926 391
56.94611 426
56.96623 391
56.98634 390
57.00645 408
57.02657 417
57.04668 396
57.0668 377
57.08691 382
57.10702 383
57.12714 405
57.14725 432
57.16736 425
57.18748 428
57.20759 408
57.22771 471
57.24782 413
57.26793 455
57.28805 410
57.30816 426
57.32827 452
57.34839 381
57.3685 435
57.38861 385
57.40873 403
57.42884 378
57.44896 405
57.46907 372
57.48918 410
57.5093 362
57.52941 380
57.54952 370
57.56964 408
57.58975 367
57.60987 395
57.62998 413
57.65009 355
57.67021 373
57.69032 380
57.71043 369
57.73055 360
57.75066 373
57.77078 370
57.79089 396
57.811 378
57.83112 345
57.85123 392
57.87134 364
57.89146 354
57.91157 352
57.93168 370
57.9518 392
57.97191 363
57.99203 320
58.01214 334
58.03225 368
58.05237 361
58.07248 375
58.09259 343
58.11271 359
58.13282 369
58.15294 380
58.17305 399
58.19316 378
58.21328 369
58.23339 345
58.2535 334
58.27362 384
58.29373 364
58.31385 364
58.33396 349
58.35407 344
58.37419 341
58.3943 381
58.41441 376
58.43453 389
58.45464 359
58.47475 367
58.49487 386
58.51498 372
58.5351 355
58.55521 368
58.57532 341
58.59544 345
58.61555 391
58.63566 363
58.65578 367
58.67589 357
58.69601 332
58.71612 358
58.73623 365
58.75635 374
58.77646 350
58.79657 336
58.81669 386
58.8368 419
58.85691 404
58.87703 314
58.89714 365
58.91726 368
58.93737 344
58.95748 382
58.9776 343
58.99771 349
59.01782 364
59.03794 350
59.05805 388
59.07817 359
59.09828 406
59.11839 353
59.13851 368
59.15862 370
59.17873 372
59.19885 404
59.21896 386
59.23908 375
59.25919 405
59.2793 420
59.29942 361
59.31953 394
59.33964 399
59.35976 393
59.37987 439
59.39998 459
59.4201 420
59.44021 456
59.46033 406
59.48044 377
59.50055 412
59.52067 416
59.54078 456
59.56089 422
59.58101 483
59.60112 478
59.62124 535
59.64135 572
59.66146 533
59.68158 600
59.70169 630
59.7218 718
59.74192 768
59.76203 835
59.78215 920
59.80226 1000
59.82237 1113
59.84249 1185
59.8626 1330
59.88271 1198
59.90283 1274
59.92294 1177
59.94305 1036
59.96317 1003
59.98328 922
60.0034 865
60.02351 865
60.04362 798
60.06374 777
60.08385 724
60.10396 640
60.12408 588
60.14419 526
60.16431 437
60.18442 453
60.20453 446
60.22465 385
60.24476 387
60.26487 411
60.28499 375
60.3051 398
60.32522 420
60.34533 402
60.36544 382
60.38556 382
60.40567 370
60.42578 372
60.4459 350
60.46601 389
60.48612 360
60.50624 376
60.52635 394
60.54647 378
60.56658 380
60.58669 357
60.60681 369
60.62692 370
60.64703 435
60.66715 352
60.68726 400
60.70738 365
60.72749 405
60.7476 430
60.76772 403
60.78783 390
60.80794 414
60.82806 404
60.84817 459
60.86828 396
60.8884 402
60.90851 454
60.92863 446
60.94874 431
60.96885 454
60.98897 471
61.00908 426
61.02919 411
61.04931 414
61.06942 435
61.08954 421
61.10965 415
61.12976 452
61.14988 447
61.16999 436
61.1901 479
61.21022 428
61.23033 411
61.25045 403
61.27056 423
61.29067 399
61.31079 397
61.3309 470
61.35101 411
61.37113 404
61.39124 416
61.41135 398
61.43147 396
61.45158 413
61.4717 388
61.49181 408
61.51192 392
61.53204 395
61.55215 376
61.57226 402
61.59238 390
61.61249 398
61.63261 364
61.65272 414
61.67283 408
61.69295 390
61.71306 389
61.73317 402
61.75329 364
61.7734 409
61.79352 395
61.81363 396
61.83374 402
61.85386 391
61.87397 450
61.89408 419
61.9142 421
61.93431 414
61.95442 423
61.97454 463
61.99465 458
62.01477 489
62.03488 445
62.05499 441
62.07511 465
62.09522 475
62.11533 482
62.13545 452
62.15556 504
62.17568 495
62.19579 523
62.2159 503
62.23602 477
62.25613 507
62.27624 493
62.29636 497
62.31647 475
62.33659 471
62.3567 480
62.37681 494
62.39693 441
62.41704 452
62.43715 469
62.45727 433
62.47738 418
62.49749 423
62.51761 459
62.53772 413
62.55784 425
62.57795 428
62.59806 388
62.61818 410
62.63829 386
62.6584 399
62.67852 401
62.69863 419
62.71875 394
62.73886 377
62.75897 410
62.77909 402
62.7992 384
62.81931 379
62.83943 375
62.85954 380
62.87965 383
62.89977 387
62.91988 358
62.94 363
62.96011 342
62.98022 360
63.00034 398
63.02045 374
63.04056 383
63.06068 387
63.08079 378
63.10091 398
63.12102 367
63.14113 332
63.16125 401
63.18136 375
63.20147 375
63.22159 366
63.2417 390
63.26182 373
63.28193 387
63.30204 381
63.32216 358
63.34227 386
63.36238 388
63.3825 370
63.40261 368
63.42272 392
63.44284 408
63.46295 387
63.48307 365
63.50318 366
63.52329 390
63.54341 356
63.56352 404
63.58363 398
63.60375 409
63.62386 388
63.64398 426
63.66409 391
63.6842 423
63.70432 425
63.72443 402
63.74454 424
63.76466 386
63.78477 443
63.80489 431
63.825 480
63.84511 456
63.86523 541
63.88534 523
63.90545 537
63.92557 543
63.94568 559
63.96579 566
63.98591 551
64.00602 575
64.02614 529
64.04625 511
64.06636 540
64.08648 524
64.10659 493
64.1267 487
64.14682 470
64.16693 424
64.18705 441
64.20716 381
64.22727 413
64.24739 437
64.2675 399
64.28761 367
64.30773 403
64.32784 398
64.34796 420
64.36807 396
64.38818 403
64.4083 363
64.42841 386
64.44852 394
64.46864 352
64.48875 349
64.50886 383
64.52898 345
64.54909 384
64.56921 344
64.58932 331
64.60943 326
64.62955 356
64.64966 344
64.66977 346
64.68989 376
64.71 350
64.73012 366
64.75023 325
64.77034 344
64.79046 352
64.81057 375
64.83068 408
64.8508 340
64.87091 352
64.89102 367
64.91114 372
64.93125 317
64.95137 336
64.97148 353
64.99159 332
65.01171 352
65.03182 341
65.05193 349
65.07205 362
65.09216 332
65.11228 368
65.13239 360
65.1525 361
65.17262 341
65.19273 337
65.21284 366
65.23296 332
65.25307 347
65.27319 338
65.2933 385
65.31341 356
65.33353 348
65.35364 334
65.37375 368
65.39387 367
65.41398 341
65.43409 358
65.45421 340
65.47432 360
65.49444 355
65.51455 374
65.53466 354
65.55478 369
65.57489 369
65.595 361
65.61512 380
65.63523 403
65.65535 404
65.67546 379
65.69557 416
65.71569 402
65.7358 420
65.75591 418
65.77603 410
65.79614 416
65.81626 417
65.83637 389
65.85648 389
65.8766 489
65.89671 430
65.91682 413
65.93694 374
65.95705 397
65.97716 416
65.99728 350
66.01739 372
66.03751 379
66.05762 355
66.07773 398
66.09785 359
66.11796 382
66.13807 389
66.15819 378
66.1783 376
66.19842 360
66.21853 394
66.23864 378
66.25876 384
66.27887 388
66.29898 352
66.3191 395
66.33921 375
66.35933 332
66.37944 345
66.39955 374
66.41967 341
66.43978 368
66.45989 334
66.48001 361
66.50012 355
66.52023 383
66.54035 372
66.56046 385
66.58058 390
66.60069 381
66.6208 357
66.64092 392
66.66103 413
66.68114 369
66.70126 434
66.72137 409
66.74149 424
66.7616 471
66.78171 490
66.80183 461
66.82194 521
66.84205 532
66.86217 512
66.88228 529
66.90239 551
66.92251 532
66.94262 537
66.96274 527
66.98285 535
67.00296 469
67.02308 508
67.04319 515
67.0633 471
67.08342 446
67.10353 475
67.12365 445
67.14376 461
67.16387 449
67.18399 440
67.2041 429
67.22421 408
67.24433 391
67.26444 436
67.28456 443
67.30467 447
67.32478 401
67.3449 412
67.36501 422
67.38512 456
67.40524 482
67.42535 478
67.44546 489
67.46558 561
67.48569 596
67.50581 579
67.52592 636
67.54603 645
67.56615 683
67.58626 758
67.60637 838
67.62649 852
67.6466 850
67.66672 868
67.68683 860
67.70694 831
67.72706 833
67.74717 726
67.76728 736
67.7874 657
67.80751 752
67.82763 706
67.84774 711
67.86785 780
67.88797 734
67.90808 745
67.92819 805
67.94831 770
67.96842 799
67.98853 878
68.00865 939
68.02876 959
68.04888 1025
68.06899 1004
68.0891 1069
68.10922 984
68.12933 1006
68.14944 977
68.16956 1037
68.18967 1016
68.20979 999
68.2299 1021
68.25001 939
68.27013 921
68.29024 852
68.31035 804
68.33047 730
68.35058 655
68.3707 641
68.39081 598
68.41092 580
68.43104 570
68.45115 530
68.47126 481
68.49138 486
68.51149 441
68.5316 424
68.55172 431
68.57183 400
68.59195 381
68.61206 388
68.63217 355
68.65229 362
68.6724 364
68.69251 348
68.71263 385
68.73274 395
68.75286 373
68.77297 367
68.79308 381
68.8132 342
68.83331 339
68.85342 329
68.87354 312
68.89365 367
68.91376 374
68.93388 340
68.95399 351
68.97411 383
68.99422 368
69.01433 350
69.03445 352
69.05456 328
69.07467 365
69.09479 343
69.1149 340
69.13502 364
69.15513 375
69.17524 346
69.19536 360
69.21547 315
69.23558 349
69.2557 320
69.27581 341
69.29593 328
69.31604 329
69.33615 354
69.35627 313
69.37638 323
69.39649 369
69.41661 342
69.43672 318
69.45683 328
69.47695 313
69.49706 359
69.51718 341
69.53729 326
69.5574 345
69.57752 332
69.59763 339
69.61774 338
69.63786 342
69.65797 361
69.67809 355
69.6982 379
69.71831 361
69.73843 320
69.75854 368
69.77865 347
69.79877 342
69.81888 353
69.839 351
69.85911 364
69.87922 374
69.89934 361
69.91945 353
69.93956 350
69.95968 333
69.97979 337
69.9999 338
70.02002 358
70.04013 340
70.06025 339
70.08036 351
70.10047 348
70.12059 319
70.1407 375
70.16081 332
70.18093 345
70.20104 363
70.22116 329
70.24127 357
70.26138 357
70.2815 343
70.30161 326
70.32172 329
70.34184 355
70.36195 361
70.38207 354
70.40218 304
70.42229 332
70.44241 334
70.46252 356
70.48263 320
70.50275 355
70.52286 330
70.54297 353
70.56309 353
70.5832 331
70.60332 343
70.62343 352
70.64354 348
70.66366 342
70.68377 333
70.70388 340
70.724 326
70.74411 365
70.76423 353
70.78434 335
70.80445 314
70.82457 368
70.84468 343
70.86479 326
70.88491 358
70.90502 343
70.92513 331
70.94525 311
70.96536 331
70.98548 328
71.00559 331
71.0257 327
71.04582 331
71.06593 309
71.08604 323
71.10616 340
71.12627 311
71.14639 303
71.1665 336
71.18661 344
71.20673 342
71.22684 311
71.24695 315
71.26707 340
71.28718 343
71.3073 327
71.32741 348
71.34752 284
71.36764 344
71.38775 330
71.40786 333
71.42798 328
71.44809 361
71.4682 334
71.48832 382
71.50843 332
71.52855 331
71.54866 328
71.56877 332
71.58889 330
71.609 328
71.62911 334
71.64923 329
71.66934 374
71.68946 381
71.70957 312
71.72968 314
71.7498 348
71.76991 354
71.79002 339
71.81014 347
71.83025 318
71.85037 336
71.87048 328
71.89059 369
71.91071 347
71.93082 359
71.95093 337
71.97105 334
71.99116 351
72.01127 356
72.03139 364
72.0515 390
72.07162 346
72.09173 366
72.11184 359
72.13196 332
72.15207 365
72.17218 352
72.1923 352
72.21241 324
72.23253 322
72.25264 342
72.27275 354
72.29287 350
72.31298 327
72.33309 341
72.35321 343
72.37332 345
72.39344 327
72.41355 343
72.43366 339
72.45378 338
72.47389 339
72.494 354
72.51412 321
72.53423 311
72.55434 323
72.57446 348
72.59457 336
72.61469 357
72.6348 344
72.65491 343
72.67503 328
72.69514 338
72.71525 293
72.73537 337
72.75548 362
72.7756 315
72.79571 347
72.81582 343
72.83594 331
72.85605 328
72.87616 373
72.89628 331
72.91639 366
72.9365 343
72.95662 363
72.97673 350
72.99685 365
73.01696 321
73.03707 334
73.05719 368
73.0773 356
73.09741 376
73.11753 364
73.13764 397
73.15776 406
73.17787 374
73.19798 392
73.2181 409
73.23821 375
73.25832 413
73.27844 449
73.29855 451
73.31867 485
73.33878 468
73.35889 528
73.37901 530
73.39912 491
73.41923 460
73.43935 480
73.45946 460
73.47957 479
73.49969 435
73.5198 455
73.53992 399
73.56003 406
73.58014 448
73.60026 453
73.62037 445
73.64048 435
73.6606 393
73.68071 396
73.70083 384
73.72094 388
73.74105 363
73.76117 386
73.78128 376
73.80139 332
73.82151 360
73.84162 346
73.86174 340
73.88185 344
73.90196 323
73.92208 333
73.94219 350
73.9623 340
73.98242 331
74.00253 366
74.02264 363
74.04276 358
74.06287 313
74.08299 337
74.1031 326
74.12321 356
74.14333 336
74.16344 349
74.18355 356
74.20367 325
74.22378 353
74.2439 355
74.26401 342
74.28412 327
74.30424 315
74.32435 351
74.34446 337
74.36458 353
74.38469 321
74.40481 338
74.42492 317
74.44503 366
74.46515 321
74.48526 324
74.50537 317
74.52549 327
74.5456 335
74.56571 330
74.58583 327
74.60594 328
74.62606 318
74.64617 320
74.66628 340
74.6864 337
74.70651 316
74.72662 333
74.74674 349
74.76685 329
74.78697 326
74.80708 347
74.82719 366
74.84731 344
74.86742 341
74.88753 342
74.90765 338
74.92776 331
74.94787 346
74.96799 326
74.9881 337
75.00822 311
