3.00117 20441
3.02128 19721
3.0414 19128
3.06151 18561
3.08162 17844
3.10174 17462
3.12185 17063
3.14197 16674
3.16208 16121
3.18219 15679
3.20231 15153
3.22242 14406
3.24253 14449
3.26265 13649
3.28276 13556
3.30288 13070
3.32299 12516
3.3431 12024
3.36322 11902
3.38333 11374
3.40344 11053
3.42356 10507
3.44367 10289
3.46379 9875
3.4839 9504
3.50401 9062
3.52413 8777
3.54424 8740
3.56435 8247
3.58447 7983
3.60458 7597
3.62469 7239
3.64481 6989
3.66492 6627
3.68504 6460
3.70515 6168
3.72526 5862
3.74538 5977
3.76549 5498
3.7856 5307
3.80572 5069
3.82583 4729
3.84595 4690
3.86606 4358
3.88617 4107
3.90629 3945
3.9264 3815
3.94651 3776
3.96663 3575
3.98674 3421
4.00686 3171
4.02697 3053
4.04708 3071
4.0672 2805
4.08731 2640
4.10742 2512
4.12754 2316
4.14765 2360
4.16776 2325
4.18788 2148
4.20799 2026
4.22811 1973
4.24822 2008
4.26833 1892
4.28845 1790
4.30856 1705
4.32867 1542
4.34879 1658
4.3689 1615
4.38902 1460
4.40913 1402
4.42924 1391
4.44936 1389
4.46947 1493
4.48958 1319
4.5097 1231
4.52981 1249
4.54992 1247
4.57004 1215
4.59015 1142
4.61027 1107
4.63038 1064
4.65049 1120
4.67061 1129
4.69072 992
4.71083 983
4.73095 932
4.75106 1047
4.77118 1013
4.79129 938
4.8114 929
4.83152 900
4.85163 917
4.87174 840
4.89186 818
4.91197 775
4.93209 803
4.9522 770
4.97231 763
4.99243 732
5.01254 772
5.03265 703
5.05277 699
5.07288 731
5.09299 624
5.11311 646
5.13322 644
5.15334 657
5.17345 607
5.19356 609
5.21368 534
5.23379 576
5.2539 538
5.27402 522
5.29413 504
5.31425 552
5.33436 513
5.35447 526
5.37459 431
5.3947 483
5.41481 472
5.43493 456
5.45504 451
5.47516 449
5.49527 404
5.51538 466
5.5355 429
5.55561 394
5.57572 409
5.59584 384
5.61595 404
5.63606 399
5.65618 320
5.67629 348
5.69641 372
5.71652 332
5.73663 358
5.75675 319
5.77686 338
5.79697 289
5.81709 307
5.8372 332
5.85732 285
5.87743 323
5.89754 325
5.91766 285
5.93777 260
5.95788 289
5.978 264
5.99811 308
6.01823 261
6.03834 269
6.05845 273
6.07857 287
6.09868 306
6.11879 302
6.13891 262
6.15902 283
6.17913 263
6.19925 279
6.21936 258
6.23948 270
6.25959 233
6.2797 293
6.29982 243
6.31993 239
6.34004 280
6.36016 259
6.38027 228
6.40039 229
6.4205 259
6.44061 248
6.46073 275
6.48084 255
6.50095 284
6.52107 252
6.54118 255
6.56129 267
6.58141 256
6.60152 244
6.62164 249
6.64175 270
6.66186 220
6.68198 250
6.70209 210
6.7222 251
6.74232 223
6.76243 239
6.78255 258
6.80266 233
6.82277 234
6.84289 239
6.863 240
6.88311 261
6.90323 208
6.92334 225
6.94346 245
6.96357 236
6.98368 213
7.0038 264
7.02391 232
7.04402 205
7.06414 266
7.08425 265
7.10436 242
7.12448 243
7.14459 249
7.16471 246
7.18482 236
7.20493 258
7.22505 226
7.24516 234
7.26527 247
7.28539 279
7.3055 218
7.32562 237
7.34573 264
7.36584 274
7.38596 205
7.40607 235
7.42618 257
7.4463 243
7.46641 243
7.48653 247
7.50664 262
7.52675 248
7.54687 238
7.56698 257
7.58709 251
7.60721 214
7.62732 247
7.64743 273
7.66755 257
7.68766 231
7.70778 264
7.72789 259
7.748 245
7.76812 252
7.78823 262
7.80834 289
7.82846 270
7.84857 251
7.86869 274
7.8888 282
7.90891 244
7.92903 248
7.94914 296
7.96925 252
7.98937 248
8.00948 290
8.0296 259
8.04971 251
8.06982 265
8.08994 277
8.11005 283
8.13016 298
8.15028 267
8.17039 266
8.1905 274
8.21062 265
8.23073 222
8.25085 282
8.27096 287
8.29107 280
8.31119 291
8.3313 298
8.35141 282
8.37153 263
8.39164 268
8.41176 258
8.43187 278
8.45198 288
8.4721 279
8.49221 302
8.51232 270
8.53244 320
8.55255 319
8.57266 313
8.59278 301
8.61289 323
8.63301 360
8.65312 348
8.67323 376
8.69335 342
8.71346 353
8.73357 368
8.75369 380
8.7738 449
8.79392 416
8.81403 482
8.83414 464
8.85426 472
8.87437 497
8.89448 469
8.9146 486
8.93471 444
8.95483 365
8.97494 343
8.99505 345
9.01517 314
9.03528 328
9.05539 294
9.07551 282
9.09562 337
9.11573 282
9.13585 281
9.15596 299
9.17608 296
9.19619 284
9.2163 268
9.23642 273
9.25653 253
9.27664 296
9.29676 264
9.31687 291
9.33699 275
9.3571 273
9.37721 265
9.39733 284
9.41744 243
9.43755 284
9.45767 282
9.47778 253
9.4979 237
9.51801 252
9.53812 249
9.55824 261
9.57835 278
9.59846 260
9.61858 243
9.63869 268
9.6588 277
9.67892 263
9.69903 296
9.71915 256
9.73926 227
9.75937 291
9.77949 264
9.7996 284
9.81971 280
9.83983 265
9.85994 241
9.88006 236
9.90017 282
9.92028 271
9.9404 294
9.96051 259
9.98062 262
10.00074 255
10.02085 290
10.04097 282
10.06108 279
10.08119 256
10.10131 248
10.12142 249
10.14153 301
10.16165 270
10.18176 253
10.20187 288
10.22199 278
10.2421 255
10.26222 264
10.28233 305
10.30244 262
10.32256 273
10.34267 251
10.36278 282
10.3829 278
10.40301 248
10.42313 262
10.44324 294
10.46335 254
10.48347 250
10.50358 246
10.52369 242
10.54381 246
10.56392 269
10.58403 246
10.60415 270
10.62426 283
10.64438 258
10.66449 287
10.6846 261
10.70472 282
10.72483 263
10.74494 256
10.76506 236
10.78517 269
10.80529 250
10.8254 235
10.84551 255
10.86563 277
10.88574 275
10.90585 277
10.92597 257
10.94608 274
10.9662 280
10.98631 274
11.00642 275
11.02654 298
11.04665 313
11.06676 265
11.08688 267
11.10699 277
11.1271 264
11.14722 274
11.16733 270
11.18745 283
11.20756 284
11.22767 232
11.24779 268
11.2679 285
11.28801 282
11.30813 279
11.32824 249
11.34836 240
11.36847 246
11.38858 284
11.4087 292
11.42881 302
11.44892 262
11.46904 267
11.48915 244
11.50927 293
11.52938 272
11.54949 246
11.56961 241
11.58972 279
11.60983 279
11.62995 252
11.65006 241
11.67017 260
11.69029 253
11.7104 267
11.73052 235
11.75063 285
11.77074 250
11.79086 270
11.81097 251
11.83108 319
11.8512 294
11.87131 292
11.89143 287
11.91154 293
11.93165 323
11.95177 276
11.97188 288
11.99199 308
12.01211 294
12.03222 316
12.05234 284
12.07245 298
12.09256 335
12.11268 304
12.13279 328
12.1529 335
12.17302 325
12.19313 384
12.21324 347
12.23336 389
12.25347 402
12.27359 440
12.2937 442
12.31381 462
12.33393 457
12.35404 437
12.37415 455
12.39427 413
12.41438 502
12.4345 439
12.45461 389
12.47472 376
12.49484 368
12.51495 326
12.53506 335
12.55518 336
12.57529 318
12.5954 314
12.61552 327
12.63563 322
12.65575 302
12.67586 273
12.69597 281
12.71609 298
12.7362 276
12.75631 270
12.77643 299
12.79654 240
12.81666 275
12.83677 260
12.85688 279
12.877 260
12.89711 263
12.91722 258
12.93734 264
12.95745 245
12.97757 269
12.99768 277
13.01779 249
13.03791 272
13.05802 310
13.07813 231
13.09825 252
13.11836 247
13.13847 288
13.15859 240
13.1787 234
13.19882 215
13.21893 246
13.23904 236
13.25916 242
13.27927 245
13.29938 251
13.3195 259
13.33961 250
13.35973 256
13.37984 227
13.39995 224
13.42007 256
13.44018 258
13.46029 279
13.48041 219
13.50052 255
13.52064 246
13.54075 265
13.56086 241
13.58098 257
13.60109 245
13.6212 230
13.64132 224
13.66143 222
13.68154 246
13.70166 221
13.72177 252
13.74189 209
13.762 229
13.78211 247
13.80223 246
13.82234 222
13.84245 250
13.86257 238
13.88268 258
13.9028 247
13.92291 234
13.94302 240
13.96314 214
13.98325 231
14.00336 206
14.02348 224
14.04359 241
14.06371 217
14.08382 244
14.10393 213
14.12405 237
14.14416 246
14.16427 243
14.18439 221
14.2045 224
14.22461 205
14.24473 234
14.26484 224
14.28496 218
14.30507 230
14.32518 222
14.3453 219
14.36541 241
14.38552 215
14.40564 238
14.42575 216
14.44587 211
14.46598 197
14.48609 238
14.50621 238
14.52632 260
14.54643 266
14.56655 220
14.58666 227
14.60677 182
14.62689 234
14.647 230
14.66712 264
14.68723 239
14.70734 267
14.72746 212
14.74757 221
14.76768 213
14.7878 233
14.80791 227
14.82803 237
14.84814 215
14.86825 238
14.88837 216
14.90848 222
14.92859 238
14.94871 221
14.96882 247
14.98894 228
15.00905 241
15.02916 218
15.04928 203
15.06939 243
15.0895 232
15.10962 210
15.12973 231
15.14984 244
15.16996 227
15.19007 224
15.21019 234
15.2303 224
15.25041 239
15.27053 233
15.29064 232
15.31075 253
15.33087 239
15.35098 216
15.3711 227
15.39121 194
15.41132 199
15.43144 224
15.45155 246
15.47166 210
15.49178 224
15.51189 231
15.53201 214
15.55212 213
15.57223 233
15.59235 240
15.61246 238
15.63257 214
15.65269 230
15.6728 250
15.69291 208
15.71303 250
15.73314 226
15.75326 214
15.77337 250
15.79348 203
15.8136 237
15.83371 231
15.85382 220
15.87394 234
15.89405 224
15.91417 250
15.93428 223
15.95439 223
15.97451 228
15.99462 237
16.01473 239
16.03485 235
16.05496 226
16.07508 206
16.09519 207
16.1153 228
16.13542 230
16.15553 239
16.17564 219
16.19576 229
16.21587 219
16.23598 216
16.2561 255
16.27621 235
16.29633 233
16.31644 235
16.33655 210
16.35667 189
16.37678 186
16.39689 200
16.41701 218
16.43712 199
16.45724 209
16.47735 198
16.49746 215
16.51758 209
16.53769 220
16.5578 205
16.57792 214
16.59803 219
16.61814 223
16.63826 183
16.65837 197
16.67849 225
16.6986 225
16.71871 219
16.73883 224
16.75894 210
16.77905 202
16.79917 219
16.81928 231
16.8394 215
16.85951 220
16.87962 234
16.89974 237
16.91985 201
16.93996 213
16.96008 208
16.98019 216
17.00031 211
17.02042 220
17.04053 184
17.06065 261
17.08076 234
17.10087 207
17.12099 201
17.1411 222
17.16121 213
17.18133 223
17.20144 206
17.22156 230
17.24167 246
17.26178 222
17.2819 212
17.30201 230
17.32212 197
17.34224 225
17.36235 215
17.38247 220
17.40258 216
17.42269 234
17.44281 207
17.46292 212
17.48303 222
17.50315 248
17.52326 251
17.54338 223
17.56349 225
17.5836 255
17.60372 252
17.62383 231
17.64394 226
17.66406 236
17.68417 273
17.70428 280
17.7244 279
17.74451 296
17.76463 335
17.78474 318
17.80485 307
17.82497 305
17.84508 290
17.86519 274
17.88531 281
17.90542 259
17.92554 277
17.94565 249
17.96576 228
17.98588 230
18.00599 232
18.0261 229
18.04622 228
18.06633 215
18.08645 201
18.10656 243
18.12667 269
18.14679 239
18.1669 218
18.18701 226
18.20713 243
18.22724 256
18.24735 215
18.26747 217
18.28758 237
18.3077 223
18.32781 222
18.34792 223
18.36804 217
18.38815 223
18.40826 188
18.42838 230
18.44849 238
18.46861 212
18.48872 223
18.50883 204
18.52895 215
18.54906 214
18.56917 249
18.58929 198
18.6094 229
18.62951 227
18.64963 223
18.66974 202
18.68986 227
18.70997 226
18.73008 215
18.7502 234
18.77031 217
18.79042 241
18.81054 221
18.83065 230
18.85077 255
18.87088 212
18.89099 239
18.91111 211
18.93122 209
18.95133 235
18.97145 233
18.99156 249
19.01168 230
19.03179 209
19.0519 230
19.07202 211
19.09213 223
19.11224 220
19.13236 209
19.15247 201
19.17258 228
19.1927 223
19.21281 229
19.23293 219
19.25304 218
19.27315 188
19.29327 228
19.31338 230
19.33349 240
19.35361 229
19.37372 208
19.39384 254
19.41395 236
19.43406 241
19.45418 217
19.47429 228
19.4944 255
19.51452 229
19.53463 231
19.55475 283
19.57486 277
19.59497 290
19.61509 348
19.6352 346
19.65531 386
19.67543 424
19.69554 463
19.71565 539
19.73577 542
19.75588 575
19.776 617
19.79611 649
19.81622 704
19.83634 703
19.85645 722
19.87656 723
19.89668 701
19.91679 617
19.93691 606
19.95702 513
19.97713 489
19.99725 414
20.01736 433
20.03747 417
20.05759 400
20.0777 403
20.09782 415
20.11793 397
20.13804 425
20.15816 426
20.17827 397
20.19838 427
20.2185 397
20.23861 350
20.25872 394
20.27884 393
20.29895 385
20.31907 464
20.33918 391
20.35929 400
20.37941 401
20.39952 429
20.41963 408
20.43975 447
20.45986 469
20.47998 468
20.50009 453
20.5202 456
20.54032 456
20.56043 501
20.58054 519
20.60066 525
20.62077 574
20.64088 611
20.661 724
20.68111 809
20.70123 961
20.72134 1192
20.74145 1658
20.76157 2268
20.78168 3187
20.80179 4241
20.82191 5353
20.84202 6176
20.86214 6412
20.88225 5657
20.90236 4382
20.92248 3083
20.94259 2096
20.9627 1258
20.98282 849
21.00293 673
21.02305 572
21.04316 542
21.06327 553
21.08339 490
21.1035 501
21.12361 503
21.14373 477
21.16384 450
21.18395 442
21.20407 444
21.22418 414
21.2443 429
21.26441 422
21.28452 422
21.30464 421
21.32475 406
21.34486 456
21.36498 404
21.38509 436
21.40521 418
21.42532 409
21.44543 411
21.46555 442
21.48566 389
21.50577 389
21.52589 424
21.546 408
21.56612 392
21.58623 427
21.60634 357
21.62646 408
21.64657 363
21.66668 340
21.6868 335
21.70691 349
21.72702 347
21.74714 349
21.76725 336
21.78737 362
21.80748 327
21.82759 307
21.84771 340
21.86782 351
21.88793 345
21.90805 324
21.92816 263
21.94828 330
21.96839 309
21.9885 309
22.00862 301
22.02873 339
22.04884 347
22.06896 349
22.08907 296
22.10919 283
22.1293 312
22.14941 276
22.16953 296
22.18964 326
22.20975 307
22.22987 315
22.24998 308
22.27009 261
22.29021 304
22.31032 317
22.33044 302
22.35055 358
22.37066 336
22.39078 305
22.41089 305
22.431 308
22.45112 312
22.47123 316
22.49135 317
22.51146 300
22.53157 309
22.55169 311
22.5718 318
22.59191 302
22.61203 323
22.63214 320
22.65225 311
22.67237 307
22.69248 323
22.7126 355
22.73271 333
22.75282 321
22.77294 325
22.79305 357
22.81316 357
22.83328 391
22.85339 391
22.87351 402
22.89362 404
22.91373 415
22.93385 343
22.95396 333
22.97407 362
22.99419 340
23.0143 303
23.03442 332
23.05453 304
23.07464 306
23.09476 330
23.11487 310
23.13498 288
23.1551 307
23.17521 317
23.19532 293
23.21544 301
23.23555 272
23.25567 292
23.27578 297
23.29589 311
23.31601 286
23.33612 279
23.35623 273
23.37635 286
23.39646 320
23.41658 279
23.43669 275
23.4568 268
23.47692 303
23.49703 299
23.51714 325
23.53726 288
23.55737 279
23.57749 297
23.5976 297
23.61771 336
23.63783 321
23.65794 334
23.67805 344
23.69817 370
23.71828 346
23.73839 418
23.75851 406
23.77862 416
23.79874 437
23.81885 392
23.83896 432
23.85908 413
23.87919 383
23.8993 379
23.91942 349
23.93953 335
23.95965 325
23.97976 365
23.99987 373
24.01999 323
24.0401 336
24.06021 330
24.08033 327
24.10044 298
24.12056 301
24.14067 325
24.16078 291
24.1809 284
24.20101 285
24.22112 318
24.24124 317
24.26135 316
24.28146 302
24.30158 287
24.32169 322
24.34181 311
24.36192 336
24.38203 304
24.40215 305
24.42226 290
24.44237 304
24.46249 284
24.4826 305
24.50272 325
24.52283 319
24.54294 296
24.56306 323
24.58317 312
24.60328 329
24.6234 297
24.64351 333
24.66362 363
24.68374 371
24.70385 343
24.72397 351
24.74408 369
24.76419 396
24.78431 401
24.80442 407
24.82453 395
24.84465 420
24.86476 446
24.88488 443
24.90499 422
24.9251 410
24.94522 402
24.96533 371
24.98544 399
25.00556 383
25.02567 373
25.04579 327
25.0659 327
25.08601 323
25.10613 329
25.12624 300
25.14635 327
25.16647 332
25.18658 349
25.20669 319
25.22681 360
25.24692 350
25.26704 378
25.28715 391
25.30726 388
25.32738 406
25.34749 356
25.3676 401
25.38772 385
25.40783 427
25.42795 463
25.44806 493
25.46817 467
25.48829 473
25.5084 425
25.52851 475
25.54863 444
25.56874 426
25.58886 401
25.60897 383
25.62908 403
25.6492 364
25.66931 400
25.68942 416
25.70954 419
25.72965 434
25.74976 426
25.76988 463
25.78999 404
25.81011 448
25.83022 457
25.85033 420
25.87045 439
25.89056 409
25.91067 450
25.93079 443
25.9509 490
25.97102 432
25.99113 489
26.01124 452
26.03136 495
26.05147 515
26.07158 523
26.0917 534
26.11181 514
26.13193 555
26.15204 593
26.17215 562
26.19227 698
26.21238 703
26.23249 729
26.25261 758
26.27272 832
26.29283 822
26.31295 956
26.33306 993
26.35318 1131
26.37329 1220
26.3934 1377
26.41352 1677
26.43363 2106
26.45374 2680
26.47386 3629
26.49397 4944
26.51409 7166
26.5342 10207
26.55431 14212
26.57443 18980
26.59454 24151
26.61465 27678
26.63477 28730
26.65488 25772
26.67499 20814
26.69511 15871
26.71522 11736
26.73534 7801
26.75545 4529
26.77556 2687
26.79568 1905
26.81579 1474
26.8359 1368
26.85602 1200
26.87613 1150
26.89625 927
26.91636 955
26.93647 863
26.95659 791
26.9767 705
26.99681 679
27.01693 601
27.03704 577
27.05716 496
27.07727 572
27.09738 463
27.1175 459
27.13761 486
27.15772 477
27.17784 435
27.19795 473
27.21806 404
27.23818 418
27.25829 405
27.27841 444
27.29852 450
27.31863 431
27.33875 486
27.35886 443
27.37897 517
27.39909 558
27.4192 518
27.43932 525
27.45943 520
27.47954 460
27.49966 475
27.51977 441
27.53988 414
27.56 400
27.58011 384
27.60023 393
27.62034 403
27.64045 403
27.66057 417
27.68068 393
27.70079 419
27.72091 434
27.74102 443
27.76113 446
27.78125 436
27.80136 520
27.82148 516
27.84159 482
27.8617 476
27.88182 442
27.90193 500
27.92204 455
27.94216 399
27.96227 383
27.98239 377
28.0025 358
28.02261 337
28.04273 332
28.06284 358
28.08295 338
28.10307 314
28.12318 366
28.1433 342
28.16341 309
28.18352 316
28.20364 307
28.22375 348
28.24386 342
28.26398 285
28.28409 315
28.3042 293
28.32432 326
28.34443 318
28.36455 317
28.38466 305
28.40477 294
28.42489 313
28.445 288
28.46511 297
28.48523 302
28.50534 310
28.52546 320
28.54557 314
28.56568 297
28.5858 287
28.60591 306
28.62602 305
28.64614 309
28.66625 284
28.68636 298
28.70648 307
28.72659 309
28.74671 254
28.76682 309
28.78693 297
28.80705 291
28.82716 291
28.84727 276
28.86739 282
28.8875 268
28.90762 270
28.92773 290
28.94784 274
28.96796 266
28.98807 300
29.00818 290
29.0283 288
29.04841 297
29.06853 296
29.08864 280
29.10875 267
29.12887 273
29.14898 269
29.16909 300
29.18921 271
29.20932 280
29.22943 288
29.24955 311
29.26966 300
29.28978 295
29.30989 274
29.33 263
29.35012 286
29.37023 304
29.39034 272
29.41046 276
29.43057 317
29.45069 299
29.4708 299
29.49091 289
29.51103 281
29.53114 259
29.55125 288
29.57137 278
29.59148 302
29.6116 306
29.63171 314
29.65182 272
29.67194 342
29.69205 301
29.71216 337
29.73228 358
29.75239 350
29.7725 369
29.79262 386
29.81273 398
29.83285 429
29.85296 390
29.87307 402
29.89319 409
29.9133 377
29.93341 367
29.95353 370
29.97364 334
29.99376 331
30.01387 315
30.03398 321
30.0541 312
30.07421 285
30.09432 289
30.11444 294
30.13455 290
30.15467 296
30.17478 312
30.19489 273
30.21501 259
30.23512 300
30.25523 281
30.27535 286
30.29546 263
30.31557 276
30.33569 266
30.3558 270
30.37592 274
30.39603 278
30.41614 254
30.43626 246
30.45637 272
30.47648 290
30.4966 272
30.51671 268
30.53683 246
30.55694 282
30.57705 281
30.59717 282
30.61728 267
30.63739 234
30.65751 256
30.67762 280
30.69773 254
30.71785 288
30.73796 279
30.75808 292
30.77819 286
30.7983 281
30.81842 254
30.83853 285
30.85864 289
30.87876 274
30.89887 290
30.91899 306
30.9391 271
30.95921 282
30.97933 274
30.99944 307
31.01955 297
31.03967 299
31.05978 292
31.0799 296
31.10001 300
31.12012 304
31.14024 330
31.16035 305
31.18046 353
31.20058 334
31.22069 301
31.2408 339
31.26092 340
31.28103 327
31.30115 310
31.32126 287
31.34137 298
31.36149 295
31.3816 280
31.40171 297
31.42183 263
31.44194 252
31.46206 237
31.48217 252
31.50228 248
31.5224 245
31.54251 239
31.56262 249
31.58274 277
31.60285 247
31.62297 248
31.64308 251
31.66319 259
31.68331 271
31.70342 278
31.72353 273
31.74365 266
31.76376 262
31.78387 250
31.80399 276
31.8241 279
31.84422 265
31.86433 300
31.88444 293
31.90456 292
31.92467 285
31.94478 289
31.9649 308
31.98501 310
32.00513 295
32.02524 288
32.04535 308
32.06547 311
32.08558 295
32.10569 278
32.12581 310
32.14592 281
32.16604 263
32.18615 273
32.20626 263
32.22638 286
32.24649 244
32.2666 241
32.28672 253
32.30683 253
32.32694 247
32.34706 261
32.36717 213
32.38729 254
32.4074 229
32.42751 248
32.44763 254
32.46774 264
32.48785 276
32.50797 253
32.52808 270
32.5482 238
32.56831 275
32.58842 256
32.60854 231
32.62865 268
32.64876 279
32.66888 257
32.68899 266
32.7091 245
32.72922 252
32.74933 238
32.76945 245
32.78956 267
32.80967 234
32.82979 240
32.8499 235
32.87001 205
32.89013 242
32.91024 235
32.93036 221
32.95047 246
32.97058 260
32.9907 249
33.01081 277
33.03092 244
33.05104 218
33.07115 244
33.09127 265
33.11138 265
33.13149 261
33.15161 254
33.17172 263
33.19183 256
33.21195 268
33.23206 254
33.25217 268
33.27229 255
33.2924 242
33.31252 240
33.33263 257
33.35274 296
33.37286 242
33.39297 264
33.41308 287
33.4332 262
33.45331 258
33.47343 251
33.49354 241
33.51365 246
33.53377 245
33.55388 266
33.57399 259
33.59411 251
33.61422 247
33.63434 229
33.65445 239
33.67456 254
33.69468 241
33.71479 213
33.7349 252
33.75502 248
33.77513 226
33.79524 235
33.81536 207
33.83547 228
33.85559 254
33.8757 220
33.89581 246
33.91593 222
33.93604 232
33.95615 237
33.97627 223
33.99638 219
34.0165 229
34.03661 212
34.05672 205
34.07684 270
34.09695 264
34.11706 248
34.13718 246
34.15729 211
34.17741 215
34.19752 231
34.21763 282
34.23775 245
34.25786 268
34.27797 221
34.29809 236
34.3182 260
34.33831 274
34.35843 293
34.37854 331
34.39866 279
34.41877 334
34.43888 350
34.459 387
34.47911 404
34.49922 388
34.51934 371
34.53945 411
34.55957 453
34.57968 416
34.59979 408
34.61991 410
34.64002 446
34.66013 397
34.68025 452
34.70036 408
34.72047 414
34.74059 418
34.7607 469
34.78082 500
34.80093 505
34.82104 511
34.84116 559
34.86127 617
34.88138 664
34.9015 634
34.92161 669
34.94173 684
34.96184 656
34.98195 649
35.00207 601
35.02218 618
35.04229 566
35.06241 528
35.08252 457
35.10264 489
35.12275 418
35.14286 418
35.16298 406
35.18309 363
35.2032 358
35.22332 392
35.24343 377
35.26354 328
35.28366 324
35.30377 361
35.32389 375
35.344 338
35.36411 378
35.38423 365
35.40434 365
35.42445 399
35.44457 351
35.46468 368
35.4848 352
35.50491 350
35.52502 377
35.54514 342
35.56525 319
35.58536 344
35.60548 389
35.62559 368
35.64571 345
35.66582 328
35.68593 360
35.70605 344
35.72616 315
35.74627 341
35.76639 342
35.7865 334
35.80661 351
35.82673 345
35.84684 341
35.86696 344
35.88707 372
35.90718 374
35.9273 348
35.94741 387
35.96752 323
35.98764 345
36.00775 338
36.02787 381
36.04798 389
36.06809 358
36.08821 322
36.10832 329
36.12843 326
36.14855 337
36.16866 358
36.18878 319
36.20889 340
36.229 324
36.24912 340
36.26923 392
36.28934 400
36.30946 424
36.32957 497
36.34968 557
36.3698 562
36.38991 729
36.41003 881
36.43014 989
36.45025 1310
36.47037 1594
36.49048 1815
36.51059 2070
36.53071 2092
36.55082 1912
36.57094 1601
36.59105 1389
36.61116 1213
36.63128 1036
36.65139 832
36.6715 714
36.69162 547
36.71173 461
36.73184 395
36.75196 384
36.77207 367
36.79219 344
36.8123 361
36.83241 326
36.85253 337
36.87264 318
36.89275 312
36.91287 351
36.93298 350
36.9531 313
36.97321 330
36.99332 317
37.01344 295
37.03355 300
37.05366 303
37.07378 284
37.09389 315
37.11401 313
37.13412 309
37.15423 310
37.17435 263
37.19446 253
37.21457 245
37.23469 315
37.2548 279
37.27491 283
37.29503 312
37.31514 318
37.33526 276
37.35537 275
37.37548 314
37.3956 334
37.41571 310
37.43582 345
37.45594 348
37.47605 304
37.49617 317
37.51628 345
37.53639 317
37.55651 318
37.57662 300
37.59673 351
37.61685 319
37.63696 362
37.65708 350
37.67719 366
37.6973 363
37.71742 384
37.73753 353
37.75764 347
37.77776 334
37.79787 337
37.81798 311
37.8381 291
37.85821 313
37.87833 306
37.89844 268
37.91855 285
37.93867 286
37.95878 277
37.97889 269
37.99901 263
38.01912 283
38.03924 285
38.05935 282
38.07946 288
38.09958 277
38.11969 271
38.1398 263
38.15992 300
38.18003 292
38.20015 276
38.22026 257
38.24037 285
38.26049 305
38.2806 288
38.30071 274
38.32083 282
38.34094 349
38.36105 322
38.38117 345
38.40128 308
38.4214 314
38.44151 301
38.46162 315
38.48174 318
38.50185 274
38.52196 316
38.54208 298
38.56219 270
38.58231 295
38.60242 302
38.62253 292
38.64265 293
38.66276 280
38.68287 254
38.70299 246
38.7231 266
38.74321 241
38.76333 275
38.78344 267
38.80356 267
38.82367 270
38.84378 280
38.8639 256
38.88401 263
38.90412 254
38.92424 293
38.94435 253
38.96447 285
38.98458 266
39.00469 260
39.02481 268
39.04492 264
39.06503 286
39.08515 263
39.10526 333
39.12538 326
39.14549 320
39.1656 345
39.18572 307
39.20583 372
39.22594 403
39.24606 355
39.26617 465
39.28628 547
39.3064 647
39.32651 711
39.34663 877
39.36674 1151
39.38685 1385
39.40697 1628
39.42708 1775
39.44719 1904
39.46731 1781
39.48742 1484
39.50754 1286
39.52765 1080
39.54776 1005
39.56788 908
39.58799 696
39.6081 528
39.62822 362
39.64833 327
39.66845 307
39.68856 297
39.70867 267
39.72879 291
39.7489 277
39.76901 279
39.78913 309
39.80924 268
39.82935 283
39.84947 310
39.86958 314
39.8897 261
39.90981 318
39.92992 299
39.95004 305
39.97015 316
39.99026 318
40.01038 359
40.03049 339
40.05061 326
40.07072 370
40.09083 379
40.11095 363
40.13106 444
40.15117 499
40.17129 620
40.1914 700
40.21152 819
40.23163 911
40.25174 1033
40.27186 1073
40.29197 957
40.31208 890
40.3322 745
40.35231 701
40.37242 678
40.39254 584
40.41265 495
40.43277 392
40.45288 321
40.47299 323
40.49311 293
40.51322 298
40.53333 284
40.55345 245
40.57356 273
40.59368 267
40.61379 289
40.6339 285
40.65402 241
40.67413 274
40.69424 284
40.71436 266
40.73447 241
40.75458 296
40.7747 279
40.79481 298
40.81493 299
40.83504 287
40.85515 318
40.87527 280
40.89538 294
40.91549 288
40.93561 289
40.95572 282
40.97584 295
40.99595 275
41.01606 296
41.03618 276
41.05629 251
41.0764 268
41.09652 291
41.11663 285
41.13675 288
41.15686 300
41.17697 295
41.19709 266
41.2172 288
41.23731 296
41.25743 314
41.27754 284
41.29765 268
41.31777 291
41.33788 243
41.358 251
41.37811 255
41.39822 246
41.41834 254
41.43845 284
41.45856 236
41.47868 231
41.49879 256
41.51891 242
41.53902 273
41.55913 263
41.57925 260
41.59936 236
41.61947 237
41.63959 250
41.6597 273
41.67982 255
41.69993 278
41.72004 297
41.74016 247
41.76027 267
41.78038 279
41.8005 292
41.82061 269
41.84072 276
41.86084 272
41.88095 280
41.90107 291
41.92118 261
41.94129 301
41.96141 310
41.98152 312
42.00163 301
42.02175 319
42.04186 284
42.06198 308
42.08209 286
42.1022 308
42.12232 318
42.14243 329
42.16254 339
42.18266 339
42.20277 412
42.22289 389
42.243 452
42.26311 460
42.28323 497
42.30334 666
42.32345 748
42.34357 888
42.36368 1069
42.38379 1271
42.40391 1385
42.42402 1371
42.44414 1354
42.46425 1231
42.48436 1077
42.50448 878
42.52459 844
42.5447 817
42.56482 697
42.58493 549
42.60505 445
42.62516 329
42.64527 290
42.66539 304
42.6855 253
42.70561 265
42.72573 281
42.74584 249
42.76595 229
42.78607 264
42.80618 240
42.8263 236
42.84641 229
42.86652 239
42.88664 247
42.90675 248
42.92686 253
42.94698 211
42.96709 255
42.98721 243
43.00732 244
43.02743 239
43.04755 220
43.06766 230
43.08777 235
43.10789 216
43.128 219
43.14812 207
43.16823 233
43.18834 198
43.20846 207
43.22857 220
43.24868 238
43.2688 240
43.28891 204
43.30902 216
43.32914 207
43.34925 209
43.36937 214
43.38948 219
43.40959 239
43.42971 191
43.44982 218
43.46993 238
43.49005 226
43.51016 225
43.53028 191
43.55039 219
43.5705 199
43.59062 234
43.61073 234
43.63084 212
43.65096 196
43.67107 219
43.69119 217
43.7113 223
43.73141 212
43.75153 220
43.77164 227
43.79175 213
43.81187 211
43.83198 270
43.85209 224
43.87221 236
43.89232 220
43.91244 227
43.93255 227
43.95266 245
43.97278 235
43.99289 263
44.013 247
44.03312 219
44.05323 249
44.07335 229
44.09346 237
44.11357 233
44.13369 196
44.1538 213
44.17391 223
44.19403 217
44.21414 225
44.23426 252
44.25437 221
44.27448 261
44.2946 216
44.31471 219
44.33482 203
44.35494 225
44.37505 215
44.39516 225
44.41528 228
44.43539 216
44.45551 214
44.47562 223
44.49573 253
44.51585 228
44.53596 231
44.55607 208
44.57619 178
44.5963 226
44.61642 198
44.63653 209
44.65664 200
44.67676 193
44.69687 200
44.71698 241
44.7371 198
44.75721 201
44.77732 236
44.79744 218
44.81755 218
44.83767 230
44.85778 225
44.87789 218
44.89801 216
44.91812 209
44.93823 223
44.95835 241
44.97846 250
44.99858 223
45.01869 221
45.0388 213
45.05892 226
45.07903 220
45.09914 216
45.11926 211
45.13937 271
45.15949 228
45.1796 249
45.19971 269
45.21983 264
45.23994 274
45.26005 274
45.28017 262
45.30028 256
45.32039 285
45.34051 305
45.36062 307
45.38074 281
45.40085 326
45.42096 306
45.44108 287
45.46119 276
45.4813 318
45.50142 304
45.52153 320
45.54165 334
45.56176 325
45.58187 365
45.60199 389
45.6221 419
45.64221 498
45.66233 593
45.68244 623
45.70256 759
45.72267 811
45.74278 921
45.7629 992
45.78301 904
45.80312 824
45.82324 724
45.84335 662
45.86346 647
45.88358 580
45.90369 556
45.92381 522
45.94392 410
45.96403 355
45.98415 287
46.00426 270
46.02437 281
46.04449 238
46.0646 256
46.08472 225
46.10483 269
46.12494 238
46.14506 223
46.16517 244
46.18528 234
46.2054 195
46.22551 229
46.24563 217
46.26574 201
46.28585 229
46.30597 228
46.32608 213
46.34619 235
46.36631 215
46.38642 219
46.40653 209
46.42665 216
46.44676 241
46.46688 229
46.48699 203
46.5071 244
46.52722 178
46.54733 227
46.56744 234
46.58756 226
46.60767 215
46.62779 217
46.6479 219
46.66801 221
46.68813 202
46.70824 214
46.72835 218
46.74847 212
46.76858 214
46.78869 207
46.80881 219
46.82892 181
46.84904 220
46.86915 192
46.88926 229
46.90938 212
46.92949 193
46.9496 226
46.96972 212
46.98983 191
47.00995 209
47.03006 160
47.05017 175
47.07029 195
47.0904 173
47.11051 201
47.13063 198
47.15074 191
47.17086 221
47.19097 191
47.21108 195
47.2312 202
47.25131 198
47.27142 194
47.29154 203
47.31165 200
47.33176 191
47.35188 209
47.37199 201
47.39211 225
47.41222 207
47.43233 205
47.45245 188
47.47256 176
47.49267 160
47.51279 199
47.5329 176
47.55302 212
47.57313 198
47.59324 187
47.61336 194
47.63347 210
47.65358 197
47.6737 196
47.69381 208
47.71393 192
47.73404 171
47.75415 216
47.77427 207
47.79438 204
47.81449 200
47.83461 195
47.85472 199
47.87483 198
47.89495 217
47.91506 197
47.93518 209
47.95529 185
47.9754 189
47.99552 208
48.01563 219
48.03574 186
48.05586 206
48.07597 194
48.09609 225
48.1162 194
48.13631 203
48.15643 205
48.17654 196
48.19665 191
48.21677 215
48.23688 222
48.257 213
48.27711 201
48.29722 191
48.31734 192
48.33745 209
48.35756 209
48.37768 215
48.39779 203
48.4179 228
48.43802 222
48.45813 214
48.47825 170
48.49836 211
48.51847 204
48.53859 210
48.5587 235
48.57881 244
48.59893 215
48.61904 211
48.63916 200
48.65927 214
48.67938 225
48.6995 217
48.71961 210
48.73972 202
48.75984 195
48.77995 214
48.80006 210
48.82018 216
48.84029 208
48.86041 186
48.88052 210
48.90063 196
48.92075 230
48.94086 195
48.96097 216
48.98109 221
49.0012 226
49.02132 233
49.04143 205
49.06154 197
49.08166 214
49.10177 183
49.12188 204
49.142 173
49.16211 215
49.18223 216
49.20234 227
49.22245 212
49.24257 215
49.26268 236
49.28279 200
49.30291 237
49.32302 226
49.34313 217
49.36325 214
49.38336 209
49.40348 224
49.42359 213
49.4437 233
49.46382 226
49.48393 224
49.50404 231
49.52416 227
49.54427 207
49.56439 256
49.5845 271
49.60461 243
49.62473 228
49.64484 265
49.66495 247
49.68507 270
49.70518 243
49.7253 282
49.74541 297
49.76552 304
49.78564 295
49.80575 327
49.82586 337
49.84598 374
49.86609 408
49.8862 472
49.90632 525
49.92643 543
49.94655 718
49.96666 859
49.98677 1019
50.00689 1357
50.027 1634
50.04711 2029
50.06723 2310
50.08734 2636
50.10746 2833
50.12757 2597
50.14768 2348
50.1678 1987
50.18791 1608
50.20802 1422
50.22814 1479
50.24825 1399
50.26837 1264
50.28848 986
50.30859 675
50.32871 537
50.34882 378
50.36893 350
50.38905 318
50.40916 294
50.42927 273
50.44939 303
50.4695 281
50.48962 293
50.50973 262
50.52984 278
50.54996 281
50.57007 301
50.59018 318
50.6103 270
50.63041 235
50.65053 259
50.67064 259
50.69075 230
50.71087 227
50.73098 221
50.75109 262
50.77121 236
50.79132 245
50.81143 233
50.83155 208
50.85166 206
50.87178 214
50.89189 207
50.912 194
50.93212 209
50.95223 210
50.97234 197
50.99246 239
51.01257 228
51.03269 221
51.0528 176
51.07291 210
51.09303 234
51.11314 195
51.13325 222
51.15337 195
51.17348 229
51.1936 209
51.21371 197
51.23382 220
51.25394 190
51.27405 186
51.29416 185
51.31428 194
51.33439 201
51.3545 206
51.37462 187
51.39473 214
51.41485 171
51.43496 157
51.45507 199
51.47519 198
51.4953 176
51.51541 171
51.53553 198
51.55564 193
51.57576 194
51.59587 190
51.61598 195
51.6361 198
51.65621 209
51.67632 200
51.69644 178
51.71655 183
51.73667 199
51.75678 196
51.77689 204
51.79701 207
51.81712 182
51.83723 190
51.85735 179
51.87746 200
51.89757 208
51.91769 199
51.9378 210
51.95792 184
51.97803 201
51.99814 191
52.01826 180
52.03837 188
52.05848 174
52.0786 225
52.09871 208
52.11883 185
52.13894 193
52.15905 192
52.17917 196
52.19928 195
52.21939 204
52.23951 180
52.25962 213
52.27974 197
52.29985 206
52.31996 180
52.34008 224
52.36019 199
52.3803 219
52.40042 210
52.42053 196
52.44064 199
52.46076 207
52.48087 188
52.50099 202
52.5211 182
52.54121 216
52.56133 193
52.58144 195
52.60155 215
52.62167 204
52.64178 181
52.6619 203
52.68201 216
52.70212 210
52.72224 203
52.74235 207
52.76246 202
52.78258 237
52.80269 228
52.8228 209
52.84292 214
52.86303 218
52.88315 211
52.90326 209
52.92337 235
52.94349 209
52.9636 199
52.98371 219
53.00383 202
53.02394 221
53.04406 210
53.06417 231
53.08428 208
53.1044 186
53.12451 221
53.14462 204
53.16474 213
53.18485 211
53.20497 211
53.22508 195
53.24519 242
53.26531 242
53.28542 210
53.30553 181
53.32565 192
53.34576 204
53.36587 223
53.38599 221
53.4061 241
53.42622 247
53.44633 247
53.46644 216
53.48656 231
53.50667 219
53.52678 209
53.5469 258
53.56701 240
53.58713 232
53.60724 271
53.62735 245
53.64747 232
53.66758 226
53.68769 249
53.70781 240
53.72792 246
53.74804 222
53.76815 252
53.78826 248
53.80838 233
53.82849 248
53.8486 261
53.86872 230
53.88883 235
53.90894 269
53.92906 242
53.94917 267
53.96929 252
53.9894 246
54.00951 241
54.02963 259
54.04974 238
54.06985 246
54.08997 273
54.11008 279
54.1302 268
54.15031 237
54.17042 288
54.19054 262
54.21065 269
54.23076 304
54.25088 288
54.27099 291
54.29111 296
54.31122 297
54.33133 263
54.35145 279
54.37156 288
54.39167 262
54.41179 268
54.4319 294
54.45201 251
54.47213 258
54.49224 269
54.51236 266
54.53247 283
54.55258 278
54.5727 294
54.59281 268
54.61292 340
54.63304 348
54.65315 327
54.67327 391
54.69338 422
54.71349 541
54.73361 556
54.75372 612
54.77383 718
54.79395 864
54.81406 878
54.83417 997
54.85429 982
54.8744 836
54.89452 766
54.91463 649
54.93474 629
54.95486 627
54.97497 609
54.99508 656
55.0152 566
55.03531 472
55.05543 452
55.07554 403
55.09565 378
55.11577 367
55.13588 381
55.15599 399
55.17611 399
55.19622 435
55.21634 439
55.23645 481
55.25656 540
55.27668 614
55.29679 576
55.3169 566
55.33702 557
55.35713 486
55.37724 411
55.39736 435
55.41747 422
55.43759 424
55.4577 389
55.47781 362
55.49793 348
55.51804 337
55.53815 265
55.55827 279
55.57838 272
55.5985 287
55.61861 268
55.63872 251
55.65884 268
55.67895 271
55.69906 298
55.71918 279
55.73929 286
55.75941 284
55.77952 296
55.79963 263
55.81975 278
55.83986 311
55.85997 272
55.88009 254
55.9002 276
55.92031 278
55.94043 265
55.96054 245
55.98066 280
56.00077 253
56.02088 263
56.041 209
56.06111 224
56.08122 231
56.10134 224
56.12145 223
56.14157 223
56.16168 228
56.18179 218
56.20191 235
56.22202 244
56.24213 223
56.26225 207
56.28236 216
56.30248 240
56.32259 222
56.3427 212
56.36282 204
56.38293 235
56.40304 234
56.42316 239
56.44327 243
56.46338 231
56.4835 234
56.50361 227
56.52373 219
56.54384 240
56.56395 250
56.58407 226
56.60418 247
56.62429 250
56.64441 247
56.66452 221
56.68464 216
56.70475 223
56.72486 208
56.74498 236
56.76509 233
56.7852 251
56.80532 258
56.82543 242
56.84554 247
56.86566 245
56.88577 246
56.90589 225
56.926 211
56.94611 230
56.96623 239
56.98634 232
57.00645 234
57.02657 233
57.04668 241
57.0668 189
57.08691 220
57.10702 218
57.12714 229
57.14725 245
57.16736 259
57.18748 228
57.20759 252
57.22771 237
57.24782 224
57.26793 228
57.28805 235
57.30816 247
57.32827 238
57.34839 226
57.3685 238
57.38861 239
57.40873 224
57.42884 246
57.44896 217
57.46907 211
57.48918 200
57.5093 195
57.52941 232
57.54952 237
57.56964 225
57.58975 201
57.60987 211
57.62998 212
57.65009 206
57.67021 205
57.69032 217
57.71043 212
57.73055 210
57.75066 218
57.77078 205
57.79089 226
57.811 203
57.83112 197
57.85123 215
57.87134 207
57.89146 223
57.91157 194
57.93168 206
57.9518 195
57.97191 210
57.99203 198
58.01214 204
58.03225 225
58.05237 192
58.07248 186
58.09259 188
58.11271 191
58.13282 191
58.15294 197
58.17305 199
58.19316 189
58.21328 187
58.23339 209
58.2535 225
58.27362 187
58.29373 194
58.31385 199
58.33396 167
58.35407 200
58.37419 212
58.3943 188
58.41441 214
58.43453 212
58.45464 197
58.47475 199
58.49487 208
58.51498 188
58.5351 196
58.55521 179
58.57532 199
58.59544 204
58.61555 229
58.63566 207
58.65578 207
58.67589 167
58.69601 169
58.71612 194
58.73623 226
58.75635 199
58.77646 206
58.79657 215
58.81669 182
58.8368 218
58.85691 198
58.87703 196
58.89714 200
58.91726 197
58.93737 212
58.95748 188
58.9776 214
58.99771 197
59.01782 202
59.03794 198
59.05805 192
59.07817 213
59.09828 232
59.11839 200
59.13851 220
59.15862 204
59.17873 201
59.19885 199
59.21896 227
59.23908 250
59.25919 235
59.2793 235
59.29942 226
59.31953 255
59.33964 224
59.35976 228
59.37987 206
59.39998 224
59.4201 220
59.44021 247
59.46033 236
59.48044 254
59.50055 268
59.52067 228
59.54078 271
59.56089 266
59.58101 314
59.60112 281
59.62124 287
59.64135 308
59.66146 335
59.68158 368
59.70169 430
59.7218 443
59.74192 545
59.76203 628
59.78215 730
59.80226 833
59.82237 1026
59.84249 1156
59.8626 1401
59.88271 1566
59.90283 1638
59.92294 1713
59.94305 1618
59.96317 1418
59.98328 1194
60.0034 991
60.02351 970
60.04362 986
60.06374 991
60.08385 978
60.10396 827
60.12408 742
60.14419 642
60.16431 463
60.18442 412
60.20453 363
60.22465 318
60.24476 291
60.26487 258
60.28499 244
60.3051 244
60.32522 237
60.34533 231
60.36544 233
60.38556 210
60.40567 237
60.42578 207
60.4459 227
60.46601 212
60.48612 223
60.50624 214
60.52635 248
60.54647 221
60.56658 194
60.58669 210
60.60681 222
60.62692 223
60.64703 228
60.66715 205
60.68726 200
60.70738 215
60.72749 202
60.7476 225
60.76772 183
60.78783 195
60.80794 198
60.82806 217
60.84817 226
60.86828 227
60.8884 203
60.90851 167
60.92863 225
60.94874 198
60.96885 214
60.98897 190
61.00908 196
61.02919 211
61.04931 198
61.06942 196
61.08954 208
61.10965 200
61.12976 192
61.14988 192
61.16999 208
61.1901 207
61.21022 209
61.23033 207
61.25045 228
61.27056 196
61.29067 199
61.31079 216
61.3309 196
61.35101 237
61.37113 226
61.39124 235
61.41135 214
61.43147 252
61.45158 253
61.4717 274
61.49181 279
61.51192 273
61.53204 283
61.55215 314
61.57226 244
61.59238 281
61.61249 297
61.63261 305
61.65272 306
61.67283 319
61.69295 309
61.71306 323
61.73317 292
61.75329 309
61.7734 306
61.79352 285
61.81363 298
61.83374 289
61.85386 260
61.87397 277
61.89408 264
61.9142 241
61.93431 252
61.95442 267
61.97454 268
61.99465 263
62.01477 224
62.03488 247
62.05499 270
62.07511 246
62.09522 258
62.11533 289
62.13545 255
62.15556 255
62.17568 243
62.19579 254
62.2159 274
62.23602 270
62.25613 261
62.27624 268
62.29636 236
62.31647 288
62.33659 258
62.3567 258
62.37681 264
62.39693 219
62.41704 242
62.43715 252
62.45727 240
62.47738 222
62.49749 270
62.51761 228
62.53772 224
62.55784 241
62.57795 216
62.59806 221
62.61818 237
62.63829 202
62.6584 200
62.67852 197
62.69863 230
62.71875 228
62.73886 193
62.75897 216
62.77909 202
62.7992 238
62.81931 206
62.83943 213
62.85954 188
62.87965 205
62.89977 184
62.91988 186
62.94 200
62.96011 197
62.98022 211
63.00034 208
63.02045 202
63.04056 176
63.06068 185
63.08079 192
63.10091 195
63.12102 202
63.14113 217
63.16125 183
63.18136 207
63.20147 183
63.22159 220
63.2417 199
63.26182 188
63.28193 239
63.30204 188
63.32216 212
63.34227 198
63.36238 213
63.3825 185
63.40261 210
63.42272 209
63.44284 173
63.46295 177
63.48307 182
63.50318 193
63.52329 182
63.54341 159
63.56352 188
63.58363 206
63.60375 210
63.62386 206
63.64398 223
63.66409 195
63.6842 204
63.70432 221
63.72443 202
63.74454 209
63.76466 217
63.78477 251
63.80489 261
63.825 258
63.84511 281
63.86523 293
63.88534 334
63.90545 335
63.92557 400
63.94568 424
63.96579 468
63.98591 472
64.00602 446
64.02614 437
64.04625 441
64.06636 369
64.08648 355
64.10659 295
64.1267 305
64.14682 360
64.16693 292
64.18705 319
64.20716 283
64.22727 274
64.24739 258
64.2675 214
64.28761 192
64.30773 184
64.32784 191
64.34796 194
64.36807 193
64.38818 201
64.4083 183
64.42841 178
64.44852 181
64.46864 197
64.48875 174
64.50886 190
64.52898 196
64.54909 185
64.56921 169
64.58932 185
64.60943 195
64.62955 181
64.64966 169
64.66977 189
64.68989 176
64.71 198
64.73012 187
64.75023 185
64.77034 191
64.79046 201
64.81057 186
64.83068 178
64.8508 214
64.87091 183
64.89102 187
64.91114 183
64.93125 171
64.95137 171
64.97148 199
64.99159 179
65.01171 181
65.03182 178
65.05193 191
65.07205 192
65.09216 191
65.11228 171
65.13239 175
65.1525 193
65.17262 192
65.19273 166
65.21284 159
65.23296 167
65.25307 178
65.27319 181
65.2933 180
65.31341 173
65.33353 172
65.35364 199
65.37375 172
65.39387 204
65.41398 204
65.43409 172
65.45421 194
65.47432 210
65.49444 158
65.51455 189
65.53466 181
65.55478 188
65.57489 189
65.595 183
65.61512 214
65.63523 186
65.65535 237
65.67546 213
65.69557 218
65.71569 227
65.7358 230
65.75591 243
65.77603 227
65.79614 209
65.81626 222
65.83637 224
65.85648 204
65.8766 205
65.89671 191
65.91682 221
65.93694 217
65.95705 227
65.97716 209
65.99728 171
66.01739 184
66.03751 187
66.05762 194
66.07773 183
66.09785 185
66.11796 164
66.13807 178
66.15819 168
66.1783 190
66.19842 182
66.21853 186
66.23864 166
66.25876 184
66.27887 193
66.29898 188
66.3191 177
66.33921 176
66.35933 177
66.37944 174
66.39955 182
66.41967 188
66.43978 191
66.45989 183
66.48001 168
66.50012 191
66.52023 180
66.54035 187
66.56046 183
66.58058 185
66.60069 158
66.6208 189
66.64092 162
66.66103 158
66.68114 184
66.70126 163
66.72137 187
66.74149 185
66.7616 182
66.78171 190
66.80183 196
66.82194 195
66.84205 169
66.86217 201
66.88228 192
66.90239 189
66.92251 170
66.94262 187
66.96274 164
66.98285 184
67.00296 155
67.02308 200
67.04319 180
67.0633 199
67.08342 191
67.10353 195
67.12365 197
67.14376 199
67.16387 182
67.18399 188
67.2041 231
67.22421 187
67.24433 215
67.26444 192
67.28456 228
67.30467 221
67.32478 227
67.3449 223
67.36501 245
67.38512 219
67.40524 257
67.42535 268
67.44546 258
67.46558 289
67.48569 317
67.50581 369
67.52592 386
67.54603 437
67.56615 542
67.58626 551
67.60637 678
67.62649 808
67.6466 876
67.66672 974
67.68683 1021
67.70694 991
67.72706 912
67.74717 884
67.76728 714
67.7874 655
67.80751 648
67.82763 673
67.84774 693
67.86785 697
67.88797 702
67.90808 750
67.92819 752
67.94831 758
67.96842 768
67.98853 812
68.00865 883
68.02876 964
68.04888 1081
68.06899 1246
68.0891 1315
68.10922 1332
68.12933 1304
68.14944 1303
68.16956 1157
68.18967 1115
68.20979 1112
68.2299 1115
68.25001 1196
68.27013 1269
68.29024 1225
68.31035 1128
68.33047 967
68.35058 832
68.3707 705
68.39081 595
68.41092 538
68.43104 558
68.45115 499
68.47126 523
68.49138 438
68.51149 408
68.5316 381
68.55172 300
68.57183 274
68.59195 275
68.61206 225
68.63217 223
68.65229 220
68.6724 224
68.69251 189
68.71263 228
68.73274 199
68.75286 196
68.77297 211
68.79308 219
68.8132 208
68.83331 221
68.85342 205
68.87354 202
68.89365 197
68.91376 191
68.93388 219
68.95399 181
68.97411 229
68.99422 216
69.01433 198
69.03445 217
69.05456 197
69.07467 209
69.09479 200
69.1149 197
69.13502 167
69.15513 194
69.17524 210
69.19536 206
69.21547 185
69.23558 219
69.2557 217
69.27581 208
69.29593 186
69.31604 223
69.33615 175
69.35627 212
69.37638 224
69.39649 224
69.41661 184
69.43672 213
69.45683 178
69.47695 208
69.49706 199
69.51718 200
69.53729 207
69.5574 212
69.57752 180
69.59763 208
69.61774 182
69.63786 172
69.65797 212
69.67809 167
69.6982 200
69.71831 189
69.73843 176
69.75854 191
69.77865 170
69.79877 183
69.81888 199
69.839 184
69.85911 166
69.87922 197
69.89934 189
69.91945 182
69.93956 163
69.95968 180
69.97979 205
69.9999 185
70.02002 194
70.04013 170
70.06025 172
70.08036 194
70.10047 209
70.12059 186
70.1407 180
70.16081 196
70.18093 173
70.20104 184
70.22116 157
70.24127 202
70.26138 179
70.2815 173
70.30161 191
70.32172 185
70.34184 177
70.36195 175
70.38207 194
70.40218 169
70.42229 181
70.44241 184
70.46252 175
70.48263 168
70.50275 188
70.52286 174
70.54297 161
70.56309 160
70.5832 150
70.60332 167
70.62343 181
70.64354 189
70.66366 152
70.68377 182
70.70388 163
70.724 173
70.74411 169
70.76423 164
70.78434 158
70.80445 155
70.82457 158
70.84468 168
70.86479 157
70.88491 158
70.90502 180
70.92513 161
70.94525 175
70.96536 159
70.98548 183
71.00559 159
71.0257 156
71.04582 183
71.06593 151
71.08604 183
71.10616 165
71.12627 172
71.14639 170
71.1665 183
71.18661 178
71.20673 171
71.22684 165
71.24695 156
71.26707 169
71.28718 168
71.3073 170
71.32741 169
71.34752 161
71.36764 197
71.38775 142
71.40786 193
71.42798 172
71.44809 161
71.4682 179
71.48832 149
71.50843 171
71.52855 137
71.54866 169
71.56877 167
71.58889 169
71.609 159
71.62911 157
71.64923 170
71.66934 169
71.68946 162
71.70957 163
71.72968 162
71.7498 192
71.76991 177
71.79002 159
71.81014 156
71.83025 142
71.85037 150
71.87048 150
71.89059 163
71.91071 187
71.93082 153
71.95093 164
71.97105 180
71.99116 149
72.01127 184
72.03139 172
72.0515 174
72.07162 160
72.09173 165
72.11184 154
72.13196 191
72.15207 160
72.17218 193
72.1923 155
72.21241 162
72.23253 176
72.25264 161
72.27275 192
72.29287 179
72.31298 164
72.33309 169
72.35321 176
72.37332 153
72.39344 172
72.41355 194
72.43366 196
72.45378 179
72.47389 201
72.494 164
72.51412 171
72.53423 176
72.55434 176
72.57446 197
72.59457 196
72.61469 172
72.6348 216
72.65491 205
72.67503 198
72.69514 169
72.71525 203
72.73537 175
72.75548 176
72.7756 211
72.79571 223
72.81582 192
72.83594 194
72.85605 223
72.87616 176
72.89628 187
72.91639 186
72.9365 196
72.95662 214
72.97673 218
72.99685 192
73.01696 193
73.03707 190
73.05719 204
73.0773 200
73.09741 195
73.11753 210
73.13764 197
73.15776 215
73.17787 210
73.19798 227
73.2181 249
73.23821 232
73.25832 272
73.27844 257
73.29855 299
73.31867 326
73.33878 320
73.35889 378
73.37901 408
73.39912 454
73.41923 417
73.43935 443
73.45946 407
73.47957 389
73.49969 362
73.5198 275
73.53992 265
73.56003 296
73.58014 278
73.60026 314
73.62037 344
73.64048 319
73.6606 291
73.68071 279
73.70083 287
73.72094 266
73.74105 198
73.76117 218
73.78128 218
73.80139 173
73.82151 194
73.84162 170
73.86174 177
73.88185 190
73.90196 162
73.92208 172
73.94219 161
73.9623 180
73.98242 192
74.00253 185
74.02264 158
74.04276 162
74.06287 157
74.08299 173
74.1031 171
74.12321 184
74.14333 147
74.16344 172
74.18355 163
74.20367 169
74.22378 186
74.2439 171
74.26401 157
74.28412 152
74.30424 181
74.32435 158
74.34446 145
74.36458 179
74.38469 177
74.40481 167
74.42492 155
74.44503 169
74.46515 186
74.48526 168
74.50537 151
74.52549 160
74.5456 164
74.56571 153
74.58583 189
74.60594 176
74.62606 185
74.64617 183
74.66628 154
74.6864 154
74.70651 165
74.72662 167
74.74674 153
74.76685 138
74.78697 160
74.80708 174
74.82719 174
74.84731 163
74.86742 165
74.88753 179
74.90765 176
74.92776 169
74.94787 163
74.96799 150
74.9881 157
75.00822 165
