3.00117 20477
3.02128 19760
3.0414 18845
3.06151 18847
3.08162 18022
3.10174 17785
3.12185 17289
3.14197 16548
3.16208 16326
3.18219 15501
3.20231 15763
3.22242 14796
3.24253 14605
3.26265 14064
3.28276 13403
3.30288 13361
3.32299 12598
3.3431 12310
3.36322 12141
3.38333 11423
3.40344 11238
3.42356 10449
3.44367 10376
3.46379 10247
3.4839 9864
3.50401 9645
3.52413 9127
3.54424 8661
3.56435 8591
3.58447 8263
3.60458 8000
3.62469 7497
3.64481 7254
3.66492 7161
3.68504 6796
3.70515 6710
3.72526 6180
3.74538 5939
3.76549 5805
3.7856 5547
3.80572 5352
3.82583 5005
3.84595 4900
3.86606 4815
3.88617 4600
3.90629 4569
3.9264 4080
3.94651 4012
3.96663 3995
3.98674 3603
4.00686 3698
4.02697 3282
4.04708 3235
4.0672 3001
4.08731 2965
4.10742 2848
4.12754 2634
4.14765 2635
4.16776 2592
4.18788 2517
4.20799 2256
4.22811 2231
4.24822 1996
4.26833 2179
4.28845 1991
4.30856 1956
4.32867 1872
4.34879 1774
4.3689 1768
4.38902 1767
4.40913 1646
4.42924 1523
4.44936 1541
4.46947 1633
4.48958 1526
4.5097 1487
4.52981 1426
4.54992 1412
4.57004 1397
4.59015 1381
4.61027 1345
4.63038 1264
4.65049 1211
4.67061 1283
4.69072 1276
4.71083 1186
4.73095 1162
4.75106 1067
4.77118 1087
4.79129 1098
4.8114 1013
4.83152 1011
4.85163 1007
4.87174 975
4.89186 961
4.91197 931
4.93209 943
4.9522 884
4.97231 1018
4.99243 865
5.01254 772
5.03265 850
5.05277 821
5.07288 778
5.09299 823
5.11311 763
5.13322 819
5.15334 761
5.17345 777
5.19356 806
5.21368 712
5.23379 724
5.2539 725
5.27402 779
5.29413 661
5.31425 696
5.33436 642
5.35447 620
5.37459 614
5.3947 639
5.41481 601
5.43493 599
5.45504 625
5.47516 570
5.49527 571
5.51538 538
5.5355 589
5.55561 572
5.57572 576
5.59584 550
5.61595 514
5.63606 559
5.65618 519
5.67629 519
5.69641 502
5.71652 473
5.73663 497
5.75675 489
5.77686 496
5.79697 502
5.81709 497
5.8372 437
5.85732 512
5.87743 438
5.89754 449
5.91766 461
5.93777 443
5.95788 447
5.978 467
5.99811 458
6.01823 445
6.03834 414
6.05845 402
6.07857 480
6.09868 452
6.11879 470
6.13891 432
6.15902 434
6.17913 445
6.19925 389
6.21936 495
6.23948 430
6.25959 425
6.2797 468
6.29982 371
6.31993 406
6.34004 388
6.36016 422
6.38027 348
6.40039 432
6.4205 378
6.44061 392
6.46073 409
6.48084 377
6.50095 363
6.52107 403
6.54118 372
6.56129 422
6.58141 380
6.60152 417
6.62164 428
6.64175 426
6.66186 385
6.68198 395
6.70209 375
6.7222 348
6.74232 375
6.76243 366
6.78255 357
6.80266 376
6.82277 371
6.84289 383
6.863 353
6.88311 388
6.90323 381
6.92334 348
6.94346 354
6.96357 402
6.98368 343
7.0038 359
7.02391 360
7.04402 409
7.06414 366
7.08425 390
7.10436 409
7.12448 362
7.14459 348
7.16471 391
7.18482 392
7.20493 368
7.22505 387
7.24516 425
7.26527 351
7.28539 358
7.3055 358
7.32562 393
7.34573 390
7.36584 355
7.38596 351
7.40607 389
7.42618 387
7.4463 395
7.46641 364
7.48653 395
7.50664 380
7.52675 382
7.54687 370
7.56698 366
7.58709 379
7.60721 397
7.62732 367
7.64743 364
7.66755 364
7.68766 427
7.70778 372
7.72789 378
7.748 411
7.76812 391
7.78823 354
7.80834 401
7.82846 433
7.84857 402
7.86869 404
7.8888 415
7.90891 373
7.92903 358
7.94914 377
7.96925 395
7.98937 388
8.00948 370
8.0296 406
8.04971 381
8.06982 441
8.08994 395
8.11005 402
8.13016 416
8.15028 411
8.17039 433
8.1905 422
8.21062 435
8.23073 414
8.25085 455
8.27096 440
8.29107 442
8.31119 467
8.3313 413
8.35141 446
8.37153 454
8.39164 442
8.41176 416
8.43187 471
8.45198 429
8.4721 452
8.49221 482
8.51232 460
8.53244 432
8.55255 442
8.57266 452
8.59278 481
8.61289 396
8.63301 478
8.65312 438
8.67323 482
8.69335 509
8.71346 443
8.73357 511
8.75369 491
8.7738 494
8.79392 528
8.81403 536
8.83414 591
8.85426 555
8.87437 528
8.89448 539
8.9146 483
8.93471 498
8.95483 456
8.97494 424
8.99505 456
9.01517 383
9.03528 385
9.05539 427
9.07551 408
9.09562 380
9.11573 373
9.13585 417
9.15596 365
9.17608 379
9.19619 387
9.2163 383
9.23642 367
9.25653 374
9.27664 372
9.29676 371
9.31687 365
9.33699 396
9.3571 365
9.37721 394
9.39733 388
9.41744 365
9.43755 338
9.45767 370
9.47778 369
9.4979 357
9.51801 340
9.53812 404
9.55824 325
9.57835 356
9.59846 345
9.61858 366
9.63869 355
9.6588 349
9.67892 345
9.69903 395
9.71915 380
9.73926 341
9.75937 350
9.77949 347
9.7996 354
9.81971 348
9.83983 363
9.85994 323
9.88006 348
9.90017 338
9.92028 338
9.9404 335
9.96051 340
9.98062 330
10.00074 354
10.02085 346
10.04097 386
10.06108 364
10.08119 380
10.10131 356
10.12142 270
10.14153 335
10.16165 332
10.18176 344
10.20187 356
10.22199 365
10.2421 361
10.26222 347
10.28233 350
10.30244 359
10.32256 405
10.34267 383
10.36278 403
10.3829 350
10.40301 363
10.42313 334
10.44324 351
10.46335 318
10.48347 377
10.50358 312
10.52369 377
10.54381 354
10.56392 354
10.58403 368
10.60415 342
10.62426 342
10.64438 350
10.66449 357
10.6846 377
10.70472 315
10.72483 356
10.74494 342
10.76506 349
10.78517 366
10.80529 335
10.8254 364
10.84551 349
10.86563 335
10.88574 368
10.90585 315
10.92597 340
10.94608 368
10.9662 346
10.98631 381
11.00642 377
11.02654 403
11.04665 386
11.06676 361
11.08688 366
11.10699 358
11.1271 337
11.14722 347
11.16733 408
11.18745 352
11.20756 361
11.22767 354
11.24779 387
11.2679 376
11.28801 376
11.30813 357
11.32824 339
11.34836 395
11.36847 364
11.38858 362
11.4087 374
11.42881 406
11.44892 323
11.46904 381
11.48915 385
11.50927 420
11.52938 389
11.54949 416
11.56961 390
11.58972 345
11.60983 365
11.62995 379
11.65006 394
11.67017 371
11.69029 399
11.7104 404
11.73052 386
11.75063 378
11.77074 346
11.79086 412
11.81097 390
11.83108 390
11.8512 440
11.87131 435
11.89143 404
11.91154 422
11.93165 419
11.95177 422
11.97188 423
11.99199 415
12.01211 456
12.03222 470
12.05234 494
12.07245 456
12.09256 496
12.11268 453
12.13279 484
12.1529 510
12.17302 537
12.19313 543
12.21324 480
12.23336 519
12.25347 555
12.27359 552
12.2937 492
12.31381 514
12.33393 512
12.35404 543
12.37415 492
12.39427 535
12.41438 532
12.4345 452
12.45461 461
12.47472 485
12.49484 452
12.51495 437
12.53506 379
12.55518 398
12.57529 392
12.5954 377
12.61552 398
12.63563 354
12.65575 448
12.67586 367
12.69597 353
12.71609 365
12.7362 346
12.75631 352
12.77643 336
12.79654 358
12.81666 357
12.83677 356
12.85688 312
12.877 318
12.89711 313
12.91722 317
12.93734 360
12.95745 359
12.97757 327
12.99768 327
13.01779 325
13.03791 379
13.05802 385
13.07813 335
13.09825 340
13.11836 361
13.13847 362
13.15859 335
13.1787 335
13.19882 313
13.21893 334
13.23904 324
13.25916 308
13.27927 312
13.29938 350
13.3195 315
13.33961 322
13.35973 305
13.37984 321
13.39995 305
13.42007 337
13.44018 341
13.46029 307
13.48041 308
13.50052 338
13.52064 301
13.54075 350
13.56086 333
13.58098 327
13.60109 322
13.6212 329
13.64132 324
13.66143 307
13.68154 310
13.70166 316
13.72177 323
13.74189 313
13.762 310
13.78211 329
13.80223 274
13.82234 332
13.84245 328
13.86257 324
13.88268 307
13.9028 318
13.92291 328
13.94302 310
13.96314 307
13.98325 310
14.00336 305
14.02348 311
14.04359 331
14.06371 280
14.08382 338
14.10393 299
14.12405 294
14.14416 316
14.16427 307
14.18439 277
14.2045 304
14.22461 322
14.24473 320
14.26484 305
14.28496 295
14.30507 304
14.32518 303
14.3453 309
14.36541 304
14.38552 310
14.40564 331
14.42575 301
14.44587 308
14.46598 320
14.48609 296
14.50621 288
14.52632 289
14.54643 284
14.56655 294
14.58666 298
14.60677 284
14.62689 311
14.647 295
14.66712 296
14.68723 283
14.70734 273
14.72746 296
14.74757 305
14.76768 292
14.7878 318
14.80791 311
14.82803 263
14.84814 289
14.86825 263
14.88837 326
14.90848 315
14.92859 292
14.94871 318
14.96882 322
14.98894 299
15.00905 301
15.02916 318
15.04928 285
15.06939 280
15.0895 312
15.10962 272
15.12973 299
15.14984 291
15.16996 348
15.19007 262
15.21019 264
15.2303 298
15.25041 316
15.27053 295
15.29064 304
15.31075 292
15.33087 307
15.35098 305
15.3711 339
15.39121 289
15.41132 292
15.43144 285
15.45155 305
15.47166 310
15.49178 302
15.51189 307
15.53201 284
15.55212 288
15.57223 296
15.59235 287
15.61246 298
15.63257 288
15.65269 318
15.6728 248
15.69291 272
15.71303 262
15.73314 285
15.75326 269
15.77337 317
15.79348 296
15.8136 294
15.83371 276
15.85382 296
15.87394 289
15.89405 323
15.91417 301
15.93428 300
15.95439 285
15.97451 268
15.99462 287
16.01473 290
16.03485 307
16.05496 292
16.07508 283
16.09519 316
16.1153 276
16.13542 260
16.15553 276
16.17564 285
16.19576 260
16.21587 297
16.23598 298
16.2561 297
16.27621 316
16.29633 284
16.31644 329
16.33655 262
16.35667 276
16.37678 273
16.39689 290
16.41701 271
16.43712 293
16.45724 272
16.47735 295
16.49746 284
16.51758 291
16.53769 305
16.5578 308
16.57792 284
16.59803 286
16.61814 289
16.63826 297
16.65837 233
16.67849 302
16.6986 262
16.71871 288
16.73883 309
16.75894 277
16.77905 308
16.79917 279
16.81928 265
16.8394 278
16.85951 259
16.87962 304
16.89974 280
16.91985 249
16.93996 285
16.96008 289
16.98019 285
17.00031 247
17.02042 308
17.04053 277
17.06065 288
17.08076 262
17.10087 268
17.12099 292
17.1411 268
17.16121 297
17.18133 281
17.20144 288
17.22156 308
17.24167 282
17.26178 250
17.2819 283
17.30201 292
17.32212 315
17.34224 290
17.36235 282
17.38247 275
17.40258 265
17.42269 271
17.44281 282
17.46292 297
17.48303 321
17.50315 275
17.52326 291
17.54338 291
17.56349 334
17.5836 302
17.60372 302
17.62383 309
17.64394 283
17.66406 323
17.68417 298
17.70428 320
17.7244 315
17.74451 340
17.76463 344
17.78474 319
17.80485 310
17.82497 299
17.84508 329
17.86519 303
17.88531 324
17.90542 327
17.92554 312
17.94565 320
17.96576 319
17.98588 293
18.00599 297
18.0261 343
18.04622 295
18.06633 316
18.08645 310
18.10656 349
18.12667 342
18.14679 400
18.1669 377
18.18701 412
18.20713 437
18.22724 482
18.24735 460
18.26747 464
18.28758 497
18.3077 465
18.32781 431
18.34792 412
18.36804 362
18.38815 335
18.40826 318
18.42838 324
18.44849 326
18.46861 272
18.48872 307
18.50883 284
18.52895 252
18.54906 264
18.56917 275
18.58929 318
18.6094 307
18.62951 288
18.64963 267
18.66974 300
18.68986 267
18.70997 283
18.73008 294
18.7502 296
18.77031 300
18.79042 284
18.81054 293
18.83065 296
18.85077 325
18.87088 337
18.89099 288
18.91111 313
18.93122 317
18.95133 326
18.97145 281
18.99156 282
19.01168 318
19.03179 277
19.0519 306
19.07202 301
19.09213 299
19.11224 341
19.13236 317
19.15247 307
19.17258 329
19.1927 361
19.21281 344
19.23293 345
19.25304 382
19.27315 402
19.29327 418
19.31338 344
19.33349 372
19.35361 388
19.37372 384
19.39384 359
19.41395 372
19.43406 352
19.45418 389
19.47429 360
19.4944 408
19.51452 362
19.53463 397
19.55475 425
19.57486 417
19.59497 429
19.61509 446
19.6352 468
19.65531 511
19.67543 517
19.69554 575
19.71565 587
19.73577 630
19.75588 631
19.776 637
19.79611 660
19.81622 673
19.83634 645
19.85645 665
19.87656 613
19.89668 632
19.91679 630
19.93691 604
19.95702 603
19.97713 594
19.99725 576
20.01736 597
20.03747 582
20.05759 572
20.0777 544
20.09782 609
20.11793 560
20.13804 566
20.15816 592
20.17827 607
20.19838 589
20.2185 590
20.23861 590
20.25872 611
20.27884 598
20.29895 667
20.31907 643
20.33918 598
20.35929 588
20.37941 605
20.39952 591
20.41963 628
20.43975 636
20.45986 671
20.47998 696
20.50009 677
20.5202 704
20.54032 706
20.56043 690
20.58054 785
20.60066 738
20.62077 877
20.64088 1003
20.661 1188
20.68111 1305
20.70123 1623
20.72134 1874
20.74145 2346
20.76157 2777
20.78168 3137
20.80179 3593
20.82191 3716
20.84202 3682
20.86214 3456
20.88225 3053
20.90236 2244
20.92248 1698
20.94259 1337
20.9627 1028
20.98282 893
21.00293 769
21.02305 689
21.04316 687
21.06327 703
21.08339 660
21.1035 611
21.12361 562
21.14373 567
21.16384 539
21.18395 548
21.20407 548
21.22418 492
21.2443 512
21.26441 523
21.28452 550
21.30464 539
21.32475 515
21.34486 550
21.36498 520
21.38509 467
21.40521 516
21.42532 523
21.44543 474
21.46555 441
21.48566 468
21.50577 451
21.52589 459
21.546 468
21.56612 461
21.58623 460
21.60634 428
21.62646 492
21.64657 476
21.66668 447
21.6868 386
21.70691 439
21.72702 432
21.74714 422
21.76725 433
21.78737 450
21.80748 429
21.82759 488
21.84771 437
21.86782 415
21.88793 471
21.90805 485
21.92816 377
21.94828 436
21.96839 397
21.9885 421
22.00862 425
22.02873 448
22.04884 465
22.06896 452
22.08907 456
22.10919 427
22.1293 465
22.14941 403
22.16953 400
22.18964 460
22.20975 425
22.22987 408
22.24998 442
22.27009 448
22.29021 441
22.31032 444
22.33044 465
22.35055 436
22.37066 399
22.39078 423
22.41089 381
22.431 444
22.45112 393
22.47123 414
22.49135 381
22.51146 434
22.53157 397
22.55169 436
22.5718 391
22.59191 415
22.61203 452
22.63214 417
22.65225 420
22.67237 434
22.69248 414
22.7126 366
22.73271 441
22.75282 418
22.77294 429
22.79305 435
22.81316 427
22.83328 491
22.85339 485
22.87351 439
22.89362 434
22.91373 413
22.93385 408
22.95396 385
22.97407 465
22.99419 397
23.0143 416
23.03442 415
23.05453 432
23.07464 431
23.09476 459
23.11487 430
23.13498 416
23.1551 428
23.17521 430
23.19532 454
23.21544 408
23.23555 403
23.25567 441
23.27578 423
23.29589 468
23.31601 419
23.33612 380
23.35623 402
23.37635 398
23.39646 371
23.41658 411
23.43669 353
23.4568 432
23.47692 378
23.49703 446
23.51714 431
23.53726 441
23.55737 444
23.57749 441
23.5976 433
23.61771 437
23.63783 457
23.65794 451
23.67805 462
23.69817 476
23.71828 498
23.73839 441
23.75851 486
23.77862 445
23.79874 475
23.81885 502
23.83896 491
23.85908 461
23.87919 480
23.8993 494
23.91942 495
23.93953 478
23.95965 447
23.97976 465
23.99987 446
24.01999 468
24.0401 439
24.06021 483
24.08033 462
24.10044 422
24.12056 412
24.14067 414
24.16078 447
24.1809 426
24.20101 426
24.22112 444
24.24124 414
24.26135 462
24.28146 490
24.30158 466
24.32169 446
24.34181 427
24.36192 451
24.38203 450
24.40215 422
24.42226 431
24.44237 430
24.46249 430
24.4826 440
24.50272 435
24.52283 479
24.54294 437
24.56306 491
24.58317 535
24.60328 515
24.6234 516
24.64351 509
24.66362 529
24.68374 502
24.70385 542
24.72397 491
24.74408 531
24.76419 560
24.78431 544
24.80442 516
24.82453 557
24.84465 519
24.86476 542
24.88488 538
24.90499 532
24.9251 583
24.94522 553
24.96533 498
24.98544 522
25.00556 480
25.02567 535
25.04579 519
25.0659 486
25.08601 474
25.10613 487
25.12624 494
25.14635 463
25.16647 451
25.18658 448
25.20669 471
25.22681 473
25.24692 460
25.26704 526
25.28715 469
25.30726 494
25.32738 490
25.34749 489
25.3676 511
25.38772 540
25.40783 515
25.42795 572
25.44806 556
25.46817 590
25.48829 554
25.5084 542
25.52851 527
25.54863 565
25.56874 588
25.58886 601
25.60897 547
25.62908 577
25.6492 570
25.66931 526
25.68942 508
25.70954 558
25.72965 506
25.74976 532
25.76988 527
25.78999 561
25.81011 573
25.83022 565
25.85033 556
25.87045 557
25.89056 537
25.91067 545
25.93079 522
25.9509 567
25.97102 594
25.99113 619
26.01124 609
26.03136 651
26.05147 673
26.07158 678
26.0917 741
26.11181 697
26.13193 749
26.15204 767
26.17215 815
26.19227 931
26.21238 976
26.23249 1037
26.25261 1141
26.27272 1242
26.29283 1345
26.31295 1596
26.33306 1824
26.35318 2186
26.37329 2484
26.3934 3010
26.41352 3638
26.43363 4623
26.45374 5679
26.47386 6758
26.49397 8099
26.51409 9892
26.5342 11386
26.55431 12926
26.57443 14528
26.59454 15422
26.61465 15357
26.63477 14489
26.65488 12131
26.67499 9367
26.69511 7185
26.71522 5396
26.73534 3575
26.75545 2363
26.77556 1628
26.79568 1372
26.81579 1189
26.8359 1116
26.85602 977
26.87613 943
26.89625 835
26.91636 811
26.93647 806
26.95659 750
26.9767 718
26.99681 713
27.01693 724
27.03704 708
27.05716 671
27.07727 662
27.09738 634
27.1175 636
27.13761 578
27.15772 595
27.17784 583
27.19795 518
27.21806 591
27.23818 596
27.25829 545
27.27841 604
27.29852 623
27.31863 647
27.33875 609
27.35886 616
27.37897 670
27.39909 655
27.4192 668
27.43932 599
27.45943 645
27.47954 631
27.49966 603
27.51977 528
27.53988 564
27.56 493
27.58011 480
27.60023 492
27.62034 477
27.64045 507
27.66057 476
27.68068 453
27.70079 522
27.72091 424
27.74102 483
27.76113 462
27.78125 463
27.80136 475
27.82148 458
27.84159 455
27.8617 459
27.88182 400
27.90193 431
27.92204 445
27.94216 473
27.96227 428
27.98239 421
28.0025 439
28.02261 433
28.04273 421
28.06284 432
28.08295 430
28.10307 404
28.12318 408
28.1433 408
28.16341 374
28.18352 387
28.20364 396
28.22375 438
28.24386 385
28.26398 396
28.28409 383
28.3042 393
28.32432 380
28.34443 334
28.36455 375
28.38466 392
28.40477 363
28.42489 363
28.445 405
28.46511 393
28.48523 407
28.50534 379
28.52546 339
28.54557 381
28.56568 389
28.5858 373
28.60591 375
28.62602 361
28.64614 390
28.66625 378
28.68636 380
28.70648 381
28.72659 365
28.74671 369
28.76682 371
28.78693 373
28.80705 351
28.82716 331
28.84727 374
28.86739 375
28.8875 336
28.90762 367
28.92773 365
28.94784 337
28.96796 358
28.98807 333
29.00818 330
29.0283 343
29.04841 369
29.06853 346
29.08864 340
29.10875 367
29.12887 324
29.14898 357
29.16909 355
29.18921 391
29.20932 364
29.22943 377
29.24955 373
29.26966 365
29.28978 351
29.30989 403
29.33 362
29.35012 341
29.37023 345
29.39034 408
29.41046 401
29.43057 403
29.45069 414
29.4708 384
29.49091 354
29.51103 380
29.53114 367
29.55125 375
29.57137 399
29.59148 352
29.6116 381
29.63171 367
29.65182 408
29.67194 408
29.69205 385
29.71216 399
29.73228 415
29.75239 401
29.7725 429
29.79262 401
29.81273 451
29.83285 392
29.85296 400
29.87307 346
29.89319 419
29.9133 352
29.93341 353
29.95353 372
29.97364 370
29.99376 371
30.01387 375
30.03398 382
30.0541 355
30.07421 424
30.09432 352
30.11444 404
30.13455 415
30.15467 389
30.17478 399
30.19489 371
30.21501 396
30.23512 351
30.25523 333
30.27535 373
30.29546 345
30.31557 325
30.33569 377
30.3558 388
30.37592 411
30.39603 343
30.41614 348
30.43626 368
30.45637 318
30.47648 373
30.4966 365
30.51671 343
30.53683 362
30.55694 341
30.57705 367
30.59717 381
30.61728 335
30.63739 371
30.65751 395
30.67762 379
30.69773 353
30.71785 394
30.73796 416
30.75808 404
30.77819 426
30.7983 397
30.81842 400
30.83853 351
30.85864 344
30.87876 384
30.89887 360
30.91899 328
30.9391 379
30.95921 343
30.97933 372
30.99944 359
31.01955 358
31.03967 385
31.05978 336
31.0799 372
31.10001 379
31.12012 339
31.14024 361
31.16035 337
31.18046 353
31.20058 362
31.22069 371
31.2408 347
31.26092 360
31.28103 341
31.30115 386
31.32126 334
31.34137 333
31.36149 326
31.3816 355
31.40171 312
31.42183 339
31.44194 310
31.46206 307
31.48217 338
31.50228 354
31.5224 324
31.54251 327
31.56262 283
31.58274 322
31.60285 358
31.62297 321
31.64308 334
31.66319 327
31.68331 333
31.70342 334
31.72353 323
31.74365 359
31.76376 340
31.78387 347
31.80399 343
31.8241 350
31.84422 334
31.86433 396
31.88444 338
31.90456 330
31.92467 321
31.94478 346
31.9649 354
31.98501 362
32.00513 356
32.02524 350
32.04535 352
32.06547 361
32.08558 381
32.10569 340
32.12581 365
32.14592 353
32.16604 355
32.18615 332
32.20626 338
32.22638 360
32.24649 354
32.2666 369
32.28672 360
32.30683 359
32.32694 349
32.34706 362
32.36717 368
32.38729 367
32.4074 369
32.42751 326
32.44763 347
32.46774 378
32.48785 372
32.50797 329
32.52808 337
32.5482 345
32.56831 353
32.58842 347
32.60854 343
32.62865 368
32.64876 317
32.66888 340
32.68899 351
32.7091 355
32.72922 344
32.74933 312
32.76945 324
32.78956 320
32.80967 327
32.82979 358
32.8499 342
32.87001 343
32.89013 353
32.91024 353
32.93036 352
32.95047 345
32.97058 358
32.9907 390
33.01081 337
33.03092 382
33.05104 379
33.07115 360
33.09127 347
33.11138 368
33.13149 353
33.15161 381
33.17172 366
33.19183 373
33.21195 367
33.23206 333
33.25217 360
33.27229 339
33.2924 328
33.31252 346
33.33263 338
33.35274 356
33.37286 340
33.39297 324
33.41308 349
33.4332 339
33.45331 319
33.47343 347
33.49354 356
33.51365 365
33.53377 358
33.55388 325
33.57399 338
33.59411 353
33.61422 346
33.63434 314
33.65445 359
33.67456 334
33.69468 339
33.71479 345
33.7349 369
33.75502 324
33.77513 341
33.79524 366
33.81536 369
33.83547 358
33.85559 357
33.8757 389
33.89581 364
33.91593 381
33.93604 390
33.95615 376
33.97627 419
33.99638 435
34.0165 390
34.03661 490
34.05672 493
34.07684 520
34.09695 510
34.11706 508
34.13718 523
34.15729 536
34.17741 582
34.19752 517
34.21763 519
34.23775 535
34.25786 549
34.27797 537
34.29809 532
34.3182 480
34.33831 484
34.35843 500
34.37854 479
34.39866 454
34.41877 471
34.43888 457
34.459 416
34.47911 442
34.49922 444
34.51934 391
34.53945 447
34.55957 451
34.57968 452
34.59979 452
34.61991 424
34.64002 453
34.66013 428
34.68025 476
34.70036 499
34.72047 526
34.74059 530
34.7607 533
34.78082 546
34.80093 545
34.82104 567
34.84116 569
34.86127 543
34.88138 582
34.9015 588
34.92161 511
34.94173 530
34.96184 521
34.98195 524
35.00207 503
35.02218 494
35.04229 477
35.06241 473
35.08252 449
35.10264 485
35.12275 462
35.14286 420
35.16298 486
35.18309 470
35.2032 481
35.22332 465
35.24343 436
35.26354 449
35.28366 497
35.30377 436
35.32389 459
35.344 405
35.36411 472
35.38423 506
35.40434 470
35.42445 466
35.44457 486
35.46468 488
35.4848 462
35.50491 467
35.52502 505
35.54514 525
35.56525 506
35.58536 467
35.60548 465
35.62559 491
35.64571 438
35.66582 462
35.68593 515
35.70605 473
35.72616 482
35.74627 483
35.76639 482
35.7865 477
35.80661 463
35.82673 479
35.84684 505
35.86696 498
35.88707 491
35.90718 419
35.9273 403
35.94741 409
35.96752 443
35.98764 445
36.00775 465
36.02787 411
36.04798 427
36.06809 460
36.08821 437
36.10832 423
36.12843 455
36.14855 444
36.16866 431
36.18878 448
36.20889 498
36.229 515
36.24912 554
36.26923 582
36.28934 616
36.30946 610
36.32957 710
36.34968 828
36.3698 840
36.38991 936
36.41003 1041
36.43014 1171
36.45025 1230
36.47037 1281
36.49048 1294
36.51059 1317
36.53071 1281
36.55082 1148
36.57094 1033
36.59105 918
36.61116 777
36.63128 709
36.65139 614
36.6715 621
36.69162 510
36.71173 463
36.73184 475
36.75196 428
36.77207 476
36.79219 437
36.8123 434
36.83241 434
36.85253 418
36.87264 458
36.89275 432
36.91287 438
36.93298 401
36.9531 458
36.97321 435
36.99332 460
37.01344 426
37.03355 457
37.05366 478
37.07378 448
37.09389 447
37.11401 434
37.13412 431
37.15423 430
37.17435 411
37.19446 417
37.21457 397
37.23469 396
37.2548 408
37.27491 395
37.29503 397
37.31514 429
37.33526 402
37.35537 386
37.37548 415
37.3956 395
37.41571 404
37.43582 423
37.45594 407
37.47605 401
37.49617 389
37.51628 444
37.53639 415
37.55651 477
37.57662 459
37.59673 469
37.61685 391
37.63696 411
37.65708 444
37.67719 440
37.6973 413
37.71742 379
37.73753 388
37.75764 398
37.77776 372
37.79787 367
37.81798 391
37.8381 381
37.85821 374
37.87833 359
37.89844 371
37.91855 346
37.93867 400
37.95878 377
37.97889 365
37.99901 359
38.01912 414
38.03924 376
38.05935 415
38.07946 370
38.09958 389
38.11969 410
38.1398 403
38.15992 423
38.18003 431
38.20015 410
38.22026 398
38.24037 427
38.26049 385
38.2806 416
38.30071 357
38.32083 421
38.34094 418
38.36105 420
38.38117 384
38.40128 384
38.4214 416
38.44151 443
38.46162 405
38.48174 410
38.50185 425
38.52196 423
38.54208 380
38.56219 395
38.58231 393
38.60242 414
38.62253 433
38.64265 405
38.66276 378
38.68287 406
38.70299 379
38.7231 370
38.74321 400
38.76333 401
38.78344 374
38.80356 396
38.82367 372
38.84378 378
38.8639 370
38.88401 411
38.90412 404
38.92424 405
38.94435 429
38.96447 437
38.98458 417
39.00469 423
39.02481 449
39.04492 429
39.06503 455
39.08515 457
39.10526 449
39.12538 487
39.14549 520
39.1656 529
39.18572 602
39.20583 633
39.22594 608
39.24606 715
39.26617 787
39.28628 849
39.3064 903
39.32651 960
39.34663 1079
39.36674 1104
39.38685 1234
39.40697 1289
39.42708 1242
39.44719 1108
39.46731 1127
39.48742 958
39.50754 874
39.52765 763
39.54776 694
39.56788 622
39.58799 537
39.6081 440
39.62822 436
39.64833 385
39.66845 425
39.68856 362
39.70867 385
39.72879 414
39.7489 405
39.76901 402
39.78913 399
39.80924 395
39.82935 421
39.84947 372
39.86958 383
39.8897 360
39.90981 452
39.92992 416
39.95004 402
39.97015 472
39.99026 432
40.01038 490
40.03049 445
40.05061 510
40.07072 503
40.09083 569
40.11095 611
40.13106 585
40.15117 647
40.17129 681
40.1914 716
40.21152 717
40.23163 749
40.25174 808
40.27186 770
40.29197 707
40.31208 612
40.3322 597
40.35231 509
40.37242 521
40.39254 452
40.41265 393
40.43277 405
40.45288 393
40.47299 409
40.49311 368
40.51322 361
40.53333 366
40.55345 351
40.57356 365
40.59368 362
40.61379 361
40.6339 359
40.65402 360
40.67413 336
40.69424 393
40.71436 364
40.73447 373
40.75458 373
40.7747 346
40.79481 351
40.81493 388
40.83504 355
40.85515 369
40.87527 356
40.89538 354
40.91549 387
40.93561 354
40.95572 335
40.97584 386
40.99595 375
41.01606 338
41.03618 366
41.05629 376
41.0764 349
41.09652 380
41.11663 366
41.13675 358
41.15686 377
41.17697 381
41.19709 338
41.2172 377
41.23731 348
41.25743 376
41.27754 385
41.29765 384
41.31777 364
41.33788 365
41.358 404
41.37811 401
41.39822 362
41.41834 408
41.43845 398
41.45856 378
41.47868 384
41.49879 387
41.51891 387
41.53902 373
41.55913 378
41.57925 378
41.59936 393
41.61947 411
41.63959 403
41.6597 377
41.67982 386
41.69993 424
41.72004 383
41.74016 403
41.76027 399
41.78038 406
41.8005 390
41.82061 433
41.84072 382
41.86084 399
41.88095 370
41.90107 345
41.92118 384
41.94129 352
41.96141 389
41.98152 356
42.00163 367
42.02175 394
42.04186 367
42.06198 383
42.08209 406
42.1022 407
42.12232 424
42.14243 465
42.16254 461
42.18266 537
42.20277 510
42.22289 582
42.243 608
42.26311 650
42.28323 714
42.30334 770
42.32345 832
42.34357 832
42.36368 908
42.38379 931
42.40391 940
42.42402 901
42.44414 798
42.46425 786
42.48436 641
42.50448 636
42.52459 567
42.5447 504
42.56482 456
42.58493 428
42.60505 376
42.62516 361
42.64527 327
42.66539 334
42.6855 326
42.70561 347
42.72573 312
42.74584 295
42.76595 344
42.78607 316
42.80618 283
42.8263 299
42.84641 297
42.86652 329
42.88664 336
42.90675 294
42.92686 312
42.94698 306
42.96709 294
42.98721 289
43.00732 277
43.02743 293
43.04755 294
43.06766 289
43.08777 317
43.10789 297
43.128 328
43.14812 278
43.16823 290
43.18834 292
43.20846 311
43.22857 323
43.24868 298
43.2688 280
43.28891 281
43.30902 285
43.32914 330
43.34925 293
43.36937 314
43.38948 325
43.40959 310
43.42971 282
43.44982 283
43.46993 292
43.49005 300
43.51016 332
43.53028 286
43.55039 310
43.5705 310
43.59062 319
43.61073 300
43.63084 317
43.65096 273
43.67107 277
43.69119 311
43.7113 283
43.73141 295
43.75153 300
43.77164 305
43.79175 292
43.81187 297
43.83198 315
43.85209 287
43.87221 336
43.89232 305
43.91244 307
43.93255 289
43.95266 270
43.97278 316
43.99289 307
44.013 325
44.03312 309
44.05323 299
44.07335 315
44.09346 331
44.11357 294
44.13369 327
44.1538 327
44.17391 322
44.19403 301
44.21414 302
44.23426 336
44.25437 315
44.27448 284
44.2946 320
44.31471 302
44.33482 294
44.35494 296
44.37505 298
44.39516 336
44.41528 297
44.43539 307
44.45551 314
44.47562 310
44.49573 292
44.51585 312
44.53596 304
44.55607 318
44.57619 314
44.5963 299
44.61642 290
44.63653 317
44.65664 302
44.67676 309
44.69687 308
44.71698 331
44.7371 314
44.75721 303
44.77732 306
44.79744 314
44.81755 323
44.83767 319
44.85778 303
44.87789 315
44.89801 346
44.91812 321
44.93823 333
44.95835 351
44.97846 314
44.99858 334
45.01869 365
45.0388 344
45.05892 362
45.07903 336
45.09914 356
45.11926 312
45.13937 351
45.15949 350
45.1796 349
45.19971 355
45.21983 333
45.23994 354
45.26005 359
45.28017 379
45.30028 372
45.32039 408
45.34051 426
45.36062 415
45.38074 449
45.40085 423
45.42096 427
45.44108 451
45.46119 444
45.4813 431
45.50142 453
45.52153 450
45.54165 524
45.56176 511
45.58187 551
45.60199 557
45.6221 562
45.64221 639
45.66233 693
45.68244 663
45.70256 718
45.72267 716
45.74278 753
45.7629 757
45.78301 693
45.80312 629
45.82324 599
45.84335 562
45.86346 542
45.88358 447
45.90369 452
45.92381 429
45.94392 404
45.96403 342
45.98415 349
46.00426 327
46.02437 323
46.04449 298
46.0646 316
46.08472 346
46.10483 310
46.12494 322
46.14506 297
46.16517 328
46.18528 303
46.2054 334
46.22551 283
46.24563 297
46.26574 305
46.28585 292
46.30597 288
46.32608 294
46.34619 308
46.36631 352
46.38642 290
46.40653 305
46.42665 312
46.44676 295
46.46688 330
46.48699 320
46.5071 258
46.52722 271
46.54733 299
46.56744 315
46.58756 303
46.60767 337
46.62779 315
46.6479 285
46.66801 308
46.68813 318
46.70824 265
46.72835 307
46.74847 298
46.76858 317
46.78869 301
46.80881 274
46.82892 283
46.84904 304
46.86915 253
46.88926 328
46.90938 306
46.92949 293
46.9496 308
46.96972 307
46.98983 311
47.00995 291
47.03006 267
47.05017 304
47.07029 325
47.0904 313
47.11051 299
47.13063 309
47.15074 315
47.17086 297
47.19097 298
47.21108 289
47.2312 293
47.25131 292
47.27142 325
47.29154 290
47.31165 316
47.33176 307
47.35188 308
47.37199 313
47.39211 328
47.41222 310
47.43233 308
47.45245 327
47.47256 314
47.49267 316
47.51279 298
47.5329 294
47.55302 312
47.57313 297
47.59324 304
47.61336 322
47.63347 296
47.65358 276
47.6737 323
47.69381 286
47.71393 293
47.73404 312
47.75415 291
47.77427 269
47.79438 296
47.81449 315
47.83461 348
47.85472 319
47.87483 281
47.89495 298
47.91506 282
47.93518 315
47.95529 291
47.9754 287
47.99552 280
48.01563 316
48.03574 299
48.05586 296
48.07597 281
48.09609 307
48.1162 304
48.13631 307
48.15643 286
48.17654 272
48.19665 300
48.21677 265
48.23688 303
48.257 332
48.27711 325
48.29722 305
48.31734 275
48.33745 314
48.35756 307
48.37768 297
48.39779 303
48.4179 307
48.43802 315
48.45813 278
48.47825 293
48.49836 310
48.51847 314
48.53859 327
48.5587 286
48.57881 317
48.59893 316
48.61904 282
48.63916 309
48.65927 312
48.67938 304
48.6995 334
48.71961 310
48.73972 306
48.75984 322
48.77995 291
48.80006 339
48.82018 317
48.84029 331
48.86041 306
48.88052 329
48.90063 312
48.92075 311
48.94086 299
48.96097 338
48.98109 321
49.0012 314
49.02132 293
49.04143 300
49.06154 283
49.08166 310
49.10177 311
49.12188 341
49.142 305
49.16211 301
49.18223 344
49.20234 310
49.22245 301
49.24257 331
49.26268 309
49.28279 334
49.30291 332
49.32302 321
49.34313 333
49.36325 324
49.38336 288
49.40348 338
49.42359 332
49.4437 336
49.46382 308
49.48393 345
49.50404 313
49.52416 320
49.54427 336
49.56439 336
49.5845 379
49.60461 357
49.62473 378
49.64484 378
49.66495 421
49.68507 439
49.70518 390
49.7253 464
49.74541 503
49.76552 509
49.78564 510
49.80575 548
49.82586 610
49.84598 671
49.86609 740
49.8862 791
49.90632 868
49.92643 1042
49.94655 1107
49.96666 1190
49.98677 1301
50.00689 1482
50.027 1586
50.04711 1589
50.06723 1713
50.08734 1720
50.10746 1712
50.12757 1572
50.14768 1422
50.1678 1171
50.18791 1051
50.20802 961
50.22814 891
50.24825 907
50.26837 758
50.28848 641
50.30859 527
50.32871 456
50.34882 430
50.36893 431
50.38905 432
50.40916 414
50.42927 362
50.44939 367
50.4695 394
50.48962 382
50.50973 400
50.52984 397
50.54996 372
50.57007 385
50.59018 382
50.6103 370
50.63041 352
50.65053 368
50.67064 359
50.69075 315
50.71087 353
50.73098 326
50.75109 335
50.77121 299
50.79132 335
50.81143 316
50.83155 315
50.85166 272
50.87178 271
50.89189 312
50.912 301
50.93212 310
50.95223 313
50.97234 281
50.99246 293
51.01257 276
51.03269 305
51.0528 260
51.07291 292
51.09303 254
51.11314 266
51.13325 258
51.15337 268
51.17348 278
51.1936 292
51.21371 278
51.23382 296
51.25394 265
51.27405 271
51.29416 292
51.31428 294
51.33439 313
51.3545 268
51.37462 298
51.39473 245
51.41485 262
51.43496 263
51.45507 304
51.47519 262
51.4953 271
51.51541 260
51.53553 271
51.55564 241
51.57576 284
51.59587 293
51.61598 282
51.6361 297
51.65621 273
51.67632 267
51.69644 276
51.71655 280
51.73667 302
51.75678 291
51.77689 293
51.79701 256
51.81712 273
51.83723 269
51.85735 284
51.87746 280
51.89757 277
51.91769 276
51.9378 276
51.95792 285
51.97803 281
51.99814 295
52.01826 310
52.03837 288
52.05848 279
52.0786 294
52.09871 281
52.11883 300
52.13894 284
52.15905 323
52.17917 287
52.19928 281
52.21939 280
52.23951 293
52.25962 280
52.27974 296
52.29985 302
52.31996 260
52.34008 304
52.36019 316
52.3803 301
52.40042 324
52.42053 284
52.44064 308
52.46076 271
52.48087 282
52.50099 272
52.5211 314
52.54121 337
52.56133 265
52.58144 280
52.60155 292
52.62167 279
52.64178 318
52.6619 285
52.68201 299
52.70212 319
52.72224 267
52.74235 293
52.76246 313
52.78258 317
52.80269 332
52.8228 293
52.84292 280
52.86303 279
52.88315 292
52.90326 287
52.92337 311
52.94349 307
52.9636 295
52.98371 302
53.00383 321
53.02394 284
53.04406 310
53.06417 280
53.08428 285
53.1044 306
53.12451 296
53.14462 277
53.16474 269
53.18485 327
53.20497 312
53.22508 298
53.24519 311
53.26531 293
53.28542 330
53.30553 334
53.32565 277
53.34576 292
53.36587 292
53.38599 302
53.4061 293
53.42622 340
53.44633 298
53.46644 320
53.48656 308
53.50667 301
53.52678 330
53.5469 323
53.56701 302
53.58713 311
53.60724 326
53.62735 317
53.64747 317
53.66758 309
53.68769 323
53.70781 333
53.72792 337
53.74804 332
53.76815 318
53.78826 286
53.80838 335
53.82849 349
53.8486 334
53.86872 333
53.88883 351
53.90894 355
53.92906 361
53.94917 412
53.96929 341
53.9894 350
54.00951 351
54.02963 364
54.04974 363
54.06985 360
54.08997 362
54.11008 358
54.1302 364
54.15031 382
54.17042 325
54.19054 382
54.21065 374
54.23076 348
54.25088 396
54.27099 343
54.29111 392
54.31122 395
54.33133 384
54.35145 387
54.37156 407
54.39167 384
54.41179 411
54.4319 405
54.45201 425
54.47213 437
54.49224 434
54.51236 419
54.53247 407
54.55258 453
54.5727 453
54.59281 460
54.61292 516
54.63304 540
54.65315 607
54.67327 601
54.69338 612
54.71349 669
54.73361 662
54.75372 733
54.77383 748
54.79395 742
54.81406 748
54.83417 760
54.85429 741
54.8744 714
54.89452 699
54.91463 592
54.93474 592
54.95486 550
54.97497 642
54.99508 577
55.0152 553
55.03531 526
55.05543 479
55.07554 496
55.09565 472
55.11577 515
55.13588 482
55.15599 470
55.17611 452
55.19622 498
55.21634 516
55.23645 548
55.25656 521
55.27668 535
55.29679 517
55.3169 484
55.33702 508
55.35713 503
55.37724 440
55.39736 444
55.41747 441
55.43759 418
55.4577 418
55.47781 397
55.49793 403
55.51804 390
55.53815 325
55.55827 401
55.57838 360
55.5985 367
55.61861 339
55.63872 355
55.65884 358
55.67895 358
55.69906 385
55.71918 372
55.73929 326
55.75941 319
55.77952 328
55.79963 370
55.81975 362
55.83986 353
55.85997 350
55.88009 355
55.9002 358
55.92031 324
55.94043 313
55.96054 336
55.98066 324
56.00077 315
56.02088 343
56.041 343
56.06111 324
56.08122 330
56.10134 317
56.12145 303
56.14157 334
56.16168 313
56.18179 313
56.20191 312
56.22202 310
56.24213 332
56.26225 331
56.28236 292
56.30248 313
56.32259 291
56.3427 331
56.36282 310
56.38293 330
56.40304 305
56.42316 324
56.44327 318
56.46338 321
56.4835 324
56.50361 309
56.52373 312
56.54384 324
56.56395 306
56.58407 308
56.60418 312
56.62429 326
56.64441 297
56.66452 314
56.68464 341
56.70475 304
56.72486 315
56.74498 283
56.76509 289
56.7852 317
56.80532 293
56.82543 322
56.84554 293
56.86566 332
56.88577 316
56.90589 289
56.926 302
56.94611 301
56.96623 298
56.98634 294
57.00645 296
57.02657 299
57.04668 319
57.0668 340
57.08691 307
57.10702 307
57.12714 313
57.14725 305
57.16736 352
57.18748 323
57.20759 311
57.22771 313
57.24782 303
57.26793 313
57.28805 321
57.30816 336
57.32827 326
57.34839 347
57.3685 303
57.38861 310
57.40873 320
57.42884 299
57.44896 285
57.46907 285
57.48918 314
57.5093 301
57.52941 282
57.54952 295
57.56964 294
57.58975 304
57.60987 269
57.62998 304
57.65009 275
57.67021 316
57.69032 301
57.71043 328
57.73055 275
57.75066 284
57.77078 298
57.79089 304
57.811 274
57.83112 290
57.85123 301
57.87134 292
57.89146 276
57.91157 308
57.93168 274
57.9518 286
57.97191 263
57.99203 286
58.01214 273
58.03225 285
58.05237 295
58.07248 287
58.09259 283
58.11271 280
58.13282 294
58.15294 279
58.17305 303
58.19316 296
58.21328 293
58.23339 305
58.2535 288
58.27362 310
58.29373 256
58.31385 290
58.33396 271
58.35407 303
58.37419 300
58.3943 301
58.41441 269
58.43453 287
58.45464 294
58.47475 305
58.49487 299
58.51498 311
58.5351 279
58.55521 302
58.57532 299
58.59544 293
58.61555 309
58.63566 296
58.65578 292
58.67589 298
58.69601 288
58.71612 281
58.73623 303
58.75635 302
58.77646 290
58.79657 320
58.81669 297
58.8368 266
58.85691 294
58.87703 310
58.89714 310
58.91726 289
58.93737 289
58.95748 282
58.9776 323
58.99771 295
59.01782 301
59.03794 268
59.05805 299
59.07817 345
59.09828 296
59.11839 326
59.13851 310
59.15862 307
59.17873 306
59.19885 329
59.21896 307
59.23908 307
59.25919 316
59.2793 304
59.29942 342
59.31953 360
59.33964 328
59.35976 322
59.37987 326
59.39998 344
59.4201 402
59.44021 383
59.46033 415
59.48044 373
59.50055 396
59.52067 419
59.54078 392
59.56089 399
59.58101 484
59.60112 469
59.62124 529
59.64135 539
59.66146 548
59.68158 620
59.70169 675
59.7218 777
59.74192 842
59.76203 853
59.78215 971
59.80226 1027
59.82237 1128
59.84249 1201
59.8626 1211
59.88271 1243
59.90283 1245
59.92294 1246
59.94305 1101
59.96317 959
59.98328 862
60.0034 876
60.02351 829
60.04362 770
60.06374 791
60.08385 757
60.10396 638
60.12408 612
60.14419 533
60.16431 481
60.18442 490
60.20453 394
60.22465 440
60.24476 422
60.26487 409
60.28499 435
60.3051 355
60.32522 385
60.34533 411
60.36544 379
60.38556 393
60.40567 354
60.42578 389
60.4459 351
60.46601 375
60.48612 347
60.50624 351
60.52635 338
60.54647 354
60.56658 351
60.58669 351
60.60681 325
60.62692 336
60.64703 350
60.66715 316
60.68726 316
60.70738 332
60.72749 332
60.7476 336
60.76772 326
60.78783 353
60.80794 293
60.82806 321
60.84817 320
60.86828 340
60.8884 332
60.90851 358
60.92863 327
60.94874 329
60.96885 336
60.98897 297
61.00908 363
61.02919 333
61.04931 308
61.06942 321
61.08954 349
61.10965 366
61.12976 335
61.14988 350
61.16999 305
61.1901 354
61.21022 357
61.23033 336
61.25045 339
61.27056 347
61.29067 331
61.31079 365
61.3309 359
61.35101 345
61.37113 351
61.39124 347
61.41135 344
61.43147 357
61.45158 358
61.4717 329
61.49181 340
61.51192 334
61.53204 340
61.55215 351
61.57226 334
61.59238 351
61.61249 338
61.63261 327
61.65272 355
61.67283 321
61.69295 345
61.71306 290
61.73317 334
61.75329 323
61.7734 319
61.79352 336
61.81363 349
61.83374 311
61.85386 334
61.87397 299
61.89408 343
61.9142 337
61.93431 339
61.95442 377
61.97454 340
61.99465 325
62.01477 333
62.03488 342
62.05499 384
62.07511 357
62.09522 396
62.11533 395
62.13545 385
62.15556 401
62.17568 360
62.19579 353
62.2159 377
62.23602 371
62.25613 385
62.27624 363
62.29636 366
62.31647 403
62.33659 389
62.3567 365
62.37681 375
62.39693 341
62.41704 387
62.43715 351
62.45727 347
62.47738 322
62.49749 361
62.51761 360
62.53772 319
62.55784 314
62.57795 313
62.59806 322
62.61818 311
62.63829 326
62.6584 301
62.67852 332
62.69863 343
62.71875 315
62.73886 323
62.75897 350
62.77909 339
62.7992 286
62.81931 329
62.83943 317
62.85954 342
62.87965 318
62.89977 309
62.91988 300
62.94 286
62.96011 321
62.98022 304
63.00034 279
63.02045 286
63.04056 295
63.06068 347
63.08079 315
63.10091 318
63.12102 308
63.14113 319
63.16125 310
63.18136 305
63.20147 282
63.22159 314
63.2417 323
63.26182 320
63.28193 307
63.30204 314
63.32216 310
63.34227 309
63.36238 277
63.3825 307
63.40261 303
63.42272 300
63.44284 317
63.46295 318
63.48307 292
63.50318 267
63.52329 278
63.54341 339
63.56352 319
63.58363 293
63.60375 324
63.62386 327
63.64398 344
63.66409 327
63.6842 356
63.70432 347
63.72443 341
63.74454 386
63.76466 396
63.78477 389
63.80489 405
63.825 385
63.84511 419
63.86523 449
63.88534 442
63.90545 450
63.92557 459
63.94568 511
63.96579 501
63.98591 460
64.00602 442
64.02614 444
64.04625 419
64.06636 412
64.08648 397
64.10659 363
64.1267 362
64.14682 373
64.16693 380
64.18705 353
64.20716 361
64.22727 365
64.24739 331
64.2675 324
64.28761 320
64.30773 289
64.32784 284
64.34796 304
64.36807 271
64.38818 312
64.4083 283
64.42841 295
64.44852 294
64.46864 330
64.48875 297
64.50886 278
64.52898 321
64.54909 295
64.56921 294
64.58932 283
64.60943 287
64.62955 287
64.64966 288
64.66977 258
64.68989 293
64.71 275
64.73012 292
64.75023 272
64.77034 256
64.79046 284
64.81057 272
64.83068 264
64.8508 277
64.87091 313
64.89102 293
64.91114 282
64.93125 293
64.95137 279
64.97148 273
64.99159 292
65.01171 297
65.03182 309
65.05193 317
65.07205 298
65.09216 285
65.11228 317
65.13239 259
65.1525 253
65.17262 289
65.19273 294
65.21284 314
65.23296 292
65.25307 279
65.27319 285
65.2933 271
65.31341 299
65.33353 286
65.35364 283
65.37375 283
65.39387 298
65.41398 302
65.43409 307
65.45421 267
65.47432 287
65.49444 296
65.51455 301
65.53466 308
65.55478 311
65.57489 313
65.595 283
65.61512 302
65.63523 286
65.65535 314
65.67546 328
65.69557 345
65.71569 332
65.7358 298
65.75591 310
65.77603 293
65.79614 299
65.81626 294
65.83637 308
65.85648 285
65.8766 277
65.89671 292
65.91682 283
65.93694 299
65.95705 307
65.97716 268
65.99728 286
66.01739 280
66.03751 301
66.05762 258
66.07773 298
66.09785 296
66.11796 304
66.13807 284
66.15819 274
66.1783 314
66.19842 301
66.21853 277
66.23864 290
66.25876 280
66.27887 284
66.29898 290
66.3191 307
66.33921 283
66.35933 248
66.37944 275
66.39955 296
66.41967 271
66.43978 292
66.45989 286
66.48001 301
66.50012 278
66.52023 306
66.54035 294
66.56046 268
66.58058 291
66.60069 255
66.6208 276
66.64092 287
66.66103 316
66.68114 287
66.70126 296
66.72137 291
66.74149 299
66.7616 286
66.78171 279
66.80183 285
66.82194 282
66.84205 299
66.86217 306
66.88228 273
66.90239 311
66.92251 285
66.94262 294
66.96274 291
66.98285 286
67.00296 320
67.02308 305
67.04319 302
67.0633 317
67.08342 314
67.10353 295
67.12365 320
67.14376 332
67.16387 366
67.18399 337
67.2041 350
67.22421 350
67.24433 364
67.26444 337
67.28456 357
67.30467 355
67.32478 364
67.3449 367
67.36501 364
67.38512 427
67.40524 463
67.42535 506
67.44546 516
67.46558 501
67.48569 497
67.50581 561
67.52592 636
67.54603 664
67.56615 696
67.58626 767
67.60637 771
67.62649 887
67.6466 886
67.66672 915
67.68683 930
67.70694 838
67.72706 826
67.74717 786
67.76728 788
67.7874 762
67.80751 735
67.82763 693
67.84774 789
67.86785 847
67.88797 815
67.90808 841
67.92819 866
67.94831 898
67.96842 927
67.98853 913
68.00865 991
68.02876 984
68.04888 1063
68.06899 1097
68.0891 1102
68.10922 1146
68.12933 1085
68.14944 1056
68.16956 966
68.18967 980
68.20979 919
68.2299 983
68.25001 965
68.27013 952
68.29024 870
68.31035 790
68.33047 703
68.35058 593
68.3707 601
68.39081 516
68.41092 506
68.43104 468
68.45115 494
68.47126 479
68.49138 443
68.51149 410
68.5316 390
68.55172 367
68.57183 299
68.59195 324
68.61206 357
68.63217 315
68.65229 315
68.6724 307
68.69251 279
68.71263 308
68.73274 308
68.75286 295
68.77297 321
68.79308 291
68.8132 265
68.83331 291
68.85342 292
68.87354 288
68.89365 285
68.91376 324
68.93388 292
68.95399 298
68.97411 331
68.99422 275
69.01433 280
69.03445 267
69.05456 306
69.07467 277
69.09479 271
69.1149 298
69.13502 255
69.15513 316
69.17524 275
69.19536 305
69.21547 290
69.23558 288
69.2557 278
69.27581 293
69.29593 260
69.31604 298
69.33615 298
69.35627 298
69.37638 268
69.39649 298
69.41661 285
69.43672 276
69.45683 298
69.47695 258
69.49706 319
69.51718 296
69.53729 326
69.5574 321
69.57752 287
69.59763 300
69.61774 286
69.63786 305
69.65797 315
69.67809 290
69.6982 265
69.71831 280
69.73843 296
69.75854 311
69.77865 275
69.79877 261
69.81888 257
69.839 286
69.85911 292
69.87922 283
69.89934 293
69.91945 301
69.93956 291
69.95968 271
69.97979 298
69.9999 265
70.02002 268
70.04013 286
70.06025 289
70.08036 302
70.10047 295
70.12059 300
70.1407 274
70.16081 297
70.18093 259
70.20104 270
70.22116 264
70.24127 273
70.26138 305
70.2815 281
70.30161 258
70.32172 309
70.34184 314
70.36195 294
70.38207 285
70.40218 275
70.42229 262
70.44241 304
70.46252 248
70.48263 280
70.50275 280
70.52286 269
70.54297 291
70.56309 303
70.5832 279
70.60332 284
70.62343 257
70.64354 302
70.66366 280
70.68377 251
70.70388 277
70.724 260
70.74411 324
70.76423 276
70.78434 297
70.80445 297
70.82457 295
70.84468 267
70.86479 287
70.88491 276
70.90502 296
70.92513 296
70.94525 290
70.96536 315
70.98548 284
71.00559 284
71.0257 308
71.04582 278
71.06593 248
71.08604 312
71.10616 277
71.12627 317
71.14639 281
71.1665 285
71.18661 294
71.20673 298
71.22684 288
71.24695 297
71.26707 278
71.28718 309
71.3073 303
71.32741 286
71.34752 294
71.36764 299
71.38775 299
71.40786 287
71.42798 283
71.44809 276
71.4682 285
71.48832 307
71.50843 298
71.52855 289
71.54866 274
71.56877 283
71.58889 260
71.609 281
71.62911 315
71.64923 283
71.66934 285
71.68946 300
71.70957 271
71.72968 321
71.7498 278
71.76991 286
71.79002 285
71.81014 268
71.83025 312
71.85037 311
71.87048 300
71.89059 277
71.91071 288
71.93082 297
71.95093 295
71.97105 300
71.99116 305
72.01127 285
72.03139 321
72.0515 282
72.07162 288
72.09173 295
72.11184 300
72.13196 290
72.15207 310
72.17218 297
72.1923 335
72.21241 280
72.23253 289
72.25264 293
72.27275 289
72.29287 323
72.31298 310
72.33309 285
72.35321 299
72.37332 314
72.39344 324
72.41355 296
72.43366 320
72.45378 285
72.47389 266
72.494 306
72.51412 344
72.53423 290
72.55434 271
72.57446 305
72.59457 294
72.61469 297
72.6348 290
72.65491 293
72.67503 278
72.69514 307
72.71525 296
72.73537 289
72.75548 306
72.7756 282
72.79571 313
72.81582 277
72.83594 321
72.85605 296
72.87616 307
72.89628 275
72.91639 299
72.9365 335
72.95662 303
72.97673 309
72.99685 290
73.01696 342
73.03707 318
73.05719 338
73.0773 367
73.09741 316
73.11753 345
73.13764 341
73.15776 374
73.17787 367
73.19798 379
73.2181 368
73.23821 388
73.25832 413
73.27844 426
73.29855 412
73.31867 452
73.33878 443
73.35889 495
73.37901 480
73.39912 467
73.41923 500
73.43935 446
73.45946 443
73.47957 422
73.49969 368
73.5198 390
73.53992 377
73.56003 359
73.58014 373
73.60026 352
73.62037 359
73.64048 345
73.6606 374
73.68071 346
73.70083 339
73.72094 320
73.74105 313
73.76117 295
73.78128 262
73.80139 272
73.82151 255
73.84162 287
73.86174 303
73.88185 310
73.90196 280
73.92208 277
73.94219 284
73.9623 284
73.98242 272
74.00253 296
74.02264 289
74.04276 267
74.06287 282
74.08299 304
74.1031 282
74.12321 277
74.14333 250
74.16344 303
74.18355 257
74.20367 258
74.22378 266
74.2439 260
74.26401 286
74.28412 271
74.30424 271
74.32435 277
74.34446 287
74.36458 253
74.38469 289
74.40481 280
74.42492 277
74.44503 291
74.46515 280
74.48526 284
74.50537 280
74.52549 264
74.5456 262
74.56571 281
74.58583 278
74.60594 264
74.62606 280
74.64617 288
74.66628 263
74.6864 284
74.70651 305
74.72662 300
74.74674 274
74.76685 281
74.78697 283
74.80708 269
74.82719 267
74.84731 288
74.86742 265
74.88753 272
74.90765 301
74.92776 298
74.94787 293
74.96799 304
74.9881 272
75.00822 278
