3.00117 20318
3.02128 19620
3.0414 19129
3.06151 18809
3.08162 18374
3.10174 17664
3.12185 17183
3.14197 16621
3.16208 16210
3.18219 15567
3.20231 15584
3.22242 14603
3.24253 14649
3.26265 13975
3.28276 13660
3.30288 13212
3.32299 12733
3.3431 12368
3.36322 12059
3.38333 11749
3.40344 11334
3.42356 10553
3.44367 10548
3.46379 10252
3.4839 9925
3.50401 9542
3.52413 9029
3.54424 9144
3.56435 8455
3.58447 8376
3.60458 7988
3.62469 7509
3.64481 7498
3.66492 7257
3.68504 6792
3.70515 6653
3.72526 6242
3.74538 6303
3.76549 5806
3.7856 5564
3.80572 5423
3.82583 5194
3.84595 5015
3.86606 4788
3.88617 4443
3.90629 4501
3.9264 4212
3.94651 4109
3.96663 3958
3.98674 3605
4.00686 3595
4.02697 3417
4.04708 3253
4.0672 3253
4.08731 2943
4.10742 2866
4.12754 2661
4.14765 2856
4.16776 2697
4.18788 2439
4.20799 2441
4.22811 2160
4.24822 2243
4.26833 2294
4.28845 2082
4.30856 2060
4.32867 2040
4.34879 1891
4.3689 1926
4.38902 1768
4.40913 1737
4.42924 1652
4.44936 1686
4.46947 1713
4.48958 1581
4.5097 1570
4.52981 1505
4.54992 1558
4.57004 1592
4.59015 1410
4.61027 1379
4.63038 1400
4.65049 1285
4.67061 1445
4.69072 1302
4.71083 1238
4.73095 1232
4.75106 1214
4.77118 1220
4.79129 1145
4.8114 1142
4.83152 1096
4.85163 1141
4.87174 1135
4.89186 1053
4.91197 1076
4.93209 1010
4.9522 944
4.97231 1040
4.99243 994
5.01254 1036
5.03265 966
5.05277 917
5.07288 1012
5.09299 839
5.11311 860
5.13322 838
5.15334 837
5.17345 807
5.19356 800
5.21368 820
5.23379 869
5.2539 824
5.27402 790
5.29413 760
5.31425 797
5.33436 738
5.35447 731
5.37459 733
5.3947 713
5.41481 713
5.43493 687
5.45504 702
5.47516 705
5.49527 662
5.51538 657
5.5355 731
5.55561 708
5.57572 632
5.59584 651
5.61595 665
5.63606 633
5.65618 626
5.67629 625
5.69641 632
5.71652 631
5.73663 595
5.75675 607
5.77686 559
5.79697 615
5.81709 546
5.8372 539
5.85732 558
5.87743 600
5.89754 548
5.91766 538
5.93777 536
5.95788 614
5.978 557
5.99811 521
6.01823 547
6.03834 568
6.05845 555
6.07857 559
6.09868 530
6.11879 507
6.13891 536
6.15902 524
6.17913 515
6.19925 525
6.21936 523
6.23948 499
6.25959 543
6.2797 493
6.29982 480
6.31993 483
6.34004 464
6.36016 451
6.38027 452
6.40039 451
6.4205 424
6.44061 434
6.46073 424
6.48084 466
6.50095 427
6.52107 445
6.54118 420
6.56129 450
6.58141 446
6.60152 403
6.62164 358
6.64175 413
6.66186 395
6.68198 372
6.70209 413
6.7222 409
6.74232 398
6.76243 385
6.78255 407
6.80266 446
6.82277 390
6.84289 416
6.863 400
6.88311 355
6.90323 367
6.92334 370
6.94346 367
6.96357 341
6.98368 388
7.0038 330
7.02391 350
7.04402 366
7.06414 339
7.08425 363
7.10436 338
7.12448 371
7.14459 309
7.16471 337
7.18482 353
7.20493 356
7.22505 339
7.24516 385
7.26527 337
7.28539 346
7.3055 342
7.32562 304
7.34573 341
7.36584 335
7.38596 315
7.40607 311
7.42618 304
7.4463 343
7.46641 338
7.48653 319
7.50664 321
7.52675 320
7.54687 350
7.56698 316
7.58709 337
7.60721 279
7.62732 312
7.64743 291
7.66755 335
7.68766 323
7.70778 310
7.72789 327
7.748 285
7.76812 288
7.78823 323
7.80834 309
7.82846 275
7.84857 305
7.86869 284
7.8888 292
7.90891 287
7.92903 277
7.94914 271
7.96925 294
7.98937 322
8.00948 299
8.0296 288
8.04971 294
8.06982 285
8.08994 283
8.11005 259
8.13016 287
8.15028 292
8.17039 258
8.1905 295
8.21062 315
8.23073 308
8.25085 262
8.27096 273
8.29107 284
8.31119 302
8.3313 301
8.35141 295
8.37153 262
8.39164 264
8.41176 283
8.43187 306
8.45198 289
8.4721 289
8.49221 267
8.51232 281
8.53244 272
8.55255 321
8.57266 289
8.59278 270
8.61289 298
8.63301 291
8.65312 272
8.67323 286
8.69335 287
8.71346 293
8.73357 292
8.75369 289
8.7738 290
8.79392 301
8.81403 294
8.83414 280
8.85426 284
8.87437 275
8.89448 287
8.9146 248
8.93471 294
8.95483 280
8.97494 242
8.99505 298
9.01517 272
9.03528 287
9.05539 262
9.07551 249
9.09562 258
9.11573 263
9.13585 256
9.15596 294
9.17608 267
9.19619 234
9.2163 289
9.23642 241
9.25653 250
9.27664 257
9.29676 266
9.31687 260
9.33699 241
9.3571 261
9.37721 214
9.39733 240
9.41744 247
9.43755 242
9.45767 267
9.47778 262
9.4979 233
9.51801 255
9.53812 241
9.55824 279
9.57835 239
9.59846 255
9.61858 255
9.63869 248
9.6588 238
9.67892 243
9.69903 235
9.71915 274
9.73926 212
9.75937 259
9.77949 261
9.7996 251
9.81971 224
9.83983 237
9.85994 258
9.88006 238
9.90017 244
9.92028 199
9.9404 250
9.96051 255
9.98062 227
10.00074 221
10.02085 245
10.04097 231
10.06108 235
10.08119 231
10.10131 229
10.12142 273
10.14153 232
10.16165 207
10.18176 261
10.20187 221
10.22199 224
10.2421 254
10.26222 232
10.28233 250
10.30244 231
10.32256 249
10.34267 235
10.36278 265
10.3829 250
10.40301 240
10.42313 267
10.44324 267
10.46335 263
10.48347 300
10.50358 270
10.52369 220
10.54381 233
10.56392 225
10.58403 217
10.60415 260
10.62426 262
10.64438 247
10.66449 248
10.6846 229
10.70472 222
10.72483 200
10.74494 247
10.76506 239
10.78517 243
10.80529 214
10.8254 263
10.84551 245
10.86563 231
10.88574 237
10.90585 235
10.92597 246
10.94608 254
10.9662 220
10.98631 244
11.00642 252
11.02654 200
11.04665 240
11.06676 223
11.08688 203
11.10699 213
11.1271 252
11.14722 232
11.16733 233
11.18745 224
11.20756 242
11.22767 227
11.24779 235
11.2679 238
11.28801 244
11.30813 254
11.32824 242
11.34836 229
11.36847 227
11.38858 201
11.4087 226
11.42881 247
11.44892 215
11.46904 258
11.48915 234
11.50927 230
11.52938 223
11.54949 206
11.56961 251
11.58972 215
11.60983 238
11.62995 219
11.65006 233
11.67017 243
11.69029 238
11.7104 243
11.73052 235
11.75063 250
11.77074 231
11.79086 258
11.81097 213
11.83108 224
11.8512 251
11.87131 228
11.89143 202
11.91154 240
11.93165 214
11.95177 233
11.97188 218
11.99199 224
12.01211 266
12.03222 248
12.05234 244
12.07245 209
12.09256 240
12.11268 266
12.13279 252
12.1529 220
12.17302 260
12.19313 264
12.21324 257
12.23336 242
12.25347 240
12.27359 271
12.2937 235
12.31381 257
12.33393 277
12.35404 253
12.37415 295
12.39427 237
12.41438 285
12.4345 253
12.45461 265
12.47472 253
12.49484 252
12.51495 245
12.53506 236
12.55518 218
12.57529 204
12.5954 225
12.61552 220
12.63563 217
12.65575 230
12.67586 220
12.69597 241
12.71609 201
12.7362 223
12.75631 244
12.77643 228
12.79654 243
12.81666 213
12.83677 207
12.85688 222
12.877 253
12.89711 248
12.91722 222
12.93734 235
12.95745 233
12.97757 246
12.99768 182
13.01779 238
13.03791 201
13.05802 229
13.07813 210
13.09825 227
13.11836 223
13.13847 224
13.15859 209
13.1787 216
13.19882 209
13.21893 230
13.23904 229
13.25916 231
13.27927 228
13.29938 222
13.3195 221
13.33961 225
13.35973 244
13.37984 221
13.39995 210
13.42007 214
13.44018 231
13.46029 221
13.48041 253
13.50052 241
13.52064 210
13.54075 228
13.56086 243
13.58098 196
13.60109 231
13.6212 218
13.64132 233
13.66143 242
13.68154 222
13.70166 226
13.72177 239
13.74189 238
13.762 238
13.78211 236
13.80223 223
13.82234 240
13.84245 197
13.86257 215
13.88268 237
13.9028 233
13.92291 239
13.94302 247
13.96314 225
13.98325 203
14.00336 222
14.02348 223
14.04359 223
14.06371 201
14.08382 237
14.10393 207
14.12405 225
14.14416 220
14.16427 227
14.18439 203
14.2045 213
14.22461 203
14.24473 203
14.26484 230
14.28496 207
14.30507 209
14.32518 230
14.3453 195
14.36541 197
14.38552 209
14.40564 185
14.42575 192
14.44587 238
14.46598 221
14.48609 206
14.50621 207
14.52632 211
14.54643 228
14.56655 218
14.58666 210
14.60677 213
14.62689 229
14.647 225
14.66712 242
14.68723 225
14.70734 226
14.72746 242
14.74757 234
14.76768 213
14.7878 237
14.80791 245
14.82803 221
14.84814 236
14.86825 250
14.88837 224
14.90848 198
14.92859 203
14.94871 223
14.96882 212
14.98894 222
15.00905 220
15.02916 232
15.04928 196
15.06939 203
15.0895 245
15.10962 237
15.12973 236
15.14984 208
15.16996 199
15.19007 196
15.21019 209
15.2303 227
15.25041 199
15.27053 229
15.29064 223
15.31075 233
15.33087 252
15.35098 229
15.3711 218
15.39121 228
15.41132 184
15.43144 218
15.45155 243
15.47166 224
15.49178 232
15.51189 218
15.53201 230
15.55212 205
15.57223 213
15.59235 216
15.61246 235
15.63257 220
15.65269 233
15.6728 228
15.69291 226
15.71303 215
15.73314 224
15.75326 216
15.77337 204
15.79348 193
15.8136 198
15.83371 207
15.85382 196
15.87394 201
15.89405 197
15.91417 220
15.93428 212
15.95439 204
15.97451 228
15.99462 218
16.01473 217
16.03485 220
16.05496 236
16.07508 216
16.09519 243
16.1153 208
16.13542 209
16.15553 201
16.17564 234
16.19576 207
16.21587 209
16.23598 248
16.2561 211
16.27621 214
16.29633 221
16.31644 199
16.33655 219
16.35667 208
16.37678 233
16.39689 221
16.41701 200
16.43712 205
16.45724 215
16.47735 216
16.49746 220
16.51758 218
16.53769 217
16.5578 219
16.57792 198
16.59803 221
16.61814 205
16.63826 230
16.65837 248
16.67849 203
16.6986 222
16.71871 190
16.73883 231
16.75894 216
16.77905 239
16.79917 210
16.81928 219
16.8394 224
16.85951 223
16.87962 228
16.89974 242
16.91985 216
16.93996 220
16.96008 193
16.98019 212
17.00031 231
17.02042 216
17.04053 206
17.06065 230
17.08076 247
17.10087 230
17.12099 193
17.1411 225
17.16121 244
17.18133 209
17.20144 230
17.22156 220
17.24167 247
17.26178 233
17.2819 219
17.30201 235
17.32212 221
17.34224 232
17.36235 259
17.38247 222
17.40258 216
17.42269 232
17.44281 227
17.46292 227
17.48303 229
17.50315 252
17.52326 264
17.54338 239
17.56349 250
17.5836 226
17.60372 234
17.62383 242
17.64394 235
17.66406 234
17.68417 263
17.70428 245
17.7244 215
17.74451 249
17.76463 207
17.78474 247
17.80485 243
17.82497 222
17.84508 239
17.86519 239
17.88531 201
17.90542 270
17.92554 238
17.94565 249
17.96576 226
17.98588 229
18.00599 277
18.0261 232
18.04622 206
18.06633 210
18.08645 198
18.10656 227
18.12667 225
18.14679 218
18.1669 195
18.18701 234
18.20713 222
18.22724 198
18.24735 215
18.26747 218
18.28758 208
18.3077 227
18.32781 234
18.34792 225
18.36804 221
18.38815 225
18.40826 233
18.42838 223
18.44849 218
18.46861 204
18.48872 237
18.50883 256
18.52895 221
18.54906 224
18.56917 214
18.58929 243
18.6094 246
18.62951 219
18.64963 227
18.66974 218
18.68986 243
18.70997 241
18.73008 224
18.7502 206
18.77031 224
18.79042 216
18.81054 230
18.83065 238
18.85077 249
18.87088 213
18.89099 218
18.91111 228
18.93122 208
18.95133 223
18.97145 228
18.99156 246
19.01168 229
19.03179 237
19.0519 222
19.07202 249
19.09213 237
19.11224 263
19.13236 241
19.15247 253
19.17258 241
19.1927 236
19.21281 257
19.23293 278
19.25304 289
19.27315 281
19.29327 273
19.31338 293
19.33349 281
19.35361 284
19.37372 309
19.39384 299
19.41395 272
19.43406 314
19.45418 332
19.47429 319
19.4944 317
19.51452 385
19.53463 349
19.55475 365
19.57486 400
19.59497 415
19.61509 374
19.6352 438
19.65531 394
19.67543 444
19.69554 420
19.71565 475
19.73577 429
19.75588 499
19.776 457
19.79611 433
19.81622 460
19.83634 450
19.85645 440
19.87656 404
19.89668 442
19.91679 419
19.93691 428
19.95702 392
19.97713 412
19.99725 354
20.01736 355
20.03747 366
20.05759 407
20.0777 383
20.09782 361
20.11793 374
20.13804 358
20.15816 353
20.17827 377
20.19838 325
20.2185 353
20.23861 330
20.25872 359
20.27884 318
20.29895 325
20.31907 316
20.33918 334
20.35929 322
20.37941 340
20.39952 307
20.41963 337
20.43975 329
20.45986 325
20.47998 349
20.50009 332
20.5202 359
20.54032 344
20.56043 341
20.58054 349
20.60066 353
20.62077 357
20.64088 419
20.661 417
20.68111 519
20.70123 579
20.72134 678
20.74145 765
20.76157 888
20.78168 919
20.80179 990
20.82191 913
20.84202 888
20.86214 786
20.88225 624
20.90236 537
20.92248 438
20.94259 427
20.9627 372
20.98282 385
21.00293 368
21.02305 326
21.04316 397
21.06327 336
21.08339 305
21.1035 331
21.12361 296
21.14373 286
21.16384 273
21.18395 310
21.20407 312
21.22418 288
21.2443 328
21.26441 303
21.28452 306
21.30464 305
21.32475 277
21.34486 298
21.36498 333
21.38509 263
21.40521 304
21.42532 289
21.44543 310
21.46555 272
21.48566 300
21.50577 267
21.52589 266
21.546 287
21.56612 261
21.58623 267
21.60634 276
21.62646 296
21.64657 259
21.66668 240
21.6868 273
21.70691 275
21.72702 277
21.74714 257
21.76725 287
21.78737 280
21.80748 275
21.82759 330
21.84771 325
21.86782 302
21.88793 307
21.90805 319
21.92816 361
21.94828 360
21.96839 389
21.9885 325
22.00862 317
22.02873 363
22.04884 325
22.06896 280
22.08907 291
22.10919 268
22.1293 266
22.14941 270
22.16953 287
22.18964 298
22.20975 270
22.22987 300
22.24998 281
22.27009 293
22.29021 259
22.31032 254
22.33044 259
22.35055 308
22.37066 280
22.39078 296
22.41089 296
22.431 296
22.45112 295
22.47123 266
22.49135 282
22.51146 296
22.53157 301
22.55169 283
22.5718 249
22.59191 319
22.61203 286
22.63214 304
22.65225 311
22.67237 287
22.69248 328
22.7126 297
22.73271 330
22.75282 338
22.77294 311
22.79305 331
22.81316 395
22.83328 401
22.85339 427
22.87351 467
22.89362 490
22.91373 556
22.93385 604
22.95396 718
22.97407 779
22.99419 868
23.0143 836
23.03442 768
23.05453 710
23.07464 654
23.09476 580
23.11487 540
23.13498 428
23.1551 396
23.17521 353
23.19532 340
23.21544 322
23.23555 322
23.25567 330
23.27578 313
23.29589 316
23.31601 281
23.33612 308
23.35623 325
23.37635 306
23.39646 294
23.41658 319
23.43669 341
23.4568 294
23.47692 322
23.49703 332
23.51714 329
23.53726 320
23.55737 312
23.57749 311
23.5976 319
23.61771 320
23.63783 301
23.65794 339
23.67805 306
23.69817 275
23.71828 302
23.73839 295
23.75851 308
23.77862 302
23.79874 296
23.81885 301
23.83896 305
23.85908 331
23.87919 313
23.8993 325
23.91942 322
23.93953 313
23.95965 297
23.97976 308
23.99987 308
24.01999 273
24.0401 327
24.06021 302
24.08033 311
24.10044 288
24.12056 301
24.14067 291
24.16078 308
24.1809 344
24.20101 304
24.22112 316
24.24124 333
24.26135 303
24.28146 282
24.30158 307
24.32169 279
24.34181 289
24.36192 294
24.38203 311
24.40215 274
24.42226 280
24.44237 287
24.46249 274
24.4826 277
24.50272 274
24.52283 306
24.54294 279
24.56306 249
24.58317 290
24.60328 273
24.6234 262
24.64351 294
24.66362 294
24.68374 302
24.70385 279
24.72397 292
24.74408 295
24.76419 316
24.78431 322
24.80442 276
24.82453 289
24.84465 304
24.86476 314
24.88488 264
24.90499 308
24.9251 322
24.94522 290
24.96533 288
24.98544 277
25.00556 269
25.02567 315
25.04579 306
25.0659 298
25.08601 295
25.10613 303
25.12624 318
25.14635 297
25.16647 303
25.18658 310
25.20669 296
25.22681 285
25.24692 307
25.26704 298
25.28715 289
25.30726 304
25.32738 297
25.34749 287
25.3676 280
25.38772 283
25.40783 323
25.42795 339
25.44806 300
25.46817 356
25.48829 342
25.5084 308
25.52851 366
25.54863 335
25.56874 315
25.58886 334
25.60897 333
25.62908 338
25.6492 313
25.66931 321
25.68942 273
25.70954 308
25.72965 304
25.74976 312
25.76988 318
25.78999 287
25.81011 312
25.83022 319
25.85033 298
25.87045 284
25.89056 320
25.91067 300
25.93079 304
25.9509 324
25.97102 324
25.99113 291
26.01124 283
26.03136 287
26.05147 322
26.07158 312
26.0917 349
26.11181 375
26.13193 351
26.15204 351
26.17215 394
26.19227 397
26.21238 385
26.23249 397
26.25261 397
26.27272 458
26.29283 413
26.31295 464
26.33306 486
26.35318 587
26.37329 640
26.3934 688
26.41352 839
26.43363 1080
26.45374 1386
26.47386 1669
26.49397 2123
26.51409 2619
26.5342 3188
26.55431 3469
26.57443 3781
26.59454 3574
26.61465 3291
26.63477 2660
26.65488 2182
26.67499 1633
26.69511 1205
26.71522 850
26.73534 720
26.75545 557
26.77556 518
26.79568 425
26.81579 439
26.8359 436
26.85602 362
26.87613 395
26.89625 355
26.91636 430
26.93647 385
26.95659 379
26.9767 404
26.99681 391
27.01693 372
27.03704 350
27.05716 359
27.07727 373
27.09738 360
27.1175 358
27.13761 354
27.15772 339
27.17784 375
27.19795 329
27.21806 358
27.23818 332
27.25829 346
27.27841 332
27.29852 339
27.31863 371
27.33875 395
27.35886 392
27.37897 418
27.39909 402
27.4192 405
27.43932 402
27.45943 399
27.47954 377
27.49966 401
27.51977 367
27.53988 356
27.56 372
27.58011 341
27.60023 357
27.62034 374
27.64045 388
27.66057 422
27.68068 427
27.70079 405
27.72091 387
27.74102 434
27.76113 477
27.78125 424
27.80136 463
27.82148 455
27.84159 418
27.8617 443
27.88182 428
27.90193 437
27.92204 408
27.94216 399
27.96227 408
27.98239 351
28.0025 328
28.02261 332
28.04273 345
28.06284 312
28.08295 304
28.10307 359
28.12318 318
28.1433 313
28.16341 337
28.18352 317
28.20364 285
28.22375 288
28.24386 319
28.26398 313
28.28409 292
28.3042 302
28.32432 311
28.34443 332
28.36455 312
28.38466 336
28.40477 319
28.42489 348
28.445 347
28.46511 329
28.48523 341
28.50534 333
28.52546 324
28.54557 331
28.56568 330
28.5858 326
28.60591 325
28.62602 362
28.64614 372
28.66625 321
28.68636 351
28.70648 356
28.72659 355
28.74671 314
28.76682 385
28.78693 347
28.80705 373
28.82716 358
28.84727 367
28.86739 398
28.8875 397
28.90762 413
28.92773 447
28.94784 464
28.96796 468
28.98807 545
29.00818 566
29.0283 530
29.04841 602
29.06853 679
29.08864 709
29.10875 779
29.12887 938
29.14898 1099
29.16909 1264
29.18921 1571
29.20932 1990
29.22943 2478
29.24955 3080
29.26966 3843
29.28978 4595
29.30989 5181
29.33 5629
29.35012 5822
29.37023 5712
29.39034 5238
29.41046 4741
29.43057 3861
29.45069 3200
29.4708 2567
29.49091 1993
29.51103 1565
29.53114 1257
29.55125 1034
29.57137 886
29.59148 792
29.6116 682
29.63171 650
29.65182 550
29.67194 550
29.69205 552
29.71216 548
29.73228 527
29.75239 464
29.7725 501
29.79262 459
29.81273 388
29.83285 420
29.85296 400
29.87307 367
29.89319 370
29.9133 362
29.93341 386
29.95353 354
29.97364 370
29.99376 352
30.01387 320
30.03398 342
30.0541 340
30.07421 352
30.09432 358
30.11444 342
30.13455 333
30.15467 319
30.17478 347
30.19489 293
30.21501 368
30.23512 351
30.25523 342
30.27535 333
30.29546 291
30.31557 316
30.33569 312
30.3558 334
30.37592 354
30.39603 321
30.41614 350
30.43626 315
30.45637 305
30.47648 294
30.4966 294
30.51671 331
30.53683 326
30.55694 291
30.57705 276
30.59717 264
30.61728 299
30.63739 271
30.65751 309
30.67762 340
30.69773 318
30.71785 319
30.73796 329
30.75808 322
30.77819 304
30.7983 294
30.81842 295
30.83853 293
30.85864 303
30.87876 303
30.89887 282
30.91899 308
30.9391 264
30.95921 276
30.97933 265
30.99944 294
31.01955 307
31.03967 283
31.05978 297
31.0799 280
31.10001 304
31.12012 298
31.14024 284
31.16035 299
31.18046 284
31.20058 303
31.22069 314
31.2408 289
31.26092 282
31.28103 323
31.30115 336
31.32126 375
31.34137 391
31.36149 379
31.3816 391
31.40171 362
31.42183 342
31.44194 334
31.46206 353
31.48217 328
31.50228 340
31.5224 293
31.54251 330
31.56262 283
31.58274 251
31.60285 282
31.62297 275
31.64308 303
31.66319 274
31.68331 251
31.70342 273
31.72353 281
31.74365 253
31.76376 242
31.78387 254
31.80399 266
31.8241 253
31.84422 237
31.86433 254
31.88444 287
31.90456 256
31.92467 284
31.94478 263
31.9649 240
31.98501 227
32.00513 267
32.02524 245
32.04535 267
32.06547 285
32.08558 256
32.10569 269
32.12581 274
32.14592 251
32.16604 233
32.18615 244
32.20626 260
32.22638 265
32.24649 253
32.2666 253
32.28672 256
32.30683 252
32.32694 240
32.34706 257
32.36717 234
32.38729 241
32.4074 253
32.42751 248
32.44763 252
32.46774 265
32.48785 263
32.50797 274
32.52808 274
32.5482 262
32.56831 262
32.58842 272
32.60854 258
32.62865 263
32.64876 216
32.66888 250
32.68899 254
32.7091 243
32.72922 264
32.74933 255
32.76945 258
32.78956 279
32.80967 259
32.82979 285
32.8499 272
32.87001 284
32.89013 265
32.91024 275
32.93036 306
32.95047 313
32.97058 274
32.9907 265
33.01081 291
33.03092 255
33.05104 308
33.07115 281
33.09127 306
33.11138 291
33.13149 291
33.15161 270
33.17172 263
33.19183 241
33.21195 298
33.23206 270
33.25217 254
33.27229 272
33.2924 268
33.31252 270
33.33263 291
33.35274 233
33.37286 264
33.39297 232
33.41308 300
33.4332 274
33.45331 235
33.47343 243
33.49354 271
33.51365 267
33.53377 223
33.55388 232
33.57399 274
33.59411 232
33.61422 249
33.63434 256
33.65445 272
33.67456 229
33.69468 239
33.71479 220
33.7349 244
33.75502 221
33.77513 250
33.79524 257
33.81536 269
33.83547 239
33.85559 241
33.8757 260
33.89581 248
33.91593 256
33.93604 268
33.95615 227
33.97627 218
33.99638 267
34.0165 246
34.03661 259
34.05672 262
34.07684 255
34.09695 291
34.11706 278
34.13718 257
34.15729 253
34.17741 287
34.19752 317
34.21763 280
34.23775 311
34.25786 287
34.27797 316
34.29809 303
34.3182 316
34.33831 315
34.35843 342
34.37854 357
34.39866 376
34.41877 346
34.43888 371
34.459 346
34.47911 381
34.49922 346
34.51934 330
34.53945 356
34.55957 336
34.57968 341
34.59979 364
34.61991 366
34.64002 363
34.66013 391
34.68025 360
34.70036 368
34.72047 367
34.74059 382
34.7607 371
34.78082 387
34.80093 381
34.82104 415
34.84116 392
34.86127 369
34.88138 338
34.9015 371
34.92161 387
34.94173 395
34.96184 389
34.98195 426
35.00207 359
35.02218 388
35.04229 406
35.06241 359
35.08252 342
35.10264 407
35.12275 375
35.14286 370
35.16298 359
35.18309 319
35.2032 369
35.22332 401
35.24343 318
35.26354 369
35.28366 351
35.30377 312
35.32389 387
35.344 340
35.36411 363
35.38423 352
35.40434 339
35.42445 358
35.44457 335
35.46468 363
35.4848 377
35.50491 392
35.52502 364
35.54514 364
35.56525 380
35.58536 377
35.60548 334
35.62559 391
35.64571 381
35.66582 370
35.68593 392
35.70605 440
35.72616 415
35.74627 479
35.76639 511
35.7865 542
35.80661 586
35.82673 660
35.84684 772
35.86696 834
35.88707 905
35.90718 932
35.9273 1006
35.94741 920
35.96752 936
35.98764 813
36.00775 762
36.02787 677
36.04798 621
36.06809 546
36.08821 492
36.10832 438
36.12843 396
36.14855 395
36.16866 351
36.18878 398
36.20889 323
36.229 354
36.24912 305
36.26923 335
36.28934 354
36.30946 385
36.32957 335
36.34968 378
36.3698 406
36.38991 430
36.41003 444
36.43014 464
36.45025 496
36.47037 477
36.49048 497
36.51059 482
36.53071 437
36.55082 420
36.57094 415
36.59105 382
36.61116 358
36.63128 346
36.65139 353
36.6715 329
36.69162 303
36.71173 291
36.73184 297
36.75196 306
36.77207 328
36.79219 294
36.8123 281
36.83241 285
36.85253 284
36.87264 284
36.89275 284
36.91287 297
36.93298 321
36.9531 262
36.97321 281
36.99332 297
37.01344 264
37.03355 270
37.05366 291
37.07378 277
37.09389 286
37.11401 264
37.13412 289
37.15423 292
37.17435 283
37.19446 261
37.21457 256
37.23469 255
37.2548 300
37.27491 310
37.29503 272
37.31514 301
37.33526 248
37.35537 285
37.37548 263
37.3956 255
37.41571 302
37.43582 274
37.45594 281
37.47605 262
37.49617 271
37.51628 285
37.53639 285
37.55651 299
37.57662 284
37.59673 282
37.61685 285
37.63696 274
37.65708 282
37.67719 288
37.6973 275
37.71742 282
37.73753 292
37.75764 271
37.77776 267
37.79787 316
37.81798 246
37.8381 270
37.85821 274
37.87833 285
37.89844 252
37.91855 268
37.93867 229
37.95878 265
37.97889 271
37.99901 241
38.01912 271
38.03924 249
38.05935 251
38.07946 269
38.09958 248
38.11969 273
38.1398 260
38.15992 254
38.18003 263
38.20015 269
38.22026 264
38.24037 273
38.26049 253
38.2806 278
38.30071 297
38.32083 267
38.34094 252
38.36105 236
38.38117 274
38.40128 223
38.4214 256
38.44151 245
38.46162 260
38.48174 259
38.50185 268
38.52196 278
38.54208 284
38.56219 257
38.58231 254
38.60242 267
38.62253 261
38.64265 250
38.66276 238
38.68287 258
38.70299 256
38.7231 249
38.74321 253
38.76333 262
38.78344 276
38.80356 267
38.82367 256
38.84378 250
38.8639 278
38.88401 301
38.90412 288
38.92424 277
38.94435 270
38.96447 289
38.98458 314
39.00469 292
39.02481 281
39.04492 342
39.06503 341
39.08515 344
39.10526 361
39.12538 407
39.14549 431
39.1656 486
39.18572 533
39.20583 599
39.22594 729
39.24606 788
39.26617 948
39.28628 1014
39.3064 1157
39.32651 1221
39.34663 1287
39.36674 1301
39.38685 1313
39.40697 1281
39.42708 1114
39.44719 1072
39.46731 946
39.48742 874
39.50754 715
39.52765 590
39.54776 525
39.56788 466
39.58799 427
39.6081 396
39.62822 339
39.64833 355
39.66845 334
39.68856 347
39.70867 309
39.72879 311
39.7489 299
39.76901 326
39.78913 271
39.80924 305
39.82935 304
39.84947 301
39.86958 268
39.8897 278
39.90981 263
39.92992 258
39.95004 262
39.97015 304
39.99026 276
40.01038 290
40.03049 270
40.05061 299
40.07072 270
40.09083 284
40.11095 287
40.13106 364
40.15117 342
40.17129 289
40.1914 336
40.21152 353
40.23163 331
40.25174 337
40.27186 330
40.29197 331
40.31208 283
40.3322 283
40.35231 281
40.37242 288
40.39254 279
40.41265 269
40.43277 255
40.45288 270
40.47299 244
40.49311 230
40.51322 236
40.53333 228
40.55345 271
40.57356 274
40.59368 262
40.61379 252
40.6339 249
40.65402 257
40.67413 290
40.69424 247
40.71436 254
40.73447 253
40.75458 215
40.7747 225
40.79481 273
40.81493 249
40.83504 260
40.85515 264
40.87527 243
40.89538 255
40.91549 223
40.93561 277
40.95572 256
40.97584 253
40.99595 241
41.01606 231
41.03618 253
41.05629 248
41.0764 263
41.09652 263
41.11663 257
41.13675 232
41.15686 269
41.17697 260
41.19709 247
41.2172 260
41.23731 264
41.25743 233
41.27754 237
41.29765 231
41.31777 249
41.33788 236
41.358 229
41.37811 228
41.39822 241
41.41834 233
41.43845 240
41.45856 258
41.47868 237
41.49879 230
41.51891 244
41.53902 248
41.55913 222
41.57925 253
41.59936 265
41.61947 243
41.63959 256
41.6597 287
41.67982 270
41.69993 247
41.72004 256
41.74016 291
41.76027 250
41.78038 229
41.8005 273
41.82061 268
41.84072 294
41.86084 263
41.88095 257
41.90107 241
41.92118 229
41.94129 244
41.96141 231
41.98152 239
42.00163 248
42.02175 226
42.04186 236
42.06198 278
42.08209 259
42.1022 259
42.12232 232
42.14243 254
42.16254 277
42.18266 275
42.20277 279
42.22289 277
42.243 315
42.26311 310
42.28323 337
42.30334 321
42.32345 356
42.34357 379
42.36368 403
42.38379 363
42.40391 386
42.42402 369
42.44414 332
42.46425 300
42.48436 317
42.50448 330
42.52459 305
42.5447 286
42.56482 272
42.58493 283
42.60505 280
42.62516 265
42.64527 251
42.66539 274
42.6855 275
42.70561 289
42.72573 291
42.74584 276
42.76595 253
42.78607 272
42.80618 313
42.8263 281
42.84641 307
42.86652 343
42.88664 378
42.90675 420
42.92686 407
42.94698 465
42.96709 582
42.98721 593
43.00732 714
43.02743 763
43.04755 871
43.06766 941
43.08777 981
43.10789 1065
43.128 989
43.14812 1009
43.16823 909
43.18834 800
43.20846 810
43.22857 698
43.24868 647
43.2688 561
43.28891 507
43.30902 411
43.32914 376
43.34925 368
43.36937 346
43.38948 303
43.40959 296
43.42971 251
43.44982 300
43.46993 300
43.49005 284
43.51016 263
43.53028 266
43.55039 253
43.5705 257
43.59062 245
43.61073 257
43.63084 263
43.65096 253
43.67107 238
43.69119 234
43.7113 260
43.73141 240
43.75153 238
43.77164 209
43.79175 248
43.81187 228
43.83198 274
43.85209 225
43.87221 234
43.89232 254
43.91244 214
43.93255 225
43.95266 226
43.97278 223
43.99289 262
44.013 226
44.03312 242
44.05323 209
44.07335 228
44.09346 248
44.11357 225
44.13369 238
44.1538 244
44.17391 235
44.19403 232
44.21414 215
44.23426 234
44.25437 238
44.27448 228
44.2946 216
44.31471 245
44.33482 256
44.35494 225
44.37505 208
44.39516 236
44.41528 193
44.43539 225
44.45551 242
44.47562 221
44.49573 262
44.51585 206
44.53596 225
44.55607 218
44.57619 219
44.5963 193
44.61642 208
44.63653 228
44.65664 226
44.67676 236
44.69687 233
44.71698 230
44.7371 222
44.75721 229
44.77732 229
44.79744 212
44.81755 241
44.83767 219
44.85778 240
44.87789 232
44.89801 229
44.91812 253
44.93823 222
44.95835 244
44.97846 229
44.99858 245
45.01869 238
45.0388 209
45.05892 261
45.07903 239
45.09914 242
45.11926 254
45.13937 228
45.15949 245
45.1796 238
45.19971 235
45.21983 248
45.23994 230
45.26005 218
45.28017 244
45.30028 232
45.32039 237
45.34051 224
45.36062 227
45.38074 228
45.40085 254
45.42096 231
45.44108 231
45.46119 232
45.4813 242
45.50142 266
45.52153 265
45.54165 249
45.56176 259
45.58187 273
45.60199 293
45.6221 291
45.64221 269
45.66233 320
45.68244 311
45.70256 314
45.72267 313
45.74278 309
45.7629 275
45.78301 297
45.80312 269
45.82324 275
45.84335 295
45.86346 273
45.88358 279
45.90369 257
45.92381 239
45.94392 232
45.96403 280
45.98415 226
46.00426 229
46.02437 240
46.04449 216
46.0646 275
46.08472 231
46.10483 230
46.12494 245
46.14506 216
46.16517 243
46.18528 215
46.2054 250
46.22551 216
46.24563 238
46.26574 218
46.28585 241
46.30597 255
46.32608 217
46.34619 242
46.36631 238
46.38642 221
46.40653 223
46.42665 221
46.44676 218
46.46688 242
46.48699 229
46.5071 220
46.52722 226
46.54733 225
46.56744 214
46.58756 249
46.60767 227
46.62779 209
46.6479 258
46.66801 227
46.68813 236
46.70824 253
46.72835 285
46.74847 299
46.76858 245
46.78869 304
46.80881 296
46.82892 284
46.84904 314
46.86915 309
46.88926 310
46.90938 359
46.92949 362
46.9496 416
46.96972 431
46.98983 436
47.00995 494
47.03006 532
47.05017 552
47.07029 580
47.0904 558
47.11051 561
47.13063 511
47.15074 506
47.17086 509
47.19097 512
47.21108 530
47.2312 528
47.25131 569
47.27142 608
47.29154 626
47.31165 725
47.33176 715
47.35188 852
47.37199 901
47.39211 941
47.41222 984
47.43233 1009
47.45245 1024
47.47256 1051
47.49267 1001
47.51279 924
47.5329 890
47.55302 807
47.57313 768
47.59324 641
47.61336 593
47.63347 585
47.65358 516
47.6737 458
47.69381 437
47.71393 340
47.73404 369
47.75415 328
47.77427 328
47.79438 348
47.81449 289
47.83461 319
47.85472 310
47.87483 317
47.89495 281
47.91506 303
47.93518 313
47.95529 277
47.9754 309
47.99552 289
48.01563 310
48.03574 299
48.05586 333
48.07597 313
48.09609 339
48.1162 341
48.13631 378
48.15643 376
48.17654 366
48.19665 437
48.21677 435
48.23688 447
48.257 466
48.27711 528
48.29722 560
48.31734 588
48.33745 716
48.35756 806
48.37768 894
48.39779 965
48.4179 1031
48.43802 1107
48.45813 1078
48.47825 1070
48.49836 963
48.51847 965
48.53859 923
48.5587 835
48.57881 740
48.59893 710
48.61904 679
48.63916 566
48.65927 521
48.67938 469
48.6995 434
48.71961 397
48.73972 357
48.75984 348
48.77995 353
48.80006 304
48.82018 275
48.84029 296
48.86041 264
48.88052 295
48.90063 249
48.92075 246
48.94086 267
48.96097 247
48.98109 244
49.0012 228
49.02132 264
49.04143 219
49.06154 247
49.08166 247
49.10177 265
49.12188 255
49.142 250
49.16211 255
49.18223 249
49.20234 232
49.22245 248
49.24257 240
49.26268 210
49.28279 211
49.30291 239
49.32302 203
49.34313 238
49.36325 249
49.38336 246
49.40348 231
49.42359 255
49.4437 241
49.46382 233
49.48393 243
49.50404 223
49.52416 238
49.54427 230
49.56439 205
49.5845 265
49.60461 221
49.62473 235
49.64484 224
49.66495 225
49.68507 233
49.70518 218
49.7253 245
49.74541 227
49.76552 232
49.78564 265
49.80575 267
49.82586 282
49.84598 302
49.86609 269
49.8862 319
49.90632 349
49.92643 354
49.94655 379
49.96666 405
49.98677 440
50.00689 492
50.027 472
50.04711 555
50.06723 537
50.08734 526
50.10746 479
50.12757 434
50.14768 398
50.1678 403
50.18791 391
50.20802 350
50.22814 327
50.24825 289
50.26837 260
50.28848 248
50.30859 237
50.32871 215
50.34882 228
50.36893 262
50.38905 231
50.40916 226
50.42927 229
50.44939 238
50.4695 222
50.48962 241
50.50973 273
50.52984 225
50.54996 227
50.57007 212
50.59018 201
50.6103 236
50.63041 228
50.65053 204
50.67064 189
50.69075 212
50.71087 219
50.73098 215
50.75109 236
50.77121 204
50.79132 198
50.81143 184
50.83155 202
50.85166 208
50.87178 199
50.89189 235
50.912 209
50.93212 182
50.95223 202
50.97234 213
50.99246 208
51.01257 225
51.03269 214
51.0528 201
51.07291 201
51.09303 204
51.11314 222
51.13325 201
51.15337 220
51.17348 187
51.1936 223
51.21371 208
51.23382 214
51.25394 190
51.27405 210
51.29416 230
51.31428 196
51.33439 191
51.3545 233
51.37462 238
51.39473 172
51.41485 196
51.43496 232
51.45507 204
51.47519 215
51.4953 217
51.51541 185
51.53553 197
51.55564 162
51.57576 176
51.59587 203
51.61598 218
51.6361 210
51.65621 198
51.67632 199
51.69644 202
51.71655 208
51.73667 200
51.75678 197
51.77689 197
51.79701 161
51.81712 202
51.83723 199
51.85735 193
51.87746 201
51.89757 238
51.91769 208
51.9378 224
51.95792 223
51.97803 201
51.99814 197
52.01826 200
52.03837 197
52.05848 202
52.0786 207
52.09871 180
52.11883 230
52.13894 219
52.15905 208
52.17917 203
52.19928 194
52.21939 181
52.23951 214
52.25962 205
52.27974 214
52.29985 193
52.31996 193
52.34008 198
52.36019 195
52.3803 207
52.40042 175
52.42053 211
52.44064 213
52.46076 212
52.48087 205
52.50099 217
52.5211 214
52.54121 218
52.56133 200
52.58144 240
52.60155 237
52.62167 182
52.64178 205
52.6619 220
52.68201 204
52.70212 224
52.72224 204
52.74235 184
52.76246 193
52.78258 220
52.80269 230
52.8228 216
52.84292 212
52.86303 206
52.88315 218
52.90326 203
52.92337 217
52.94349 238
52.9636 234
52.98371 218
53.00383 199
53.02394 203
53.04406 261
53.06417 222
53.08428 223
53.1044 228
53.12451 214
53.14462 218
53.16474 206
53.18485 195
53.20497 216
53.22508 211
53.24519 215
53.26531 234
53.28542 222
53.30553 216
53.32565 211
53.34576 226
53.36587 227
53.38599 222
53.4061 212
53.42622 202
53.44633 243
53.46644 208
53.48656 208
53.50667 210
53.52678 232
53.5469 211
53.56701 260
53.58713 223
53.60724 245
53.62735 236
53.64747 220
53.66758 247
53.68769 232
53.70781 217
53.72792 226
53.74804 247
53.76815 243
53.78826 239
53.80838 240
53.82849 241
53.8486 243
53.86872 260
53.88883 230
53.90894 246
53.92906 231
53.94917 272
53.96929 258
53.9894 228
54.00951 242
54.02963 245
54.04974 246
54.06985 245
54.08997 257
54.11008 207
54.1302 220
54.15031 239
54.17042 234
54.19054 231
54.21065 230
54.23076 235
54.25088 241
54.27099 232
54.29111 247
54.31122 232
54.33133 236
54.35145 226
54.37156 243
54.39167 250
54.41179 221
54.4319 212
54.45201 224
54.47213 226
54.49224 252
54.51236 219
54.53247 231
54.55258 243
54.5727 223
54.59281 247
54.61292 247
54.63304 256
54.65315 250
54.67327 259
54.69338 273
54.71349 271
54.73361 307
54.75372 321
54.77383 330
54.79395 316
54.81406 298
54.83417 326
54.85429 320
54.8744 284
54.89452 285
54.91463 248
54.93474 273
54.95486 264
54.97497 259
54.99508 264
55.0152 265
55.03531 269
55.05543 232
55.07554 236
55.09565 254
55.11577 247
55.13588 266
55.15599 223
55.17611 246
55.19622 250
55.21634 235
55.23645 293
55.25656 255
55.27668 274
55.29679 260
55.3169 252
55.33702 263
55.35713 244
55.37724 247
55.39736 255
55.41747 228
55.43759 247
55.4577 241
55.47781 233
55.49793 228
55.51804 240
55.53815 208
55.55827 214
55.57838 219
55.5985 201
55.61861 196
55.63872 242
55.65884 254
55.67895 220
55.69906 220
55.71918 209
55.73929 238
55.75941 220
55.77952 237
55.79963 199
55.81975 242
55.83986 231
55.85997 228
55.88009 218
55.9002 230
55.92031 226
55.94043 209
55.96054 231
55.98066 227
56.00077 225
56.02088 206
56.041 223
56.06111 245
56.08122 228
56.10134 208
56.12145 225
56.14157 237
56.16168 230
56.18179 234
56.20191 243
56.22202 258
56.24213 248
56.26225 225
56.28236 275
56.30248 237
56.32259 264
56.3427 265
56.36282 284
56.38293 281
56.40304 310
56.42316 292
56.44327 335
56.46338 302
56.4835 379
56.50361 379
56.52373 384
56.54384 362
56.56395 323
56.58407 313
56.60418 311
56.62429 330
56.64441 306
56.66452 296
56.68464 294
56.70475 293
56.72486 254
56.74498 279
56.76509 257
56.7852 251
56.80532 266
56.82543 271
56.84554 253
56.86566 234
56.88577 261
56.90589 263
56.926 261
56.94611 283
56.96623 229
56.98634 273
57.00645 283
57.02657 257
57.04668 244
57.0668 270
57.08691 295
57.10702 312
57.12714 303
57.14725 314
57.16736 350
57.18748 378
57.20759 369
57.22771 441
57.24782 428
57.26793 462
57.28805 515
57.30816 578
57.32827 573
57.34839 549
57.3685 551
57.38861 569
57.40873 569
57.42884 530
57.44896 488
57.46907 467
57.48918 441
57.5093 463
57.52941 413
57.54952 402
57.56964 339
57.58975 335
57.60987 337
57.62998 289
57.65009 267
57.67021 273
57.69032 273
57.71043 232
57.73055 244
57.75066 267
57.77078 235
57.79089 269
57.811 224
57.83112 312
57.85123 280
57.87134 263
57.89146 255
57.91157 284
57.93168 268
57.9518 260
57.97191 248
57.99203 283
58.01214 250
58.03225 246
58.05237 262
58.07248 254
58.09259 245
58.11271 251
58.13282 244
58.15294 264
58.17305 242
58.19316 232
58.21328 238
58.23339 235
58.2535 237
58.27362 243
58.29373 217
58.31385 214
58.33396 189
58.35407 219
58.37419 214
58.3943 195
58.41441 247
58.43453 229
58.45464 204
58.47475 223
58.49487 201
58.51498 203
58.5351 244
58.55521 205
58.57532 180
58.59544 226
58.61555 205
58.63566 218
58.65578 217
58.67589 215
58.69601 230
58.71612 217
58.73623 217
58.75635 202
58.77646 220
58.79657 217
58.81669 223
58.8368 211
58.85691 218
58.87703 191
58.89714 188
58.91726 213
58.93737 198
58.95748 217
58.9776 205
58.99771 201
59.01782 219
59.03794 192
59.05805 216
59.07817 208
59.09828 209
59.11839 196
59.13851 225
59.15862 230
59.17873 221
59.19885 215
59.21896 235
59.23908 224
59.25919 203
59.2793 208
59.29942 199
59.31953 233
59.33964 209
59.35976 219
59.37987 206
59.39998 216
59.4201 241
59.44021 220
59.46033 218
59.48044 214
59.50055 233
59.52067 235
59.54078 230
59.56089 234
59.58101 250
59.60112 269
59.62124 275
59.64135 284
59.66146 266
59.68158 278
59.70169 322
59.7218 324
59.74192 338
59.76203 381
59.78215 368
59.80226 455
59.82237 428
59.84249 465
59.8626 491
59.88271 474
59.90283 461
59.92294 408
59.94305 431
59.96317 371
59.98328 374
60.0034 388
60.02351 380
60.04362 357
60.06374 342
60.08385 301
60.10396 321
60.12408 301
60.14419 295
60.16431 253
60.18442 294
60.20453 260
60.22465 264
60.24476 248
60.26487 282
60.28499 250
60.3051 252
60.32522 247
60.34533 249
60.36544 261
60.38556 283
60.40567 273
60.42578 289
60.4459 328
60.46601 293
60.48612 323
60.50624 378
60.52635 416
60.54647 395
60.56658 446
60.58669 434
60.60681 471
60.62692 439
60.64703 464
60.66715 439
60.68726 426
60.70738 460
60.72749 419
60.7476 376
60.76772 408
60.78783 424
60.80794 333
60.82806 414
60.84817 403
60.86828 415
60.8884 393
60.90851 348
60.92863 369
60.94874 351
60.96885 337
60.98897 332
61.00908 356
61.02919 312
61.04931 330
61.06942 335
61.08954 325
61.10965 326
61.12976 323
61.14988 333
61.16999 316
61.1901 339
61.21022 345
61.23033 352
61.25045 346
61.27056 339
61.29067 354
61.31079 328
61.3309 353
61.35101 355
61.37113 375
61.39124 368
61.41135 371
61.43147 363
61.45158 374
61.4717 366
61.49181 352
61.51192 353
61.53204 325
61.55215 328
61.57226 353
61.59238 350
61.61249 321
61.63261 320
61.65272 330
61.67283 315
61.69295 322
61.71306 316
61.73317 302
61.75329 311
61.7734 293
61.79352 275
61.81363 279
61.83374 299
61.85386 294
61.87397 289
61.89408 255
61.9142 271
61.93431 264
61.95442 271
61.97454 286
61.99465 281
62.01477 240
62.03488 257
62.05499 268
62.07511 235
62.09522 241
62.11533 219
62.13545 247
62.15556 242
62.17568 262
62.19579 252
62.2159 261
62.23602 231
62.25613 240
62.27624 248
62.29636 228
62.31647 277
62.33659 224
62.3567 245
62.37681 247
62.39693 239
62.41704 243
62.43715 232
62.45727 240
62.47738 202
62.49749 216
62.51761 235
62.53772 236
62.55784 251
62.57795 245
62.59806 260
62.61818 236
62.63829 238
62.6584 261
62.67852 241
62.69863 230
62.71875 246
62.73886 254
62.75897 250
62.77909 286
62.7992 253
62.81931 271
62.83943 279
62.85954 250
62.87965 299
62.89977 280
62.91988 317
62.94 317
62.96011 310
62.98022 301
63.00034 318
63.02045 294
63.04056 289
63.06068 314
63.08079 296
63.10091 293
63.12102 292
63.14113 289
63.16125 283
63.18136 249
63.20147 259
63.22159 251
63.2417 249
63.26182 266
63.28193 247
63.30204 233
63.32216 237
63.34227 237
63.36238 255
63.3825 258
63.40261 273
63.42272 252
63.44284 230
63.46295 242
63.48307 240
63.50318 242
63.52329 245
63.54341 270
63.56352 278
63.58363 271
63.60375 272
63.62386 283
63.64398 278
63.66409 285
63.6842 309
63.70432 277
63.72443 305
63.74454 310
63.76466 332
63.78477 333
63.80489 336
63.825 334
63.84511 319
63.86523 361
63.88534 351
63.90545 322
63.92557 334
63.94568 338
63.96579 345
63.98591 348
64.00602 323
64.02614 306
64.04625 294
64.06636 302
64.08648 271
64.10659 308
64.1267 285
64.14682 294
64.16693 261
64.18705 258
64.20716 266
64.22727 271
64.24739 296
64.2675 244
64.28761 235
64.30773 263
64.32784 263
64.34796 292
64.36807 252
64.38818 302
64.4083 317
64.42841 296
64.44852 310
64.46864 327
64.48875 320
64.50886 420
64.52898 419
64.54909 395
64.56921 416
64.58932 448
64.60943 468
64.62955 475
64.64966 491
64.66977 402
64.68989 470
64.71 455
64.73012 420
64.75023 454
64.77034 433
64.79046 412
64.81057 403
64.83068 399
64.8508 333
64.87091 351
64.89102 321
64.91114 353
64.93125 335
64.95137 285
64.97148 256
64.99159 288
65.01171 305
65.03182 293
65.05193 294
65.07205 307
65.09216 338
65.11228 332
65.13239 357
65.1525 371
65.17262 309
65.19273 294
65.21284 338
65.23296 356
65.25307 345
65.27319 358
65.2933 352
65.31341 368
65.33353 359
65.35364 462
65.37375 481
65.39387 472
65.41398 533
65.43409 592
65.45421 588
65.47432 595
65.49444 613
65.51455 711
65.53466 682
65.55478 650
65.57489 654
65.595 691
65.61512 692
65.63523 693
65.65535 764
65.67546 687
65.69557 719
65.71569 659
65.7358 723
65.75591 659
65.77603 609
65.79614 622
65.81626 567
65.83637 511
65.85648 541
65.8766 518
65.89671 496
65.91682 464
65.93694 459
65.95705 440
65.97716 454
65.99728 443
66.01739 411
66.03751 402
66.05762 376
66.07773 358
66.09785 327
66.11796 332
66.13807 319
66.15819 318
66.1783 284
66.19842 293
66.21853 293
66.23864 312
66.25876 290
66.27887 280
66.29898 304
66.3191 287
66.33921 303
66.35933 355
66.37944 326
66.39955 321
66.41967 357
66.43978 366
66.45989 346
66.48001 321
66.50012 304
66.52023 309
66.54035 305
66.56046 324
66.58058 353
66.60069 333
66.6208 321
66.64092 326
66.66103 302
66.68114 280
66.70126 277
66.72137 244
66.74149 261
66.7616 245
66.78171 240
66.80183 250
66.82194 238
66.84205 244
66.86217 243
66.88228 269
66.90239 254
66.92251 281
66.94262 253
66.96274 266
66.98285 270
67.00296 303
67.02308 305
67.04319 283
67.0633 306
67.08342 313
67.10353 304
67.12365 301
67.14376 325
67.16387 314
67.18399 349
67.2041 332
67.22421 338
67.24433 369
67.26444 349
67.28456 351
67.30467 360
67.32478 347
67.3449 359
67.36501 354
67.38512 385
67.40524 367
67.42535 358
67.44546 435
67.46558 395
67.48569 453
67.50581 417
67.52592 470
67.54603 462
67.56615 443
67.58626 462
67.60637 447
67.62649 463
67.6466 469
67.66672 434
67.68683 390
67.70694 386
67.72706 377
67.74717 371
67.76728 386
67.7874 377
67.80751 344
67.82763 380
67.84774 347
67.86785 315
67.88797 320
67.90808 336
67.92819 319
67.94831 318
67.96842 330
67.98853 346
68.00865 371
68.02876 370
68.04888 413
68.06899 431
68.0891 409
68.10922 405
68.12933 358
68.14944 359
68.16956 377
68.18967 400
68.20979 374
68.2299 358
68.25001 350
68.27013 367
68.29024 352
68.31035 286
68.33047 330
68.35058 326
68.3707 300
68.39081 281
68.41092 309
68.43104 275
68.45115 305
68.47126 271
68.49138 289
68.51149 253
68.5316 249
68.55172 268
68.57183 241
68.59195 239
68.61206 261
68.63217 252
68.65229 225
68.6724 246
68.69251 237
68.71263 243
68.73274 274
68.75286 235
68.77297 234
68.79308 258
68.8132 257
68.83331 241
68.85342 244
68.87354 245
68.89365 244
68.91376 252
68.93388 256
68.95399 253
68.97411 250
68.99422 254
69.01433 265
69.03445 250
69.05456 237
69.07467 236
69.09479 268
69.1149 250
69.13502 264
69.15513 248
69.17524 248
69.19536 249
69.21547 259
69.23558 232
69.2557 231
69.27581 219
69.29593 254
69.31604 251
69.33615 241
69.35627 229
69.37638 230
69.39649 217
69.41661 197
69.43672 226
69.45683 216
69.47695 254
69.49706 209
69.51718 217
69.53729 221
69.5574 213
69.57752 195
69.59763 204
69.61774 220
69.63786 203
69.65797 189
69.67809 238
69.6982 218
69.71831 207
69.73843 201
69.75854 205
69.77865 251
69.79877 233
69.81888 201
69.839 207
69.85911 228
69.87922 233
69.89934 226
69.91945 228
69.93956 243
69.95968 211
69.97979 237
69.9999 250
70.02002 267
70.04013 261
70.06025 262
70.08036 261
70.10047 261
70.12059 251
70.1407 258
70.16081 286
70.18093 289
70.20104 291
70.22116 299
70.24127 299
70.26138 293
70.2815 288
70.30161 310
70.32172 290
70.34184 270
70.36195 301
70.38207 274
70.40218 265
70.42229 285
70.44241 265
70.46252 249
70.48263 241
70.50275 252
70.52286 273
70.54297 223
70.56309 238
70.5832 218
70.60332 216
70.62343 263
70.64354 201
70.66366 217
70.68377 215
70.70388 235
70.724 222
70.74411 234
70.76423 196
70.78434 237
70.80445 196
70.82457 198
70.84468 235
70.86479 211
70.88491 208
70.90502 202
70.92513 231
70.94525 234
70.96536 235
70.98548 238
71.00559 234
71.0257 217
71.04582 231
71.06593 266
71.08604 230
71.10616 235
71.12627 230
71.14639 218
71.1665 205
71.18661 234
71.20673 201
71.22684 236
71.24695 210
71.26707 227
71.28718 224
71.3073 209
71.32741 192
71.34752 218
71.36764 189
71.38775 210
71.40786 204
71.42798 211
71.44809 189
71.4682 226
71.48832 217
71.50843 209
71.52855 190
71.54866 204
71.56877 201
71.58889 195
71.609 205
71.62911 195
71.64923 211
71.66934 186
71.68946 209
71.70957 191
71.72968 196
71.7498 189
71.76991 217
71.79002 222
71.81014 189
71.83025 212
71.85037 218
71.87048 223
71.89059 194
71.91071 220
71.93082 218
71.95093 189
71.97105 204
71.99116 234
72.01127 217
72.03139 202
72.0515 206
72.07162 199
72.09173 199
72.11184 206
72.13196 201
72.15207 189
72.17218 208
72.1923 198
72.21241 202
72.23253 212
72.25264 220
72.27275 213
72.29287 214
72.31298 205
72.33309 222
72.35321 233
72.37332 199
72.39344 213
72.41355 221
72.43366 223
72.45378 221
72.47389 190
72.494 261
72.51412 212
72.53423 224
72.55434 245
72.57446 234
72.59457 231
72.61469 261
72.6348 252
72.65491 264
72.67503 280
72.69514 255
72.71525 265
72.73537 288
72.75548 285
72.7756 304
72.79571 306
72.81582 284
72.83594 279
72.85605 317
72.87616 259
72.89628 293
72.91639 315
72.9365 254
72.95662 274
72.97673 268
72.99685 298
73.01696 284
73.03707 268
73.05719 286
73.0773 248
73.09741 254
73.11753 251
73.13764 260
73.15776 249
73.17787 247
73.19798 231
73.2181 227
73.23821 218
73.25832 217
73.27844 277
73.29855 265
73.31867 271
73.33878 243
73.35889 264
73.37901 257
73.39912 239
73.41923 236
73.43935 233
73.45946 238
73.47957 242
73.49969 238
73.5198 242
73.53992 235
73.56003 258
73.58014 238
73.60026 257
73.62037 277
73.64048 223
73.6606 235
73.68071 205
73.70083 221
73.72094 184
73.74105 229
73.76117 213
73.78128 218
73.80139 211
73.82151 190
73.84162 220
73.86174 227
73.88185 219
73.90196 186
73.92208 229
73.94219 176
73.9623 229
73.98242 204
74.00253 202
74.02264 205
74.04276 212
74.06287 179
74.08299 183
74.1031 201
74.12321 187
74.14333 199
74.16344 195
74.18355 177
74.20367 205
74.22378 181
74.2439 185
74.26401 185
74.28412 186
74.30424 202
74.32435 178
74.34446 167
74.36458 187
74.38469 195
74.40481 198
74.42492 192
74.44503 190
74.46515 175
74.48526 200
74.50537 177
74.52549 203
74.5456 181
74.56571 187
74.58583 189
74.60594 188
74.62606 188
74.64617 207
74.66628 181
74.6864 181
74.70651 199
74.72662 182
74.74674 170
74.76685 187
74.78697 180
74.80708 180
74.82719 147
74.84731 195
74.86742 195
74.88753 196
74.90765 196
74.92776 192
74.94787 209
74.96799 175
74.9881 190
