3.00117 24646
3.02128 23662
3.0414 23166
3.06151 22501
3.08162 22071
3.10174 21250
3.12185 20826
3.14197 20194
3.16208 19471
3.18219 19420
3.20231 18182
3.22242 17806
3.24253 17504
3.26265 16498
3.28276 16313
3.30288 15836
3.32299 15159
3.3431 14755
3.36322 14115
3.38333 14025
3.40344 13239
3.42356 12796
3.44367 12566
3.46379 12093
3.4839 11601
3.50401 11367
3.52413 10893
3.54424 10378
3.56435 9865
3.58447 9681
3.60458 9378
3.62469 8993
3.64481 8598
3.66492 7870
3.68504 8081
3.70515 7787
3.72526 7390
3.74538 7258
3.76549 6475
3.7856 6571
3.80572 6362
3.82583 6061
3.84595 5792
3.86606 5421
3.88617 5343
3.90629 4974
3.9264 4697
3.94651 4506
3.96663 4319
3.98674 4099
4.00686 4023
4.02697 3610
4.04708 3697
4.0672 3297
4.08731 3287
4.10742 3256
4.12754 3036
4.14765 2774
4.16776 2617
4.18788 2688
4.20799 2624
4.22811 2352
4.24822 2280
4.26833 2139
4.28845 2092
4.30856 2147
4.32867 1906
4.34879 1913
4.3689 1800
4.38902 1806
4.40913 1812
4.42924 1576
4.44936 1619
4.46947 1621
4.48958 1548
4.5097 1580
4.52981 1385
4.54992 1400
4.57004 1331
4.59015 1303
4.61027 1313
4.63038 1198
4.65049 1202
4.67061 1171
4.69072 1154
4.71083 1196
4.73095 1027
4.75106 1043
4.77118 990
4.79129 986
4.8114 1027
4.83152 900
4.85163 895
4.87174 870
4.89186 863
4.91197 859
4.93209 812
4.9522 762
4.97231 831
4.99243 789
5.01254 851
5.03265 710
5.05277 714
5.07288 729
5.09299 695
5.11311 671
5.13322 632
5.15334 626
5.17345 604
5.19356 600
5.21368 554
5.23379 497
5.2539 537
5.27402 562
5.29413 505
5.31425 462
5.33436 470
5.35447 460
5.37459 472
5.3947 490
5.41481 442
5.43493 412
5.45504 389
5.47516 458
5.49527 429
5.51538 387
5.5355 362
5.55561 375
5.57572 327
5.59584 383
5.61595 366
5.63606 304
5.65618 317
5.67629 337
5.69641 313
5.71652 288
5.73663 272
5.75675 292
5.77686 319
5.79697 293
5.81709 282
5.8372 288
5.85732 248
5.87743 269
5.89754 285
5.91766 234
5.93777 263
5.95788 279
5.978 231
5.99811 243
6.01823 252
6.03834 243
6.05845 254
6.07857 243
6.09868 197
6.11879 212
6.13891 220
6.15902 241
6.17913 213
6.19925 251
6.21936 198
6.23948 225
6.25959 198
6.2797 214
6.29982 188
6.31993 201
6.34004 217
6.36016 170
6.38027 200
6.40039 208
6.4205 167
6.44061 203
6.46073 201
6.48084 208
6.50095 208
6.52107 185
6.54118 210
6.56129 169
6.58141 206
6.60152 201
6.62164 194
6.64175 166
6.66186 190
6.68198 191
6.70209 166
6.7222 190
6.74232 165
6.76243 187
6.78255 206
6.80266 206
6.82277 184
6.84289 183
6.863 189
6.88311 200
6.90323 214
6.92334 190
6.94346 209
6.96357 211
6.98368 229
7.0038 192
7.02391 184
7.04402 179
7.06414 209
7.08425 179
7.10436 197
7.12448 231
7.14459 171
7.16471 148
7.18482 195
7.20493 206
7.22505 169
7.24516 181
7.26527 209
7.28539 208
7.3055 190
7.32562 182
7.34573 196
7.36584 201
7.38596 181
7.40607 170
7.42618 188
7.4463 211
7.46641 224
7.48653 177
7.50664 190
7.52675 230
7.54687 208
7.56698 196
7.58709 194
7.60721 192
7.62732 190
7.64743 170
7.66755 176
7.68766 173
7.70778 196
7.72789 168
7.748 213
7.76812 202
7.78823 187
7.80834 192
7.82846 182
7.84857 187
7.86869 198
7.8888 204
7.90891 178
7.92903 201
7.94914 209
7.96925 198
7.98937 189
8.00948 190
8.0296 203
8.04971 194
8.06982 193
8.08994 184
8.11005 190
8.13016 199
8.15028 205
8.17039 226
8.1905 209
8.21062 186
8.23073 221
8.25085 248
8.27096 183
8.29107 203
8.31119 199
8.3313 223
8.35141 191
8.37153 200
8.39164 198
8.41176 202
8.43187 210
8.45198 215
8.4721 225
8.49221 200
8.51232 211
8.53244 229
8.55255 212
8.57266 214
8.59278 221
8.61289 224
8.63301 205
8.65312 193
8.67323 172
8.69335 206
8.71346 187
8.73357 197
8.75369 210
8.7738 205
8.79392 207
8.81403 197
8.83414 201
8.85426 163
8.87437 221
8.89448 232
8.9146 229
8.93471 221
8.95483 210
8.97494 202
8.99505 214
9.01517 229
9.03528 187
9.05539 205
9.07551 218
9.09562 204
9.11573 214
9.13585 210
9.15596 213
9.17608 195
9.19619 177
9.2163 227
9.23642 186
9.25653 204
9.27664 201
9.29676 191
9.31687 225
9.33699 197
9.3571 205
9.37721 206
9.39733 178
9.41744 198
9.43755 202
9.45767 217
9.47778 190
9.4979 214
9.51801 200
9.53812 211
9.55824 201
9.57835 209
9.59846 187
9.61858 225
9.63869 201
9.6588 213
9.67892 205
9.69903 223
9.71915 186
9.73926 223
9.75937 212
9.77949 192
9.7996 213
9.81971 202
9.83983 208
9.85994 193
9.88006 205
9.90017 219
9.92028 229
9.9404 188
9.96051 212
9.98062 192
10.00074 195
10.02085 202
10.04097 196
10.06108 215
10.08119 192
10.10131 212
10.12142 182
10.14153 174
10.16165 220
10.18176 192
10.20187 150
10.22199 191
10.2421 196
10.26222 200
10.28233 182
10.30244 183
10.32256 196
10.34267 207
10.36278 209
10.3829 210
10.40301 172
10.42313 232
10.44324 220
10.46335 218
10.48347 224
10.50358 198
10.52369 209
10.54381 181
10.56392 207
10.58403 195
10.60415 191
10.62426 203
10.64438 194
10.66449 187
10.6846 185
10.70472 204
10.72483 202
10.74494 199
10.76506 183
10.78517 214
10.80529 204
10.8254 238
10.84551 186
10.86563 207
10.88574 244
10.90585 227
10.92597 198
10.94608 175
10.9662 221
10.98631 205
11.00642 220
11.02654 208
11.04665 233
11.06676 233
11.08688 205
11.10699 193
11.1271 199
11.14722 210
11.16733 185
11.18745 227
11.20756 213
11.22767 206
11.24779 200
11.2679 242
11.28801 230
11.30813 191
11.32824 217
11.34836 198
11.36847 208
11.38858 209
11.4087 197
11.42881 198
11.44892 204
11.46904 209
11.48915 219
11.50927 241
11.52938 209
11.54949 218
11.56961 234
11.58972 206
11.60983 189
11.62995 217
11.65006 214
11.67017 250
11.69029 234
11.7104 236
11.73052 241
11.75063 220
11.77074 249
11.79086 229
11.81097 244
11.83108 267
11.8512 257
11.87131 238
11.89143 301
11.91154 242
11.93165 293
11.95177 268
11.97188 301
11.99199 287
12.01211 324
12.03222 298
12.05234 321
12.07245 345
12.09256 343
12.11268 389
12.13279 395
12.1529 403
12.17302 442
12.19313 481
12.21324 502
12.23336 504
12.25347 541
12.27359 600
12.2937 569
12.31381 601
12.33393 639
12.35404 607
12.37415 580
12.39427 596
12.41438 550
12.4345 545
12.45461 544
12.47472 492
12.49484 439
12.51495 432
12.53506 391
12.55518 358
12.57529 360
12.5954 353
12.61552 312
12.63563 299
12.65575 246
12.67586 301
12.69597 268
12.71609 250
12.7362 249
12.75631 264
12.77643 247
12.79654 218
12.81666 231
12.83677 258
12.85688 232
12.877 209
12.89711 225
12.91722 206
12.93734 201
12.95745 204
12.97757 208
12.99768 206
13.01779 197
13.03791 213
13.05802 208
13.07813 198
13.09825 194
13.11836 200
13.13847 205
13.15859 212
13.1787 169
13.19882 227
13.21893 214
13.23904 194
13.25916 200
13.27927 214
13.29938 199
13.3195 192
13.33961 177
13.35973 187
13.37984 205
13.39995 190
13.42007 215
13.44018 157
13.46029 209
13.48041 205
13.50052 207
13.52064 208
13.54075 186
13.56086 184
13.58098 197
13.60109 176
13.6212 204
13.64132 237
13.66143 218
13.68154 202
13.70166 197
13.72177 202
13.74189 200
13.762 209
13.78211 205
13.80223 186
13.82234 215
13.84245 212
13.86257 197
13.88268 208
13.9028 181
13.92291 187
13.94302 178
13.96314 199
13.98325 190
14.00336 206
14.02348 157
14.04359 204
14.06371 164
14.08382 217
14.10393 188
14.12405 193
14.14416 176
14.16427 171
14.18439 156
14.2045 178
14.22461 211
14.24473 201
14.26484 173
14.28496 186
14.30507 206
14.32518 178
14.3453 184
14.36541 191
14.38552 209
14.40564 177
14.42575 172
14.44587 157
14.46598 176
14.48609 184
14.50621 177
14.52632 145
14.54643 176
14.56655 165
14.58666 167
14.60677 180
14.62689 181
14.647 156
14.66712 178
14.68723 187
14.70734 176
14.72746 186
14.74757 173
14.76768 173
14.7878 217
14.80791 184
14.82803 179
14.84814 172
14.86825 188
14.88837 183
14.90848 161
14.92859 183
14.94871 178
14.96882 169
14.98894 155
15.00905 159
15.02916 207
15.04928 185
15.06939 167
15.0895 202
15.10962 166
15.12973 168
15.14984 194
15.16996 192
15.19007 179
15.21019 184
15.2303 173
15.25041 176
15.27053 184
15.29064 177
15.31075 153
15.33087 180
15.35098 157
15.3711 180
15.39121 176
15.41132 188
15.43144 166
15.45155 177
15.47166 191
15.49178 156
15.51189 147
15.53201 170
15.55212 187
15.57223 148
15.59235 170
15.61246 145
15.63257 178
15.65269 179
15.6728 186
15.69291 179
15.71303 183
15.73314 196
15.75326 163
15.77337 174
15.79348 177
15.8136 163
15.83371 147
15.85382 172
15.87394 187
15.89405 173
15.91417 149
15.93428 144
15.95439 155
15.97451 158
15.99462 184
16.01473 155
16.03485 167
16.05496 150
16.07508 175
16.09519 185
16.1153 161
16.13542 171
16.15553 167
16.17564 162
16.19576 162
16.21587 162
16.23598 160
16.2561 139
16.27621 175
16.29633 181
16.31644 162
16.33655 158
16.35667 157
16.37678 168
16.39689 166
16.41701 141
16.43712 164
16.45724 178
16.47735 181
16.49746 163
16.51758 191
16.53769 185
16.5578 201
16.57792 153
16.59803 155
16.61814 151
16.63826 180
16.65837 155
16.67849 163
16.6986 181
16.71871 176
16.73883 163
16.75894 172
16.77905 160
16.79917 167
16.81928 181
16.8394 188
16.85951 177
16.87962 180
16.89974 186
16.91985 162
16.93996 172
16.96008 164
16.98019 159
17.00031 147
17.02042 166
17.04053 197
17.06065 183
17.08076 176
17.10087 165
17.12099 185
17.1411 151
17.16121 166
17.18133 159
17.20144 166
17.22156 142
17.24167 174
17.26178 167
17.2819 170
17.30201 170
17.32212 170
17.34224 157
17.36235 152
17.38247 165
17.40258 153
17.42269 165
17.44281 149
17.46292 154
17.48303 146
17.50315 160
17.52326 173
17.54338 154
17.56349 170
17.5836 160
17.60372 166
17.62383 202
17.64394 139
17.66406 149
17.68417 132
17.70428 172
17.7244 171
17.74451 162
17.76463 153
17.78474 174
17.80485 149
17.82497 185
17.84508 166
17.86519 166
17.88531 164
17.90542 161
17.92554 172
17.94565 160
17.96576 177
17.98588 167
18.00599 166
18.0261 160
18.04622 165
18.06633 168
18.08645 154
18.10656 152
18.12667 173
18.14679 177
18.1669 169
18.18701 157
18.20713 135
18.22724 171
18.24735 148
18.26747 149
18.28758 163
18.3077 167
18.32781 147
18.34792 156
18.36804 175
18.38815 166
18.40826 179
18.42838 177
18.44849 176
18.46861 171
18.48872 150
18.50883 169
18.52895 176
18.54906 154
18.56917 186
18.58929 166
18.6094 180
18.62951 161
18.64963 177
18.66974 177
18.68986 169
18.70997 162
18.73008 158
18.7502 193
18.77031 185
18.79042 193
18.81054 168
18.83065 192
18.85077 190
18.87088 146
18.89099 188
18.91111 177
18.93122 176
18.95133 168
18.97145 162
18.99156 162
19.01168 135
19.03179 172
19.0519 179
19.07202 177
19.09213 162
19.11224 165
19.13236 186
19.15247 166
19.17258 168
19.1927 177
19.21281 174
19.23293 191
19.25304 179
19.27315 180
19.29327 192
19.31338 154
19.33349 182
19.35361 166
19.37372 192
19.39384 187
19.41395 181
19.43406 185
19.45418 172
19.47429 196
19.4944 211
19.51452 186
19.53463 185
19.55475 203
19.57486 202
19.59497 204
19.61509 210
19.6352 202
19.65531 206
19.67543 227
19.69554 211
19.71565 233
19.73577 282
19.75588 316
19.776 281
19.79611 329
19.81622 364
19.83634 376
19.85645 411
19.87656 465
19.89668 449
19.91679 465
19.93691 466
19.95702 441
19.97713 435
19.99725 394
20.01736 429
20.03747 409
20.05759 393
20.0777 395
20.09782 402
20.11793 416
20.13804 369
20.15816 397
20.17827 422
20.19838 378
20.2185 432
20.23861 388
20.25872 442
20.27884 437
20.29895 443
20.31907 484
20.33918 459
20.35929 448
20.37941 398
20.39952 497
20.41963 457
20.43975 445
20.45986 496
20.47998 508
20.50009 515
20.5202 548
20.54032 545
20.56043 544
20.58054 615
20.60066 627
20.62077 659
20.64088 710
20.661 813
20.68111 957
20.70123 1153
20.72134 1535
20.74145 2123
20.76157 2903
20.78168 3934
20.80179 5288
20.82191 6780
20.84202 8107
20.86214 8730
20.88225 8102
20.90236 6902
20.92248 5009
20.94259 3535
20.9627 2168
20.98282 1368
21.00293 1031
21.02305 835
21.04316 692
21.06327 634
21.08339 681
21.1035 620
21.12361 535
21.14373 546
21.16384 484
21.18395 442
21.20407 466
21.22418 458
21.2443 428
21.26441 389
21.28452 402
21.30464 379
21.32475 407
21.34486 375
21.36498 407
21.38509 382
21.40521 403
21.42532 362
21.44543 402
21.46555 335
21.48566 337
21.50577 301
21.52589 339
21.546 328
21.56612 338
21.58623 332
21.60634 352
21.62646 366
21.64657 331
21.66668 338
21.6868 325
21.70691 317
21.72702 282
21.74714 332
21.76725 351
21.78737 298
21.80748 274
21.82759 308
21.84771 306
21.86782 310
21.88793 301
21.90805 329
21.92816 335
21.94828 335
21.96839 387
21.9885 354
22.00862 371
22.02873 333
22.04884 361
22.06896 326
22.08907 349
22.10919 314
22.1293 283
22.14941 285
22.16953 298
22.18964 258
22.20975 282
22.22987 297
22.24998 321
22.27009 284
22.29021 306
22.31032 299
22.33044 330
22.35055 280
22.37066 265
22.39078 290
22.41089 286
22.431 238
22.45112 258
22.47123 300
22.49135 271
22.51146 280
22.53157 278
22.55169 286
22.5718 309
22.59191 281
22.61203 263
22.63214 262
22.65225 269
22.67237 269
22.69248 245
22.7126 255
22.73271 259
22.75282 266
22.77294 222
22.79305 251
22.81316 284
22.83328 268
22.85339 257
22.87351 230
22.89362 259
22.91373 301
22.93385 279
22.95396 267
22.97407 241
22.99419 271
23.0143 249
23.03442 270
23.05453 268
23.07464 281
23.09476 309
23.11487 285
23.13498 303
23.1551 265
23.17521 295
23.19532 284
23.21544 278
23.23555 270
23.25567 253
23.27578 273
23.29589 263
23.31601 275
23.33612 259
23.35623 256
23.37635 278
23.39646 285
23.41658 264
23.43669 263
23.4568 248
23.47692 273
23.49703 263
23.51714 302
23.53726 249
23.55737 290
23.57749 317
23.5976 259
23.61771 273
23.63783 262
23.65794 285
23.67805 270
23.69817 264
23.71828 300
23.73839 260
23.75851 266
23.77862 267
23.79874 256
23.81885 282
23.83896 299
23.85908 273
23.87919 276
23.8993 335
23.91942 342
23.93953 354
23.95965 368
23.97976 375
23.99987 421
24.01999 419
24.0401 424
24.06021 339
24.08033 329
24.10044 319
24.12056 316
24.14067 263
24.16078 289
24.1809 296
24.20101 289
24.22112 329
24.24124 291
24.26135 316
24.28146 326
24.30158 294
24.32169 278
24.34181 300
24.36192 282
24.38203 348
24.40215 309
24.42226 267
24.44237 301
24.46249 304
24.4826 309
24.50272 290
24.52283 310
24.54294 322
24.56306 346
24.58317 335
24.60328 387
24.6234 367
24.64351 366
24.66362 414
24.68374 404
24.70385 450
24.72397 474
24.74408 457
24.76419 484
24.78431 519
24.80442 467
24.82453 562
24.84465 502
24.86476 508
24.88488 479
24.90499 480
24.9251 548
24.94522 478
24.96533 490
24.98544 462
25.00556 426
25.02567 411
25.04579 387
25.0659 359
25.08601 362
25.10613 364
25.12624 374
25.14635 359
25.16647 321
25.18658 327
25.20669 351
25.22681 305
25.24692 334
25.26704 326
25.28715 337
25.30726 310
25.32738 346
25.34749 303
25.3676 293
25.38772 299
25.40783 300
25.42795 307
25.44806 343
25.46817 344
25.48829 358
25.5084 346
25.52851 338
25.54863 395
25.56874 372
25.58886 396
25.60897 382
25.62908 415
25.6492 441
25.66931 408
25.68942 414
25.70954 484
25.72965 465
25.74976 438
25.76988 452
25.78999 474
25.81011 488
25.83022 424
25.85033 500
25.87045 462
25.89056 514
25.91067 433
25.93079 514
25.9509 511
25.97102 516
25.99113 497
26.01124 501
26.03136 542
26.05147 580
26.07158 508
26.0917 572
26.11181 612
26.13193 606
26.15204 717
26.17215 783
26.19227 833
26.21238 891
26.23249 919
26.25261 991
26.27272 988
26.29283 1113
26.31295 1247
26.33306 1416
26.35318 1549
26.37329 1779
26.3934 2076
26.41352 2581
26.43363 3213
26.45374 4138
26.47386 5235
26.49397 7267
26.51409 9998
26.5342 13537
26.55431 18801
26.57443 24648
26.59454 30774
26.61465 35991
26.63477 38062
26.65488 35971
26.67499 30691
26.69511 23976
26.71522 17577
26.73534 11997
26.75545 7468
26.77556 4227
26.79568 2681
26.81579 1980
26.8359 1724
26.85602 1450
26.87613 1370
26.89625 1309
26.91636 1171
26.93647 1008
26.95659 1017
26.9767 936
26.99681 789
27.01693 825
27.03704 749
27.05716 706
27.07727 690
27.09738 683
27.1175 632
27.13761 591
27.15772 582
27.17784 540
27.19795 492
27.21806 492
27.23818 512
27.25829 482
27.27841 470
27.29852 483
27.31863 514
27.33875 548
27.35886 532
27.37897 583
27.39909 634
27.4192 667
27.43932 647
27.45943 692
27.47954 690
27.49966 640
27.51977 620
27.53988 558
27.56 506
27.58011 454
27.60023 421
27.62034 379
27.64045 424
27.66057 355
27.68068 411
27.70079 482
27.72091 403
27.74102 452
27.76113 452
27.78125 424
27.80136 393
27.82148 416
27.84159 432
27.8617 434
27.88182 450
27.90193 437
27.92204 435
27.94216 478
27.96227 573
27.98239 493
28.0025 407
28.02261 464
28.04273 398
28.06284 352
28.08295 345
28.10307 351
28.12318 314
28.1433 295
28.16341 319
28.18352 301
28.20364 331
28.22375 340
28.24386 305
28.26398 330
28.28409 296
28.3042 277
28.32432 271
28.34443 267
28.36455 280
28.38466 266
28.40477 289
28.42489 261
28.445 258
28.46511 258
28.48523 228
28.50534 245
28.52546 258
28.54557 264
28.56568 301
28.5858 272
28.60591 268
28.62602 259
28.64614 269
28.66625 262
28.68636 270
28.70648 266
28.72659 263
28.74671 245
28.76682 264
28.78693 257
28.80705 227
28.82716 233
28.84727 255
28.86739 256
28.8875 242
28.90762 233
28.92773 215
28.94784 234
28.96796 232
28.98807 224
29.00818 254
29.0283 239
29.04841 230
29.06853 256
29.08864 251
29.10875 234
29.12887 214
29.14898 242
29.16909 246
29.18921 261
29.20932 224
29.22943 240
29.24955 228
29.26966 239
29.28978 222
29.30989 251
29.33 274
29.35012 266
29.37023 233
29.39034 254
29.41046 257
29.43057 271
29.45069 280
29.4708 279
29.49091 260
29.51103 270
29.53114 265
29.55125 264
29.57137 211
29.59148 284
29.6116 253
29.63171 238
29.65182 232
29.67194 241
29.69205 253
29.71216 252
29.73228 226
29.75239 268
29.7725 265
29.79262 262
29.81273 263
29.83285 243
29.85296 244
29.87307 270
29.89319 257
29.9133 224
29.93341 249
29.95353 232
29.97364 255
29.99376 221
30.01387 230
30.03398 248
30.0541 244
30.07421 232
30.09432 224
30.11444 265
30.13455 236
30.15467 256
30.17478 248
30.19489 256
30.21501 277
30.23512 250
30.25523 237
30.27535 266
30.29546 246
30.31557 276
30.33569 241
30.3558 285
30.37592 267
30.39603 241
30.41614 253
30.43626 233
30.45637 243
30.47648 232
30.4966 228
30.51671 260
30.53683 216
30.55694 214
30.57705 234
30.59717 218
30.61728 223
30.63739 231
30.65751 209
30.67762 249
30.69773 237
30.71785 260
30.73796 242
30.75808 286
30.77819 271
30.7983 262
30.81842 243
30.83853 254
30.85864 223
30.87876 224
30.89887 236
30.91899 221
30.9391 202
30.95921 228
30.97933 229
30.99944 200
31.01955 197
31.03967 184
31.05978 221
31.0799 203
31.10001 219
31.12012 206
31.14024 203
31.16035 188
31.18046 185
31.20058 191
31.22069 222
31.2408 190
31.26092 192
31.28103 200
31.30115 202
31.32126 207
31.34137 185
31.36149 220
31.3816 178
31.40171 200
31.42183 184
31.44194 184
31.46206 228
31.48217 194
31.50228 218
31.5224 188
31.54251 184
31.56262 181
31.58274 186
31.60285 199
31.62297 182
31.64308 181
31.66319 224
31.68331 169
31.70342 191
31.72353 210
31.74365 152
31.76376 173
31.78387 192
31.80399 201
31.8241 155
31.84422 184
31.86433 176
31.88444 181
31.90456 201
31.92467 194
31.94478 176
31.9649 184
31.98501 186
32.00513 173
32.02524 184
32.04535 195
32.06547 189
32.08558 182
32.10569 191
32.12581 188
32.14592 138
32.16604 208
32.18615 228
32.20626 205
32.22638 195
32.24649 166
32.2666 188
32.28672 155
32.30683 198
32.32694 178
32.34706 207
32.36717 178
32.38729 210
32.4074 203
32.42751 211
32.44763 182
32.46774 202
32.48785 192
32.50797 209
32.52808 190
32.5482 219
32.56831 174
32.58842 169
32.60854 175
32.62865 177
32.64876 189
32.66888 180
32.68899 187
32.7091 149
32.72922 172
32.74933 188
32.76945 173
32.78956 172
32.80967 167
32.82979 203
32.8499 189
32.87001 163
32.89013 182
32.91024 181
32.93036 166
32.95047 190
32.97058 203
32.9907 189
33.01081 178
33.03092 207
33.05104 171
33.07115 196
33.09127 191
33.11138 169
33.13149 181
33.15161 199
33.17172 174
33.19183 203
33.21195 190
33.23206 167
33.25217 196
33.27229 143
33.2924 180
33.31252 200
33.33263 172
33.35274 179
33.37286 190
33.39297 178
33.41308 183
33.4332 174
33.45331 205
33.47343 163
33.49354 161
33.51365 153
33.53377 174
33.55388 156
33.57399 162
33.59411 136
33.61422 176
33.63434 188
33.65445 165
33.67456 154
33.69468 171
33.71479 177
33.7349 185
33.75502 162
33.77513 185
33.79524 153
33.81536 148
33.83547 161
33.85559 150
33.8757 163
33.89581 176
33.91593 164
33.93604 179
33.95615 182
33.97627 202
33.99638 171
34.0165 154
34.03661 167
34.05672 179
34.07684 171
34.09695 166
34.11706 183
34.13718 170
34.15729 188
34.17741 182
34.19752 216
34.21763 200
34.23775 184
34.25786 188
34.27797 187
34.29809 191
34.3182 186
34.33831 180
34.35843 189
34.37854 175
34.39866 199
34.41877 205
34.43888 185
34.459 200
34.47911 185
34.49922 200
34.51934 190
34.53945 191
34.55957 194
34.57968 192
34.59979 192
34.61991 210
34.64002 211
34.66013 230
34.68025 227
34.70036 230
34.72047 249
34.74059 224
34.7607 264
34.78082 270
34.80093 251
34.82104 257
34.84116 266
34.86127 291
34.88138 283
34.9015 305
34.92161 276
34.94173 292
34.96184 254
34.98195 299
35.00207 291
35.02218 297
35.04229 298
35.06241 289
35.08252 253
35.10264 254
35.12275 257
35.14286 252
35.16298 289
35.18309 257
35.2032 282
35.22332 270
35.24343 267
35.26354 290
35.28366 270
35.30377 261
35.32389 262
35.344 298
35.36411 291
35.38423 273
35.40434 253
35.42445 261
35.44457 284
35.46468 298
35.4848 295
35.50491 284
35.52502 316
35.54514 278
35.56525 301
35.58536 271
35.60548 324
35.62559 287
35.64571 299
35.66582 287
35.68593 279
35.70605 285
35.72616 294
35.74627 297
35.76639 312
35.7865 312
35.80661 297
35.82673 291
35.84684 309
35.86696 285
35.88707 296
35.90718 270
35.9273 261
35.94741 302
35.96752 290
35.98764 281
36.00775 302
36.02787 289
36.04798 247
36.06809 268
36.08821 275
36.10832 286
36.12843 274
36.14855 267
36.16866 311
36.18878 270
36.20889 337
36.229 323
36.24912 330
36.26923 380
36.28934 396
36.30946 420
36.32957 491
36.34968 552
36.3698 704
36.38991 815
36.41003 1008
36.43014 1193
36.45025 1591
36.47037 1986
36.49048 2276
36.51059 2557
36.53071 2609
36.55082 2549
36.57094 2192
36.59105 1767
36.61116 1539
36.63128 1259
36.65139 1083
36.6715 829
36.69162 538
36.71173 421
36.73184 396
36.75196 319
36.77207 287
36.79219 257
36.8123 281
36.83241 262
36.85253 273
36.87264 234
36.89275 249
36.91287 260
36.93298 269
36.9531 239
36.97321 258
36.99332 236
37.01344 243
37.03355 272
37.05366 220
37.07378 231
37.09389 241
37.11401 235
37.13412 243
37.15423 234
37.17435 225
37.19446 220
37.21457 216
37.23469 219
37.2548 216
37.27491 236
37.29503 201
37.31514 212
37.33526 217
37.35537 211
37.37548 201
37.3956 200
37.41571 224
37.43582 216
37.45594 237
37.47605 245
37.49617 220
37.51628 223
37.53639 233
37.55651 230
37.57662 242
37.59673 241
37.61685 230
37.63696 243
37.65708 219
37.67719 258
37.6973 252
37.71742 247
37.73753 218
37.75764 245
37.77776 259
37.79787 258
37.81798 224
37.8381 243
37.85821 237
37.87833 241
37.89844 232
37.91855 247
37.93867 225
37.95878 245
37.97889 221
37.99901 229
38.01912 220
38.03924 260
38.05935 212
38.07946 258
38.09958 259
38.11969 261
38.1398 243
38.15992 287
38.18003 273
38.20015 299
38.22026 247
38.24037 286
38.26049 307
38.2806 288
38.30071 296
38.32083 295
38.34094 326
38.36105 293
38.38117 320
38.40128 307
38.4214 310
38.44151 293
38.46162 327
38.48174 300
38.50185 333
38.52196 287
38.54208 329
38.56219 313
38.58231 288
38.60242 310
38.62253 317
38.64265 265
38.66276 277
38.68287 244
38.70299 272
38.7231 294
38.74321 284
38.76333 264
38.78344 252
38.80356 268
38.82367 250
38.84378 290
38.8639 249
38.88401 246
38.90412 267
38.92424 276
38.94435 286
38.96447 275
38.98458 261
39.00469 295
39.02481 304
39.04492 264
39.06503 304
39.08515 304
39.10526 308
39.12538 338
39.14549 334
39.1656 354
39.18572 396
39.20583 420
39.22594 448
39.24606 499
39.26617 573
39.28628 657
39.3064 770
39.32651 960
39.34663 1159
39.36674 1479
39.38685 1769
39.40697 2028
39.42708 2327
39.44719 2392
39.46731 2479
39.48742 2174
39.50754 1714
39.52765 1436
39.54776 1282
39.56788 1149
39.58799 904
39.6081 710
39.62822 481
39.64833 361
39.66845 296
39.68856 308
39.70867 276
39.72879 246
39.7489 287
39.76901 248
39.78913 233
39.80924 263
39.82935 242
39.84947 220
39.86958 248
39.8897 237
39.90981 232
39.92992 250
39.95004 247
39.97015 257
39.99026 285
40.01038 255
40.03049 286
40.05061 303
40.07072 318
40.09083 410
40.11095 374
40.13106 446
40.15117 603
40.17129 664
40.1914 768
40.21152 908
40.23163 1143
40.25174 1256
40.27186 1247
40.29197 1226
40.31208 1126
40.3322 968
40.35231 772
40.37242 776
40.39254 672
40.41265 546
40.43277 421
40.45288 341
40.47299 258
40.49311 211
40.51322 221
40.53333 218
40.55345 251
40.57356 222
40.59368 239
40.61379 210
40.6339 219
40.65402 225
40.67413 216
40.69424 183
40.71436 188
40.73447 188
40.75458 201
40.7747 186
40.79481 185
40.81493 213
40.83504 189
40.85515 201
40.87527 196
40.89538 187
40.91549 201
40.93561 190
40.95572 195
40.97584 192
40.99595 197
41.01606 202
41.03618 189
41.05629 201
41.0764 220
41.09652 181
41.11663 204
41.13675 204
41.15686 197
41.17697 224
41.19709 192
41.2172 219
41.23731 184
41.25743 190
41.27754 161
41.29765 170
41.31777 175
41.33788 184
41.358 177
41.37811 200
41.39822 212
41.41834 185
41.43845 184
41.45856 186
41.47868 193
41.49879 225
41.51891 173
41.53902 188
41.55913 206
41.57925 227
41.59936 184
41.61947 222
41.63959 191
41.6597 205
41.67982 231
41.69993 230
41.72004 222
41.74016 240
41.76027 258
41.78038 249
41.8005 231
41.82061 249
41.84072 232
41.86084 205
41.88095 198
41.90107 208
41.92118 216
41.94129 204
41.96141 213
41.98152 213
42.00163 192
42.02175 232
42.04186 217
42.06198 213
42.08209 244
42.1022 227
42.12232 242
42.14243 232
42.16254 311
42.18266 275
42.20277 326
42.22289 372
42.243 406
42.26311 485
42.28323 579
42.30334 703
42.32345 840
42.34357 1048
42.36368 1166
42.38379 1407
42.40391 1623
42.42402 1804
42.44414 1735
42.46425 1469
42.48436 1244
42.50448 1140
42.52459 992
42.5447 930
42.56482 782
42.58493 586
42.60505 457
42.62516 323
42.64527 277
42.66539 227
42.6855 230
42.70561 209
42.72573 218
42.74584 231
42.76595 193
42.78607 219
42.80618 213
42.8263 211
42.84641 203
42.86652 199
42.88664 213
42.90675 202
42.92686 165
42.94698 193
42.96709 188
42.98721 196
43.00732 170
43.02743 179
43.04755 189
43.06766 198
43.08777 180
43.10789 171
43.128 195
43.14812 182
43.16823 203
43.18834 155
43.20846 187
43.22857 180
43.24868 168
43.2688 156
43.28891 174
43.30902 174
43.32914 180
43.34925 176
43.36937 176
43.38948 171
43.40959 173
43.42971 162
43.44982 171
43.46993 173
43.49005 171
43.51016 168
43.53028 173
43.55039 161
43.5705 161
43.59062 141
43.61073 159
43.63084 140
43.65096 160
43.67107 200
43.69119 169
43.7113 170
43.73141 169
43.75153 157
43.77164 181
43.79175 156
43.81187 144
43.83198 182
43.85209 172
43.87221 178
43.89232 150
43.91244 148
43.93255 186
43.95266 180
43.97278 160
43.99289 176
44.013 182
44.03312 176
44.05323 173
44.07335 181
44.09346 155
44.11357 170
44.13369 164
44.1538 163
44.17391 179
44.19403 173
44.21414 180
44.23426 167
44.25437 157
44.27448 164
44.2946 169
44.31471 167
44.33482 151
44.35494 167
44.37505 154
44.39516 158
44.41528 158
44.43539 165
44.45551 171
44.47562 179
44.49573 165
44.51585 170
44.53596 167
44.55607 179
44.57619 158
44.5963 169
44.61642 165
44.63653 168
44.65664 176
44.67676 189
44.69687 157
44.71698 185
44.7371 167
44.75721 151
44.77732 150
44.79744 165
44.81755 173
44.83767 175
44.85778 199
44.87789 155
44.89801 162
44.91812 191
44.93823 178
44.95835 173
44.97846 198
44.99858 177
45.01869 202
45.0388 180
45.05892 192
45.07903 186
45.09914 175
45.11926 170
45.13937 189
45.15949 185
45.1796 183
45.19971 197
45.21983 193
45.23994 190
45.26005 198
45.28017 175
45.30028 191
45.32039 214
45.34051 194
45.36062 230
45.38074 219
45.40085 209
45.42096 237
45.44108 255
45.46119 265
45.4813 276
45.50142 280
45.52153 307
45.54165 323
45.56176 366
45.58187 396
45.60199 413
45.6221 458
45.64221 533
45.66233 646
45.68244 756
45.70256 926
45.72267 1028
45.74278 1194
45.7629 1225
45.78301 1247
45.80312 1045
45.82324 928
45.84335 781
45.86346 760
45.88358 660
45.90369 587
45.92381 557
45.94392 402
45.96403 301
45.98415 278
46.00426 238
46.02437 198
46.04449 214
46.0646 216
46.08472 207
46.10483 212
46.12494 164
46.14506 196
46.16517 189
46.18528 180
46.2054 177
46.22551 208
46.24563 198
46.26574 210
46.28585 175
46.30597 181
46.32608 185
46.34619 186
46.36631 185
46.38642 173
46.40653 174
46.42665 192
46.44676 191
46.46688 177
46.48699 151
46.5071 160
46.52722 172
46.54733 166
46.56744 170
46.58756 163
46.60767 167
46.62779 169
46.6479 156
46.66801 190
46.68813 164
46.70824 170
46.72835 164
46.74847 192
46.76858 159
46.78869 177
46.80881 173
46.82892 184
46.84904 169
46.86915 173
46.88926 185
46.90938 166
46.92949 182
46.9496 170
46.96972 162
46.98983 151
47.00995 195
47.03006 169
47.05017 201
47.07029 177
47.0904 174
47.11051 167
47.13063 198
47.15074 165
47.17086 171
47.19097 171
47.21108 184
47.2312 180
47.25131 177
47.27142 155
47.29154 170
47.31165 171
47.33176 178
47.35188 179
47.37199 170
47.39211 163
47.41222 201
47.43233 164
47.45245 170
47.47256 207
47.49267 188
47.51279 165
47.5329 201
47.55302 184
47.57313 168
47.59324 180
47.61336 167
47.63347 158
47.65358 147
47.6737 152
47.69381 168
47.71393 182
47.73404 180
47.75415 162
47.77427 143
47.79438 143
47.81449 186
47.83461 145
47.85472 184
47.87483 147
47.89495 172
47.91506 146
47.93518 154
47.95529 142
47.9754 177
47.99552 171
48.01563 174
48.03574 171
48.05586 167
48.07597 173
48.09609 168
48.1162 158
48.13631 151
48.15643 166
48.17654 174
48.19665 153
48.21677 156
48.23688 177
48.257 160
48.27711 187
48.29722 156
48.31734 176
48.33745 176
48.35756 186
48.37768 169
48.39779 162
48.4179 158
48.43802 170
48.45813 168
48.47825 193
48.49836 183
48.51847 182
48.53859 176
48.5587 167
48.57881 162
48.59893 201
48.61904 163
48.63916 178
48.65927 195
48.67938 174
48.6995 179
48.71961 192
48.73972 178
48.75984 175
48.77995 190
48.80006 179
48.82018 181
48.84029 171
48.86041 170
48.88052 172
48.90063 171
48.92075 178
48.94086 198
48.96097 165
48.98109 175
49.0012 181
49.02132 197
49.04143 183
49.06154 175
49.08166 201
49.10177 176
49.12188 205
49.142 167
49.16211 176
49.18223 194
49.20234 179
49.22245 201
49.24257 188
49.26268 194
49.28279 186
49.30291 193
49.32302 169
49.34313 160
49.36325 192
49.38336 170
49.40348 198
49.42359 182
49.4437 192
49.46382 209
49.48393 227
49.50404 177
49.52416 185
49.54427 226
49.56439 211
49.5845 220
49.60461 239
49.62473 235
49.64484 270
49.66495 243
49.68507 280
49.70518 269
49.7253 289
49.74541 310
49.76552 354
49.78564 362
49.80575 416
49.82586 432
49.84598 505
49.86609 553
49.8862 625
49.90632 729
49.92643 865
49.94655 1030
49.96666 1210
49.98677 1496
50.00689 1782
50.027 2311
50.04711 2834
50.06723 3277
50.08734 3626
50.10746 3752
50.12757 3687
50.14768 3260
50.1678 2669
50.18791 2226
50.20802 2117
50.22814 1893
50.24825 1906
50.26837 1615
50.28848 1329
50.30859 925
50.32871 588
50.34882 494
50.36893 377
50.38905 349
50.40916 301
50.42927 326
50.44939 343
50.4695 317
50.48962 326
50.50973 302
50.52984 308
50.54996 316
50.57007 318
50.59018 284
50.6103 346
50.63041 309
50.65053 280
50.67064 282
50.69075 275
50.71087 291
50.73098 230
50.75109 238
50.77121 227
50.79132 215
50.81143 226
50.83155 192
50.85166 199
50.87178 214
50.89189 198
50.912 170
50.93212 187
50.95223 208
50.97234 206
50.99246 165
51.01257 172
51.03269 153
51.0528 191
51.07291 203
51.09303 151
51.11314 174
51.13325 187
51.15337 187
51.17348 175
51.1936 183
51.21371 155
51.23382 174
51.25394 155
51.27405 159
51.29416 177
51.31428 174
51.33439 143
51.3545 184
51.37462 164
51.39473 168
51.41485 147
51.43496 145
51.45507 160
51.47519 155
51.4953 164
51.51541 158
51.53553 154
51.55564 131
51.57576 151
51.59587 144
51.61598 135
51.6361 149
51.65621 150
51.67632 145
51.69644 136
51.71655 162
51.73667 160
51.75678 150
51.77689 143
51.79701 176
51.81712 141
51.83723 131
51.85735 126
51.87746 144
51.89757 113
51.91769 144
51.9378 136
51.95792 184
51.97803 142
51.99814 167
52.01826 170
52.03837 157
52.05848 142
52.0786 169
52.09871 130
52.11883 143
52.13894 152
52.15905 147
52.17917 147
52.19928 134
52.21939 128
52.23951 160
52.25962 141
52.27974 159
52.29985 159
52.31996 125
52.34008 134
52.36019 149
52.3803 161
52.40042 138
52.42053 162
52.44064 169
52.46076 158
52.48087 123
52.50099 128
52.5211 152
52.54121 159
52.56133 131
52.58144 138
52.60155 171
52.62167 170
52.64178 161
52.6619 166
52.68201 130
52.70212 173
52.72224 162
52.74235 149
52.76246 152
52.78258 154
52.80269 129
52.8228 165
52.84292 140
52.86303 140
52.88315 156
52.90326 160
52.92337 143
52.94349 150
52.9636 157
52.98371 161
53.00383 151
53.02394 148
53.04406 149
53.06417 159
53.08428 144
53.1044 165
53.12451 156
53.14462 169
53.16474 176
53.18485 153
53.20497 152
53.22508 198
53.24519 162
53.26531 149
53.28542 148
53.30553 165
53.32565 165
53.34576 155
53.36587 154
53.38599 143
53.4061 143
53.42622 169
53.44633 154
53.46644 141
53.48656 152
53.50667 162
53.52678 182
53.5469 167
53.56701 167
53.58713 177
53.60724 173
53.62735 181
53.64747 159
53.66758 162
53.68769 170
53.70781 166
53.72792 172
53.74804 132
53.76815 194
53.78826 167
53.80838 154
53.82849 168
53.8486 174
53.86872 158
53.88883 168
53.90894 172
53.92906 174
53.94917 191
53.96929 182
53.9894 191
54.00951 173
54.02963 181
54.04974 172
54.06985 202
54.08997 177
54.11008 188
54.1302 202
54.15031 203
54.17042 203
54.19054 215
54.21065 171
54.23076 203
54.25088 195
54.27099 214
54.29111 200
54.31122 239
54.33133 213
54.35145 206
54.37156 202
54.39167 239
54.41179 211
54.4319 224
54.45201 190
54.47213 228
54.49224 243
54.51236 264
54.53247 267
54.55258 266
54.5727 264
54.59281 300
54.61292 303
54.63304 341
54.65315 382
54.67327 459
54.69338 504
54.71349 552
54.73361 659
54.75372 803
54.77383 899
54.79395 1039
54.81406 1155
54.83417 1177
54.85429 1205
54.8744 1034
54.89452 935
54.91463 801
54.93474 762
54.95486 782
54.97497 712
54.99508 717
55.0152 618
55.03531 557
55.05543 457
55.07554 390
55.09565 374
55.11577 346
55.13588 340
55.15599 412
55.17611 445
55.19622 456
55.21634 498
55.23645 596
55.25656 603
55.27668 673
55.29679 649
55.3169 597
55.33702 540
55.35713 488
55.37724 451
55.39736 446
55.41747 424
55.43759 410
55.4577 404
55.47781 356
55.49793 306
55.51804 264
55.53815 240
55.55827 243
55.57838 214
55.5985 211
55.61861 202
55.63872 207
55.65884 217
55.67895 194
55.69906 191
55.71918 197
55.73929 192
55.75941 184
55.77952 190
55.79963 202
55.81975 182
55.83986 184
55.85997 171
55.88009 173
55.9002 180
55.92031 187
55.94043 166
55.96054 182
55.98066 189
56.00077 168
56.02088 169
56.041 147
56.06111 155
56.08122 187
56.10134 168
56.12145 162
56.14157 183
56.16168 171
56.18179 166
56.20191 163
56.22202 167
56.24213 182
56.26225 174
56.28236 162
56.30248 186
56.32259 172
56.3427 146
56.36282 169
56.38293 151
56.40304 176
56.42316 166
56.44327 171
56.46338 162
56.4835 155
56.50361 179
56.52373 184
56.54384 179
56.56395 166
56.58407 196
56.60418 158
56.62429 149
56.64441 212
56.66452 176
56.68464 183
56.70475 148
56.72486 175
56.74498 177
56.76509 174
56.7852 175
56.80532 180
56.82543 142
56.84554 173
56.86566 181
56.88577 167
56.90589 164
56.926 177
56.94611 164
56.96623 162
56.98634 163
57.00645 189
57.02657 173
57.04668 222
57.0668 181
57.08691 178
57.10702 182
57.12714 185
57.14725 200
57.16736 225
57.18748 231
57.20759 239
57.22771 200
57.24782 202
57.26793 195
57.28805 194
57.30816 165
57.32827 187
57.34839 170
57.3685 170
57.38861 190
57.40873 172
57.42884 176
57.44896 168
57.46907 156
57.48918 164
57.5093 152
57.52941 150
57.54952 156
57.56964 152
57.58975 167
57.60987 144
57.62998 154
57.65009 178
57.67021 159
57.69032 166
57.71043 179
57.73055 164
57.75066 166
57.77078 168
57.79089 159
57.811 185
57.83112 161
57.85123 158
57.87134 157
57.89146 172
57.91157 131
57.93168 157
57.9518 156
57.97191 162
57.99203 134
58.01214 143
58.03225 149
58.05237 139
58.07248 131
58.09259 177
58.11271 183
58.13282 163
58.15294 167
58.17305 162
58.19316 172
58.21328 175
58.23339 168
58.2535 150
58.27362 169
58.29373 148
58.31385 183
58.33396 159
58.35407 162
58.37419 171
58.3943 150
58.41441 168
58.43453 137
58.45464 147
58.47475 167
58.49487 170
58.51498 152
58.5351 173
58.55521 164
58.57532 165
58.59544 142
58.61555 173
58.63566 166
58.65578 161
58.67589 144
58.69601 152
58.71612 167
58.73623 171
58.75635 153
58.77646 173
58.79657 145
58.81669 152
58.8368 152
58.85691 136
58.87703 160
58.89714 153
58.91726 159
58.93737 138
58.95748 163
58.9776 162
58.99771 153
59.01782 144
59.03794 150
59.05805 167
59.07817 166
59.09828 177
59.11839 169
59.13851 162
59.15862 179
59.17873 174
59.19885 167
59.21896 170
59.23908 156
59.25919 171
59.2793 160
59.29942 179
59.31953 164
59.33964 214
59.35976 198
59.37987 210
59.39998 228
59.4201 212
59.44021 227
59.46033 213
59.48044 248
59.50055 225
59.52067 243
59.54078 267
59.56089 283
59.58101 323
59.60112 320
59.62124 379
59.64135 376
59.66146 392
59.68158 518
59.70169 547
59.7218 629
59.74192 698
59.76203 816
59.78215 905
59.80226 1146
59.82237 1382
59.84249 1607
59.8626 1941
59.88271 2261
59.90283 2389
59.92294 2412
59.94305 2118
59.96317 1917
59.98328 1623
60.0034 1339
60.02351 1204
60.04362 1250
60.06374 1325
60.08385 1253
60.10396 1155
60.12408 1020
60.14419 776
60.16431 501
60.18442 395
60.20453 330
60.22465 268
60.24476 258
60.26487 241
60.28499 241
60.3051 234
60.32522 239
60.34533 186
60.36544 202
60.38556 194
60.40567 179
60.42578 207
60.4459 202
60.46601 192
60.48612 173
60.50624 161
60.52635 177
60.54647 171
60.56658 160
60.58669 137
60.60681 146
60.62692 170
60.64703 187
60.66715 168
60.68726 178
60.70738 170
60.72749 172
60.7476 174
60.76772 183
60.78783 165
60.80794 171
60.82806 169
60.84817 145
60.86828 161
60.8884 132
60.90851 159
60.92863 136
60.94874 178
60.96885 160
60.98897 143
61.00908 145
61.02919 153
61.04931 159
61.06942 189
61.08954 142
61.10965 162
61.12976 157
61.14988 169
61.16999 144
61.1901 163
61.21022 163
61.23033 141
61.25045 157
61.27056 137
61.29067 154
61.31079 146
61.3309 162
61.35101 144
61.37113 156
61.39124 147
61.41135 154
61.43147 153
61.45158 174
61.4717 175
61.49181 154
61.51192 179
61.53204 141
61.55215 133
61.57226 186
61.59238 148
61.61249 162
61.63261 158
61.65272 159
61.67283 154
61.69295 140
61.71306 152
61.73317 144
61.75329 156
61.7734 152
61.79352 162
61.81363 179
61.83374 171
61.85386 162
61.87397 172
61.89408 172
61.9142 196
61.93431 154
61.95442 195
61.97454 185
61.99465 201
62.01477 195
62.03488 191
62.05499 210
62.07511 218
62.09522 234
62.11533 226
62.13545 224
62.15556 223
62.17568 250
62.19579 272
62.2159 250
62.23602 260
62.25613 239
62.27624 246
62.29636 250
62.31647 247
62.33659 247
62.3567 238
62.37681 237
62.39693 225
62.41704 211
62.43715 213
62.45727 176
62.47738 190
62.49749 216
62.51761 171
62.53772 199
62.55784 192
62.57795 174
62.59806 183
62.61818 196
62.63829 153
62.6584 179
62.67852 180
62.69863 163
62.71875 151
62.73886 169
62.75897 171
62.77909 155
62.7992 165
62.81931 180
62.83943 171
62.85954 173
62.87965 140
62.89977 165
62.91988 164
62.94 156
62.96011 166
62.98022 159
63.00034 151
63.02045 154
63.04056 160
63.06068 189
63.08079 160
63.10091 143
63.12102 154
63.14113 151
63.16125 172
63.18136 147
63.20147 156
63.22159 162
63.2417 166
63.26182 159
63.28193 150
63.30204 162
63.32216 143
63.34227 167
63.36238 167
63.3825 158
63.40261 154
63.42272 171
63.44284 174
63.46295 161
63.48307 178
63.50318 184
63.52329 186
63.54341 160
63.56352 167
63.58363 188
63.60375 178
63.62386 178
63.64398 179
63.66409 185
63.6842 183
63.70432 211
63.72443 211
63.74454 222
63.76466 241
63.78477 239
63.80489 267
63.825 285
63.84511 315
63.86523 328
63.88534 361
63.90545 421
63.92557 471
63.94568 481
63.96579 549
63.98591 523
64.00602 569
64.02614 502
64.04625 434
64.06636 365
64.08648 349
64.10659 347
64.1267 353
64.14682 390
64.16693 361
64.18705 349
64.20716 293
64.22727 265
64.24739 235
64.2675 213
64.28761 177
64.30773 185
64.32784 184
64.34796 180
64.36807 178
64.38818 181
64.4083 144
64.42841 156
64.44852 172
64.46864 163
64.48875 167
64.50886 159
64.52898 123
64.54909 129
64.56921 173
64.58932 142
64.60943 141
64.62955 170
64.64966 156
64.66977 128
64.68989 150
64.71 161
64.73012 131
64.75023 147
64.77034 148
64.79046 145
64.81057 152
64.83068 143
64.8508 152
64.87091 137
64.89102 158
64.91114 159
64.93125 166
64.95137 133
64.97148 147
64.99159 125
65.01171 161
65.03182 184
65.05193 166
65.07205 132
65.09216 142
65.11228 138
65.13239 160
65.1525 149
65.17262 155
65.19273 154
65.21284 163
65.23296 160
65.25307 146
65.27319 149
65.2933 186
65.31341 155
65.33353 177
65.35364 165
65.37375 155
65.39387 164
65.41398 140
65.43409 170
65.45421 174
65.47432 174
65.49444 174
65.51455 170
65.53466 161
65.55478 171
65.57489 167
65.595 174
65.61512 200
65.63523 222
65.65535 205
65.67546 227
65.69557 217
65.71569 244
65.7358 242
65.75591 254
65.77603 213
65.79614 243
65.81626 201
65.83637 197
65.85648 181
65.8766 236
65.89671 195
65.91682 183
65.93694 207
65.95705 192
65.97716 187
65.99728 170
66.01739 173
66.03751 148
66.05762 162
66.07773 139
66.09785 160
66.11796 146
66.13807 148
66.15819 182
66.1783 148
66.19842 167
66.21853 148
66.23864 167
66.25876 173
66.27887 144
66.29898 159
66.3191 157
66.33921 148
66.35933 146
66.37944 144
66.39955 171
66.41967 162
66.43978 142
66.45989 172
66.48001 154
66.50012 155
66.52023 151
66.54035 152
66.56046 153
66.58058 147
66.60069 173
66.6208 150
66.64092 149
66.66103 138
66.68114 164
66.70126 157
66.72137 157
66.74149 158
66.7616 170
66.78171 163
66.80183 160
66.82194 190
66.84205 189
66.86217 188
66.88228 170
66.90239 148
66.92251 171
66.94262 155
66.96274 171
66.98285 178
67.00296 142
67.02308 192
67.04319 178
67.0633 209
67.08342 183
67.10353 187
67.12365 190
67.14376 186
67.16387 205
67.18399 201
67.2041 218
67.22421 213
67.24433 230
67.26444 212
67.28456 221
67.30467 197
67.32478 255
67.3449 261
67.36501 257
67.38512 257
67.40524 288
67.42535 315
67.44546 333
67.46558 392
67.48569 389
67.50581 475
67.52592 545
67.54603 606
67.56615 692
67.58626 759
67.60637 942
67.62649 1051
67.6466 1193
67.66672 1361
67.68683 1411
67.70694 1469
67.72706 1361
67.74717 1222
67.76728 1073
67.7874 949
67.80751 875
67.82763 914
67.84774 986
67.86785 967
67.88797 1107
67.90808 1065
67.92819 1065
67.94831 1015
67.96842 1083
67.98853 1182
68.00865 1237
68.02876 1447
68.04888 1672
68.06899 1846
68.0891 1874
68.10922 1909
68.12933 1917
68.14944 1782
68.16956 1588
68.18967 1476
68.20979 1495
68.2299 1732
68.25001 1805
68.27013 1801
68.29024 1823
68.31035 1526
68.33047 1351
68.35058 1096
68.3707 901
68.39081 792
68.41092 700
68.43104 706
68.45115 729
68.47126 685
68.49138 653
68.51149 507
68.5316 411
68.55172 339
68.57183 271
68.59195 220
68.61206 246
68.63217 210
68.65229 218
68.6724 217
68.69251 199
68.71263 206
68.73274 197
68.75286 201
68.77297 186
68.79308 190
68.8132 166
68.83331 176
68.85342 162
68.87354 179
68.89365 187
68.91376 166
68.93388 173
68.95399 193
68.97411 155
68.99422 160
69.01433 164
69.03445 140
69.05456 165
69.07467 183
69.09479 168
69.1149 156
69.13502 178
69.15513 174
69.17524 163
69.19536 179
69.21547 137
69.23558 164
69.2557 160
69.27581 151
69.29593 163
69.31604 150
69.33615 160
69.35627 142
69.37638 137
69.39649 162
69.41661 151
69.43672 141
69.45683 157
69.47695 137
69.49706 161
69.51718 162
69.53729 138
69.5574 139
69.57752 132
69.59763 133
69.61774 176
69.63786 144
69.65797 151
69.67809 153
69.6982 153
69.71831 132
69.73843 150
69.75854 151
69.77865 151
69.79877 154
69.81888 172
69.839 155
69.85911 136
69.87922 158
69.89934 143
69.91945 146
69.93956 162
69.95968 152
69.97979 157
69.9999 159
70.02002 153
70.04013 136
70.06025 127
70.08036 148
70.10047 164
70.12059 135
70.1407 154
70.16081 151
70.18093 134
70.20104 142
70.22116 155
70.24127 155
70.26138 153
70.2815 144
70.30161 156
70.32172 147
70.34184 154
70.36195 157
70.38207 146
70.40218 122
70.42229 151
70.44241 145
70.46252 138
70.48263 140
70.50275 146
70.52286 154
70.54297 168
70.56309 144
70.5832 157
70.60332 155
70.62343 142
70.64354 130
70.66366 161
70.68377 138
70.70388 153
70.724 139
70.74411 134
70.76423 147
70.78434 136
70.80445 138
70.82457 148
70.84468 115
70.86479 133
70.88491 142
70.90502 146
70.92513 156
70.94525 155
70.96536 135
70.98548 138
71.00559 152
71.0257 152
71.04582 140
71.06593 142
71.08604 140
71.10616 136
71.12627 149
71.14639 154
71.1665 118
71.18661 144
71.20673 139
71.22684 125
71.24695 142
71.26707 135
71.28718 155
71.3073 147
71.32741 129
71.34752 156
71.36764 146
71.38775 123
71.40786 140
71.42798 143
71.44809 156
71.4682 150
71.48832 126
71.50843 139
71.52855 154
71.54866 132
71.56877 141
71.58889 151
71.609 147
71.62911 133
71.64923 130
71.66934 143
71.68946 131
71.70957 150
71.72968 135
71.7498 145
71.76991 114
71.79002 114
71.81014 136
71.83025 125
71.85037 148
71.87048 134
71.89059 139
71.91071 127
71.93082 156
71.95093 140
71.97105 167
71.99116 126
72.01127 130
72.03139 129
72.0515 130
72.07162 129
72.09173 147
72.11184 139
72.13196 139
72.15207 149
72.17218 149
72.1923 153
72.21241 148
72.23253 143
72.25264 127
72.27275 163
72.29287 137
72.31298 142
72.33309 151
72.35321 130
72.37332 150
72.39344 129
72.41355 132
72.43366 143
72.45378 113
72.47389 150
72.494 127
72.51412 159
72.53423 129
72.55434 134
72.57446 144
72.59457 136
72.61469 148
72.6348 140
72.65491 123
72.67503 143
72.69514 145
72.71525 140
72.73537 143
72.75548 163
72.7756 129
72.79571 140
72.81582 168
72.83594 139
72.85605 151
72.87616 142
72.89628 151
72.91639 166
72.9365 160
72.95662 136
72.97673 143
72.99685 158
73.01696 169
73.03707 167
73.05719 167
73.0773 175
73.09741 187
73.11753 204
73.13764 218
73.15776 208
73.17787 201
73.19798 217
73.2181 256
73.23821 251
73.25832 274
73.27844 347
73.29855 361
73.31867 380
73.33878 393
73.35889 456
73.37901 540
73.39912 614
73.41923 560
73.43935 616
73.45946 539
73.47957 449
73.49969 415
73.5198 354
73.53992 328
73.56003 366
73.58014 362
73.60026 339
73.62037 335
73.64048 325
73.6606 360
73.68071 303
73.70083 266
73.72094 224
73.74105 186
73.76117 164
73.78128 178
73.80139 167
73.82151 153
73.84162 168
73.86174 167
73.88185 173
73.90196 156
73.92208 152
73.94219 140
73.9623 140
73.98242 143
74.00253 155
74.02264 146
74.04276 150
74.06287 158
74.08299 147
74.1031 149
74.12321 132
74.14333 161
74.16344 143
74.18355 152
74.20367 138
74.22378 126
74.2439 153
74.26401 148
74.28412 151
74.30424 147
74.32435 127
74.34446 159
74.36458 161
74.38469 134
74.40481 144
74.42492 161
74.44503 136
74.46515 160
74.48526 127
74.50537 152
74.52549 143
74.5456 155
74.56571 135
74.58583 151
74.60594 152
74.62606 135
74.64617 158
74.66628 144
74.6864 144
74.70651 151
74.72662 176
74.74674 138
74.76685 138
74.78697 154
74.80708 147
74.82719 147
74.84731 162
74.86742 142
74.88753 162
74.90765 152
74.92776 170
74.94787 163
74.96799 156
74.9881 131
75.00822 144
