3.00117 19713
3.02128 19393
3.0414 18699
3.06151 18366
3.08162 17835
3.10174 17148
3.12185 17076
3.14197 16351
3.16208 15795
3.18219 15585
3.20231 15025
3.22242 14847
3.24253 14337
3.26265 13963
3.28276 13450
3.30288 12925
3.32299 12695
3.3431 11969
3.36322 12009
3.38333 11646
3.40344 11046
3.42356 10874
3.44367 10393
3.46379 9999
3.4839 9636
3.50401 9210
3.52413 9152
3.54424 8663
3.56435 8429
3.58447 8049
3.60458 7886
3.62469 7839
3.64481 7316
3.66492 7106
3.68504 6894
3.70515 6398
3.72526 6283
3.74538 6254
3.76549 5917
3.7856 5737
3.80572 5429
3.82583 5292
3.84595 4870
3.86606 4825
3.88617 4643
3.90629 4399
3.9264 4477
3.94651 4107
3.96663 3932
3.98674 3847
4.00686 3733
4.02697 3612
4.04708 3462
4.0672 3368
4.08731 3302
4.10742 3052
4.12754 3023
4.14765 2869
4.16776 2780
4.18788 2692
4.20799 2557
4.22811 2592
4.24822 2508
4.26833 2409
4.28845 2267
4.30856 2326
4.32867 2235
4.34879 2178
4.3689 2154
4.38902 1999
4.40913 2003
4.42924 2147
4.44936 1909
4.46947 1964
4.48958 1950
4.5097 1786
4.52981 1881
4.54992 1786
4.57004 1747
4.59015 1826
4.61027 1672
4.63038 1691
4.65049 1702
4.67061 1636
4.69072 1617
4.71083 1522
4.73095 1556
4.75106 1510
4.77118 1460
4.79129 1448
4.8114 1370
4.83152 1455
4.85163 1469
4.87174 1281
4.89186 1380
4.91197 1411
4.93209 1329
4.9522 1268
4.97231 1299
4.99243 1190
5.01254 1225
5.03265 1212
5.05277 1257
5.07288 1263
5.09299 1156
5.11311 1155
5.13322 1172
5.15334 1211
5.17345 1079
5.19356 1165
5.21368 1090
5.23379 1046
5.2539 1142
5.27402 1090
5.29413 1098
5.31425 1012
5.33436 1066
5.35447 1031
5.37459 890
5.3947 964
5.41481 919
5.43493 1006
5.45504 993
5.47516 866
5.49527 915
5.51538 907
5.5355 901
5.55561 892
5.57572 870
5.59584 834
5.61595 850
5.63606 782
5.65618 896
5.67629 791
5.69641 824
5.71652 872
5.73663 882
5.75675 824
5.77686 687
5.79697 818
5.81709 779
5.8372 798
5.85732 739
5.87743 715
5.89754 710
5.91766 720
5.93777 761
5.95788 749
5.978 698
5.99811 746
6.01823 750
6.03834 783
6.05845 718
6.07857 675
6.09868 740
6.11879 701
6.13891 716
6.15902 752
6.17913 675
6.19925 694
6.21936 718
6.23948 702
6.25959 659
6.2797 716
6.29982 688
6.31993 695
6.34004 717
6.36016 705
6.38027 607
6.40039 626
6.4205 649
6.44061 667
6.46073 693
6.48084 653
6.50095 615
6.52107 641
6.54118 655
6.56129 647
6.58141 610
6.60152 648
6.62164 622
6.64175 627
6.66186 583
6.68198 637
6.70209 607
6.7222 648
6.74232 638
6.76243 615
6.78255 597
6.80266 636
6.82277 624
6.84289 677
6.863 657
6.88311 673
6.90323 643
6.92334 568
6.94346 635
6.96357 638
6.98368 512
7.0038 617
7.02391 643
7.04402 606
7.06414 648
7.08425 613
7.10436 585
7.12448 583
7.14459 619
7.16471 578
7.18482 571
7.20493 586
7.22505 623
7.24516 610
7.26527 572
7.28539 588
7.3055 553
7.32562 587
7.34573 598
7.36584 592
7.38596 608
7.40607 592
7.42618 559
7.4463 543
7.46641 574
7.48653 616
7.50664 532
7.52675 584
7.54687 590
7.56698 596
7.58709 577
7.60721 531
7.62732 585
7.64743 535
7.66755 569
7.68766 563
7.70778 573
7.72789 535
7.748 569
7.76812 553
7.78823 576
7.80834 558
7.82846 571
7.84857 576
7.86869 615
7.8888 579
7.90891 592
7.92903 564
7.94914 579
7.96925 595
7.98937 579
8.00948 653
8.0296 639
8.04971 625
8.06982 566
8.08994 608
8.11005 575
8.13016 588
8.15028 607
8.17039 602
8.1905 566
8.21062 567
8.23073 590
8.25085 606
8.27096 641
8.29107 595
8.31119 604
8.3313 569
8.35141 564
8.37153 594
8.39164 641
8.41176 597
8.43187 654
8.45198 572
8.4721 592
8.49221 630
8.51232 607
8.53244 569
8.55255 549
8.57266 649
8.59278 628
8.61289 603
8.63301 574
8.65312 568
8.67323 545
8.69335 605
8.71346 589
8.73357 571
8.75369 582
8.7738 567
8.79392 608
8.81403 553
8.83414 534
8.85426 540
8.87437 549
8.89448 579
8.9146 548
8.93471 560
8.95483 610
8.97494 542
8.99505 529
9.01517 590
9.03528 548
9.05539 511
9.07551 509
9.09562 507
9.11573 485
9.13585 511
9.15596 498
9.17608 477
9.19619 518
9.2163 482
9.23642 515
9.25653 468
9.27664 494
9.29676 463
9.31687 497
9.33699 470
9.3571 488
9.37721 447
9.39733 452
9.41744 458
9.43755 468
9.45767 452
9.47778 451
9.4979 425
9.51801 423
9.53812 439
9.55824 466
9.57835 424
9.59846 435
9.61858 397
9.63869 451
9.6588 445
9.67892 406
9.69903 395
9.71915 431
9.73926 408
9.75937 410
9.77949 398
9.7996 456
9.81971 422
9.83983 448
9.85994 433
9.88006 381
9.90017 403
9.92028 420
9.9404 401
9.96051 477
9.98062 406
10.00074 420
10.02085 393
10.04097 419
10.06108 377
10.08119 395
10.10131 364
10.12142 381
10.14153 432
10.16165 405
10.18176 415
10.20187 389
10.22199 384
10.2421 430
10.26222 409
10.28233 405
10.30244 412
10.32256 413
10.34267 405
10.36278 366
10.3829 409
10.40301 432
10.42313 427
10.44324 374
10.46335 415
10.48347 388
10.50358 416
10.52369 407
10.54381 400
10.56392 391
10.58403 385
10.60415 370
10.62426 367
10.64438 389
10.66449 384
10.6846 375
10.70472 366
10.72483 410
10.74494 407
10.76506 383
10.78517 412
10.80529 337
10.8254 383
10.84551 376
10.86563 382
10.88574 374
10.90585 367
10.92597 417
10.94608 378
10.9662 339
10.98631 370
11.00642 366
11.02654 387
11.04665 398
11.06676 372
11.08688 380
11.10699 389
11.1271 392
11.14722 395
11.16733 383
11.18745 350
11.20756 371
11.22767 379
11.24779 379
11.2679 344
11.28801 371
11.30813 364
11.32824 396
11.34836 403
11.36847 399
11.38858 403
11.4087 369
11.42881 368
11.44892 380
11.46904 360
11.48915 374
11.50927 374
11.52938 385
11.54949 362
11.56961 387
11.58972 432
11.60983 406
11.62995 385
11.65006 339
11.67017 390
11.69029 373
11.7104 364
11.73052 376
11.75063 373
11.77074 354
11.79086 392
11.81097 390
11.83108 400
11.8512 381
11.87131 398
11.89143 398
11.91154 356
11.93165 423
11.95177 402
11.97188 367
11.99199 378
12.01211 401
12.03222 365
12.05234 352
12.07245 377
12.09256 395
12.11268 383
12.13279 390
12.1529 419
12.17302 410
12.19313 337
12.21324 357
12.23336 358
12.25347 377
12.27359 372
12.2937 379
12.31381 392
12.33393 398
12.35404 397
12.37415 350
12.39427 404
12.41438 385
12.4345 375
12.45461 363
12.47472 372
12.49484 336
12.51495 385
12.53506 396
12.55518 354
12.57529 362
12.5954 369
12.61552 340
12.63563 363
12.65575 352
12.67586 365
12.69597 379
12.71609 378
12.7362 338
12.75631 345
12.77643 423
12.79654 338
12.81666 413
12.83677 381
12.85688 374
12.877 362
12.89711 315
12.91722 390
12.93734 333
12.95745 333
12.97757 344
12.99768 366
13.01779 350
13.03791 354
13.05802 361
13.07813 347
13.09825 379
13.11836 420
13.13847 342
13.15859 376
13.1787 383
13.19882 353
13.21893 358
13.23904 385
13.25916 318
13.27927 412
13.29938 410
13.3195 361
13.33961 385
13.35973 384
13.37984 337
13.39995 377
13.42007 395
13.44018 337
13.46029 372
13.48041 367
13.50052 345
13.52064 344
13.54075 382
13.56086 398
13.58098 356
13.60109 420
13.6212 397
13.64132 410
13.66143 390
13.68154 394
13.70166 369
13.72177 402
13.74189 409
13.762 398
13.78211 416
13.80223 408
13.82234 415
13.84245 417
13.86257 410
13.88268 412
13.9028 419
13.92291 423
13.94302 417
13.96314 410
13.98325 369
14.00336 356
14.02348 389
14.04359 363
14.06371 379
14.08382 367
14.10393 359
14.12405 343
14.14416 398
14.16427 367
14.18439 338
14.2045 358
14.22461 345
14.24473 332
14.26484 358
14.28496 380
14.30507 346
14.32518 378
14.3453 343
14.36541 319
14.38552 346
14.40564 360
14.42575 355
14.44587 372
14.46598 366
14.48609 337
14.50621 343
14.52632 344
14.54643 381
14.56655 375
14.58666 346
14.60677 361
14.62689 356
14.647 386
14.66712 355
14.68723 351
14.70734 380
14.72746 358
14.74757 373
14.76768 350
14.7878 344
14.80791 396
14.82803 328
14.84814 349
14.86825 364
14.88837 384
14.90848 413
14.92859 375
14.94871 413
14.96882 403
14.98894 352
15.00905 361
15.02916 361
15.04928 420
15.06939 367
15.0895 377
15.10962 402
15.12973 371
15.14984 410
15.16996 361
15.19007 360
15.21019 366
15.2303 360
15.25041 313
15.27053 345
15.29064 340
15.31075 331
15.33087 343
15.35098 338
15.3711 374
15.39121 369
15.41132 329
15.43144 323
15.45155 343
15.47166 314
15.49178 312
15.51189 308
15.53201 345
15.55212 365
15.57223 365
15.59235 345
15.61246 374
15.63257 377
15.65269 329
15.6728 282
15.69291 379
15.71303 346
15.73314 354
15.75326 361
15.77337 366
15.79348 359
15.8136 376
15.83371 394
15.85382 363
15.87394 338
15.89405 374
15.91417 325
15.93428 368
15.95439 395
15.97451 372
15.99462 346
16.01473 336
16.03485 366
16.05496 344
16.07508 332
16.09519 325
16.1153 343
16.13542 362
16.15553 354
16.17564 338
16.19576 335
16.21587 347
16.23598 379
16.2561 377
16.27621 383
16.29633 367
16.31644 379
16.33655 339
16.35667 392
16.37678 413
16.39689 341
16.41701 366
16.43712 372
16.45724 319
16.47735 364
16.49746 366
16.51758 351
16.53769 310
16.5578 357
16.57792 375
16.59803 390
16.61814 338
16.63826 312
16.65837 357
16.67849 382
16.6986 354
16.71871 333
16.73883 350
16.75894 324
16.77905 338
16.79917 355
16.81928 361
16.8394 371
16.85951 406
16.87962 360
16.89974 359
16.91985 374
16.93996 361
16.96008 397
16.98019 376
17.00031 366
17.02042 352
17.04053 386
17.06065 362
17.08076 365
17.10087 368
17.12099 425
17.1411 350
17.16121 379
17.18133 386
17.20144 357
17.22156 302
17.24167 397
17.26178 339
17.2819 381
17.30201 349
17.32212 350
17.34224 408
17.36235 402
17.38247 381
17.40258 349
17.42269 391
17.44281 381
17.46292 389
17.48303 329
17.50315 354
17.52326 376
17.54338 347
17.56349 374
17.5836 365
17.60372 374
17.62383 399
17.64394 378
17.66406 397
17.68417 385
17.70428 391
17.7244 380
17.74451 380
17.76463 372
17.78474 383
17.80485 377
17.82497 393
17.84508 368
17.86519 355
17.88531 372
17.90542 346
17.92554 421
17.94565 354
17.96576 390
17.98588 391
18.00599 355
18.0261 357
18.04622 347
18.06633 405
18.08645 417
18.10656 361
18.12667 380
18.14679 396
18.1669 382
18.18701 338
18.20713 397
18.22724 379
18.24735 388
18.26747 403
18.28758 394
18.3077 351
18.32781 384
18.34792 373
18.36804 365
18.38815 367
18.40826 393
18.42838 350
18.44849 359
18.46861 341
18.48872 356
18.50883 378
18.52895 365
18.54906 366
18.56917 370
18.58929 381
18.6094 391
18.62951 392
18.64963 361
18.66974 364
18.68986 383
18.70997 351
18.73008 417
18.7502 383
18.77031 398
18.79042 397
18.81054 373
18.83065 375
18.85077 394
18.87088 367
18.89099 389
18.91111 375
18.93122 373
18.95133 388
18.97145 394
18.99156 410
19.01168 403
19.03179 427
19.0519 384
19.07202 415
19.09213 451
19.11224 411
19.13236 429
19.15247 440
19.17258 445
19.1927 485
19.21281 416
19.23293 510
19.25304 506
19.27315 512
19.29327 510
19.31338 475
19.33349 523
19.35361 502
19.37372 551
19.39384 557
19.41395 568
19.43406 619
19.45418 562
19.47429 622
19.4944 636
19.51452 690
19.53463 682
19.55475 704
19.57486 716
19.59497 718
19.61509 724
19.6352 764
19.65531 757
19.67543 795
19.69554 801
19.71565 841
19.73577 819
19.75588 815
19.776 854
19.79611 861
19.81622 869
19.83634 883
19.85645 855
19.87656 812
19.89668 856
19.91679 858
19.93691 823
19.95702 808
19.97713 734
19.99725 730
20.01736 759
20.03747 726
20.05759 720
20.0777 730
20.09782 670
20.11793 789
20.13804 699
20.15816 676
20.17827 681
20.19838 659
20.2185 677
20.23861 620
20.25872 623
20.27884 677
20.29895 623
20.31907 674
20.33918 593
20.35929 644
20.37941 627
20.39952 601
20.41963 579
20.43975 572
20.45986 568
20.47998 576
20.50009 599
20.5202 620
20.54032 597
20.56043 588
20.58054 560
20.60066 557
20.62077 560
20.64088 635
20.661 639
20.68111 700
20.70123 852
20.72134 833
20.74145 1078
20.76157 1241
20.78168 1450
20.80179 1701
20.82191 1840
20.84202 1702
20.86214 1450
20.88225 1327
20.90236 1125
20.92248 932
20.94259 899
20.9627 777
20.98282 823
21.00293 763
21.02305 721
21.04316 685
21.06327 660
21.08339 666
21.1035 590
21.12361 583
21.14373 527
21.16384 517
21.18395 544
21.20407 512
21.22418 552
21.2443 514
21.26441 532
21.28452 495
21.30464 504
21.32475 571
21.34486 539
21.36498 482
21.38509 549
21.40521 545
21.42532 543
21.44543 501
21.46555 490
21.48566 553
21.50577 511
21.52589 483
21.546 484
21.56612 488
21.58623 557
21.60634 524
21.62646 509
21.64657 516
21.66668 428
21.6868 526
21.70691 496
21.72702 524
21.74714 491
21.76725 498
21.78737 521
21.80748 498
21.82759 530
21.84771 599
21.86782 563
21.88793 628
21.90805 732
21.92816 729
21.94828 798
21.96839 825
21.9885 820
22.00862 868
22.02873 754
22.04884 661
22.06896 597
22.08907 611
22.10919 584
22.1293 523
22.14941 520
22.16953 514
22.18964 478
22.20975 486
22.22987 509
22.24998 488
22.27009 477
22.29021 496
22.31032 511
22.33044 510
22.35055 499
22.37066 484
22.39078 508
22.41089 491
22.431 534
22.45112 510
22.47123 501
22.49135 503
22.51146 491
22.53157 504
22.55169 522
22.5718 516
22.59191 502
22.61203 515
22.63214 531
22.65225 495
22.67237 530
22.69248 539
22.7126 529
22.73271 525
22.75282 497
22.77294 489
22.79305 456
22.81316 512
22.83328 543
22.85339 534
22.87351 553
22.89362 542
22.91373 539
22.93385 550
22.95396 562
22.97407 599
22.99419 567
23.0143 541
23.03442 644
23.05453 578
23.07464 553
23.09476 624
23.11487 589
23.13498 554
23.1551 549
23.17521 563
23.19532 557
23.21544 576
23.23555 532
23.25567 495
23.27578 529
23.29589 543
23.31601 542
23.33612 580
23.35623 560
23.37635 555
23.39646 525
23.41658 584
23.43669 615
23.4568 665
23.47692 693
23.49703 677
23.51714 704
23.53726 697
23.55737 781
23.57749 703
23.5976 699
23.61771 623
23.63783 626
23.65794 604
23.67805 645
23.69817 593
23.71828 590
23.73839 551
23.75851 552
23.77862 590
23.79874 550
23.81885 516
23.83896 575
23.85908 561
23.87919 571
23.8993 595
23.91942 606
23.93953 615
23.95965 682
23.97976 588
23.99987 639
24.01999 617
24.0401 657
24.06021 659
24.08033 630
24.10044 674
24.12056 683
24.14067 664
24.16078 659
24.1809 641
24.20101 692
24.22112 631
24.24124 643
24.26135 634
24.28146 664
24.30158 616
24.32169 625
24.34181 563
24.36192 574
24.38203 550
24.40215 560
24.42226 504
24.44237 534
24.46249 520
24.4826 465
24.50272 480
24.52283 514
24.54294 566
24.56306 537
24.58317 485
24.60328 541
24.6234 557
24.64351 528
24.66362 536
24.68374 508
24.70385 511
24.72397 515
24.74408 507
24.76419 522
24.78431 480
24.80442 535
24.82453 525
24.84465 518
24.86476 496
24.88488 528
24.90499 492
24.9251 573
24.94522 508
24.96533 498
24.98544 527
25.00556 598
25.02567 518
25.04579 545
25.0659 535
25.08601 521
25.10613 565
25.12624 571
25.14635 582
25.16647 587
25.18658 611
25.20669 577
25.22681 565
25.24692 586
25.26704 591
25.28715 541
25.30726 554
25.32738 587
25.34749 544
25.3676 565
25.38772 614
25.40783 580
25.42795 561
25.44806 622
25.46817 622
25.48829 620
25.5084 644
25.52851 607
25.54863 712
25.56874 736
25.58886 670
25.60897 728
25.62908 630
25.6492 648
25.66931 626
25.68942 602
25.70954 594
25.72965 562
25.74976 542
25.76988 548
25.78999 529
25.81011 554
25.83022 586
25.85033 538
25.87045 563
25.89056 548
25.91067 533
25.93079 512
25.9509 557
25.97102 505
25.99113 527
26.01124 593
26.03136 534
26.05147 540
26.07158 563
26.0917 560
26.11181 625
26.13193 586
26.15204 560
26.17215 635
26.19227 631
26.21238 660
26.23249 671
26.25261 671
26.27272 704
26.29283 749
26.31295 788
26.33306 832
26.35318 822
26.37329 947
26.3934 1019
26.41352 1070
26.43363 1182
26.45374 1393
26.47386 1772
26.49397 2309
26.51409 3104
26.5342 4083
26.55431 5054
26.57443 5976
26.59454 6161
26.61465 5792
26.63477 5308
26.65488 4226
26.67499 3337
26.69511 2503
26.71522 1886
26.73534 1452
26.75545 1113
26.77556 935
26.79568 876
26.81579 875
26.8359 918
26.85602 894
26.87613 782
26.89625 813
26.91636 835
26.93647 781
26.95659 782
26.9767 826
26.99681 895
27.01693 852
27.03704 805
27.05716 833
27.07727 789
27.09738 750
27.1175 762
27.13761 703
27.15772 676
27.17784 602
27.19795 669
27.21806 666
27.23818 657
27.25829 672
27.27841 678
27.29852 650
27.31863 739
27.33875 756
27.35886 823
27.37897 897
27.39909 912
27.4192 973
27.43932 929
27.45943 938
27.47954 922
27.49966 867
27.51977 895
27.53988 781
27.56 731
27.58011 783
27.60023 818
27.62034 773
27.64045 904
27.66057 993
27.68068 896
27.70079 1015
27.72091 961
27.74102 988
27.76113 1034
27.78125 1045
27.80136 1056
27.82148 1045
27.84159 1054
27.8617 1085
27.88182 1091
27.90193 1188
27.92204 1117
27.94216 1102
27.96227 1015
27.98239 934
28.0025 849
28.02261 816
28.04273 729
28.06284 719
28.08295 682
28.10307 652
28.12318 680
28.1433 619
28.16341 671
28.18352 679
28.20364 647
28.22375 628
28.24386 635
28.26398 602
28.28409 609
28.3042 571
28.32432 548
28.34443 583
28.36455 550
28.38466 537
28.40477 531
28.42489 539
28.445 480
28.46511 505
28.48523 547
28.50534 516
28.52546 507
28.54557 462
28.56568 458
28.5858 462
28.60591 482
28.62602 485
28.64614 483
28.66625 469
28.68636 497
28.70648 489
28.72659 478
28.74671 480
28.76682 480
28.78693 511
28.80705 458
28.82716 491
28.84727 454
28.86739 460
28.8875 469
28.90762 481
28.92773 478
28.94784 457
28.96796 488
28.98807 477
29.00818 498
29.0283 463
29.04841 493
29.06853 467
29.08864 435
29.10875 466
29.12887 528
29.14898 455
29.16909 515
29.18921 484
29.20932 518
29.22943 512
29.24955 506
29.26966 515
29.28978 596
29.30989 599
29.33 634
29.35012 630
29.37023 689
29.39034 735
29.41046 719
29.43057 799
29.45069 841
29.4708 820
29.49091 752
29.51103 777
29.53114 745
29.55125 795
29.57137 723
29.59148 672
29.6116 669
29.63171 640
29.65182 654
29.67194 653
29.69205 625
29.71216 654
29.73228 631
29.75239 646
29.7725 657
29.79262 681
29.81273 597
29.83285 625
29.85296 634
29.87307 604
29.89319 576
29.9133 569
29.93341 600
29.95353 547
29.97364 535
29.99376 549
30.01387 547
30.03398 580
30.0541 580
30.07421 563
30.09432 573
30.11444 548
30.13455 607
30.15467 558
30.17478 574
30.19489 583
30.21501 567
30.23512 595
30.25523 582
30.27535 566
30.29546 576
30.31557 565
30.33569 600
30.3558 611
30.37592 658
30.39603 624
30.41614 596
30.43626 597
30.45637 598
30.47648 602
30.4966 544
30.51671 528
30.53683 468
30.55694 534
30.57705 484
30.59717 529
30.61728 541
30.63739 515
30.65751 565
30.67762 556
30.69773 523
30.71785 580
30.73796 547
30.75808 594
30.77819 556
30.7983 549
30.81842 571
30.83853 534
30.85864 505
30.87876 516
30.89887 467
30.91899 498
30.9391 466
30.95921 446
30.97933 456
30.99944 474
31.01955 499
31.03967 437
31.05978 444
31.0799 422
31.10001 483
31.12012 492
31.14024 472
31.16035 455
31.18046 446
31.20058 479
31.22069 469
31.2408 473
31.26092 487
31.28103 468
31.30115 482
31.32126 514
31.34137 440
31.36149 489
31.3816 441
31.40171 466
31.42183 448
31.44194 491
31.46206 458
31.48217 463
31.50228 465
31.5224 436
31.54251 428
31.56262 439
31.58274 492
31.60285 456
31.62297 440
31.64308 412
31.66319 401
31.68331 464
31.70342 435
31.72353 407
31.74365 435
31.76376 419
31.78387 409
31.80399 424
31.8241 464
31.84422 402
31.86433 449
31.88444 442
31.90456 448
31.92467 432
31.94478 411
31.9649 431
31.98501 452
32.00513 393
32.02524 426
32.04535 413
32.06547 421
32.08558 405
32.10569 453
32.12581 464
32.14592 412
32.16604 445
32.18615 422
32.20626 483
32.22638 487
32.24649 465
32.2666 458
32.28672 425
32.30683 482
32.32694 436
32.34706 440
32.36717 425
32.38729 463
32.4074 407
32.42751 468
32.44763 434
32.46774 492
32.48785 431
32.50797 469
32.52808 492
32.5482 427
32.56831 445
32.58842 429
32.60854 441
32.62865 519
32.64876 433
32.66888 451
32.68899 455
32.7091 457
32.72922 424
32.74933 448
32.76945 432
32.78956 428
32.80967 440
32.82979 436
32.8499 479
32.87001 467
32.89013 441
32.91024 478
32.93036 476
32.95047 463
32.97058 471
32.9907 484
33.01081 494
33.03092 496
33.05104 509
33.07115 496
33.09127 482
33.11138 509
33.13149 506
33.15161 456
33.17172 433
33.19183 423
33.21195 441
33.23206 399
33.25217 427
33.27229 435
33.2924 482
33.31252 430
33.33263 407
33.35274 407
33.37286 403
33.39297 451
33.41308 422
33.4332 424
33.45331 383
33.47343 430
33.49354 453
33.51365 400
33.53377 433
33.55388 435
33.57399 431
33.59411 395
33.61422 399
33.63434 452
33.65445 437
33.67456 406
33.69468 423
33.71479 419
33.7349 445
33.75502 432
33.77513 484
33.79524 424
33.81536 478
33.83547 445
33.85559 426
33.8757 478
33.89581 484
33.91593 435
33.93604 440
33.95615 450
33.97627 435
33.99638 484
34.0165 465
34.03661 463
34.05672 444
34.07684 458
34.09695 481
34.11706 505
34.13718 475
34.15729 535
34.17741 495
34.19752 502
34.21763 543
34.23775 578
34.25786 576
34.27797 570
34.29809 581
34.3182 604
34.33831 584
34.35843 553
34.37854 635
34.39866 584
34.41877 629
34.43888 609
34.459 628
34.47911 631
34.49922 625
34.51934 676
34.53945 712
34.55957 674
34.57968 670
34.59979 656
34.61991 723
34.64002 678
34.66013 674
34.68025 713
34.70036 721
34.72047 689
34.74059 725
34.7607 661
34.78082 701
34.80093 717
34.82104 695
34.84116 726
34.86127 706
34.88138 663
34.9015 732
34.92161 722
34.94173 706
34.96184 699
34.98195 680
35.00207 678
35.02218 698
35.04229 707
35.06241 710
35.08252 697
35.10264 662
35.12275 666
35.14286 711
35.16298 699
35.18309 678
35.2032 687
35.22332 640
35.24343 637
35.26354 642
35.28366 674
35.30377 640
35.32389 685
35.344 681
35.36411 674
35.38423 665
35.40434 613
35.42445 641
35.44457 679
35.46468 721
35.4848 649
35.50491 679
35.52502 707
35.54514 715
35.56525 703
35.58536 657
35.60548 675
35.62559 680
35.64571 652
35.66582 607
35.68593 616
35.70605 562
35.72616 591
35.74627 564
35.76639 614
35.7865 566
35.80661 520
35.82673 551
35.84684 579
35.86696 586
35.88707 559
35.90718 559
35.9273 563
35.94741 576
35.96752 556
35.98764 535
36.00775 552
36.02787 594
36.04798 591
36.06809 530
36.08821 543
36.10832 558
36.12843 540
36.14855 585
36.16866 560
36.18878 546
36.20889 569
36.229 580
36.24912 567
36.26923 536
36.28934 600
36.30946 559
36.32957 537
36.34968 563
36.3698 675
36.38991 646
36.41003 714
36.43014 754
36.45025 812
36.47037 862
36.49048 852
36.51059 931
36.53071 798
36.55082 786
36.57094 747
36.59105 718
36.61116 640
36.63128 619
36.65139 597
36.6715 590
36.69162 549
36.71173 547
36.73184 525
36.75196 526
36.77207 549
36.79219 537
36.8123 562
36.83241 517
36.85253 573
36.87264 510
36.89275 544
36.91287 520
36.93298 551
36.9531 587
36.97321 521
36.99332 557
37.01344 558
37.03355 586
37.05366 531
37.07378 516
37.09389 529
37.11401 505
37.13412 503
37.15423 553
37.17435 487
37.19446 494
37.21457 452
37.23469 561
37.2548 518
37.27491 518
37.29503 510
37.31514 542
37.33526 485
37.35537 495
37.37548 531
37.3956 522
37.41571 544
37.43582 520
37.45594 529
37.47605 540
37.49617 478
37.51628 501
37.53639 534
37.55651 537
37.57662 509
37.59673 547
37.61685 506
37.63696 507
37.65708 500
37.67719 479
37.6973 495
37.71742 543
37.73753 486
37.75764 535
37.77776 499
37.79787 512
37.81798 497
37.8381 492
37.85821 520
37.87833 470
37.89844 471
37.91855 474
37.93867 483
37.95878 413
37.97889 440
37.99901 481
38.01912 431
38.03924 486
38.05935 465
38.07946 462
38.09958 459
38.11969 463
38.1398 446
38.15992 437
38.18003 467
38.20015 454
38.22026 433
38.24037 468
38.26049 439
38.2806 457
38.30071 444
38.32083 431
38.34094 477
38.36105 411
38.38117 498
38.40128 502
38.4214 458
38.44151 434
38.46162 440
38.48174 447
38.50185 428
38.52196 426
38.54208 459
38.56219 440
38.58231 454
38.60242 432
38.62253 413
38.64265 411
38.66276 411
38.68287 458
38.70299 447
38.7231 432
38.74321 432
38.76333 442
38.78344 442
38.80356 417
38.82367 412
38.84378 434
38.8639 424
38.88401 431
38.90412 412
38.92424 452
38.94435 489
38.96447 407
38.98458 466
39.00469 419
39.02481 456
39.04492 445
39.06503 423
39.08515 426
39.10526 426
39.12538 436
39.14549 431
39.1656 429
39.18572 455
39.20583 460
39.22594 459
39.24606 474
39.26617 519
39.28628 518
39.3064 575
39.32651 573
39.34663 653
39.36674 710
39.38685 726
39.40697 795
39.42708 775
39.44719 744
39.46731 700
39.48742 684
39.50754 621
39.52765 635
39.54776 598
39.56788 578
39.58799 533
39.6081 517
39.62822 504
39.64833 472
39.66845 476
39.68856 488
39.70867 462
39.72879 473
39.7489 464
39.76901 455
39.78913 445
39.80924 483
39.82935 482
39.84947 463
39.86958 441
39.8897 439
39.90981 428
39.92992 437
39.95004 448
39.97015 430
39.99026 504
40.01038 429
40.03049 428
40.05061 456
40.07072 469
40.09083 442
40.11095 465
40.13106 488
40.15117 535
40.17129 545
40.1914 589
40.21152 596
40.23163 559
40.25174 578
40.27186 596
40.29197 532
40.31208 535
40.3322 523
40.35231 514
40.37242 498
40.39254 458
40.41265 442
40.43277 439
40.45288 434
40.47299 388
40.49311 428
40.51322 474
40.53333 424
40.55345 402
40.57356 452
40.59368 407
40.61379 409
40.6339 432
40.65402 423
40.67413 461
40.69424 425
40.71436 435
40.73447 453
40.75458 473
40.7747 423
40.79481 428
40.81493 447
40.83504 452
40.85515 478
40.87527 440
40.89538 423
40.91549 430
40.93561 444
40.95572 446
40.97584 420
40.99595 449
41.01606 404
41.03618 430
41.05629 438
41.0764 419
41.09652 447
41.11663 409
41.13675 423
41.15686 425
41.17697 419
41.19709 453
41.2172 429
41.23731 390
41.25743 440
41.27754 438
41.29765 447
41.31777 401
41.33788 421
41.358 415
41.37811 393
41.39822 417
41.41834 451
41.43845 401
41.45856 406
41.47868 404
41.49879 469
41.51891 390
41.53902 454
41.55913 422
41.57925 428
41.59936 455
41.61947 446
41.63959 510
41.6597 472
41.67982 493
41.69993 482
41.72004 497
41.74016 499
41.76027 533
41.78038 462
41.8005 458
41.82061 467
41.84072 436
41.86084 439
41.88095 437
41.90107 428
41.92118 441
41.94129 411
41.96141 438
41.98152 418
42.00163 416
42.02175 431
42.04186 427
42.06198 440
42.08209 402
42.1022 389
42.12232 430
42.14243 459
42.16254 423
42.18266 422
42.20277 450
42.22289 463
42.243 437
42.26311 524
42.28323 510
42.30334 610
42.32345 586
42.34357 643
42.36368 692
42.38379 667
42.40391 701
42.42402 628
42.44414 649
42.46425 574
42.48436 561
42.50448 544
42.52459 477
42.5447 518
42.56482 472
42.58493 478
42.60505 491
42.62516 464
42.64527 472
42.66539 429
42.6855 426
42.70561 416
42.72573 450
42.74584 444
42.76595 446
42.78607 447
42.80618 381
42.8263 468
42.84641 460
42.86652 438
42.88664 428
42.90675 427
42.92686 449
42.94698 419
42.96709 433
42.98721 398
43.00732 404
43.02743 448
43.04755 459
43.06766 454
43.08777 436
43.10789 457
43.128 454
43.14812 423
43.16823 439
43.18834 427
43.20846 439
43.22857 459
43.24868 447
43.2688 467
43.28891 457
43.30902 428
43.32914 439
43.34925 440
43.36937 434
43.38948 437
43.40959 420
43.42971 415
43.44982 429
43.46993 427
43.49005 419
43.51016 403
43.53028 396
43.55039 409
43.5705 389
43.59062 388
43.61073 455
43.63084 419
43.65096 422
43.67107 425
43.69119 400
43.7113 397
43.73141 407
43.75153 430
43.77164 386
43.79175 369
43.81187 407
43.83198 393
43.85209 396
43.87221 406
43.89232 368
43.91244 381
43.93255 389
43.95266 382
43.97278 410
43.99289 403
44.013 423
44.03312 382
44.05323 401
44.07335 408
44.09346 386
44.11357 381
44.13369 363
44.1538 387
44.17391 380
44.19403 382
44.21414 409
44.23426 390
44.25437 389
44.27448 388
44.2946 378
44.31471 437
44.33482 404
44.35494 386
44.37505 406
44.39516 380
44.41528 384
44.43539 408
44.45551 426
44.47562 368
44.49573 401
44.51585 392
44.53596 409
44.55607 374
44.57619 400
44.5963 364
44.61642 390
44.63653 406
44.65664 396
44.67676 412
44.69687 358
44.71698 396
44.7371 398
44.75721 384
44.77732 378
44.79744 358
44.81755 405
44.83767 406
44.85778 404
44.87789 388
44.89801 403
44.91812 423
44.93823 420
44.95835 424
44.97846 394
44.99858 390
45.01869 408
45.0388 416
45.05892 378
45.07903 405
45.09914 398
45.11926 411
45.13937 392
45.15949 427
45.1796 419
45.19971 400
45.21983 418
45.23994 400
45.26005 378
45.28017 389
45.30028 416
45.32039 434
45.34051 402
45.36062 388
45.38074 400
45.40085 376
45.42096 404
45.44108 400
45.46119 419
45.4813 407
45.50142 417
45.52153 388
45.54165 429
45.56176 413
45.58187 429
45.60199 454
45.6221 482
45.64221 485
45.66233 499
45.68244 556
45.70256 544
45.72267 549
45.74278 535
45.7629 513
45.78301 516
45.80312 493
45.82324 495
45.84335 475
45.86346 518
45.88358 430
45.90369 411
45.92381 447
45.94392 393
45.96403 416
45.98415 422
46.00426 376
46.02437 378
46.04449 376
46.0646 414
46.08472 350
46.10483 399
46.12494 444
46.14506 372
46.16517 378
46.18528 350
46.2054 344
46.22551 408
46.24563 394
46.26574 396
46.28585 398
46.30597 368
46.32608 376
46.34619 353
46.36631 366
46.38642 398
46.40653 361
46.42665 397
46.44676 361
46.46688 373
46.48699 379
46.5071 370
46.52722 368
46.54733 374
46.56744 352
46.58756 379
46.60767 355
46.62779 417
46.6479 379
46.66801 379
46.68813 373
46.70824 388
46.72835 369
46.74847 350
46.76858 370
46.78869 349
46.80881 375
46.82892 371
46.84904 395
46.86915 355
46.88926 358
46.90938 388
46.92949 359
46.9496 374
46.96972 391
46.98983 351
47.00995 400
47.03006 397
47.05017 380
47.07029 373
47.0904 377
47.11051 406
47.13063 406
47.15074 411
47.17086 401
47.19097 393
47.21108 358
47.2312 356
47.25131 394
47.27142 398
47.29154 422
47.31165 377
47.33176 442
47.35188 415
47.37199 411
47.39211 412
47.41222 391
47.43233 422
47.45245 387
47.47256 400
47.49267 444
47.51279 419
47.5329 454
47.55302 402
47.57313 437
47.59324 419
47.61336 454
47.63347 416
47.65358 433
47.6737 394
47.69381 396
47.71393 428
47.73404 418
47.75415 376
47.77427 410
47.79438 428
47.81449 430
47.83461 398
47.85472 437
47.87483 439
47.89495 408
47.91506 404
47.93518 378
47.95529 408
47.9754 399
47.99552 375
48.01563 395
48.03574 373
48.05586 390
48.07597 371
48.09609 381
48.1162 385
48.13631 394
48.15643 377
48.17654 379
48.19665 395
48.21677 387
48.23688 395
48.257 400
48.27711 383
48.29722 413
48.31734 402
48.33745 338
48.35756 389
48.37768 404
48.39779 379
48.4179 398
48.43802 398
48.45813 349
48.47825 416
48.49836 423
48.51847 373
48.53859 392
48.5587 369
48.57881 405
48.59893 384
48.61904 398
48.63916 436
48.65927 398
48.67938 418
48.6995 396
48.71961 379
48.73972 403
48.75984 382
48.77995 427
48.80006 413
48.82018 438
48.84029 383
48.86041 404
48.88052 421
48.90063 403
48.92075 417
48.94086 398
48.96097 424
48.98109 417
49.0012 403
49.02132 373
49.04143 400
49.06154 361
49.08166 397
49.10177 418
49.12188 414
49.142 399
49.16211 456
49.18223 429
49.20234 412
49.22245 405
49.24257 393
49.26268 408
49.28279 368
49.30291 393
49.32302 378
49.34313 440
49.36325 421
49.38336 396
49.40348 417
49.42359 399
49.4437 409
49.46382 367
49.48393 378
49.50404 394
49.52416 422
49.54427 406
49.56439 403
49.5845 383
49.60461 411
49.62473 386
49.64484 433
49.66495 400
49.68507 380
49.70518 435
49.7253 421
49.74541 404
49.76552 441
49.78564 448
49.80575 474
49.82586 452
49.84598 431
49.86609 485
49.8862 489
49.90632 576
49.92643 510
49.94655 526
49.96666 622
49.98677 705
50.00689 729
50.027 793
50.04711 862
50.06723 982
50.08734 876
50.10746 809
50.12757 808
50.14768 717
50.1678 652
50.18791 645
50.20802 607
50.22814 587
50.24825 535
50.26837 484
50.28848 450
50.30859 412
50.32871 398
50.34882 392
50.36893 344
50.38905 443
50.40916 397
50.42927 435
50.44939 429
50.4695 421
50.48962 432
50.50973 415
50.52984 441
50.54996 459
50.57007 482
50.59018 468
50.6103 456
50.63041 436
50.65053 423
50.67064 456
50.69075 436
50.71087 417
50.73098 392
50.75109 387
50.77121 387
50.79132 390
50.81143 400
50.83155 369
50.85166 392
50.87178 391
50.89189 405
50.912 371
50.93212 374
50.95223 391
50.97234 376
50.99246 389
51.01257 357
51.03269 369
51.0528 373
51.07291 378
51.09303 387
51.11314 408
51.13325 357
51.15337 412
51.17348 364
51.1936 395
51.21371 380
51.23382 371
51.25394 375
51.27405 367
51.29416 368
51.31428 383
51.33439 368
51.3545 365
51.37462 362
51.39473 352
51.41485 380
51.43496 348
51.45507 373
51.47519 372
51.4953 347
51.51541 346
51.53553 331
51.55564 331
51.57576 351
51.59587 357
51.61598 334
51.6361 362
51.65621 310
51.67632 327
51.69644 355
51.71655 346
51.73667 352
51.75678 327
51.77689 326
51.79701 344
51.81712 372
51.83723 356
51.85735 330
51.87746 316
51.89757 353
51.91769 311
51.9378 318
51.95792 349
51.97803 333
51.99814 339
52.01826 334
52.03837 348
52.05848 319
52.0786 351
52.09871 364
52.11883 374
52.13894 329
52.15905 361
52.17917 347
52.19928 335
52.21939 374
52.23951 354
52.25962 347
52.27974 382
52.29985 364
52.31996 365
52.34008 377
52.36019 373
52.3803 362
52.40042 354
52.42053 356
52.44064 394
52.46076 340
52.48087 382
52.50099 399
52.5211 343
52.54121 363
52.56133 364
52.58144 364
52.60155 334
52.62167 337
52.64178 367
52.6619 379
52.68201 343
52.70212 363
52.72224 357
52.74235 384
52.76246 383
52.78258 353
52.80269 389
52.8228 360
52.84292 380
52.86303 372
52.88315 389
52.90326 357
52.92337 400
52.94349 416
52.9636 370
52.98371 375
53.00383 373
53.02394 390
53.04406 388
53.06417 385
53.08428 436
53.1044 387
53.12451 374
53.14462 433
53.16474 413
53.18485 372
53.20497 453
53.22508 462
53.24519 409
53.26531 389
53.28542 383
53.30553 397
53.32565 393
53.34576 391
53.36587 428
53.38599 440
53.4061 384
53.42622 404
53.44633 437
53.46644 402
53.48656 404
53.50667 420
53.52678 409
53.5469 431
53.56701 404
53.58713 419
53.60724 388
53.62735 416
53.64747 422
53.66758 436
53.68769 430
53.70781 453
53.72792 446
53.74804 432
53.76815 424
53.78826 420
53.80838 464
53.82849 432
53.8486 430
53.86872 457
53.88883 437
53.90894 459
53.92906 429
53.94917 409
53.96929 430
53.9894 447
54.00951 444
54.02963 439
54.04974 473
54.06985 436
54.08997 435
54.11008 447
54.1302 421
54.15031 435
54.17042 439
54.19054 456
54.21065 446
54.23076 402
54.25088 416
54.27099 444
54.29111 436
54.31122 435
54.33133 419
54.35145 427
54.37156 451
54.39167 478
54.41179 418
54.4319 409
54.45201 421
54.47213 446
54.49224 408
54.51236 414
54.53247 415
54.55258 443
54.5727 414
54.59281 425
54.61292 442
54.63304 431
54.65315 441
54.67327 439
54.69338 456
54.71349 505
54.73361 527
54.75372 490
54.77383 567
54.79395 548
54.81406 542
54.83417 558
54.85429 574
54.8744 514
54.89452 528
54.91463 470
54.93474 440
54.95486 495
54.97497 486
54.99508 505
55.0152 457
55.03531 456
55.05543 447
55.07554 426
55.09565 472
55.11577 424
55.13588 442
55.15599 445
55.17611 443
55.19622 479
55.21634 433
55.23645 474
55.25656 462
55.27668 451
55.29679 443
55.3169 448
55.33702 451
55.35713 451
55.37724 409
55.39736 439
55.41747 432
55.43759 448
55.4577 418
55.47781 436
55.49793 366
55.51804 405
55.53815 405
55.55827 405
55.57838 424
55.5985 435
55.61861 402
55.63872 417
55.65884 421
55.67895 417
55.69906 401
55.71918 371
55.73929 400
55.75941 405
55.77952 395
55.79963 402
55.81975 367
55.83986 395
55.85997 379
55.88009 385
55.9002 410
55.92031 347
55.94043 380
55.96054 403
55.98066 385
56.00077 354
56.02088 385
56.041 394
56.06111 416
56.08122 413
56.10134 397
56.12145 420
56.14157 367
56.16168 398
56.18179 415
56.20191 368
56.22202 369
56.24213 379
56.26225 376
56.28236 420
56.30248 401
56.32259 388
56.3427 400
56.36282 386
56.38293 380
56.40304 391
56.42316 363
56.44327 352
56.46338 371
56.4835 375
56.50361 385
56.52373 392
56.54384 400
56.56395 396
56.58407 392
56.60418 420
56.62429 404
56.64441 417
56.66452 412
56.68464 415
56.70475 384
56.72486 400
56.74498 390
56.76509 420
56.7852 430
56.80532 415
56.82543 366
56.84554 382
56.86566 378
56.88577 382
56.90589 381
56.926 394
56.94611 367
56.96623 386
56.98634 413
57.00645 367
57.02657 397
57.04668 402
57.0668 399
57.08691 400
57.10702 411
57.12714 382
57.14725 357
57.16736 420
57.18748 410
57.20759 381
57.22771 359
57.24782 394
57.26793 403
57.28805 429
57.30816 412
57.32827 403
57.34839 399
57.3685 382
57.38861 393
57.40873 390
57.42884 371
57.44896 389
57.46907 426
57.48918 365
57.5093 364
57.52941 381
57.54952 411
57.56964 404
57.58975 392
57.60987 412
57.62998 366
57.65009 355
57.67021 387
57.69032 373
57.71043 358
57.73055 362
57.75066 369
57.77078 409
57.79089 411
57.811 378
57.83112 375
57.85123 381
57.87134 375
57.89146 349
57.91157 380
57.93168 389
57.9518 380
57.97191 355
57.99203 368
58.01214 335
58.03225 365
58.05237 397
58.07248 348
58.09259 328
58.11271 372
58.13282 354
58.15294 347
58.17305 361
58.19316 363
58.21328 391
58.23339 341
58.2535 365
58.27362 388
58.29373 356
58.31385 374
58.33396 365
58.35407 344
58.37419 357
58.3943 380
58.41441 387
58.43453 392
58.45464 333
58.47475 353
58.49487 350
58.51498 397
58.5351 391
58.55521 392
58.57532 365
58.59544 393
58.61555 380
58.63566 429
58.65578 393
58.67589 378
58.69601 368
58.71612 380
58.73623 390
58.75635 337
58.77646 335
58.79657 359
58.81669 332
58.8368 376
58.85691 341
58.87703 321
58.89714 372
58.91726 358
58.93737 363
58.95748 371
58.9776 313
58.99771 356
59.01782 377
59.03794 336
59.05805 360
59.07817 350
59.09828 320
59.11839 341
59.13851 362
59.15862 351
59.17873 338
59.19885 359
59.21896 355
59.23908 360
59.25919 353
59.2793 343
59.29942 344
59.31953 343
59.33964 349
59.35976 375
59.37987 342
59.39998 361
59.4201 344
59.44021 381
59.46033 364
59.48044 350
59.50055 362
59.52067 349
59.54078 388
59.56089 360
59.58101 375
59.60112 385
59.62124 394
59.64135 400
59.66146 364
59.68158 401
59.70169 392
59.7218 441
59.74192 434
59.76203 466
59.78215 493
59.80226 554
59.82237 565
59.84249 649
59.8626 679
59.88271 704
59.90283 679
59.92294 671
59.94305 559
59.96317 593
59.98328 551
60.0034 532
60.02351 531
60.04362 536
60.06374 559
60.08385 497
60.10396 456
60.12408 457
60.14419 447
60.16431 426
60.18442 402
60.20453 404
60.22465 362
60.24476 359
60.26487 409
60.28499 389
60.3051 341
60.32522 378
60.34533 391
60.36544 377
60.38556 385
60.40567 378
60.42578 363
60.4459 361
60.46601 372
60.48612 360
60.50624 344
60.52635 349
60.54647 344
60.56658 356
60.58669 365
60.60681 359
60.62692 345
60.64703 383
60.66715 361
60.68726 404
60.70738 398
60.72749 402
60.7476 375
60.76772 400
60.78783 408
60.80794 380
60.82806 393
60.84817 408
60.86828 424
60.8884 398
60.90851 398
60.92863 399
60.94874 401
60.96885 416
60.98897 408
61.00908 420
61.02919 420
61.04931 428
61.06942 406
61.08954 413
61.10965 414
61.12976 432
61.14988 430
61.16999 417
61.1901 452
61.21022 478
61.23033 461
61.25045 486
61.27056 490
61.29067 491
61.31079 486
61.3309 434
61.35101 469
61.37113 500
61.39124 510
61.41135 455
61.43147 493
61.45158 428
61.4717 495
61.49181 490
61.51192 488
61.53204 491
61.55215 504
61.57226 475
61.59238 504
61.61249 536
61.63261 478
61.65272 501
61.67283 493
61.69295 460
61.71306 459
61.73317 485
61.75329 481
61.7734 494
61.79352 437
61.81363 460
61.83374 461
61.85386 453
61.87397 419
61.89408 431
61.9142 442
61.93431 434
61.95442 467
61.97454 471
61.99465 481
62.01477 486
62.03488 447
62.05499 458
62.07511 493
62.09522 442
62.11533 426
62.13545 439
62.15556 402
62.17568 463
62.19579 455
62.2159 429
62.23602 429
62.25613 443
62.27624 434
62.29636 429
62.31647 449
62.33659 431
62.3567 454
62.37681 450
62.39693 426
62.41704 407
62.43715 431
62.45727 413
62.47738 393
62.49749 406
62.51761 452
62.53772 386
62.55784 423
62.57795 426
62.59806 393
62.61818 393
62.63829 375
62.6584 380
62.67852 403
62.69863 365
62.71875 408
62.73886 390
62.75897 379
62.77909 372
62.7992 365
62.81931 367
62.83943 373
62.85954 375
62.87965 405
62.89977 423
62.91988 383
62.94 381
62.96011 360
62.98022 410
63.00034 365
63.02045 367
63.04056 375
63.06068 388
63.08079 328
63.10091 361
63.12102 355
63.14113 360
63.16125 373
63.18136 360
63.20147 371
63.22159 356
63.2417 314
63.26182 383
63.28193 341
63.30204 362
63.32216 354
63.34227 394
63.36238 364
63.3825 374
63.40261 373
63.42272 367
63.44284 363
63.46295 363
63.48307 351
63.50318 332
63.52329 405
63.54341 384
63.56352 373
63.58363 391
63.60375 342
63.62386 376
63.64398 369
63.66409 371
63.6842 412
63.70432 370
63.72443 399
63.74454 406
63.76466 442
63.78477 393
63.80489 418
63.825 433
63.84511 400
63.86523 386
63.88534 466
63.90545 422
63.92557 419
63.94568 451
63.96579 458
63.98591 464
64.00602 439
64.02614 421
64.04625 394
64.06636 418
64.08648 386
64.10659 399
64.1267 387
64.14682 388
64.16693 353
64.18705 375
64.20716 366
64.22727 377
64.24739 359
64.2675 330
64.28761 332
64.30773 353
64.32784 349
64.34796 348
64.36807 355
64.38818 364
64.4083 367
64.42841 347
64.44852 328
64.46864 356
64.48875 343
64.50886 363
64.52898 352
64.54909 331
64.56921 360
64.58932 354
64.60943 368
64.62955 355
64.64966 370
64.66977 334
64.68989 377
64.71 343
64.73012 335
64.75023 348
64.77034 332
64.79046 343
64.81057 330
64.83068 374
64.8508 354
64.87091 371
64.89102 362
64.91114 343
64.93125 351
64.95137 340
64.97148 370
64.99159 367
65.01171 353
65.03182 371
65.05193 354
65.07205 331
65.09216 352
65.11228 350
65.13239 362
65.1525 352
65.17262 350
65.19273 349
65.21284 400
65.23296 373
65.25307 366
65.27319 328
65.2933 382
65.31341 359
65.33353 372
65.35364 332
65.37375 338
65.39387 325
65.41398 325
65.43409 338
65.45421 321
65.47432 325
65.49444 372
65.51455 347
65.53466 338
65.55478 330
65.57489 360
65.595 348
65.61512 354
65.63523 353
65.65535 347
65.67546 370
65.69557 369
65.71569 328
65.7358 377
65.75591 325
65.77603 342
65.79614 350
65.81626 328
65.83637 327
65.85648 343
65.8766 325
65.89671 344
65.91682 364
65.93694 354
65.95705 314
65.97716 308
65.99728 353
66.01739 323
66.03751 363
66.05762 352
66.07773 344
66.09785 350
66.11796 314
66.13807 328
66.15819 352
66.1783 346
66.19842 308
66.21853 317
66.23864 346
66.25876 334
66.27887 360
66.29898 348
66.3191 314
66.33921 313
66.35933 321
66.37944 342
66.39955 351
66.41967 320
66.43978 308
66.45989 332
66.48001 327
66.50012 320
66.52023 332
66.54035 310
66.56046 361
66.58058 325
66.60069 362
66.6208 302
66.64092 334
66.66103 320
66.68114 342
66.70126 313
66.72137 327
66.74149 310
66.7616 326
66.78171 331
66.80183 296
66.82194 337
66.84205 356
66.86217 339
66.88228 369
66.90239 315
66.92251 312
66.94262 354
66.96274 307
66.98285 305
67.00296 342
67.02308 316
67.04319 348
67.0633 308
67.08342 330
67.10353 300
67.12365 340
67.14376 339
67.16387 323
67.18399 323
67.2041 336
67.22421 327
67.24433 344
67.26444 381
67.28456 369
67.30467 362
67.32478 337
67.3449 345
67.36501 344
67.38512 361
67.40524 363
67.42535 342
67.44546 364
67.46558 395
67.48569 360
67.50581 366
67.52592 422
67.54603 427
67.56615 404
67.58626 434
67.60637 506
67.62649 494
67.6466 521
67.66672 495
67.68683 511
67.70694 505
67.72706 429
67.74717 453
67.76728 449
67.7874 436
67.80751 449
67.82763 439
67.84774 438
67.86785 484
67.88797 454
67.90808 480
67.92819 455
67.94831 455
67.96842 495
67.98853 470
68.00865 504
68.02876 543
68.04888 570
68.06899 579
68.0891 603
68.10922 587
68.12933 572
68.14944 505
68.16956 540
68.18967 531
68.20979 597
68.2299 564
68.25001 578
68.27013 593
68.29024 540
68.31035 485
68.33047 516
68.35058 436
68.3707 451
68.39081 434
68.41092 433
68.43104 427
68.45115 376
68.47126 388
68.49138 398
68.51149 366
68.5316 326
68.55172 358
68.57183 353
68.59195 365
68.61206 357
68.63217 349
68.65229 337
68.6724 358
68.69251 353
68.71263 352
68.73274 319
68.75286 315
68.77297 310
68.79308 328
68.8132 350
68.83331 296
68.85342 338
68.87354 360
68.89365 336
68.91376 325
68.93388 330
68.95399 348
68.97411 335
68.99422 337
69.01433 328
69.03445 320
69.05456 331
69.07467 324
69.09479 349
69.1149 351
69.13502 329
69.15513 324
69.17524 374
69.19536 359
69.21547 321
69.23558 347
69.2557 319
69.27581 317
69.29593 340
69.31604 348
69.33615 354
69.35627 362
69.37638 354
69.39649 348
69.41661 353
69.43672 341
69.45683 372
69.47695 349
69.49706 309
69.51718 369
69.53729 352
69.5574 371
69.57752 337
69.59763 355
69.61774 323
69.63786 352
69.65797 338
69.67809 378
69.6982 340
69.71831 334
69.73843 341
69.75854 330
69.77865 341
69.79877 363
69.81888 372
69.839 337
69.85911 320
69.87922 332
69.89934 330
69.91945 325
69.93956 326
69.95968 351
69.97979 331
69.9999 297
70.02002 360
70.04013 334
70.06025 329
70.08036 313
70.10047 307
70.12059 344
70.1407 329
70.16081 373
70.18093 302
70.20104 295
70.22116 332
70.24127 316
70.26138 312
70.2815 333
70.30161 329
70.32172 351
70.34184 333
70.36195 356
70.38207 321
70.40218 348
70.42229 327
70.44241 334
70.46252 331
70.48263 319
70.50275 367
70.52286 309
70.54297 312
70.56309 340
70.5832 323
70.60332 320
70.62343 336
70.64354 337
70.66366 324
70.68377 366
70.70388 334
70.724 330
70.74411 317
70.76423 317
70.78434 346
70.80445 343
70.82457 322
70.84468 337
70.86479 356
70.88491 301
70.90502 344
70.92513 327
70.94525 320
70.96536 330
70.98548 326
71.00559 327
71.0257 310
71.04582 380
71.06593 336
71.08604 298
71.10616 301
71.12627 320
71.14639 364
71.1665 316
71.18661 322
71.20673 311
71.22684 305
71.24695 332
71.26707 340
71.28718 351
71.3073 347
71.32741 347
71.34752 344
71.36764 320
71.38775 328
71.40786 321
71.42798 331
71.44809 314
71.4682 329
71.48832 350
71.50843 312
71.52855 341
71.54866 330
71.56877 341
71.58889 310
71.609 364
71.62911 349
71.64923 322
71.66934 351
71.68946 324
71.70957 312
71.72968 339
71.7498 319
71.76991 347
71.79002 329
71.81014 337
71.83025 335
71.85037 376
71.87048 367
71.89059 339
71.91071 344
71.93082 337
71.95093 316
71.97105 328
71.99116 362
72.01127 340
72.03139 363
72.0515 357
72.07162 341
72.09173 333
72.11184 359
72.13196 354
72.15207 317
72.17218 348
72.1923 364
72.21241 352
72.23253 352
72.25264 326
72.27275 333
72.29287 365
72.31298 335
72.33309 357
72.35321 371
72.37332 403
72.39344 375
72.41355 348
72.43366 326
72.45378 355
72.47389 344
72.494 365
72.51412 371
72.53423 351
72.55434 379
72.57446 344
72.59457 345
72.61469 369
72.6348 373
72.65491 376
72.67503 377
72.69514 381
72.71525 357
72.73537 327
72.75548 363
72.7756 348
72.79571 352
72.81582 362
72.83594 342
72.85605 353
72.87616 360
72.89628 347
72.91639 345
72.9365 301
72.95662 361
72.97673 344
72.99685 360
73.01696 353
73.03707 341
73.05719 335
73.0773 365
73.09741 363
73.11753 364
73.13764 311
73.15776 368
73.17787 376
73.19798 392
73.2181 313
73.23821 379
73.25832 365
73.27844 342
73.29855 429
73.31867 395
73.33878 374
73.35889 394
73.37901 407
73.39912 417
73.41923 393
73.43935 407
73.45946 375
73.47957 353
73.49969 369
73.5198 408
73.53992 383
73.56003 379
73.58014 363
73.60026 369
73.62037 368
73.64048 385
73.6606 383
73.68071 381
73.70083 409
73.72094 380
73.74105 343
73.76117 323
73.78128 342
73.80139 347
73.82151 326
73.84162 332
73.86174 341
73.88185 344
73.90196 348
73.92208 342
73.94219 352
73.9623 362
73.98242 318
74.00253 343
74.02264 332
74.04276 320
74.06287 343
74.08299 326
74.1031 323
74.12321 340
74.14333 351
74.16344 363
74.18355 315
74.20367 374
74.22378 358
74.2439 333
74.26401 326
74.28412 314
74.30424 350
74.32435 348
74.34446 313
74.36458 327
74.38469 319
74.40481 367
74.42492 315
74.44503 340
74.46515 319
74.48526 349
74.50537 328
74.52549 374
74.5456 343
74.56571 338
74.58583 330
74.60594 307
74.62606 351
74.64617 334
74.66628 306
74.6864 355
74.70651 362
74.72662 327
74.74674 302
74.76685 342
74.78697 334
74.80708 317
74.82719 323
74.84731 320
74.86742 333
74.88753 342
74.90765 343
74.92776 316
74.94787 326
74.96799 350
74.9881 323
75.00822 303
