3.00117 23399.4952379226
3.02128 23026.4529933009
3.0414 22370
3.06151 21494.7997437639
3.08162 21345.4751085002
3.10174 20411.536503814
3.12185 20057.9703187581
3.14197 19357.2927829046
3.16208 18689.247419936
3.18219 18624.1678385176
3.20231 17851.5462533712
3.22242 17333.1134462656
3.24253 17494.0837881727
3.26265 16314.2225897217
3.28276 16237.5845921645
3.30288 15410.816858285
3.32299 15031.0202139214
3.3431 14884
3.36322 14012.3725904308
3.38333 13757.6151774409
3.40344 13310.1138955967
3.42356 12967.6543949854
3.44367 12562.7172658901
3.46379 12101.1723367358
3.4839 11772
3.50401 11221.8637746593
3.52413 11178.7325990469
3.54424 10718.9692987902
3.56435 10356.5307047896
3.58447 10081.8059339306
3.60458 9408.46651205802
3.62469 9262.02141420935
3.64481 9095.85305489315
3.66492 8765.73774673408
3.68504 8511.19922133978
3.70515 8041.25342660196
3.72526 7863.67496595002
3.74538 7328.47811865678
3.76549 7039.10502599841
3.7856 6866
3.80572 6836.85084973958
3.82583 6476.24281268745
3.84595 6029.39863610378
3.86606 5968.09921114156
3.88617 5771.49760539523
3.90629 5438.10230060803
3.9264 5363
3.94651 5177.85031884668
3.96663 4908.86584776169
3.98674 4887.58485648786
4.00686 4468.78365733937
4.02697 4271.09366735999
4.04708 4235.05479102842
4.0672 4121
4.08731 3919.88928216276
4.10742 3687.75918036437
4.12754 3520.9882203509
4.14765 3556.3213446194
4.16776 3275.42611973574
4.18788 3213.04433513499
4.20799 3070.11080610059
4.22811 2882.97302984522
4.24822 2867.83453551562
4.26833 2612.86381139764
4.28845 2698.05639294499
4.30856 2577.21262718666
4.32867 2569.96818046656
4.34879 2498.10717310231
4.3689 2272
4.38902 2385.08864966228
4.40913 2322.7745319913
4.42924 2180.80686514659
4.44936 2132.06522365112
4.46947 2096.03872907235
4.48958 2078.0253881251
4.5097 2009
4.52981 1899.01014664453
4.54992 1990.99758180654
4.57004 1868.79846657059
4.59015 1859.9627439826
4.61027 1823.14308120885
4.63038 1722.04490584763
4.65049 1728.00444810791
4.67061 1688.99103166073
4.69072 1705.01212742456
4.71083 1681.92255332708
4.73095 1593.65680589758
4.75106 1483.97888302234
4.77118 1589.91591783759
4.79129 1592.01219259427
4.8114 1540
4.83152 1399.99437126483
4.85163 1502.06832212703
4.87174 1422.78236914421
4.89186 1371.9956427793
4.91197 1385.01874871747
4.93209 1326.04460658447
4.9522 1257
4.97231 1292.01908591277
4.99243 1305.00470953335
5.01254 1300.9521671815
5.03265 1264.07367834559
5.05277 1237.07323896415
5.07288 1185.01091917553
5.09299 1214.98670637174
5.11311 1193.96571091624
5.13322 1116.95518755025
5.15334 1120.05438841532
5.17345 1115.83222699985
5.19356 1052.91739329447
5.21368 1131.05293928898
5.23379 974.032364274694
5.2539 1058
5.27402 1065.96453377943
5.29413 1036.97830582092
5.31425 1019.89001707327
5.33436 973.000651159319
5.35447 999.025410188361
5.37459 944.00902867434
5.3947 982
5.41481 976.981511154617
5.43493 939.976284326738
5.45504 936.961932150838
5.47516 898.065966362003
5.49527 886.996846774863
5.51538 884.017279181119
5.5355 877
5.55561 909.972912524083
5.57572 793.931504272885
5.59584 818.107997663004
5.61595 823.151859980705
5.63606 744.063738430289
5.65618 787.916942500553
5.67629 832.018923438412
5.69641 762.997012238614
5.71652 804.981356509037
5.73663 732.986004158939
5.75675 797.081600993778
5.77686 759.087156281759
5.79697 740.042538806629
5.81709 705.002034676025
5.8372 730
5.85732 718.986985547358
5.87743 735.078627852901
5.89754 801.096608544269
5.91766 794.138704324958
5.93777 705.086053871749
5.95788 718.925450428099
5.978 774
5.99811 682.979367921119
6.01823 713.027469908921
6.03834 700.036919301588
6.05845 737.051470689048
6.07857 660.083036894572
6.09868 668.961218158151
6.11879 695.996211235277
6.13891 695.00429566591
6.15902 702.978964110171
6.17913 662.969853681156
6.19925 674.037729787536
6.21936 683.955633104725
6.23948 693.047303218585
6.25959 630.995460376209
6.2797 689
6.29982 628.989691226297
6.31993 689.064306148626
6.34004 669.921589072278
6.36016 650.99865764275
6.38027 651.029804255856
6.40039 632.987384878293
6.4205 679
6.44061 619.963126250934
6.46073 587.027141428043
6.48084 641.128812543958
6.50095 676.025918778126
6.52107 628.093002420023
6.54118 593.986371157899
6.56129 634.985935683632
6.58141 623.981720341613
6.60152 576.944969969022
6.62164 560.131711776116
6.64175 649.017687332732
6.66186 594.979837233558
6.68198 665.996680453633
6.70209 594.013012093679
6.7222 646
6.74232 629.969674950119
6.76243 628.040176522573
6.78255 648.949793178684
6.80266 605.029905404911
6.82277 626.978219234196
6.84289 607.018506167393
6.863 590
6.88311 629.005008317003
6.90323 616.021536204811
6.92334 656.026840573198
6.94346 622.09954504784
6.96357 587.030028990703
6.98368 580.992668507343
7.0038 590
7.02391 583.000165464662
7.04402 607.049916411509
7.06414 636.922176924606
7.08425 562.070318917803
7.10436 597.929251348152
7.12448 597.008715677842
7.14459 607.985311808349
7.16471 629.994817130011
7.18482 596.97917502713
7.20493 595.988419862655
7.22505 580.002276722959
7.24516 598.974063831117
7.26527 582.070285331497
7.28539 541.997745724904
7.3055 587
7.32562 591.97015101494
7.34573 558.988208340985
7.36584 572.003581376622
7.38596 552.039986245398
7.40607 550.976568847879
7.42618 562.012724464295
7.4463 544
7.46641 575.99819673873
7.48653 538.977363935197
7.50664 560.033063521199
7.52675 548.060056745205
7.54687 551.916549459185
7.56698 611.010772122945
7.58709 552.006081174547
7.60721 602.016184359376
7.62732 588.992929728684
7.64743 596.971594735003
7.66755 550.922930793599
7.68766 551.983764354931
7.70778 554.989545149324
7.72789 564.007069426145
7.748 534
7.76812 528.975701754419
7.78823 514.081000694641
7.80834 615.130992360442
7.82846 595.148016696869
7.84857 538.994518381578
7.86869 576.997423262108
7.8888 544
7.90891 588.032453988408
7.92903 608.91526072863
7.94914 524.945232576033
7.96925 558.958107372525
7.98937 534.018947815608
8.00948 557.969349701133
8.0296 566
8.04971 553.006144371734
8.06982 580.007133980514
8.08994 558.953885016645
8.11005 553.011609306442
8.13016 562.967345180575
8.15028 574.007395854598
8.17039 556.003772707234
8.1905 563
8.21062 570.030522574075
8.23073 600.980017005658
8.25085 570.056475480315
8.27096 620.040495794788
8.29107 536.064862352785
8.31119 552.005121941177
8.3313 514
8.35141 593.029214375028
8.37153 575.898854700782
8.39164 525.016611431385
8.41176 571.955982442928
8.43187 542.068786595006
8.45198 525.975885099399
8.4721 562
8.49221 540.992575526024
8.51232 548.008799677311
8.53244 551.018973941177
8.55255 568.960645166503
8.57266 571.025775579491
8.59278 567.967078275713
8.61289 593.026634163406
8.63301 519.017116819078
8.65312 641.059951607063
8.67323 584.883547286552
8.69335 546.925381902435
8.71346 529.93417290538
8.73357 581.995830621684
8.75369 533.017295376835
8.7738 547
8.79392 567.011552175761
8.81403 569.986924062419
8.83414 560.004758364464
8.85426 576.960167563034
8.87437 574.060525978686
8.89448 529.998578692721
8.9146 568
8.93471 548.99469606742
8.95483 568.039079805232
8.97494 574.967777017439
8.99505 550.037853206937
9.01517 550.992164499634
9.03528 550.005773913797
9.05539 553.986582977795
9.07551 573.984982550237
9.09562 513.973795973283
9.11573 520.965261165566
9.13585 476.013122921558
9.15596 538.888867344542
9.17608 554.99213589364
9.19619 565.004671372158
9.2163 540
9.23642 542.00153463721
9.25653 534.991137336613
9.27664 530.978556104128
9.29676 528.938454333797
9.31687 561.034233148161
9.33699 519.98294325871
9.3571 591
9.37721 485.980704841056
9.39733 545.062282557363
9.41744 515.92295755394
9.43755 513.950016647418
9.45767 525.021644606465
9.47778 510.971083254167
9.4979 557
9.51801 501.984073519783
9.53812 515.008164368121
9.55824 506.022160345489
9.57835 528.973776882122
9.59846 488.045309991916
9.61858 505.967321780411
9.63869 530.989893461078
9.6588 544
9.67892 529.977133804343
9.69903 503.958192239555
9.71915 488.022661556526
9.73926 516.939579372844
9.75937 532.993772775
9.77949 528.006943633379
9.7996 510
9.81971 503.004093108833
9.83983 533.079825182628
9.85994 581.023619251262
9.88006 556.063269179328
9.90017 535.033591551159
9.92028 511.013102832458
9.9404 525
9.96051 563.995855216027
9.98062 519.973243185115
10.00074 531.033981975894
10.02085 530.028355204948
10.04097 515.02909764436
10.06108 496.012530105567
10.08119 501.984671645324
10.10131 526.991163728803
10.12142 489.001151888099
10.14153 539.073742626006
10.16165 534.847913815567
10.18176 455.111779923747
10.20187 455.925971002244
10.22199 523.967953320899
10.2421 547
10.26222 501.003746822323
10.28233 539.997717074814
10.30244 487.926229355927
10.32256 499.940849649046
10.34267 523.960919694751
10.36278 542.008404968807
10.3829 518
10.40301 527.002193152801
10.42313 525.020297317889
10.44324 547.002598667461
10.46335 530.00938459022
10.48347 542.00182059551
10.50358 522.015159462479
10.52369 522.99745511771
10.54381 536.018299429255
10.56392 565.976856894023
10.58403 508.962720462783
10.60415 534.068506912787
10.62426 526.067874648589
10.64438 497.999110383547
10.66449 528.980415571384
10.6846 543
10.70472 505.985284395628
10.72483 521.024963766508
10.74494 512.937798603781
10.76506 486.987136580962
10.78517 525.933434215105
10.80529 539.014340921383
10.8254 510
10.84551 556.995738531296
10.86563 507.003542337351
10.88574 559.011128431583
10.90585 491.179347547339
10.92597 478.935625621484
10.94608 531.977926642976
10.9662 528
10.98631 563.004715354386
11.00642 541.988710320012
11.02654 559.047842636546
11.04665 559.083838520829
11.06676 517.030179266446
11.08688 535.975125089934
11.10699 549.992971793459
11.1271 559
11.14722 521.952135236965
11.16733 498.032885097199
11.18745 541.042783128165
11.20756 529.990133199742
11.22767 561.961443662048
11.24779 558.01202407197
11.2679 531
11.28801 530.014184252894
11.30813 562.001516630115
11.32824 548.042236809635
11.34836 593.98059116831
11.36847 552.072417230036
11.38858 546.956980847733
11.4087 591
11.42881 543.98930514153
11.44892 555.98882904031
11.46904 534.072405819515
11.48915 606.954561278031
11.50927 556.065202115264
11.52938 571.948929893897
11.54949 607.004353324559
11.56961 574.996438879174
11.58972 601.019418997053
11.60983 591.970083732499
11.62995 603.166297352128
11.65006 664.062700330195
11.67017 571.0556090378
11.69029 623.970199559088
11.7104 630
11.73052 595.958116634688
11.75063 578.056590046497
11.77074 649.09909648974
11.79086 663.959218706976
11.81097 676.076268571347
11.83108 609.977782422958
11.8512 708
11.87131 675.973487647812
11.89143 657.004579423119
11.91154 679.099846040964
11.93165 718.052099535362
11.95177 655.057463355044
11.97188 676.948584444121
11.99199 711.000147535821
12.01211 704.015252088396
12.03222 758.01867154129
12.05234 725.920439902306
12.07245 738.202859803665
12.09256 816.03286278387
12.11268 743.998101758964
12.13279 815.995752084565
12.1529 747
12.17302 795.035767588881
12.19313 794.035554428782
12.21324 834.977999040575
12.23336 787.00075428166
12.25347 837.967438235094
12.27359 797.0281138765
12.2937 785
12.31381 837.999082138343
12.33393 785.947688785394
12.35404 795.026688409009
12.37415 778.10515445747
12.39427 741.009139343401
12.41438 761.981581777202
12.4345 755
12.45461 728.993051028185
12.47472 717.970898877656
12.49484 672.926112868882
12.51495 653.041942900562
12.53506 641.976303153719
12.55518 641.066609104372
12.57529 557.997930120316
12.5954 635
12.61552 582.942943302811
12.63563 570.003880053325
12.65575 564.982453605651
12.67586 563.984864700222
12.69597 573.99456021487
12.71609 564.011000357419
12.7362 549
12.75631 568.998866285442
12.77643 527.904707672463
12.79654 486.017416247531
12.81666 525.95502242656
12.83677 521.987276222707
12.85688 533.035605212627
12.877 471
12.89711 529.047873155577
12.91722 581.96622620628
12.93734 497.893027399829
12.95745 502.969670806432
12.97757 496.001041605308
12.99768 507.994482057466
13.01779 495.012153041926
13.03791 479.002594988089
13.05802 497.009556476174
13.07813 473.912251489533
13.09825 413.941503658323
13.11836 442.881166712612
13.13847 495.954562216121
13.15859 494.014062468313
13.1787 473
13.19882 503.0003329368
13.21893 473.98169915201
13.23904 487.001816086734
13.25916 473.982810486918
13.27927 508.954455992112
13.29938 516.004575786534
13.3195 498
13.33961 448.991992921624
13.35973 475.060543780537
13.37984 486.935671985044
13.39995 445.99524084022
13.42007 498.909330552616
13.44018 526.004875124536
13.46029 508.00695927257
13.48041 498.989963425854
13.50052 465.968789439945
13.52064 459.05128738502
13.54075 506.120836015186
13.56086 537.967227941603
13.58098 553.971097378379
13.60109 580.003335052437
13.6212 547
13.64132 558.033121683035
13.66143 578.979017627933
13.68154 532.895821075533
13.70166 505.990536520219
13.72177 526.976574196725
13.74189 521.011167045686
13.762 508
13.78211 531.993437934501
13.80223 487.963509536248
13.82234 493.994556805672
13.84245 471.038295484692
13.86257 472.997889718962
13.88268 467.999259248265
13.9028 482
13.92291 483.978579345192
13.94302 431.999632424367
13.96314 483.083195642272
13.98325 476.0866387749
14.00336 443.044833425779
14.02348 451.947509707051
14.04359 500.008796334679
14.06371 441.99414523897
14.08382 473.987011720468
14.10393 427.028002160387
14.12405 504.070832733894
14.14416 450.12637921219
14.16427 427.007783313833
14.18439 421.999869028496
14.2045 432
14.22461 451.005039364576
14.24473 447.982527986393
14.26484 437.995400632997
14.28496 441.000073279937
14.30507 437.000808166095
14.32518 440.997842306238
14.3453 440
14.36541 437.992682956578
14.38552 419.997945498581
14.40564 427.986100455944
14.42575 411.985011643196
14.44587 441.962939979521
14.46598 447.000280934236
14.48609 447.004317245833
14.50621 432.996531620551
14.52632 442.021512342675
14.54643 464.020167705484
14.56655 463.975675589509
14.58666 445.061973676423
14.60677 415.018496264017
14.62689 424.989781518474
14.647 436
14.66712 419.991777119519
14.68723 413.961049635468
14.70734 397.086856119712
14.72746 466.980030813334
14.74757 426.991610583922
14.76768 491.958177077575
14.7878 471
14.80791 442.988674341449
14.82803 428.005428597232
14.84814 449.052491039188
14.86825 461.025433087228
14.88837 437.032165851867
14.90848 431.990667229341
14.92859 442.999021608478
14.94871 439.00188655836
14.96882 450.003877459899
14.98894 446.003152411054
15.00905 460.049490313695
15.02916 475.982779532564
15.04928 470.024570560591
15.06939 435.016306097929
15.0895 418
15.10962 441.051393625573
15.12973 490.014376037687
15.14984 476.028980816205
15.16996 507.033820575552
15.19007 448.045817346014
15.21019 475.976900367012
15.2303 501
15.25041 485.984120723926
15.27053 455.983313695819
15.29064 465.027503917129
15.31075 458.094218018192
15.33087 421.98680986462
15.35098 460.988867031644
15.3711 431
15.39121 431.002196508268
15.41132 431.008665288306
15.43144 446.011501513936
15.45155 438.026815437588
15.47166 425.050915431859
15.49178 407.976904317757
15.51189 442.008181334348
15.53201 382.983962788372
15.55212 411.052357347411
15.57223 445.011509828746
15.59235 428.926151048548
15.61246 409.987714556495
15.63257 440.93857277475
15.65269 463.005883613288
15.6728 434
15.69291 438.999417603854
15.71303 431.015570773545
15.73314 440.931362016319
15.75326 387.008161593575
15.77337 433.954783322527
15.79348 423.008812346109
15.8136 437
15.83371 424.979349920332
15.85382 385.998963905732
15.87394 431.127224868931
15.89405 461.074293981631
15.91417 402.047207397238
15.93428 419.967051896289
15.95439 441.990484306053
15.97451 445.984259514807
15.99462 402.990438111635
16.01473 432.042238811455
16.03485 435.988223435915
16.05496 433.012592203878
16.07508 432.979009466977
16.09519 450.013501782532
16.1153 403
16.13542 436.997720895794
16.15553 392.972053724597
16.17564 426.08869820407
16.19576 432.084539141751
16.21587 384.996676964881
16.23598 442.934214187817
16.2561 463
16.27621 411.985913206725
16.29633 416.007495096106
16.31644 413.022191156836
16.33655 434.982065185422
16.35667 416.046341370688
16.37678 408.961188863629
16.39689 457.001090331656
16.41701 420.001476622774
16.43712 469.026379587461
16.45724 436.883966947315
16.47735 408.059356171861
16.49746 452.978588228838
16.51758 428.007148623569
16.53769 452.991097352501
16.5578 434
16.57792 410.038524877254
16.59803 464.977130170804
16.61814 394.954302663105
16.63826 437.948374151431
16.65837 426.977590011811
16.67849 456.016052694934
16.6986 381
16.71871 440.039582976079
16.73883 472.97223576499
16.75894 425.905559197909
16.77905 403.003181343104
16.79917 420.943514716332
16.81928 452.003193119433
16.8394 416
16.85951 396.998732752902
16.87962 411.034857868114
16.89974 446.018755210777
16.91985 424.083457387465
16.93996 404.996206715094
16.96008 425.968472566852
16.98019 451.99388030321
17.00031 437.977679538543
17.02042 392.990215185883
17.04053 407.991586484142
17.06065 401.140237048759
17.08076 481.996361519226
17.10087 409.060063939881
17.12099 438.985222630818
17.1411 426
17.16121 416.005915033013
17.18133 425.970215983046
17.20144 389.9795695693
17.22156 409.974277830406
17.24167 403.003746509092
17.26178 415.985032757337
17.2819 428
17.30201 432.983363574757
17.32212 391.005360296084
17.34224 435.035999673
17.36235 411.044007946243
17.38247 420.984147258092
17.40258 422.98885479162
17.42269 441.996257705452
17.44281 430.991417069201
17.46292 424.00749318576
17.48303 437.007724299651
17.50315 427.959353403719
17.52326 428.928295582748
17.54338 472.992912959447
17.56349 441.01409150455
17.5836 441
17.60372 431.96080680415
17.62383 392.000522866413
17.64394 444.148092999259
17.66406 488.020728835708
17.68417 450.022830631543
17.70428 469.982724956539
17.7244 461
17.74451 454.009495126668
17.76463 470.96225229194
17.78474 427.001635266043
17.80485 469.953263152273
17.82497 452.997106322265
17.84508 484.981792535752
17.86519 468.01493463255
17.88531 447.99543310905
17.90542 449.00971366237
17.92554 458.000262261148
17.94565 445.951683525833
17.96576 435.976922991239
17.98588 453.005839609569
18.00599 423.013432423388
18.0261 430
18.04622 464.973577972299
18.06633 408.99718715736
18.08645 462.063501410321
18.10656 429.079923219874
18.12667 423.96838821933
18.14679 445.996882052139
18.1669 439
18.18701 451.006757895947
18.20713 460.014725060036
18.22724 470.007884221263
18.24735 462.048738911382
18.26747 437.036490195673
18.28758 425.990697519242
18.3077 443
18.32781 434.998955118184
18.34792 450.024395836094
18.36804 451.910262687364
18.38815 405.940351666208
18.40826 468.999302105158
18.42838 407.021456266137
18.44849 456.975275078549
18.46861 450.977494971236
18.48872 415.005280321931
18.50883 460.076489094893
18.52895 486.0063671018
18.54906 464.098003503133
18.56917 421.000488760424
18.58929 450.994439052845
18.6094 426
18.62951 434.0275360286
18.64963 485.981946666721
18.66974 429.96130039852
18.68986 457.988438353468
18.70997 435.978885696052
18.73008 484.981807082041
18.7502 460
18.77031 465.99252448905
18.79042 424.970222809732
18.81054 432.065511254536
18.83065 474.881338544843
18.85077 496.048084598194
18.87088 435.038240176374
18.89099 434.998615078819
18.91111 427.001644255065
18.93122 455.043867224827
18.95133 491.018412820016
18.97145 475.923709580535
18.99156 449.0305998533
19.01168 462.946806752228
19.03179 512.00479606163
19.0519 453
19.07202 453.01151209325
19.09213 462.03792843211
19.11224 484.965804561771
19.13236 444.020729570527
19.15247 476.947595143167
19.17258 488.994997001851
19.1927 489
19.21281 475.014830259891
19.23293 515.971543918261
19.25304 445.918266760184
19.27315 464.924656738948
19.29327 478.971644030465
19.31338 500.998310865955
19.33349 478.014259184449
19.35361 472.012927197077
19.37372 520.050532754931
19.39384 549.003512550865
19.41395 530.937545117434
19.43406 519.976662419658
19.45418 537.003652522041
19.47429 518.001464664319
19.4944 553
19.51452 609.022155214258
19.53463 602.996046187892
19.55475 616.023438643996
19.57486 599.093099899835
19.59497 568.945031410223
19.61509 648.975678347022
19.6352 650
19.65531 677.997754223023
19.67543 661.060331335328
19.69554 752.130030665065
19.71565 758.027486273619
19.73577 771.942679733529
19.75588 812.97784562446
19.776 835
19.79611 926.034877863646
19.81622 948.999783648422
19.83634 954.029375090877
19.85645 966.019577714832
19.87656 963.907321683912
19.89668 1030.98400798668
19.91679 1000.00129638312
19.93691 1052.02847967125
19.95702 1077.00445890617
19.97713 1048.87411198753
19.99725 953.90977697076
20.01736 1005.80069858979
20.03747 1077.98903861994
20.05759 1019.04474591233
20.0777 965
20.09782 1014.02051988464
20.11793 982.936763125826
20.13804 955.950070227713
20.15816 940.966461340136
20.17827 970.995792916758
20.19838 939.033693420414
20.2185 927
20.23861 923.99323268983
20.25872 901.978883531665
20.27884 893.011054221323
20.29895 904.980296856279
20.31907 888.077973563539
20.33918 838.996759703012
20.35929 894.970197290739
20.37941 910.986615571981
20.39952 853.925014754591
20.41963 822.091806072687
20.43975 916.039053648368
20.45986 837.157298883291
20.47998 827.963307421226
20.50009 848.017755312402
20.5202 796
20.54032 857.022324543093
20.56043 819.957938320499
20.58054 844.102740503449
20.60066 879.003208271279
20.62077 841.081388548701
20.64088 807.993265683443
20.661 828
20.68111 796.002154738814
20.70123 842.054549322379
20.72134 851.028334095836
20.74145 884.912783413645
20.76157 912.95350206589
20.78168 969.905236835128
20.80179 1051.99763835165
20.82191 1017.01347639162
20.84202 1120.0907462457
20.86214 1117.82216366019
20.88225 1013.87014979569
20.90236 1004.08567277295
20.92248 929.029806088817
20.94259 946.00564530235
20.9627 892
20.98282 900.015580152086
21.00293 897.986317064146
21.02305 881.917752960746
21.04316 860.939455469664
21.06327 920.957489240673
21.08339 894.022382587197
21.1035 865
21.12361 856.999845211397
21.14373 871.053325592147
21.16384 909.026812867638
21.18395 888.095566567752
21.20407 858.018848390416
21.22418 850.025060448743
21.2443 816
21.26441 829.006100422583
21.28452 823.987476322999
21.30464 801.91445540655
21.32475 765.973239709137
21.34486 815.916202928073
21.36498 814.034770581549
21.38509 771.018479328584
21.40521 750.997266993617
21.42532 771.058888630244
21.44543 834.026621899981
21.46555 795.860726272197
21.48566 779.912132353818
21.50577 836.000583351846
21.52589 795.997049643558
21.546 856
21.56612 836.9708061631
21.58623 828.999843081582
21.60634 840.077313628571
21.62646 866.088168714246
21.64657 787.031008078383
21.66668 841.945440320749
21.6868 839
21.70691 782.969231542872
21.72702 741.998923823253
21.74714 756.97665298411
21.76725 724.0145158493
21.78737 743.010199028504
21.80748 718.981754178201
21.82759 766.997387509492
21.84771 727.993947719435
21.86782 747.986629522784
21.88793 698.968216543318
21.90805 716.007202953348
21.92816 694.010486968571
21.94828 728.943116234678
21.96839 764.006715452101
21.9885 725
22.00862 738.998607351883
22.02873 720.008195684938
22.04884 734.935453005926
22.06896 662.097615824333
22.08907 672.935443547536
22.10919 696.011008118076
22.1293 657
22.14941 688.004270024927
22.16953 674.028747366771
22.18964 714.99132814896
22.20975 652.167211064936
22.22987 628.976640198872
22.24998 660.968845252233
22.27009 660.02380192603
22.29021 605.997636236736
22.31032 645.021898335554
22.33044 623.941322920385
22.35055 624.082472007341
22.37066 650.049940260503
22.39078 590.034698543623
22.41089 598.99430247658
22.431 607
22.45112 664.023141003324
22.47123 641.957656348248
22.49135 645.083102427862
22.51146 691.911893089764
22.53157 698.077547021927
22.55169 628.013928829546
22.5718 668
22.59191 704.981821540186
22.61203 650.027348891609
22.63214 711.96970803352
22.65225 631.03499977869
22.67237 700.942470513332
22.69248 674.010770211111
22.7126 696
22.73271 644.982804987468
22.75282 649.007743082716
22.77294 647.018731753042
22.79305 668.964241185089
22.81316 675.96040667028
22.83328 686.042843322056
22.85339 636.982306153134
22.87351 742.034067462241
22.89362 700.88270544161
22.91373 626.082277107523
22.93385 744.067217227667
22.95396 660.121712120284
22.97407 670.006050405282
22.99419 648.977818988524
23.0143 727
23.03442 643.954436288952
23.05453 680.068826876762
23.07464 691.004290275999
23.09476 690.049103988983
23.11487 656.012486921116
23.13498 667.011016143867
23.1551 653
23.17521 703.973519268289
23.19532 606.027818607993
23.21544 737.081403191864
23.23555 647.169698185926
23.25567 657.011859120201
23.27578 618.983967935938
23.29589 680.992444967121
23.31601 630.979764618743
23.33612 650.054482038811
23.35623 698.033848410398
23.37635 693.965921663746
23.39646 685.013482611574
23.41658 686.98017359283
23.43669 709.999010874477
23.4568 716
23.47692 799.028023038092
23.49703 775.007158480925
23.51714 827.073671912374
23.53726 845.881437421981
23.55737 927.959499845916
23.57749 900.002774193488
23.5976 946
23.61771 959.994451054817
23.63783 925.90351984421
23.65794 888.107055203921
23.67805 977.987459125262
23.69817 894.083858224229
23.71828 891.041318021798
23.73839 805.022128038773
23.75851 823.00760008826
23.77862 791.944448790556
23.79874 757.020159670533
23.81885 797.076454221207
23.83896 797.026228591589
23.85908 762.082660914598
23.87919 683.99667542284
23.8993 749
23.91942 700.976100959661
23.93953 723.001942040253
23.95965 685.934210892427
23.97976 703.905759280525
23.99987 734.028386775694
24.01999 685.013861343267
24.0401 688
24.06021 667.002035608119
24.08033 709.081043202095
24.10044 742.00714529019
24.12056 725.040927249253
24.14067 729.936212821405
24.16078 756.057272780982
24.1809 669
24.20101 752.012695845949
24.22112 701.991717515845
24.24124 760.063836473565
24.26135 729.096609976768
24.28146 715.023275967657
24.30158 704.986447834615
24.32169 743.978068293037
24.34181 762.992045616171
24.36192 716.939092985731
24.38203 681.022275648731
24.40215 722.041750769641
24.42226 718.937206560783
24.44237 769.003312754087
24.46249 722.006554247788
24.4826 780
24.50272 821.961692616726
24.52283 752.977416013074
24.54294 799.060795886457
24.56306 775.081235896155
24.58317 759.97642814528
24.60328 796.956814585162
24.6234 819
24.64351 802.010608336504
24.66362 850.020107043242
24.68374 834.993386512239
24.70385 872.846771773031
24.72397 911.023019756595
24.74408 864.026362876464
24.76419 871.997881285925
24.78431 857.995764171835
24.80442 852.972964037604
24.82453 826.031591256773
24.84465 871.999355080931
24.86476 828.028094053049
24.88488 853.000125575515
24.90499 799.035938291286
24.9251 771
24.94522 815.950786297778
24.96533 711.966090089434
24.98544 777.047970084145
25.00556 722.086102433978
25.02567 733.969856356469
25.04579 727.011188079265
25.0659 719
25.08601 748.994607643173
25.10613 705.969366092258
25.12624 716.994499750833
25.14635 704.929168820073
25.16647 760.969212000919
25.18658 736.017595217491
25.20669 738.009431564285
25.22681 692.982387114113
25.24692 689.013621365228
25.26704 705.033194418793
25.28715 696.859220708679
25.30726 642.952571102656
25.32738 727.945719374727
25.34749 706.026301496237
25.3676 680
25.38772 701.988823399435
25.40783 655.939843347837
25.42795 647.0190479548
25.44806 655.98085475818
25.46817 663.992926618846
25.48829 669.993310771722
25.5084 688
25.52851 685.99039790766
25.54863 680.059432216512
25.56874 723.948643224579
25.58886 658.998556057181
25.60897 743.875805112952
25.62908 784.955652847404
25.6492 844
25.66931 837.980386363511
25.68942 795.975360543332
25.70954 814.132772549647
25.72965 876.006282933149
25.74976 806.161005589233
25.76988 780.959187764436
25.78999 836.995273866229
25.81011 792.978682688581
25.83022 766.952234575695
25.85033 691.898076122356
25.87045 652.948653922075
25.89056 636.033413937232
25.91067 621.011842185083
25.93079 634.977392894761
25.9509 676
25.97102 624.960508625229
25.99113 619.999853743954
26.01124 610.996103942191
26.03136 617.996230469724
26.05147 611.008414789467
26.07158 616.982473075402
26.0917 640
26.11181 651.999453542812
26.13193 640.977983680032
26.15204 625.964373091287
26.17215 618.949393776043
26.19227 636.049926079225
26.21238 589.973357898636
26.23249 674.978638705585
26.25261 649.990868639737
26.27272 663.997659116799
26.29283 633.969576253106
26.31295 644.059943365173
26.33306 653.037809701849
26.35318 632.981289517269
26.37329 679.987767401923
26.3934 668
26.41352 689.050570781057
26.43363 742.046013121084
26.45374 756.053123508534
26.47386 820.804128248792
26.49397 930.845268651939
26.51409 1039.9283838862
26.5342 1251
26.55431 1526.09560376831
26.57443 1686.38196455412
26.59454 1984.31599734124
26.61465 1983.00266693175
26.63477 2025.04869708538
26.65488 1858.24144471425
26.67499 1597.13950201787
26.69511 1330.89221295551
26.71522 1166.85788494037
26.73534 1028.76522410449
26.75545 925.731173667876
26.77556 820.149944250439
26.79568 781.024076515444
26.81579 757.008438131338
26.8359 752
26.85602 765.020783841117
26.87613 782.002120698721
26.89625 762.918549713749
26.91636 753.909569463575
26.93647 820.962688556936
26.95659 798.006471722167
26.9767 808
26.99681 763.979485994101
27.01693 767.080651869342
27.03704 843.124081368288
27.05716 860.049111634015
27.07727 823.035719142673
27.09738 820.996753766386
27.1175 826
27.13761 824.964781502787
27.15772 743.014182375755
27.17784 824.022122893066
27.19795 766.967166016917
27.21806 850.966368675523
27.23818 770.070448116918
27.25829 782.969038504466
27.27841 820.987399074499
27.29852 779.02688711199
27.31863 877.12785481172
27.33875 899.982382714996
27.35886 917.870384676568
27.37897 1003.91313117173
27.39909 1062.93169106221
27.4192 1247
27.43932 1254.95326619693
27.45943 1240.06808702126
27.47954 1295.97559656339
27.49966 1229.05797620762
27.51977 1224.12926392741
27.53988 1084.05850015309
27.56 1126
27.58011 1074.9615908431
27.60023 1057.11171733663
27.62034 1141.95845761381
27.64045 1034.14843318475
27.66057 1074.91207333456
27.68068 1101.97221436636
27.70079 1148.97444869711
27.72091 1153.96147816519
27.74102 1055.97940394887
27.76113 1090.95759720065
27.78125 999.915080633076
27.80136 1025.06460818306
27.82148 909.107975324394
27.84159 867.003741406355
27.8617 845
27.88182 780.963792269148
27.90193 780.006396568839
27.92204 746.834903746964
27.94216 663.045095320572
27.96227 704.927703649728
27.98239 704.023884061086
28.0025 645
28.02261 633.991537110894
28.04273 611.003427524054
28.06284 630.998058554793
28.08295 606.032918454442
28.10307 616.982148997574
28.12318 609.025449789296
28.1433 579
28.16341 565.995434433055
28.18352 562.009234531343
28.20364 572.986194831054
28.22375 543.910975661886
28.24386 534.928229485545
28.26398 595.952689156471
28.28409 609.002076518621
28.3042 587
28.32432 520.971601999121
28.34443 534.019745828672
28.36455 528.998822020965
28.38466 541.974978275388
28.40477 542.016253180865
28.42489 518.020358743605
28.445 492
28.46511 549.017600754053
28.48523 543.984709045438
28.50534 548.005391545987
28.52546 543.00705338973
28.54557 536.036530457385
28.56568 513.985529372387
28.5858 542
28.60591 489.988635034385
28.62602 511.01436420734
28.64614 502.002002280743
28.66625 521.964205917342
28.68636 515.039039569162
28.70648 500.998844127296
28.72659 529.970217266111
28.74671 567.980212232052
28.76682 478.946334695999
28.78693 502.08642527175
28.80705 540.013125983066
28.82716 518.061569609904
28.84727 493.033334054701
28.86739 483.990925963311
28.8875 517
28.90762 520.004549257133
28.92773 518.94986707598
28.94784 477.00126700703
28.96796 512.97441116065
28.98807 492.01084951741
29.00818 507.998938544394
29.0283 487
29.04841 501.012684766752
29.06853 520.013233084049
29.08864 509.932134374202
29.10875 478.988238453428
29.12887 509.977103106008
29.14898 484.050655355523
29.16909 461.977929352983
29.18921 531.007062565685
29.20932 493.994676874451
29.22943 516.948324850926
29.24955 449.021293055463
29.26966 522.963499484175
29.28978 466.031011258037
29.30989 496.98596897742
29.33 495
29.35012 518.013266763836
29.37023 512.992810933263
29.39034 521.029871967488
29.41046 524.044106138681
29.43057 495.006521587811
29.45069 522.981895638182
29.4708 535
29.49091 491.977909208315
29.51103 472.014840174022
29.53114 492.009494202777
29.55125 475.049454379803
29.57137 476.955529696594
29.59148 525.946796912416
29.6116 563
29.63171 545.974750475459
29.65182 508.02360747542
29.67194 578.103698097195
29.69205 574.92113173452
29.71216 559.95889808728
29.73228 599.975923815765
29.75239 593.009129147723
29.7725 594
29.79262 639.031206087477
29.81273 654.034629459324
29.83285 686.042011383141
29.85296 667.102606845769
29.87307 628.972424117106
29.89319 684.984495533077
29.9133 670
29.93341 660.988700646029
29.95353 615.923719891875
29.97364 605.118174639842
29.99376 683.966169768602
30.01387 632.070222450823
30.03398 620.020833592769
30.0541 589
30.07421 628.018606175834
30.09432 629.971549917079
30.11444 597.973990803506
30.13455 601.014906143548
30.15467 581.020588789662
30.17478 573.022753503245
30.19489 560.977455720226
30.21501 617.988235884491
30.23512 538.983136670966
30.25523 589.007207711602
30.27535 532.948252978475
30.29546 576.915867873788
30.31557 559.105020127045
30.33569 514.973385354678
30.3558 613
30.37592 543.961309173541
30.39603 578.049100678252
30.41614 578.0180986158
30.43626 592.054269655718
30.45637 542.011968283095
30.47648 577.983121070559
30.4966 562
30.51671 580.995398206623
30.53683 550.000959520041
30.55694 584.031858972526
30.57705 568.026435652074
30.59717 581.969543775528
30.61728 588.010957108205
30.63739 565.013564189342
30.65751 572.03588477269
30.67762 649.993797429076
30.69773 569.919924877676
30.71785 592.117793479563
30.73796 614.007905104159
30.75808 611.971972775093
30.77819 655.991464123623
30.7983 637
30.81842 616.952919325587
30.83853 561.978939384598
30.85864 595.075944119563
30.87876 598.060686962358
30.89887 571.978088294405
30.91899 612.991834414352
30.9391 594
30.95921 595.994921505105
30.97933 557.920961288351
30.99944 537.089945964113
31.01955 595.042288134605
31.03967 510.086922038901
31.05978 521.969490713079
31.0799 539
31.10001 555.990636450369
31.12012 504.950892702311
31.14024 500.096445828994
31.16035 551.016787977832
31.18046 505.013441616917
31.20058 549.969948781405
31.22069 526.025354575732
31.2408 482
31.26092 484.045869693178
31.28103 523.95806348485
31.30115 469.052276442598
31.32126 545.980179757294
31.34137 482.033174544032
31.36149 521.996791793727
31.3816 477
31.40171 500.000872513376
31.42183 477.017167655418
31.44194 506.947248245751
31.46206 439.037786127722
31.48217 498.882304458691
31.50228 523.044164533075
31.5224 461
31.54251 501.018977036856
31.56262 500.982325548671
31.58274 489.999838182061
31.60285 496.984941473701
31.62297 494.018132775082
31.64308 482.999405044815
31.66319 497.98921204653
31.68331 510.998325883574
31.70342 486.95892040934
31.72353 461.027682889718
31.74365 504.045615291188
31.76376 481.063397211169
31.78387 465.011672181309
31.80399 466.989515142347
31.8241 482
31.84422 443.009115337258
31.86433 494.037594341185
31.88444 482.013506490537
31.90456 515.973379438831
31.92467 500.009732448432
31.94478 511.002390896439
31.9649 486
31.98501 489.019663274605
32.00513 539.039811703128
32.02524 531.965151581159
32.04535 514.077966945633
32.06547 484.99669198114
32.08558 516.968940292181
32.10569 525.003501589749
32.12581 523.007461212907
32.14592 545.007039222234
32.16604 529.955398404341
32.18615 507.929261402381
32.20626 490.961709864972
32.22638 525.994441144817
32.24649 508.993757241709
32.2666 555
32.28672 548.982978322095
32.30683 544.006511888102
32.32694 553.023304640618
32.34706 568.953139650209
32.36717 603.930129982315
32.38729 630.013856058521
32.4074 578
32.42751 611.011882412831
32.44763 591.93969079762
32.46774 563.993606441867
32.48785 569.038764066398
32.50797 551.955749044937
32.52808 595.025177555662
32.5482 513
32.56831 548.032018405238
32.58842 579.988511576713
32.60854 548.969551136647
32.62865 554.012758298814
32.64876 533.02392773959
32.66888 533.009863773786
32.68899 525.984726682106
32.7091 569
32.72922 534.013311858575
32.74933 601.071417434772
32.76945 596.959874529286
32.78956 579.097395200502
32.80967 531.974296990315
32.82979 594.986328989359
32.8499 572
32.87001 601.009414103509
32.89013 598.01397154797
32.91024 621.007522817626
32.93036 600.03644692251
32.95047 597.0035540124
32.97058 594.987229300205
32.9907 605
33.01081 563.997209110324
33.03092 606.050381776011
33.05104 615.918160136856
33.07115 572.962688718294
33.09127 636.93403815788
33.11138 614.068175388234
33.13149 573.979586126514
33.15161 657.016455859017
33.17172 618.961576312071
33.19183 627.047156479364
33.21195 636.91578404497
33.23206 567.15026853242
33.25217 525.994601658778
33.27229 554.987719750812
33.2924 563
33.31252 575.000762121685
33.33263 569.009320467881
33.35274 577.966782654385
33.37286 548.998612655989
33.39297 576.983424550943
33.41308 558.017839343353
33.4332 569
33.45331 594.991329391083
33.47343 540.923958213605
33.49354 531.058729249571
33.51365 563.003051596148
33.53377 529.04585512293
33.55388 528.978068442658
33.57399 546.00325029579
33.59411 524.996110310458
33.61422 535.004856085141
33.63434 535.036393573651
33.65445 567.04519049449
33.67456 550.09110398071
33.69468 510.005863226547
33.71479 524.00438872855
33.7349 503
33.75502 549.002744313166
33.77513 499.939370490506
33.79524 512.097648329107
33.81536 542.059170470917
33.83547 486.012571116031
33.85559 521.998531296876
33.8757 483
33.89581 514.011175156591
33.91593 501.969260771619
33.93604 506.071781674358
33.95615 546.97261724002
33.97627 526.030391841101
33.99638 523.001573557125
34.0165 513
34.03661 509.004387512793
34.05672 515.986092153413
34.07684 489.980153818554
34.09695 509.911297663853
34.11706 532.013513784767
34.13718 511.005168547977
34.15729 540.972902091205
34.17741 577.994136501586
34.19752 529.959761845199
34.21763 509.954695519688
34.23775 501.186627342859
34.25786 602.982435552608
34.27797 516.09859028812
34.29809 544.959705700987
34.3182 602
34.33831 556.977892268591
34.35843 548.023870742774
34.37854 586.134618853072
34.39866 631.075285996817
34.41877 561.983251057345
34.43888 634.995740823849
34.459 564
34.47911 623.023489528438
34.49922 603.953018366263
34.51934 579.019369116007
34.53945 611.920382929651
34.55957 625.995559022015
34.57968 629.989883401755
34.59979 655.976962896628
34.61991 684.984827540442
34.64002 640.027488746948
34.66013 721.042297802255
34.68025 674.909106024529
34.70036 684.980124311444
34.72047 679.982480741552
34.74059 731.958282421665
34.7607 783
34.78082 694.958550277755
34.80093 743.127518778924
34.82104 800.029549143302
34.84116 775.096781625638
34.86127 740.000175416267
34.88138 778.939524531921
34.9015 824
34.92161 801.98637377725
34.94173 791.002543521134
34.96184 800.029141446969
34.98195 819.934252799173
35.00207 846.969659960731
35.02218 838.053351430401
35.04229 773.013750344282
35.06241 798.021916482726
35.08252 826.010287452339
35.10264 814.931259256085
35.12275 802.139042020621
35.14286 873.030245783159
35.16298 773.08202179958
35.18309 782.962785087349
35.2032 836
35.22332 765.986278979504
35.24343 817.039659480389
35.26354 786.940480291631
35.28366 783.01752724968
35.30377 773.960730326375
35.32389 821.989925053191
35.344 800
35.36411 778.983997433406
35.38423 767.088129408664
35.40434 860.078424584637
35.42445 820.142869719995
35.44457 795.006852106956
35.46468 797.99041691451
35.4848 808
35.50491 828.029985039553
35.52502 897.020810879413
35.54514 858.898011405412
35.56525 837.981786597495
35.58536 854.979591937096
35.60548 854.000233866825
35.62559 849.013581960159
35.64571 819.002256847921
35.66582 837.976336124247
35.68593 784.982683094872
35.70605 826.086061892864
35.72616 825.013880063761
35.74627 832.97897257643
35.76639 840.002189916065
35.7865 825
35.80661 814.004083638753
35.82673 811.923192928024
35.84684 741.9629098031
35.86696 804.79243509484
35.88707 865.044873371437
35.90718 795.013317096994
35.9273 822
35.94741 713.976890273769
35.96752 771.078525108006
35.98764 796.95931436438
36.00775 745.185347954502
36.02787 691.993866814123
36.04798 736.966550372541
36.06809 742.992778347194
36.08821 769.002123501466
36.10832 729.929612081629
36.12843 679.013033071474
36.14855 719.007772193193
36.16866 683.018406510328
36.18878 700.022906701342
36.20889 640.013670133354
36.229 666
36.24912 676.012063288963
36.26923 684.96669359034
36.28934 640.944108717725
36.30946 654.911479086331
36.32957 686.022213585498
36.34968 656.978739504869
36.3698 712
36.38991 670.996155795836
36.41003 712.035725778206
36.43014 702.00929591371
36.45025 742.875921231122
36.47037 765.023154126483
36.49048 751.960797158262
36.51059 802.015588434935
36.53071 710.981720737579
36.55082 734.977677412078
36.57094 659.946760328135
36.59105 721.219883495647
36.61116 773.97093630152
36.63128 742.084081150036
36.65139 664.003160501409
36.6715 704
36.69162 642.960787839123
36.71173 642.968971515137
36.73184 609.040643793604
36.75196 672.943061280466
36.77207 639.067613043866
36.79219 632.983800877746
36.8123 670
36.83241 640.979964411299
36.85253 623.01827855256
36.87264 639.976908697158
36.89275 620.930172943822
36.91287 671.011666732791
36.93298 619.002364849629
36.9531 662
36.97321 607.003226627866
36.99332 670.008227735341
37.01344 607.926571305862
37.03355 636.900018530605
37.05366 645.025533745637
37.07378 633.000703724535
37.09389 659.969864394398
37.11401 710.996150802028
37.13412 660.973362212708
37.15423 664.965661900493
37.17435 638.123806412703
37.19446 718.034162557668
37.21457 619.057521401999
37.23469 675.977802006364
37.2548 653
37.27491 657.025100291666
37.29503 700.970314228176
37.31514 640.961493826276
37.33526 662.039012847375
37.35537 601.033019145556
37.37548 639.958526850937
37.3956 646
37.41571 637.995320973349
37.43582 614.954362627263
37.45594 581.043652699015
37.47605 638.925982583643
37.49617 624.018265761582
37.51628 641.97200399009
37.53639 654.005137884106
37.55651 624.981213846506
37.57662 599.999422998836
37.59673 619.033140144842
37.61685 637.056605593199
37.63696 654.016599957796
37.65708 622.034322007662
37.67719 617.980943394109
37.6973 661
37.71742 631.00812362733
37.73753 681.044003307938
37.75764 663.945408947086
37.77776 654.001303104726
37.79787 652.00857216484
37.81798 635.03315011855
37.8381 620
37.85821 691.014366349994
37.87833 652.910753903639
37.89844 624.018861194843
37.91855 645.005258088263
37.93867 619.023915384798
37.95878 621.00584864798
37.97889 605.999709531786
37.99901 623.004716580129
38.01912 613.985492158266
38.03924 612.031643138008
38.05935 633.020129711867
38.07946 618.059978131619
38.09958 595.001396859156
38.11969 605.001669510392
38.1398 596
38.15992 636.024732488706
38.18003 627.967924575487
38.20015 622.047700054039
38.22026 649.978826755982
38.24037 639.016368997574
38.26049 625.020790023507
38.2806 579
38.30071 629.030365268275
38.32083 656.987393426796
38.34094 632.969282738541
38.36105 645.90799965303
38.38117 668.04119599749
38.40128 600.063852580721
38.4214 594
38.44151 660.999083938905
38.46162 597.957172876136
38.48174 609.036335766698
38.50185 622.889009535014
38.52196 657.105508935812
38.54208 572.98173099279
38.56219 673.985036721115
38.58231 601.974436850331
38.60242 630.043582379698
38.62253 632.953763562265
38.64265 600.982664325389
38.66276 612.007964221434
38.68287 593.001483154721
38.70299 612.994633311455
38.7231 597
38.74321 595.027803548155
38.76333 656.979928888159
38.78344 584.934899498751
38.80356 619.934139114688
38.82367 602.072668775494
38.84378 566.997214374388
38.8639 600
38.88401 600.987110442214
38.90412 577.003362130591
38.92424 611.084703543822
38.94435 627.059024537693
38.96447 581.056288033227
38.98458 573.984612108274
39.00469 584.007581485916
39.02481 553.992830104405
39.04492 563.009927460885
39.06503 567.02011601552
39.08515 580.975421966103
39.10526 563.966275825402
39.12538 601.994933673674
39.14549 574.00355884836
39.1656 610
39.18572 628.9823231683
39.20583 581.909591023532
39.22594 552.058116066604
39.24606 607.95744910833
39.26617 591.992869766509
39.28628 624.989750510938
39.3064 597
39.32651 586.999498106758
39.34663 593.034140857839
39.36674 613.981197913739
39.38685 594.948150180479
39.40697 639.994096301891
39.42708 604.009298785157
39.44719 616.019266540225
39.46731 554.007207661081
39.48742 626.010954395945
39.50754 562.936558549349
39.52765 590.022826013339
39.54776 554.062875114597
39.56788 548.008582555803
39.58799 526.008904560695
39.6081 523
39.62822 520.982128881348
39.64833 506.023320407757
39.66845 541.038905962904
39.68856 529.01845460818
39.70867 525.039604399975
39.72879 489.002182939215
39.7489 531
39.76901 561.98768461231
39.78913 519.001488624666
39.80924 553.994306194065
39.82935 507.062783458516
39.84947 519.001552763305
39.86958 505.973660870158
39.8897 551
39.90981 500.997485476995
39.92992 553.035321171243
39.95004 544.989786788528
39.97015 547.081472243208
39.99026 498.009196419275
40.01038 536.979432595538
40.03049 525.997006234923
40.05061 549.997099712142
40.07072 532.035056417952
40.09083 587.968769310916
40.11095 498.872889395383
40.13106 527.909585214339
40.15117 537.024698240832
40.17129 528.988103333928
40.1914 559
40.21152 522.007890765591
40.23163 566.004094300136
40.25174 524.979527530457
40.27186 562.942072832406
40.29197 559.00650018067
40.31208 566.999724154356
40.3322 566
40.35231 595.994762672385
40.37242 545.95789212385
40.39254 527.952046036625
40.41265 506.945870796248
40.43277 548.999933975133
40.45288 509.015529889468
40.47299 535.988451270162
40.49311 530.994415407506
40.51322 532.009700109164
40.53333 531.962985171233
40.55345 517.110670116555
40.57356 581.012561327702
40.59368 513.03142425899
40.61379 553.974405441836
40.6339 560
40.65402 523.991599790524
40.67413 542.019663930265
40.69424 537.995275425754
40.71436 552.942121302321
40.73447 572.018058386988
40.75458 535.034256230293
40.7747 522
40.79481 537.020569892717
40.81493 580.013165194883
40.83504 560.990218744651
40.85515 564.091852772778
40.87527 512.986691635801
40.89538 587.927615104259
40.91549 604.013337806923
40.93561 565.984392571352
40.95572 556.008329308619
40.97584 573.037712978358
40.99595 570.902166047936
41.01606 530.975169317472
41.03618 581.977449846434
41.05629 557.012429375242
41.0764 558
41.09652 553.994915238333
41.11663 549.986841244713
41.13675 551.078221275449
41.15686 577.071402032528
41.17697 507.029904272664
41.19709 547.985821071359
41.2172 531
41.23731 534.008712858903
41.25743 544.990906585203
41.27754 524.959644696346
41.29765 521.954756719108
41.31777 534.037945273224
41.33788 494.000238683202
41.358 540
41.37811 537.97795213557
41.39822 494.998167032547
41.41834 522.007638376242
41.43845 505.951842132957
41.45856 557.947203702817
41.47868 525.067690332272
41.49879 490.977744976262
41.51891 560.99839699931
41.53902 492.974030329819
41.55913 540.067179389143
41.57925 537.952185070796
41.59936 549.877589323477
41.61947 614.994008122551
41.63959 569.009952948186
41.6597 601
41.67982 609.003985209053
41.69993 616.997049819928
41.72004 589.893974518056
41.74016 547.983247703733
41.76027 580.014819751099
41.78038 541.986434678504
41.8005 597
41.82061 544.985647261664
41.84072 554.983560075852
41.86084 497.907954702762
41.88095 487.997981423384
41.90107 490.966720265018
41.92118 529.964337311411
41.94129 534.018208823967
41.96141 481.983435528252
41.98152 481.010844914986
42.00163 483.993552864825
42.02175 485.045780133897
42.04186 507.000777378516
42.06198 480.031809316541
42.08209 466.995879664735
42.1022 483
42.12232 471.975710540957
42.14243 467.062604693068
42.16254 514.971754657277
42.18266 460.011753438592
42.20277 513.947596518051
42.22289 494.016041129525
42.243 479
42.26311 469.000724912095
42.28323 494.075089631778
42.30334 541.026562511297
42.32345 533.959978880186
42.34357 572.973071234441
42.36368 563.001076276947
42.38379 584.988950306416
42.40391 581.984689784905
42.42402 555.010852439272
42.44414 582.980565452953
42.46425 538.949493639811
42.48436 558.962214252138
42.50448 547.031449735517
42.52459 521.003213470732
42.5447 535
42.56482 528.945106750093
42.58493 463.979360052079
42.60505 499.051963000343
42.62516 493.960235689418
42.64527 540.962763526413
42.66539 512.032583120362
42.6855 462
42.70561 506.023296569363
42.72573 535.04699915642
42.74584 549.918694778849
42.76595 477.103145193639
42.78607 488.963903945958
42.80618 495.998349517568
42.8263 495
42.84641 480.000776096708
42.86652 490.994617232936
42.88664 482.051889688318
42.90675 526.977997587012
42.92686 492.062939737403
42.94698 490.990550315948
42.96709 491.004685751399
42.98721 493.017030332706
43.00732 540.019440124779
43.02743 520.957322492658
43.04755 502.959874845533
43.06766 489.005417061342
43.08777 491.01315121311
43.10789 478.995988577196
43.128 499
43.14812 477.986967172587
43.16823 495.059777944938
43.18834 518.951972347553
43.20846 476.994662279547
43.22857 513.00638415477
43.24868 467.015131834628
43.2688 490
43.28891 458.002333223227
43.30902 503.024373153858
43.32914 477.914596281922
43.34925 456.9767586847
43.36937 479.982469498121
43.38948 473.008179819331
43.40959 472.999935026284
43.42971 475.006820231842
43.44982 499.022954652805
43.46993 501.962570697796
43.49005 467.96051330551
43.51016 474.98471500274
43.53028 480.975935707398
43.55039 515.990799087628
43.5705 502
43.59062 464.969138517777
43.61073 451.009348899277
43.63084 461.994128426802
43.65096 449.000796865589
43.67107 460.002044582401
43.69119 439.011930758405
43.7113 437
43.73141 483.02123479087
43.75153 499.984867818916
43.77164 480.983583010363
43.79175 485.004516849775
43.81187 468.034883214499
43.83198 464.964883708393
43.85209 507.998994421868
43.87221 484.006863766052
43.89232 525.996938370451
43.91244 475.948818427771
43.93255 487.981096743781
43.95266 447.060844055803
43.97278 468.927259169799
43.99289 518.024409753872
44.013 424
44.03312 501.044005080833
44.05323 484.021237448151
44.07335 535.002745928125
44.09346 466.143753068877
44.11357 456.919037403125
44.13369 516.996116140317
44.1538 478
44.17391 495.007768588262
44.19403 483.966880731465
44.21414 481.062182811678
44.23426 518.996127246815
44.25437 480.06315798042
44.27448 457.01862739732
44.2946 457
44.31471 513.998462103785
44.33482 459.973157198473
44.35494 485.048250683095
44.37505 482.0101477248
44.39516 478.057740441417
44.41528 438.011534939227
44.43539 461.98645295925
44.45551 476.008295540678
44.47562 488.987142119527
44.49573 451.944579264238
44.51585 447.088720050484
44.53596 488.989489403264
44.55607 463.013664621039
44.57619 473.008385281181
44.5963 428
44.61642 454.07308161983
44.63653 506.957522044851
44.65664 430.942023402537
44.67676 467.944639875351
44.69687 445.059976529108
44.71698 436.960273530844
44.7371 481
44.75721 429.993156906618
44.77732 473.042768546919
44.79744 480.989397900751
44.81755 481.986875865568
44.83767 492.969857262474
44.85778 497.040861855875
44.87789 441.005824262497
44.89801 472.006329122934
44.91812 461.020595204434
44.93823 505.005429180462
44.95835 468.971239097808
44.97846 494.974857617909
44.99858 479.008948462215
45.01869 491.992882461246
45.0388 492
45.05892 492.022569025367
45.07903 520.003832808127
45.09914 498.975780109228
45.11926 505.991843879493
45.13937 494.0286178153
45.15949 487.990736941522
45.1796 508
45.19971 482.008414859554
45.21983 537.048944524099
45.23994 513.895455572447
45.26005 477.998495691883
45.28017 491.027646405185
45.30028 459.980412665171
45.32039 514.994277541047
45.34051 480.998751263123
45.36062 516.001702146203
45.38074 472.943191588567
45.40085 488.071929471564
45.42096 497.030102805413
45.44108 480.989603540602
45.46119 508.99542179489
45.4813 477
45.50142 443.029582914917
45.52153 518.094898834022
45.54165 528.934281564139
45.56176 495.053047005198
45.58187 487.984468802697
45.60199 504.99258531395
45.6221 504
45.64221 483.003589341195
45.66233 508.007742841097
45.68244 482.943816347055
45.70256 486.911302852631
45.72267 538.973274557515
45.74278 530.98399360734
45.7629 562
45.78301 507.984386451647
45.80312 512.992114638327
45.82324 476.940213228019
45.84335 480.920300567587
45.86346 511.98628753983
45.88358 493.023180987712
45.90369 487.992879367122
45.92381 502.997995075011
45.94392 486.998767364682
45.96403 497.991137329274
45.98415 477.994728565433
46.00426 507.9121318961
46.02437 538.987700542343
46.04449 521.018860127863
46.0646 490
46.08472 512.024890310772
46.10483 517.981143284397
46.12494 495.955044277357
46.14506 495.926585377188
46.16517 534.01636000505
46.18528 487.019548294467
46.2054 505
46.22551 469.979721146663
46.24563 461.043024235979
46.26574 495.001167205172
46.28585 462.069498272094
46.30597 463.972693795963
46.32608 484.97648671643
46.34619 496.008363943468
46.36631 467.996380333124
46.38642 492.033859178521
46.40653 519.036037406324
46.42665 523.913529073117
46.44676 477.021620535577
46.46688 502.984502335016
46.48699 490.00616344062
46.5071 497
46.52722 496.969572925457
46.54733 454.970512972534
46.56744 467.039523425223
46.58756 475.993597967073
46.60767 478.995362911569
46.62779 482.99733671531
46.6479 482
46.66801 459.993907692786
46.68813 470.042656491025
46.70824 492.993901230037
46.72835 471.032837365954
46.74847 469.023910027088
46.76858 448.988699332681
46.78869 491.980396378555
46.80881 487.9741365097
46.82892 441.015495790571
46.84904 502.063558684677
46.86915 481.948000861996
46.88926 486.986686158074
46.90938 471.038524701319
46.92949 448.982951709953
46.9496 510
46.96972 467.949057705323
46.98983 450.009697909761
47.00995 469.070540876419
47.03006 496.958730176244
47.05017 498.036749554881
47.07029 459.017931962463
47.0904 452
47.11051 494.008853381779
47.13063 483.990972219438
47.15074 488.983097675789
47.17086 467.021455905713
47.19097 481.954094982741
47.21108 507.989376867449
47.2312 497
47.25131 467.991457290823
47.27142 468.010051292714
47.29154 479.019466833827
47.31165 483.010621082793
47.33176 462.086883852536
47.35188 429.980030562208
47.37199 489.976565476039
47.39211 491.988832748259
47.41222 458.949932841348
47.43233 424.029490806669
47.45245 477.063683101696
47.47256 463.010669699709
47.49267 484.970575935527
47.51279 495.98728179787
47.5329 517
47.55302 460.97362245415
47.57313 475.009408857434
47.59324 462.00826936282
47.61336 482.004035819443
47.63347 449.052382803261
47.65358 446.962858081435
47.6737 491
47.69381 460.979292957776
47.71393 451.052303948531
47.73404 496.013196822902
47.75415 468.026109554024
47.77427 491.965214617731
47.79438 490.016600446148
47.81449 469.012686690198
47.83461 448.997866053566
47.85472 459.012638999808
47.87483 465.0021708558
47.89495 472.051019835636
47.91506 486.040749153067
47.93518 444.022521101515
47.95529 469.968715023164
47.9754 509
47.99552 435.97140465102
48.01563 478.084185996398
48.03574 487.918180523821
48.05586 438.02308745329
48.07597 468.953786649169
48.09609 472.005057643108
48.1162 469
48.13631 475.991591527088
48.15643 454.019201419634
48.17654 489.009353105752
48.19665 467.974392718018
48.21677 496.037285095431
48.23688 450.961231327951
48.257 547
48.27711 463.957029914456
48.29722 457.053879872055
48.31734 504.985641777625
48.33745 454.920704030641
48.35756 465.964572118164
48.37768 459.02706277377
48.39779 443.987524095938
48.4179 496
48.43802 496.982887074165
48.45813 486.001567110666
48.47825 490.987677588657
48.49836 473.039953803531
48.51847 467.975519727205
48.53859 487.001835709375
48.5587 458
48.57881 451.010987690509
48.59893 485.036220550753
48.61904 499.04922693397
48.63916 522.024620247197
48.65927 482.039411765111
48.67938 481.005136150157
48.6995 468
48.71961 493.01032795689
48.73972 489.977897282071
48.75984 468.992212463638
48.77995 476.010130888024
48.80006 461.007438466332
48.82018 475.981243262196
48.84029 478.010285052543
48.86041 444.985531851444
48.88052 447.043884416018
48.90063 497.013067099061
48.92075 468.966582755135
48.94086 485.976115373304
48.96097 479.006834969681
48.98109 481.004344480119
49.0012 461
49.02132 474.045439506486
49.04143 516.999745751655
49.06154 479.945603680186
49.08166 485.967194227809
49.10177 490.012727834949
49.12188 481.994329460028
49.142 505
49.16211 522.997354155607
49.18223 502.977009966671
49.20234 510.055912057049
49.22245 534.01023308236
49.24257 506.035446900453
49.26268 504.988016084745
49.28279 515.997255099617
49.30291 512.994975477262
49.32302 506.004869733239
49.34313 509.972442908848
49.36325 473.932349786354
49.38336 480.920028610483
49.40348 515.010524690962
49.42359 477.004801856759
49.4437 501
49.46382 480.993298579296
49.48393 501.029870579738
49.50404 490.913438099455
49.52416 458.944104667774
49.54427 522.959118342057
49.56439 498.01007189214
49.5845 506
49.60461 482.982440424803
49.62473 461.005388402499
49.64484 499.13758216987
49.66495 552.01875644732
49.68507 505.031828129341
49.70518 527.979496929221
49.7253 516
49.74541 490.990347424582
49.76552 494.039513752731
49.78564 535.99119283032
49.80575 480.846717863276
49.82586 461.942134975484
49.84598 512.958638910708
49.86609 524.004620546174
49.8862 513
49.90632 524.026607850008
49.92643 538.963221037553
49.94655 491.939324309693
49.96666 515.894395455746
49.98677 565.949326953111
50.00689 576.004333098424
50.027 561
50.04711 563.012886603281
50.06723 615.108238004668
50.08734 655.926124087767
50.10746 580.056739573648
50.12757 610.974944974921
50.14768 580.03821713077
50.1678 562
50.18791 543.985563859458
50.20802 525.015174282557
50.22814 557.014147902914
50.24825 538.011642132446
50.26837 545.036414738487
50.28848 495.026359609551
50.30859 504.994923556293
50.32871 495.994369894487
50.34882 484.9752052704
50.36893 454.982011590395
50.38905 467.048060296317
50.40916 486.939407378231
50.42927 513.005091977707
50.44939 483.014194827226
50.4695 466
50.48962 449.02024069987
50.50973 500.066084910513
50.52984 498.904995311872
50.54996 461.934787703652
50.57007 528.98960291804
50.59018 472.029934163407
50.6103 503
50.63041 502.991264672477
50.65053 481.958336548328
50.67064 473.078225479186
50.69075 527.979233149423
50.71087 496.005926498879
50.73098 532.977812196546
50.75109 532.987126843174
50.77121 591.023929317527
50.79132 583.934857636391
50.81143 522.010003769014
50.83155 579.059965246636
50.85166 542.085669519118
50.87178 541.963009055458
50.89189 577.000418911162
50.912 550
50.93212 567.00959073118
50.95223 560.001537712135
50.97234 562.948808000955
50.99246 515.064981144985
51.01257 516.971974513959
51.03269 523.009221584098
51.0528 496
51.07291 514.010841652614
51.09303 514.966148796634
51.11314 487.981775088987
51.13325 503.934911382227
51.15337 498.097776049277
51.17348 427.991795691255
51.1936 489
51.21371 431.991838657366
51.23382 469.000755579396
51.25394 426.996382127031
51.27405 469.97663830619
51.29416 431.047254895026
51.31428 444.989765508587
51.33439 435.002681197209
51.3545 437
51.37462 423.020313171013
51.39473 462.009308599481
51.41485 439.005983373134
51.43496 471.972024327743
51.45507 444.065285638568
51.47519 415.004990415844
51.4953 424
51.51541 455.017318070066
51.53553 472.975947110608
51.55564 433.933161694738
51.57576 428.963139951006
51.59587 456.957318826511
51.61598 474.994905187716
51.6361 465
51.65621 450.0099220705
51.67632 481.996285898183
51.69644 445.965818882417
51.71655 458.991317852823
51.73667 441.01738328548
51.75678 449.984058003808
51.77689 462.993267127101
51.79701 474.000913700557
51.81712 453.952292108144
51.83723 413.010356006537
51.85735 457.073443130524
51.87746 454.998553943327
51.89757 468.994959912606
51.91769 456.005528198094
51.9378 457
51.95792 451.978859779867
51.97803 434.016260497387
51.99814 457.991706208107
52.01826 432.000215710075
52.03837 456.99740507875
52.05848 432.006594212501
52.0786 461
52.09871 474.994553535481
52.11883 452.974839795733
52.13894 451.012924127987
52.15905 456.000335423921
52.17917 449.017876478353
52.19928 442.990985051706
52.21939 457.000168007002
52.23951 447.002165495247
52.25962 457.986033581897
52.27974 433.019394238159
52.29985 474.058384885181
52.31996 456.068749439714
52.34008 433.008182742577
52.36019 440.988882196258
52.3803 464
52.40042 454.972593180767
52.42053 426.981139561601
52.44064 444.090174388679
52.46076 482.007764131014
52.48087 442.053816873356
52.50099 438.99054029934
52.5211 455
52.54121 447.004649765014
52.56133 481.062345038736
52.58144 497.953082286088
52.60155 452.084770028791
52.62167 451.966842204762
52.64178 474.98601293402
52.6619 475
52.68201 466.999755539032
52.70212 482.032235591287
52.72224 503.963878951819
52.74235 462.048575581316
52.76246 478.957290189165
52.78258 484.99729257444
52.80269 474.023530734529
52.8228 413
52.84292 444.074681848367
52.86303 499.985293514368
52.88315 442.902788706717
52.90326 451.955579417278
52.92337 469.953904217976
52.94349 495.008435998752
52.9636 452
52.98371 472.007843842772
53.00383 471.016199718148
53.02394 490.995883089392
53.04406 473.987157511351
53.06417 497.008463886628
53.08428 475.97766474742
53.1044 522
53.12451 452.973209110195
53.14462 455.023859865243
53.16474 482.089543347255
53.18485 512.082204593787
53.20497 452.999785942859
53.22508 501.997981645687
53.24519 459.993522840474
53.26531 525.007290998353
53.28542 464.943344903611
53.30553 465.049788419551
53.32565 498.056200704855
53.34576 506.995918678072
53.36587 499.041694545971
53.38599 469.002068396604
53.4061 493
53.42622 506.009079358283
53.44633 498.932733822344
53.46644 461.071795200945
53.48656 540.94786075408
53.50667 491.076786790034
53.52678 483.991577596468
53.5469 494
53.56701 526.005667827871
53.58713 507.954943405256
53.60724 497.04469802275
53.62735 538.918004485977
53.64747 530.082952598728
53.66758 490.954628964864
53.68769 577.991668722997
53.70781 517.984425467224
53.72792 550.024629859861
53.74804 542.008285392
53.76815 566.017001306968
53.78826 553.991204974957
53.80838 563.033365801634
53.82849 507.005517624346
53.8486 562
53.86872 586.952137676659
53.88883 515.969325147726
53.90894 563.117142781438
53.92906 577.063614727937
53.94917 540.995934440521
53.96929 573.994172676932
53.9894 553
54.00951 578.0271361009
54.02963 622.003448871132
54.04974 588.938045656571
54.06985 581.994171099726
54.08997 585.980680497859
54.11008 587.038939855312
54.1302 535
54.15031 574.018312366211
54.17042 580.999838165947
54.19054 575.939876488303
54.21065 549.930297563326
54.23076 606.977805130729
54.25088 570.011965790872
54.27099 596.996597353407
54.29111 587.017802234636
54.31122 643.991177783122
54.33133 578.96318341511
54.35145 606.992320910509
54.37156 554.075066340763
54.39167 557.989122481633
54.41179 560.985278144664
54.4319 596
54.45201 552.996660168724
54.47213 593.044286723508
54.49224 578.931704299544
54.51236 560.976728745443
54.53247 578.022695959502
54.55258 529.046343697997
54.5727 529
54.59281 588.002809693891
54.61292 540.958999225577
54.63304 555.120298742492
54.65315 610.977687938073
54.67327 571.072673164275
54.69338 546.009134373515
54.71349 542.000829518191
54.73361 545.006392969005
54.75372 564.016205468329
54.77383 580.040296666471
54.79395 602.981839382823
54.81406 571.049045322992
54.83417 565.01173994126
54.85429 546.009373918343
54.8744 551
54.89452 596.003760873469
54.91463 566.987173054947
54.93474 573.929852210653
54.95486 520.976319850641
54.97497 592.932874179538
54.99508 560.074032113796
55.0152 512
55.03531 563.021930048357
55.05543 564.95928872743
55.07554 526.914234306774
55.09565 488.076634466488
55.11577 494.894457467146
55.13588 572.997467775654
55.15599 511.01614856754
55.17611 550.028947674864
55.19622 573.988612717821
55.21634 552.993071272893
55.23645 553.914181919047
55.25656 510.96898915863
55.27668 565.991663054248
55.29679 522.007896735108
55.3169 544
55.33702 498.990861033123
55.35713 548.089667747484
55.37724 571.975507756704
55.39736 543.050995100842
55.41747 535.989428252139
55.43759 539.007360610655
55.4577 517
55.47781 520.99015128247
55.49793 497.035934543573
55.51804 549.015581436871
55.53815 500.114471838504
55.55827 493.982929554209
55.57838 506.978975803003
55.5985 522
55.61861 495.996967759161
55.63872 511.003430705816
55.65884 491.960588853956
55.67895 490.960783448372
55.69906 502.026240665355
55.71918 475.010702451306
55.73929 490.988498118105
55.75941 499.996642276239
55.77952 493.00983357541
55.79963 515.018354544905
55.81975 504.942196442263
55.83986 493.964860274535
55.85997 511.043637422316
55.88009 463.995181607821
55.9002 528
55.92031 517.993421878039
55.94043 515.963463132733
55.96054 473.958103047139
55.98066 486.956963957803
56.00077 488.034974125484
56.02088 466.987817241268
56.041 491
56.06111 445.995901786245
56.08122 484.028699160621
56.10134 476.971548380055
56.12145 474.996547852303
56.14157 481.964472323737
56.16168 514.976842809559
56.18179 513.011847829809
56.20191 480.985101897879
56.22202 480.044468075688
56.24213 528.992941958738
56.26225 475.905012515833
56.28236 484.949089716446
56.30248 499.992079893478
56.32259 499.007646492094
56.3427 476
56.36282 472.00810451087
56.38293 484.014755110739
56.40304 488.000536880267
56.42316 483.02762700296
56.44327 477.962251126698
56.46338 505.021363642438
56.4835 464
56.50361 530.010386897472
56.52373 480.922995533478
56.54384 477.053411038413
56.56395 499.997186013483
56.58407 491.97993882703
56.60418 512.018928529338
56.62429 459.017971494581
56.64441 463.008187051605
56.66452 480.033101211094
56.68464 511.994949835018
56.70475 486.993895361717
56.72486 504.022979231279
56.74498 462.026146423532
56.76509 460.007668231346
56.7852 434
56.80532 465.014427399624
56.82543 451.987834498829
56.84554 483.143984443393
56.86566 535.064780567734
56.88577 454.044201072028
56.90589 493.986343575996
56.926 471
56.94611 473.013178323114
56.96623 500.015300679853
56.98634 482.924943710207
57.00645 451.015220592078
57.02657 473.947137836401
57.04668 501.982713044457
57.0668 500
57.08691 477.007500297091
57.10702 518.02052229291
57.12714 500.948727945453
57.14725 492.981313861442
57.16736 497.032072304298
57.18748 475.993875684563
57.20759 504.992358656606
57.22771 487.984304011311
57.24782 472.011848731339
57.26793 492.998506667849
57.28805 468.957485786689
57.30816 464.03459857532
57.32827 447.96448887977
57.34839 501.982161656638
57.3685 497
57.38861 484.996999748848
57.40873 472.958640352961
57.42884 442.981715395954
57.44896 467.902177625213
57.46907 511.971188286432
57.48918 500.029980352562
57.5093 480
57.52941 492.9939765923
57.54952 463.9950988082
57.56964 488.033739355527
57.58975 468.125860532129
57.60987 432.969223642919
57.62998 475.011212463327
57.65009 424.999626635198
57.67021 486.020430483794
57.69032 482.005755260225
57.71043 510.011810095737
57.73055 485.936140594093
57.75066 481.978376856743
57.77078 489.008614071152
57.79089 478.992621333039
57.811 504
57.83112 470.984249493135
57.85123 486.022773051024
57.87134 477.951560896387
57.89146 458.003451854012
57.91157 473.970927714885
57.93168 482.004144970774
57.9518 468
57.97191 450.997105006528
57.99203 460.029958101374
58.01214 473.989092034089
58.03225 451.062003171324
58.05237 443.977085960603
58.07248 477.95590061493
58.09259 499.013752921466
58.11271 443.982304365226
58.13282 444.005034189506
58.15294 437.994622008064
58.17305 455.09682774907
58.19316 477.071589505782
58.21328 418.006100897681
58.23339 468.981977034044
58.2535 462
58.27362 478.017625683384
58.29373 490.029595391805
58.31385 500.930116982154
58.33396 459.000668333212
58.35407 489.009321760674
58.37419 433.02601414787
58.3943 420
58.41441 443.024139820961
58.43453 494.02903208797
58.45464 474.93896710039
58.47475 442.129966977226
58.49487 411.92365850929
58.51498 509.949208799367
58.5351 484
58.55521 464.985068986254
58.57532 434.008976114098
58.59544 479.071883833961
58.61555 469.120303862532
58.63566 431.967499671393
58.65578 477.990592435957
58.67589 444.008939636199
58.69601 462.007139611518
58.71612 454.993497368524
58.73623 451.972845565045
58.75635 421.950769103388
58.77646 431.925834523411
58.79657 462.013907123818
58.81669 428.005798069075
58.8368 451
58.85691 447.990051543741
58.87703 440.03603619912
58.89714 476.015104808628
58.91726 453.03060692218
58.93737 458.995462059287
58.95748 452.996753208293
58.9776 467
58.99771 466.002171870132
59.01782 470.986767792958
59.03794 436.923809079977
59.05805 429.892106378104
59.07817 475.031676154119
59.09828 412.011935687111
59.11839 456.992591638711
59.13851 424.995805419062
59.15862 465.042822465877
59.17873 473.974831122909
59.19885 453.978439961373
59.21896 460.975048507076
59.23908 454.0412565264
59.25919 421.981862874263
59.2793 505
59.29942 486.964944653612
59.31953 470.985977038169
59.33964 454.953815833261
59.35976 437.993277824409
59.37987 456.976323026825
59.39998 454.018663839187
59.4201 434
59.44021 440.007850022771
59.46033 465.059216403362
59.48044 497.999051763681
59.50055 463.108062128309
59.52067 439.003701155563
59.54078 449.985887721451
59.56089 460.99415975145
59.58101 468.997934888567
59.60112 452.98092228354
59.62124 447.029675019355
59.64135 468.01159849213
59.66146 454.024938875977
59.68158 454.993517229098
59.70169 460.996300250753
59.7218 483
59.74192 526.999541426069
59.76203 480.922119734237
59.78215 467.073168055904
59.80226 511.945777376669
59.82237 516.983359031596
59.84249 541.991013203309
59.8626 536
59.88271 511.998790712208
59.90283 544.089904506459
59.92294 579.931156096905
59.94305 509.065743715673
59.96317 537.978149760469
59.98328 509.031816348002
60.0034 490
60.02351 458.001005655943
60.04362 487.013688939555
60.06374 475.993702237002
60.08385 481.047191427883
60.10396 446.021483839678
60.12408 480.938535571214
60.14419 516.013135997246
60.16431 457.987598803189
60.18442 480.0182059629
60.20453 472.994954508333
60.22465 475.958336340664
60.24476 443.038602939013
60.26487 449.975224013004
60.28499 467.986096495213
60.3051 483
60.32522 435.993815229962
60.34533 465.000790379499
60.36544 442.04352601153
60.38556 493.008555477415
60.40567 447.980639355958
60.42578 513.985166213775
60.4459 458
60.46601 464.00203944344
60.48612 451.004747681987
60.50624 470.995781929139
60.52635 447.020380644551
60.54647 458.006060026868
60.56658 436.008406929103
60.58669 465.969284615294
60.60681 513.997690067211
60.62692 465.956907383564
60.64703 459.019470048324
60.66715 461.948033900524
60.68726 438.979023344583
60.70738 487.943489273961
60.72749 499.028713741334
60.7476 430
60.76772 492.035387963206
60.78783 467.956849465165
60.80794 471.034337262644
60.82806 478.020099366184
60.84817 460.014821694853
60.86828 463.992306156796
60.8884 470
60.90851 474.994674842154
60.92863 460.005718169114
60.94874 477.003039550809
60.96885 461.017064963484
60.98897 466.01053703909
61.00908 452.988884067706
61.02919 478.000873237372
61.04931 452.997990863733
61.06942 476.011963136542
61.08954 459.95385358732
61.10965 455.044426045521
61.12976 478.982824857885
61.14988 466.019472032134
61.16999 455.99966152742
61.1901 477
61.21022 515.980042337418
61.23033 455.95093718407
61.25045 477.08690458606
61.27056 494.980355683893
61.29067 494.035378946894
61.31079 470.993475900904
61.3309 503
61.35101 470.997141375637
61.37113 497.010274731861
61.39124 477.997923953372
61.41135 499.984635100084
61.43147 485.999508122477
61.45158 504.992646045315
61.4717 491
61.49181 485.997433069259
61.51192 485.017362341666
61.53204 510.014732676342
61.55215 500.997791453145
61.57226 524.932494209868
61.59238 550.986688274768
61.61249 552.003163300831
61.63261 536.985107502544
61.65272 514.012055457069
61.67283 539.9859487654
61.69295 495.928511511675
61.71306 521.86047509102
61.73317 574.026642251665
61.75329 504.025917200202
61.7734 508
61.79352 530.017034766996
61.81363 551.048212586114
61.83374 566.929565842052
61.85386 525.931658805025
61.87397 614.936980894037
61.89408 576.052448547153
61.9142 567
61.93431 599.011508671028
61.95442 599.981866723907
61.97454 571.93769644564
61.99465 552.993399664293
62.01477 578.937585661482
62.03488 615.981113585935
62.05499 621.994348709314
62.07511 643.008237585467
62.09522 637.970482178032
62.11533 615.027010561598
62.13545 661.066003273889
62.15556 644.074034525854
62.17568 626.979800939495
62.19579 661.995118583763
62.2159 646
62.23602 654.979139697282
62.25613 622.021201157791
62.27624 678.066738364911
62.29636 659.074025599316
62.31647 645.97125690157
62.33659 660.018437174281
62.3567 595
62.37681 608.989858866031
62.39693 572.054412749225
62.41704 661.061977390705
62.43715 622.027414495954
62.45727 657.994437156744
62.47738 617.018531103499
62.49749 633.002181158408
62.51761 592.982210518667
62.53772 589.015466570351
62.55784 619.102864325637
62.57795 649.902084089563
62.59806 575.051594082019
62.61818 597.015313222285
62.63829 534.017583111336
62.6584 558
62.67852 583.023484108948
62.69863 595.969974577582
62.71875 553.924525863209
62.73886 544.028206449314
62.75897 522.012939605526
62.77909 538.983234087765
62.7992 564
62.81931 544.992582913686
62.83943 547.013250277625
62.85954 542.94692106346
62.87965 510.032124907642
62.89977 521.976786957401
62.91988 526.998317726885
62.94 536
62.96011 549.994279245556
62.98022 532.014208930522
63.00034 571.034834287268
63.02045 546.104667231702
63.04056 516.027943690726
63.06068 516.98899577335
63.08079 525.001614777804
63.10091 525.01292604379
63.12102 553.986407044006
63.14113 509.975317407808
63.16125 530.020101175596
63.18136 516.989806294256
63.20147 536.01580235976
63.22159 502.003725057553
63.2417 526
63.26182 506.980598117313
63.28193 509.024815002313
63.30204 514.954179011442
63.32216 490.957175139502
63.34227 541.973016306907
63.36238 510.036308120113
63.3825 512
63.40261 545.996505093861
63.42272 503.966304336394
63.44284 506.0450881502
63.46295 523.992292804157
63.48307 511.030127647423
63.50318 498.000320746741
63.52329 501.004272047191
63.54341 488.002350261621
63.56352 505.001731928614
63.58363 481.955492589697
63.60375 477.083813601467
63.62386 525.94683875339
63.64398 509.04473289191
63.66409 474.999875150967
63.6842 505
63.70432 516.998319423823
63.72443 523.043182588731
63.74454 553.994110332508
63.76466 516.075125140579
63.78477 497.024919976172
63.80489 493.980837879607
63.825 550
63.84511 525.985773134327
63.86523 516.990925102888
63.88534 514.033683156534
63.90545 548.915436306842
63.92557 556.040584922357
63.94568 518.017891357172
63.96579 524.99702080639
63.98591 526.008980386223
64.00602 552.00283255442
64.02614 528.959059500011
64.04625 526.004011651553
64.06636 524.995744313637
64.08648 535.980306159657
64.10659 538.021057196397
64.1267 479
64.14682 507.034591942506
64.16693 514.985290953497
64.18705 513.056391567116
64.20716 545.97615525714
64.22727 526.047526300895
64.24739 504.005255552409
64.2675 500
64.28761 506.016090621048
64.30773 542.00081548734
64.32784 506.936583018347
64.34796 494.033469930979
64.36807 464.04406548332
64.38818 451.991185119454
64.4083 482
64.42841 520.001594768728
64.44852 486.954327844412
64.46864 466.036846921067
64.48875 498.980896572882
64.50886 470.074299080422
64.52898 449.008303273327
64.54909 457.982775098344
64.56921 499.009828744573
64.58932 489.982340355759
64.60943 474.969007855717
64.62955 447.937207369583
64.64966 443.942817138046
64.66977 480.98604144716
64.68989 469.993972320637
64.71 510
64.73012 508.988327188677
64.75023 493.954882028572
64.77034 454.941392135168
64.79046 453.944219821754
64.81057 483.993442002879
64.83068 467.006356429757
64.8508 479
64.87091 473.000040854613
64.89102 479.996640070857
64.91114 460.95491239866
64.93125 454.952719663656
64.95137 480.990091882598
64.97148 466.012335089275
64.99159 467.998052024534
65.01171 465.998373644955
65.03182 460.988219458463
65.05193 451.008395185923
65.07205 476.085826789154
65.09216 487.070882100468
65.11228 429.032894172376
65.13239 447.974777161523
65.1525 488
65.17262 476.004635668049
65.19273 489.970576581283
65.21284 434.902257880959
65.23296 429.92796061176
65.25307 473.967986139082
65.27319 460.015799305017
65.2933 445
65.31341 472.998056998814
65.33353 435.95505918434
65.35364 432.003103962352
65.37375 438.918710701813
65.39387 470.027596843772
65.41398 418.021239779374
65.43409 443.987230980141
65.45421 444.999848303577
65.47432 449.993625514467
65.49444 444.045658614063
65.51455 471.952273090213
65.53466 418.047684199405
65.55478 445.962845678881
65.57489 466.989285169909
65.595 486
65.61512 455.959617685945
65.63523 428.992376173365
65.65535 439.025284377126
65.67546 438.017024969387
65.69557 430.999959522275
65.71569 435.000305375596
65.7358 437
65.75591 463.00141888112
65.77603 449.006167847905
65.79614 465.97965173185
65.81626 431.033738180198
65.83637 446.968240718342
65.85648 448.017047161586
65.8766 433
65.89671 447.997876729816
65.91682 428.999680599124
65.93694 456.059086817742
65.95705 459.070677001837
65.97716 428.000158948229
65.99728 451.992672013463
66.01739 430.011588212827
66.03751 426.003885853512
66.05762 426.983100936661
66.07773 413.031507655263
66.09785 458.064078676077
66.11796 443.067938923633
66.13807 420.004751664277
66.15819 424.005116285632
66.1783 407
66.19842 439.033722107694
66.21853 449.982037056412
66.23864 428.96841333514
66.25876 429.969137922335
66.27887 442.010628996484
66.29898 419.019762091348
66.3191 415
66.33921 427.010810848646
66.35933 451.023207710214
66.37944 446.952089804828
66.39955 423.007675550437
66.41967 442.963361202741
66.43978 449.017013717703
66.45989 428.000519189049
66.48001 445.004575491531
66.50012 432.979275142913
66.52023 428.034589368028
66.54035 460.022982467363
66.56046 448.994567642287
66.58058 464.008171461805
66.60069 436.004363447242
66.6208 451
66.64092 433.985890985761
66.66103 438.020282743773
66.68114 440.961765653808
66.70126 422.963604086898
66.72137 462.981848916976
66.74149 433.018222589409
66.7616 413
66.78171 399.999999148161
66.80183 424.072663301775
66.82194 456.952701523072
66.84205 408.996166315171
66.86217 462.946797302015
66.88228 440.050647338168
66.90239 409.995497420309
66.92251 448.019188766727
66.94262 457.980655072747
66.96274 432.988358244022
66.98285 447.025100648464
67.00296 437.044585265875
67.02308 423.989470064805
67.04319 442.002507739744
67.0633 422
67.08342 452.020326448331
67.10353 448.993267117833
67.12365 451.994147743238
67.14376 440.025820977397
67.16387 433.999470378242
67.18399 423.01963735798
67.2041 389
67.22421 446.008950850309
67.24433 407.943707857955
67.26444 403.008206649791
67.28456 398.017249357595
67.30467 400.963372119467
67.32478 437.969811701714
67.3449 447
67.36501 434.996050192631
67.38512 435.003604231743
67.40524 429.957024513287
67.42535 415.936032206567
67.44546 464.952864383407
67.46558 455.003078991761
67.48569 467.002649204027
67.50581 444.997248967866
67.52592 459.003508765774
67.54603 451.013965660448
67.56615 466.957964112218
67.58626 441.938147369169
67.60637 505.985639812766
67.62649 446.028356264891
67.6466 448
67.66672 494.023098574785
67.68683 487.973942605206
67.70694 479.003255880456
67.72706 485.990295533501
67.74717 489.982413320741
67.76728 498.015964192679
67.7874 465
67.80751 474.016874415995
67.82763 503.001111292454
67.84774 481.973892161121
67.86785 485.998094355047
67.88797 469.042991508111
67.90808 445.008438794849
67.92819 458.983768556934
67.94831 470.978049285215
67.96842 420.026697011342
67.98853 514.09882999988
68.00865 501.884974912448
68.02876 473.008005316617
68.04888 480.003262309398
68.06899 475.986980960771
68.0891 510
68.10922 461.977937536686
68.12933 487.046977205492
68.14944 495.996336171978
68.16956 495.00029014301
68.18967 489.027661208592
68.20979 478.986885984274
68.2299 524
68.25001 507.994348866597
68.27013 510.982774934905
68.29024 476.929000944216
68.31035 469.922321051503
68.33047 506.998818958569
68.35058 459.066720346032
68.3707 421
68.39081 459.014439479133
68.41092 458.988378755212
68.43104 454.005394722347
68.45115 456.987238197697
68.47126 438.059613683778
68.49138 415.997831411323
68.51149 442.982041340353
68.5316 464
68.55172 434.950515674252
68.57183 407.045676794931
68.59195 456.983938856113
68.61206 405.021432355059
68.63217 447.966056506231
68.65229 422.014383555244
68.6724 417
68.69251 419.009989212106
68.71263 456.054882904273
68.73274 459.911686006774
68.75286 408.999866489611
68.77297 445.000625208979
68.79308 396.036844734955
68.8132 418
68.83331 464.987193927388
68.85342 393.963598831133
68.87354 417.056451774075
68.89365 415.034585914525
68.91376 416.946111628311
68.93388 450.986720612066
68.95399 434.014597669356
68.97411 420.005509250329
68.99422 441.006043605334
69.01433 421.95596491774
69.03445 394.935133427635
69.05456 393.901142786171
69.07467 453.993520241189
69.09479 400.024129625689
69.1149 403
69.13502 435.006568450996
69.15513 430.026555467286
69.17524 457.982804221146
69.19536 421.019909331169
69.21547 440.007590590098
69.23558 405.017332888543
69.2557 421
69.27581 425.003424703012
69.29593 432.986314878525
69.31604 402.927576638256
69.33615 392.913671901156
69.35627 443.969336123144
69.37638 423.026476061987
69.39649 426.982652563158
69.41661 458.997516203442
69.43672 432.000019945097
69.45683 443.940308088203
69.47695 384.039214465884
69.49706 457.962495933729
69.51718 404.031284013638
69.53729 430.987158853033
69.5574 429
69.57752 451.021288053495
69.59763 457.997218425115
69.61774 451.978127331224
69.63786 442.004129744185
69.65797 444.006849650544
69.67809 435.99875923867
69.6982 443
69.71831 422.996093878099
69.73843 436.028167456617
69.75854 440.972695289511
69.77865 423.007191219516
69.79877 432.002411701808
69.81888 417.008516821655
69.839 430
69.85911 439.979252814969
69.87922 389.013911511186
69.89934 447.013929629339
69.91945 398.968438863538
69.93956 437.966777597004
69.95968 414.009096704844
69.97979 438.988654502495
69.9999 434
70.02002 414.99354469572
70.04013 424.027030602299
70.06025 433.977635642171
70.08036 406.071407201058
70.10047 402.910874719374
70.12059 480.989287578617
70.1407 440
70.16081 437.994221117828
70.18093 416.013711057842
70.20104 447.004217161226
70.22116 415.040654114811
70.24127 432.943668299469
70.26138 458.001612037774
70.2815 432
70.30161 409.99705432917
70.32172 420.021724306719
70.34184 440.017090785085
70.36195 428.079634941374
70.38207 395.022918400985
70.40218 398.993750077971
70.42229 405.988448071279
70.44241 434.002869849167
70.46252 419.995653891588
70.48263 418.950347087421
70.50275 386.088085278435
70.52286 466.929816764957
70.54297 434.049314436632
70.56309 432.004088789122
70.5832 409
70.60332 412.98765865577
70.62343 390.002417365374
70.64354 416.030136625016
70.66366 412.98661148179
70.68377 419.049399261639
70.70388 377.979184596492
70.724 444
70.74411 399.974593690017
70.76423 390.02744242513
70.78434 408.003137670035
70.80445 407.92764810475
70.82457 449.988296015846
70.84468 411.05088355616
70.86479 389.991681810525
70.88491 424.01150633176
70.90502 417.974786056058
70.92513 404.027245072986
70.94525 431.986168511294
70.96536 395.045536662981
70.98548 411.962914122171
71.00559 433.006118867436
71.0257 399
71.04582 403.030099524824
71.06593 421.962607748383
71.08604 383.019395725738
71.10616 433.956769420392
71.12627 410.023841098732
71.14639 432.980595513652
71.1665 438
71.18661 369.998277682289
71.20673 428.059850408541
71.22684 413.949484906841
71.24695 407.003714351653
71.26707 399.020049931867
71.28718 384.013663877729
71.3073 391
71.32741 446.011084774002
71.34752 423.965565863301
71.36764 424.100126448273
71.38775 473.04931384553
71.40786 413.008442601677
71.42798 461.996948045077
71.44809 399.024774794773
71.4682 414
71.48832 447.988406411595
71.50843 411.982599537622
71.52855 427.996248189936
71.54866 412.959113939425
71.56877 453.008493759738
71.58889 411.001663769131
71.609 459
71.62911 446.981720892631
71.64923 421.998522260466
71.66934 436.015647309197
71.68946 429.018714381236
71.70957 427.99139456139
71.72968 429.013616679934
71.7498 409
71.76991 427.019633187397
71.79002 454.988110695825
71.81014 422.992478872707
71.83025 450.962804929303
71.85037 434.034385871843
71.87048 426.994807544473
71.89059 437.992984307905
71.91071 450.003662977355
71.93082 438.959595137972
71.95093 401.011988614121
71.97105 444.059172465304
71.99116 427.050164249928
72.01127 421.983546675445
72.03139 430.004970339184
72.0515 419
72.07162 465.034842553693
72.09173 463.96229593023
72.11184 433.946128371806
72.13196 430.931342416963
72.15207 478.964067857559
72.17218 456.055239015313
72.1923 412
72.21241 444.015380619249
72.23253 456.016629669595
72.25264 466.987129207454
72.27275 443.059789639074
72.29287 424.039043782613
72.31298 409.970476826667
72.33309 461.989429268309
72.35321 432.977333794533
72.37332 419.031965199898
72.39344 470.056080418302
72.41355 449.869804762014
72.43366 415.961600050065
72.45378 458.000532142252
72.47389 421.00097278569
72.494 458
72.51412 421.97209660315
72.53423 435.052483718425
72.55434 454.972859992828
72.57446 424.026677727793
72.59457 436.979850694126
72.61469 435.003755772623
72.6348 429
72.65491 432.013763324544
72.67503 461.99341662337
72.69514 427.955582788598
72.71525 438.938824140165
72.73537 449.019451568375
72.75548 426.011236062576
72.7756 433
72.79571 434.998903361392
72.81582 432.998708262302
72.83594 434.008777368477
72.85605 445.944132846434
72.87616 463.014716210669
72.89628 439.013536326133
72.91639 446.993157374781
72.9365 456
72.95662 459.986999387791
72.97673 442.000954870962
72.99685 459.019011274469
73.01696 443.055884088814
73.03707 426.986893567461
73.05719 431.021503385021
73.0773 384
73.09741 486.03347542396
73.11753 471.939403692426
73.13764 456.010443111175
73.15776 453.07389578761
73.17787 420.942777713756
73.19798 493.993777830086
73.2181 433
73.23821 462.002688476441
73.25832 427.990201134382
73.27844 463.074038827025
73.29855 466.062174399549
73.31867 435.031765661885
73.33878 432.989033488811
73.35889 449.988989860439
73.37901 473.010168571444
73.39912 485.00108155948
73.41923 472.962893130653
73.43935 444.94604510826
73.45946 435.998406781103
73.47957 453.931965345464
73.49969 489.01209971962
73.5198 432
73.53992 467.014784384921
73.56003 440.97229547012
73.58014 450.017068086499
73.60026 450.97179809371
73.62037 486.931986458434
73.64048 507.028287154549
73.6606 452
73.68071 455.009334329172
73.70083 463.996243063225
73.72094 450.958634074591
73.74105 434.010381288247
73.76117 441.98414201988
73.78128 455.972500101742
73.80139 473.014039643794
73.82151 410.975326127828
73.84162 415.052534691682
73.86174 473.048687424446
73.88185 460.967404919849
73.90196 463.998070326664
73.92208 456.005660167621
73.94219 459.995139613863
73.9623 463
73.98242 449.006863440835
74.00253 459.963995267339
74.02264 412.96289243344
74.04276 437.935283195734
74.06287 445.023185414602
74.08299 423.007571898219
74.1031 435
74.12321 475.994304896265
74.14333 439.016971588602
74.16344 490.016704211935
74.18355 451.021946717216
74.20367 478.013646379585
74.22378 431.014258100476
74.2439 461
74.26401 443.996222365629
74.28412 460.012170532245
74.30424 452.971299255986
74.32435 435.072750723386
74.34446 420.929136173163
74.36458 481.972856381395
74.38469 463.009227904716
74.40481 462.994971312556
74.42492 440.992954967873
74.44503 453.01274099111
74.46515 448.992179672972
74.48526 452.991989918403
74.50537 447.028262491472
74.52549 424.007553437745
74.5456 422
74.56571 424.999785957438
74.58583 430.031492946776
74.60594 451.994199312483
74.62606 427.036319230264
74.64617 426.998348845369
74.66628 421.00413933589
74.6864 419
74.70651 413.00701925901
74.72662 442.020989870389
74.74674 447.00683481139
74.76685 450.026870539118
74.78697 428.025584985548
74.80708 428.983781062793
74.82719 444.998570279991
74.84731 437.999629522825
74.86742 446.00312830232
74.88753 436.977772005322
74.90765 430.021064433056
74.92776 430.079052476991
74.94787 386.967913259803
74.96799 460.977046920096
74.9881 447
75.00822 445.009961891858
