3.00117 20381
3.02128 19516
3.0414 18805
3.06151 18606
3.08162 18068
3.10174 17667
3.12185 16948
3.14197 16437
3.16208 15959
3.18219 15423
3.20231 15329
3.22242 14561
3.24253 14301
3.26265 13793
3.28276 13233
3.30288 12891
3.32299 12310
3.3431 11827
3.36322 11712
3.38333 11163
3.40344 11091
3.42356 10190
3.44367 10092
3.46379 10011
3.4839 9425
3.50401 9460
3.52413 8922
3.54424 8701
3.56435 8323
3.58447 7856
3.60458 7621
3.62469 7206
3.64481 7077
3.66492 6711
3.68504 6383
3.70515 6479
3.72526 5965
3.74538 5773
3.76549 5500
3.7856 5250
3.80572 5071
3.82583 4619
3.84595 4692
3.86606 4484
3.88617 4121
3.90629 4117
3.9264 3806
3.94651 3761
3.96663 3504
3.98674 3339
4.00686 3505
4.02697 2986
4.04708 2944
4.0672 2965
4.08731 2719
4.10742 2480
4.12754 2325
4.14765 2295
4.16776 2281
4.18788 2134
4.20799 2081
4.22811 1953
4.24822 1882
4.26833 1878
4.28845 1769
4.30856 1817
4.32867 1576
4.34879 1580
4.3689 1615
4.38902 1554
4.40913 1555
4.42924 1447
4.44936 1436
4.46947 1434
4.48958 1317
4.5097 1347
4.52981 1180
4.54992 1190
4.57004 1202
4.59015 1211
4.61027 1109
4.63038 1087
4.65049 1024
4.67061 1084
4.69072 1145
4.71083 1032
4.73095 980
4.75106 977
4.77118 967
4.79129 900
4.8114 933
4.83152 812
4.85163 894
4.87174 846
4.89186 821
4.91197 803
4.93209 825
4.9522 811
4.97231 738
4.99243 799
5.01254 696
5.03265 675
5.05277 641
5.07288 674
5.09299 682
5.11311 646
5.13322 588
5.15334 590
5.17345 606
5.19356 572
5.21368 532
5.23379 541
5.2539 539
5.27402 567
5.29413 547
5.31425 478
5.33436 515
5.35447 495
5.37459 463
5.3947 464
5.41481 433
5.43493 438
5.45504 422
5.47516 409
5.49527 452
5.51538 385
5.5355 428
5.55561 396
5.57572 452
5.59584 450
5.61595 346
5.63606 371
5.65618 355
5.67629 373
5.69641 372
5.71652 362
5.73663 333
5.75675 297
5.77686 319
5.79697 340
5.81709 323
5.8372 333
5.85732 337
5.87743 332
5.89754 293
5.91766 314
5.93777 321
5.95788 333
5.978 300
5.99811 272
6.01823 284
6.03834 287
6.05845 282
6.07857 276
6.09868 296
6.11879 269
6.13891 256
6.15902 278
6.17913 267
6.19925 271
6.21936 271
6.23948 252
6.25959 238
6.2797 285
6.29982 269
6.31993 272
6.34004 246
6.36016 256
6.38027 220
6.40039 241
6.4205 249
6.44061 268
6.46073 268
6.48084 231
6.50095 237
6.52107 235
6.54118 250
6.56129 242
6.58141 227
6.60152 235
6.62164 226
6.64175 237
6.66186 241
6.68198 243
6.70209 233
6.7222 258
6.74232 231
6.76243 243
6.78255 227
6.80266 230
6.82277 198
6.84289 238
6.863 227
6.88311 235
6.90323 216
6.92334 208
6.94346 213
6.96357 223
6.98368 224
7.0038 210
7.02391 203
7.04402 223
7.06414 207
7.08425 228
7.10436 206
7.12448 206
7.14459 198
7.16471 236
7.18482 216
7.20493 221
7.22505 228
7.24516 234
7.26527 226
7.28539 192
7.3055 217
7.32562 226
7.34573 244
7.36584 251
7.38596 251
7.40607 234
7.42618 223
7.4463 232
7.46641 246
7.48653 222
7.50664 219
7.52675 221
7.54687 201
7.56698 209
7.58709 209
7.60721 256
7.62732 228
7.64743 226
7.66755 244
7.68766 229
7.70778 221
7.72789 204
7.748 231
7.76812 237
7.78823 221
7.80834 263
7.82846 260
7.84857 220
7.86869 199
7.8888 206
7.90891 237
7.92903 220
7.94914 246
7.96925 213
7.98937 206
8.00948 202
8.0296 236
8.04971 239
8.06982 236
8.08994 223
8.11005 242
8.13016 227
8.15028 232
8.17039 196
8.1905 239
8.21062 234
8.23073 199
8.25085 236
8.27096 233
8.29107 252
8.31119 225
8.3313 216
8.35141 226
8.37153 220
8.39164 211
8.41176 234
8.43187 237
8.45198 243
8.4721 209
8.49221 214
8.51232 238
8.53244 215
8.55255 215
8.57266 230
8.59278 224
8.61289 209
8.63301 221
8.65312 217
8.67323 243
8.69335 237
8.71346 223
8.73357 230
8.75369 239
8.7738 232
8.79392 208
8.81403 238
8.83414 256
8.85426 222
8.87437 249
8.89448 230
8.9146 234
8.93471 240
8.95483 221
8.97494 225
8.99505 210
9.01517 190
9.03528 236
9.05539 253
9.07551 206
9.09562 211
9.11573 211
9.13585 212
9.15596 221
9.17608 246
9.19619 264
9.2163 225
9.23642 213
9.25653 227
9.27664 216
9.29676 216
9.31687 219
9.33699 224
9.3571 233
9.37721 224
9.39733 249
9.41744 231
9.43755 234
9.45767 202
9.47778 239
9.4979 243
9.51801 219
9.53812 217
9.55824 205
9.57835 226
9.59846 218
9.61858 211
9.63869 218
9.6588 226
9.67892 210
9.69903 234
9.71915 211
9.73926 219
9.75937 258
9.77949 256
9.7996 225
9.81971 219
9.83983 225
9.85994 224
9.88006 223
9.90017 221
9.92028 221
9.9404 225
9.96051 219
9.98062 219
10.00074 209
10.02085 192
10.04097 196
10.06108 215
10.08119 232
10.10131 207
10.12142 207
10.14153 230
10.16165 227
10.18176 199
10.20187 221
10.22199 241
10.2421 220
10.26222 217
10.28233 212
10.30244 204
10.32256 214
10.34267 213
10.36278 210
10.3829 203
10.40301 232
10.42313 238
10.44324 258
10.46335 248
10.48347 220
10.50358 215
10.52369 228
10.54381 211
10.56392 211
10.58403 218
10.60415 226
10.62426 228
10.64438 221
10.66449 217
10.6846 235
10.70472 226
10.72483 215
10.74494 203
10.76506 217
10.78517 183
10.80529 227
10.8254 218
10.84551 220
10.86563 249
10.88574 209
10.90585 219
10.92597 217
10.94608 226
10.9662 213
10.98631 235
11.00642 228
11.02654 235
11.04665 220
11.06676 239
11.08688 252
11.10699 202
11.1271 226
11.14722 223
11.16733 208
11.18745 194
11.20756 206
11.22767 189
11.24779 219
11.2679 197
11.28801 239
11.30813 202
11.32824 236
11.34836 217
11.36847 208
11.38858 212
11.4087 206
11.42881 213
11.44892 202
11.46904 200
11.48915 199
11.50927 231
11.52938 207
11.54949 233
11.56961 225
11.58972 232
11.60983 249
11.62995 219
11.65006 213
11.67017 233
11.69029 199
11.7104 205
11.73052 182
11.75063 199
11.77074 202
11.79086 197
11.81097 229
11.83108 208
11.8512 225
11.87131 207
11.89143 194
11.91154 211
11.93165 215
11.95177 198
11.97188 209
11.99199 209
12.01211 186
12.03222 219
12.05234 202
12.07245 201
12.09256 217
12.11268 195
12.13279 218
12.1529 236
12.17302 206
12.19313 230
12.21324 190
12.23336 217
12.25347 211
12.27359 229
12.2937 199
12.31381 218
12.33393 210
12.35404 212
12.37415 205
12.39427 216
12.41438 194
12.4345 231
12.45461 215
12.47472 225
12.49484 218
12.51495 184
12.53506 208
12.55518 239
12.57529 224
12.5954 198
12.61552 229
12.63563 193
12.65575 182
12.67586 180
12.69597 212
12.71609 198
12.7362 211
12.75631 198
12.77643 221
12.79654 201
12.81666 206
12.83677 208
12.85688 212
12.877 190
12.89711 172
12.91722 200
12.93734 173
12.95745 213
12.97757 181
12.99768 180
13.01779 216
13.03791 222
13.05802 175
13.07813 187
13.09825 208
13.11836 213
13.13847 217
13.15859 215
13.1787 209
13.19882 183
13.21893 212
13.23904 201
13.25916 174
13.27927 167
13.29938 187
13.3195 183
13.33961 203
13.35973 181
13.37984 170
13.39995 197
13.42007 193
13.44018 204
13.46029 184
13.48041 207
13.50052 219
13.52064 220
13.54075 191
13.56086 191
13.58098 203
13.60109 213
13.6212 202
13.64132 206
13.66143 195
13.68154 187
13.70166 201
13.72177 211
13.74189 230
13.762 197
13.78211 176
13.80223 178
13.82234 217
13.84245 210
13.86257 212
13.88268 187
13.9028 176
13.92291 183
13.94302 189
13.96314 185
13.98325 189
14.00336 184
14.02348 226
14.04359 177
14.06371 228
14.08382 197
14.10393 204
14.12405 181
14.14416 177
14.16427 183
14.18439 180
14.2045 201
14.22461 213
14.24473 196
14.26484 187
14.28496 179
14.30507 183
14.32518 209
14.3453 189
14.36541 196
14.38552 219
14.40564 194
14.42575 215
14.44587 189
14.46598 175
14.48609 195
14.50621 215
14.52632 193
14.54643 193
14.56655 158
14.58666 183
14.60677 205
14.62689 191
14.647 204
14.66712 173
14.68723 173
14.70734 155
14.72746 202
14.74757 184
14.76768 160
14.7878 169
14.80791 174
14.82803 177
14.84814 152
14.86825 181
14.88837 176
14.90848 190
14.92859 193
14.94871 176
14.96882 205
14.98894 198
15.00905 196
15.02916 166
15.04928 172
15.06939 174
15.0895 178
15.10962 191
15.12973 191
15.14984 168
15.16996 224
15.19007 178
15.21019 183
15.2303 192
15.25041 186
15.27053 197
15.29064 160
15.31075 172
15.33087 177
15.35098 183
15.3711 190
15.39121 189
15.41132 178
15.43144 182
15.45155 189
15.47166 204
15.49178 163
15.51189 175
15.53201 166
15.55212 162
15.57223 180
15.59235 209
15.61246 159
15.63257 187
15.65269 193
15.6728 164
15.69291 172
15.71303 181
15.73314 182
15.75326 175
15.77337 179
15.79348 160
15.8136 171
15.83371 162
15.85382 150
15.87394 161
15.89405 167
15.91417 155
15.93428 191
15.95439 183
15.97451 191
15.99462 190
16.01473 180
16.03485 180
16.05496 191
16.07508 173
16.09519 157
16.1153 167
16.13542 133
16.15553 163
16.17564 171
16.19576 144
16.21587 168
16.23598 165
16.2561 174
16.27621 173
16.29633 175
16.31644 175
16.33655 165
16.35667 148
16.37678 205
16.39689 197
16.41701 189
16.43712 175
16.45724 195
16.47735 179
16.49746 173
16.51758 149
16.53769 178
16.5578 168
16.57792 159
16.59803 177
16.61814 173
16.63826 191
16.65837 187
16.67849 172
16.6986 181
16.71871 178
16.73883 155
16.75894 153
16.77905 156
16.79917 168
16.81928 157
16.8394 199
16.85951 155
16.87962 176
16.89974 162
16.91985 160
16.93996 190
16.96008 171
16.98019 157
17.00031 187
17.02042 161
17.04053 170
17.06065 161
17.08076 181
17.10087 146
17.12099 180
17.1411 175
17.16121 157
17.18133 168
17.20144 171
17.22156 163
17.24167 171
17.26178 163
17.2819 178
17.30201 163
17.32212 196
17.34224 180
17.36235 153
17.38247 182
17.40258 166
17.42269 172
17.44281 187
17.46292 164
17.48303 163
17.50315 177
17.52326 177
17.54338 167
17.56349 155
17.5836 175
17.60372 173
17.62383 177
17.64394 157
17.66406 170
17.68417 171
17.70428 168
17.7244 169
17.74451 159
17.76463 161
17.78474 218
17.80485 158
17.82497 191
17.84508 184
17.86519 155
17.88531 173
17.90542 156
17.92554 152
17.94565 179
17.96576 176
17.98588 185
18.00599 162
18.0261 175
18.04622 179
18.06633 179
18.08645 173
18.10656 182
18.12667 184
18.14679 172
18.1669 166
18.18701 162
18.20713 158
18.22724 182
18.24735 171
18.26747 178
18.28758 178
18.3077 150
18.32781 167
18.34792 196
18.36804 171
18.38815 158
18.40826 167
18.42838 172
18.44849 169
18.46861 170
18.48872 155
18.50883 167
18.52895 186
18.54906 182
18.56917 192
18.58929 157
18.6094 178
18.62951 160
18.64963 178
18.66974 166
18.68986 174
18.70997 178
18.73008 180
18.7502 175
18.77031 223
18.79042 186
18.81054 178
18.83065 198
18.85077 175
18.87088 173
18.89099 142
18.91111 167
18.93122 206
18.95133 169
18.97145 179
18.99156 169
19.01168 169
19.03179 160
19.0519 164
19.07202 148
19.09213 170
19.11224 174
19.13236 171
19.15247 147
19.17258 156
19.1927 187
19.21281 165
19.23293 170
19.25304 177
19.27315 193
19.29327 166
19.31338 179
19.33349 194
19.35361 182
19.37372 159
19.39384 177
19.41395 150
19.43406 202
19.45418 186
19.47429 167
19.4944 192
19.51452 192
19.53463 204
19.55475 195
19.57486 231
19.59497 216
19.61509 237
19.6352 202
19.65531 234
19.67543 238
19.69554 239
19.71565 270
19.73577 226
19.75588 240
19.776 247
19.79611 263
19.81622 268
19.83634 280
19.85645 294
19.87656 291
19.89668 284
19.91679 264
19.93691 250
19.95702 260
19.97713 225
19.99725 239
20.01736 224
20.03747 265
20.05759 255
20.0777 266
20.09782 291
20.11793 261
20.13804 258
20.15816 286
20.17827 310
20.19838 264
20.2185 294
20.23861 278
20.25872 273
20.27884 292
20.29895 307
20.31907 305
20.33918 310
20.35929 323
20.37941 305
20.39952 347
20.41963 306
20.43975 362
20.45986 336
20.47998 352
20.50009 400
20.5202 419
20.54032 400
20.56043 433
20.58054 446
20.60066 486
20.62077 489
20.64088 559
20.661 645
20.68111 840
20.70123 1111
20.72134 1550
20.74145 2261
20.76157 3108
20.78168 4514
20.80179 6012
20.82191 7772
20.84202 8996
20.86214 9490
20.88225 7959
20.90236 6117
20.92248 4259
20.94259 2716
20.9627 1501
20.98282 957
21.00293 727
21.02305 570
21.04316 564
21.06327 470
21.08339 478
21.1035 465
21.12361 397
21.14373 374
21.16384 370
21.18395 316
21.20407 275
21.22418 321
21.2443 283
21.26441 266
21.28452 280
21.30464 266
21.32475 253
21.34486 260
21.36498 269
21.38509 248
21.40521 272
21.42532 223
21.44543 266
21.46555 274
21.48566 264
21.50577 235
21.52589 276
21.546 252
21.56612 233
21.58623 253
21.60634 257
21.62646 240
21.64657 230
21.66668 251
21.6868 243
21.70691 255
21.72702 268
21.74714 252
21.76725 254
21.78737 267
21.80748 246
21.82759 235
21.84771 256
21.86782 245
21.88793 247
21.90805 244
21.92816 270
21.94828 245
21.96839 235
21.9885 248
22.00862 227
22.02873 232
22.04884 240
22.06896 220
22.08907 237
22.10919 207
22.1293 213
22.14941 237
22.16953 226
22.18964 252
22.20975 234
22.22987 200
22.24998 210
22.27009 219
22.29021 217
22.31032 214
22.33044 208
22.35055 240
22.37066 206
22.39078 199
22.41089 229
22.431 203
22.45112 222
22.47123 214
22.49135 207
22.51146 208
22.53157 215
22.55169 187
22.5718 180
22.59191 214
22.61203 185
22.63214 203
22.65225 207
22.67237 211
22.69248 214
22.7126 203
22.73271 201
22.75282 209
22.77294 242
22.79305 208
22.81316 218
22.83328 197
22.85339 171
22.87351 225
22.89362 184
22.91373 236
22.93385 223
22.95396 220
22.97407 240
22.99419 217
23.0143 229
23.03442 208
23.05453 203
23.07464 205
23.09476 226
23.11487 248
23.13498 246
23.1551 236
23.17521 226
23.19532 253
23.21544 255
23.23555 208
23.25567 228
23.27578 219
23.29589 204
23.31601 216
23.33612 234
23.35623 191
23.37635 185
23.39646 193
23.41658 190
23.43669 217
23.4568 164
23.47692 233
23.49703 234
23.51714 221
23.53726 213
23.55737 193
23.57749 217
23.5976 219
23.61771 197
23.63783 198
23.65794 224
23.67805 220
23.69817 232
23.71828 212
23.73839 214
23.75851 197
23.77862 232
23.79874 230
23.81885 201
23.83896 222
23.85908 221
23.87919 212
23.8993 238
23.91942 270
23.93953 266
23.95965 292
23.97976 343
23.99987 310
24.01999 320
24.0401 271
24.06021 248
24.08033 259
24.10044 226
24.12056 195
24.14067 213
24.16078 176
24.1809 208
24.20101 187
24.22112 190
24.24124 217
24.26135 197
24.28146 227
24.30158 191
24.32169 217
24.34181 216
24.36192 248
24.38203 205
24.40215 210
24.42226 216
24.44237 199
24.46249 178
24.4826 203
24.50272 221
24.52283 199
24.54294 186
24.56306 210
24.58317 178
24.60328 221
24.6234 182
24.64351 212
24.66362 213
24.68374 185
24.70385 226
24.72397 212
24.74408 191
24.76419 201
24.78431 213
24.80442 206
24.82453 202
24.84465 222
24.86476 206
24.88488 209
24.90499 202
24.9251 207
24.94522 225
24.96533 190
24.98544 212
25.00556 210
25.02567 202
25.04579 193
25.0659 218
25.08601 195
25.10613 196
25.12624 229
25.14635 236
25.16647 216
25.18658 229
25.20669 207
25.22681 218
25.24692 210
25.26704 214
25.28715 234
25.30726 240
25.32738 221
25.34749 208
25.3676 245
25.38772 212
25.40783 214
25.42795 238
25.44806 246
25.46817 215
25.48829 255
25.5084 275
25.52851 298
25.54863 285
25.56874 287
25.58886 271
25.60897 329
25.62908 314
25.6492 356
25.66931 376
25.68942 379
25.70954 384
25.72965 421
25.74976 439
25.76988 440
25.78999 449
25.81011 458
25.83022 422
25.85033 471
25.87045 512
25.89056 505
25.91067 515
25.93079 485
25.9509 476
25.97102 522
25.99113 548
26.01124 531
26.03136 519
26.05147 546
26.07158 582
26.0917 620
26.11181 616
26.13193 622
26.15204 701
26.17215 760
26.19227 837
26.21238 905
26.23249 940
26.25261 960
26.27272 1018
26.29283 1155
26.31295 1235
26.33306 1383
26.35318 1531
26.37329 1720
26.3934 1954
26.41352 2403
26.43363 3003
26.45374 3918
26.47386 5515
26.49397 7479
26.51409 10604
26.5342 14800
26.55431 20731
26.57443 27534
26.59454 35500
26.61465 41906
26.63477 43531
26.65488 38333
26.67499 30324
26.69511 23235
26.71522 16775
26.73534 10663
26.75545 5758
26.77556 3269
26.79568 2362
26.81579 1866
26.8359 1756
26.85602 1485
26.87613 1465
26.89625 1279
26.91636 1093
26.93647 1096
26.95659 999
26.9767 890
26.99681 871
27.01693 740
27.03704 715
27.05716 689
27.07727 582
27.09738 611
27.1175 559
27.13761 509
27.15772 493
27.17784 499
27.19795 510
27.21806 442
27.23818 408
27.25829 445
27.27841 450
27.29852 463
27.31863 442
27.33875 476
27.35886 470
27.37897 409
27.39909 491
27.4192 480
27.43932 514
27.45943 475
27.47954 491
27.49966 424
27.51977 454
27.53988 398
27.56 380
27.58011 375
27.60023 369
27.62034 344
27.64045 348
27.66057 333
27.68068 327
27.70079 327
27.72091 332
27.74102 325
27.76113 351
27.78125 298
27.80136 328
27.82148 327
27.84159 287
27.8617 318
27.88182 314
27.90193 327
27.92204 292
27.94216 288
27.96227 304
27.98239 286
28.0025 274
28.02261 297
28.04273 279
28.06284 254
28.08295 288
28.10307 272
28.12318 296
28.1433 275
28.16341 311
28.18352 317
28.20364 284
28.22375 274
28.24386 255
28.26398 270
28.28409 250
28.3042 277
28.32432 251
28.34443 273
28.36455 248
28.38466 272
28.40477 257
28.42489 257
28.445 266
28.46511 260
28.48523 249
28.50534 245
28.52546 247
28.54557 244
28.56568 258
28.5858 253
28.60591 238
28.62602 241
28.64614 249
28.66625 229
28.68636 235
28.70648 262
28.72659 240
28.74671 245
28.76682 222
28.78693 232
28.80705 230
28.82716 248
28.84727 242
28.86739 236
28.8875 206
28.90762 214
28.92773 227
28.94784 220
28.96796 222
28.98807 243
29.00818 249
29.0283 212
29.04841 250
29.06853 214
29.08864 240
29.10875 218
29.12887 205
29.14898 214
29.16909 215
29.18921 269
29.20932 227
29.22943 232
29.24955 215
29.26966 224
29.28978 226
29.30989 233
29.33 240
29.35012 265
29.37023 212
29.39034 262
29.41046 256
29.43057 201
29.45069 263
29.4708 247
29.49091 230
29.51103 242
29.53114 224
29.55125 210
29.57137 238
29.59148 218
29.6116 228
29.63171 238
29.65182 231
29.67194 211
29.69205 205
29.71216 217
29.73228 220
29.75239 219
29.7725 242
29.79262 225
29.81273 223
29.83285 221
29.85296 236
29.87307 219
29.89319 230
29.9133 190
29.93341 199
29.95353 201
29.97364 226
29.99376 223
30.01387 210
30.03398 231
30.0541 222
30.07421 244
30.09432 240
30.11444 231
30.13455 227
30.15467 253
30.17478 256
30.19489 219
30.21501 235
30.23512 209
30.25523 196
30.27535 225
30.29546 205
30.31557 214
30.33569 229
30.3558 206
30.37592 202
30.39603 203
30.41614 179
30.43626 204
30.45637 187
30.47648 208
30.4966 197
30.51671 172
30.53683 203
30.55694 195
30.57705 210
30.59717 225
30.61728 229
30.63739 226
30.65751 223
30.67762 194
30.69773 243
30.71785 211
30.73796 196
30.75808 202
30.77819 193
30.7983 225
30.81842 231
30.83853 191
30.85864 205
30.87876 187
30.89887 196
30.91899 198
30.9391 205
30.95921 186
30.97933 207
30.99944 190
31.01955 170
31.03967 192
31.05978 196
31.0799 141
31.10001 170
31.12012 170
31.14024 180
31.16035 183
31.18046 192
31.20058 146
31.22069 191
31.2408 193
31.26092 165
31.28103 198
31.30115 185
31.32126 172
31.34137 188
31.36149 177
31.3816 199
31.40171 201
31.42183 166
31.44194 174
31.46206 187
31.48217 186
31.50228 185
31.5224 177
31.54251 164
31.56262 172
31.58274 193
31.60285 149
31.62297 156
31.64308 176
31.66319 166
31.68331 138
31.70342 164
31.72353 169
31.74365 170
31.76376 171
31.78387 174
31.80399 159
31.8241 176
31.84422 180
31.86433 185
31.88444 160
31.90456 164
31.92467 192
31.94478 153
31.9649 179
31.98501 146
32.00513 167
32.02524 218
32.04535 182
32.06547 152
32.08558 168
32.10569 159
32.12581 143
32.14592 146
32.16604 163
32.18615 141
32.20626 194
32.22638 177
32.24649 166
32.2666 160
32.28672 192
32.30683 170
32.32694 152
32.34706 175
32.36717 170
32.38729 151
32.4074 178
32.42751 168
32.44763 137
32.46774 174
32.48785 177
32.50797 152
32.52808 160
32.5482 188
32.56831 147
32.58842 168
32.60854 160
32.62865 164
32.64876 170
32.66888 157
32.68899 150
32.7091 147
32.72922 153
32.74933 141
32.76945 166
32.78956 158
32.80967 175
32.82979 147
32.8499 172
32.87001 174
32.89013 190
32.91024 180
32.93036 157
32.95047 158
32.97058 134
32.9907 169
33.01081 142
33.03092 164
33.05104 138
33.07115 156
33.09127 163
33.11138 171
33.13149 145
33.15161 161
33.17172 160
33.19183 150
33.21195 171
33.23206 133
33.25217 171
33.27229 161
33.2924 148
33.31252 142
33.33263 160
33.35274 170
33.37286 160
33.39297 160
33.41308 149
33.4332 144
33.45331 127
33.47343 153
33.49354 157
33.51365 145
33.53377 151
33.55388 168
33.57399 151
33.59411 165
33.61422 176
33.63434 152
33.65445 142
33.67456 147
33.69468 142
33.71479 157
33.7349 141
33.75502 139
33.77513 150
33.79524 165
33.81536 154
33.83547 147
33.85559 149
33.8757 149
33.89581 144
33.91593 145
33.93604 150
33.95615 164
33.97627 152
33.99638 147
34.0165 147
34.03661 147
34.05672 128
34.07684 176
34.09695 170
34.11706 156
34.13718 174
34.15729 168
34.17741 172
34.19752 165
34.21763 150
34.23775 163
34.25786 170
34.27797 170
34.29809 143
34.3182 146
34.33831 183
34.35843 151
34.37854 155
34.39866 159
34.41877 191
34.43888 157
34.459 148
34.47911 157
34.49922 195
34.51934 192
34.53945 161
34.55957 165
34.57968 196
34.59979 164
34.61991 180
34.64002 167
34.66013 173
34.68025 161
34.70036 170
34.72047 169
34.74059 183
34.7607 172
34.78082 164
34.80093 178
34.82104 193
34.84116 182
34.86127 166
34.88138 193
34.9015 213
34.92161 212
34.94173 185
34.96184 190
34.98195 191
35.00207 182
35.02218 163
35.04229 232
35.06241 204
35.08252 187
35.10264 215
35.12275 240
35.14286 171
35.16298 195
35.18309 188
35.2032 176
35.22332 195
35.24343 190
35.26354 205
35.28366 192
35.30377 203
35.32389 203
35.344 192
35.36411 163
35.38423 177
35.40434 175
35.42445 221
35.44457 200
35.46468 208
35.4848 220
35.50491 192
35.52502 193
35.54514 182
35.56525 201
35.58536 193
35.60548 157
35.62559 176
35.64571 176
35.66582 187
35.68593 165
35.70605 196
35.72616 155
35.74627 165
35.76639 185
35.7865 179
35.80661 196
35.82673 203
35.84684 177
35.86696 175
35.88707 204
35.90718 193
35.9273 193
35.94741 192
35.96752 191
35.98764 197
36.00775 207
36.02787 199
36.04798 224
36.06809 209
36.08821 232
36.10832 223
36.12843 211
36.14855 190
36.16866 255
36.18878 247
36.20889 232
36.229 251
36.24912 288
36.26923 277
36.28934 323
36.30946 384
36.32957 401
36.34968 462
36.3698 606
36.38991 726
36.41003 997
36.43014 1273
36.45025 1660
36.47037 2067
36.49048 2522
36.51059 2754
36.53071 2837
36.55082 2538
36.57094 2030
36.59105 1730
36.61116 1515
36.63128 1357
36.65139 989
36.6715 641
36.69162 438
36.71173 341
36.73184 293
36.75196 274
36.77207 243
36.79219 244
36.8123 219
36.83241 241
36.85253 213
36.87264 215
36.89275 235
36.91287 199
36.93298 203
36.9531 209
36.97321 201
36.99332 169
37.01344 203
37.03355 185
37.05366 179
37.07378 192
37.09389 181
37.11401 170
37.13412 152
37.15423 178
37.17435 184
37.19446 157
37.21457 156
37.23469 157
37.2548 176
37.27491 186
37.29503 194
37.31514 180
37.33526 177
37.35537 162
37.37548 158
37.3956 171
37.41571 172
37.43582 183
37.45594 159
37.47605 165
37.49617 154
37.51628 182
37.53639 175
37.55651 170
37.57662 182
37.59673 164
37.61685 146
37.63696 157
37.65708 157
37.67719 166
37.6973 178
37.71742 191
37.73753 168
37.75764 168
37.77776 183
37.79787 161
37.81798 146
37.8381 180
37.85821 192
37.87833 183
37.89844 164
37.91855 160
37.93867 163
37.95878 149
37.97889 169
37.99901 157
38.01912 165
38.03924 169
38.05935 152
38.07946 156
38.09958 172
38.11969 173
38.1398 166
38.15992 179
38.18003 162
38.20015 183
38.22026 176
38.24037 162
38.26049 158
38.2806 152
38.30071 176
38.32083 159
38.34094 191
38.36105 167
38.38117 161
38.40128 169
38.4214 175
38.44151 184
38.46162 167
38.48174 189
38.50185 171
38.52196 203
38.54208 170
38.56219 190
38.58231 168
38.60242 178
38.62253 165
38.64265 177
38.66276 183
38.68287 163
38.70299 161
38.7231 174
38.74321 167
38.76333 171
38.78344 182
38.80356 172
38.82367 158
38.84378 173
38.8639 183
38.88401 165
38.90412 161
38.92424 170
38.94435 172
38.96447 178
38.98458 188
39.00469 226
39.02481 199
39.04492 198
39.06503 187
39.08515 223
39.10526 233
39.12538 209
39.14549 247
39.1656 247
39.18572 295
39.20583 312
39.22594 335
39.24606 416
39.26617 491
39.28628 614
39.3064 671
39.32651 931
39.34663 1118
39.36674 1425
39.38685 1756
39.40697 2057
39.42708 2498
39.44719 2627
39.46731 2456
39.48742 1978
39.50754 1481
39.52765 1416
39.54776 1337
39.56788 1146
39.58799 854
39.6081 561
39.62822 384
39.64833 307
39.66845 300
39.68856 246
39.70867 268
39.72879 230
39.7489 224
39.76901 238
39.78913 209
39.80924 206
39.82935 215
39.84947 191
39.86958 208
39.8897 210
39.90981 210
39.92992 221
39.95004 197
39.97015 218
39.99026 222
40.01038 256
40.03049 264
40.05061 277
40.07072 298
40.09083 324
40.11095 438
40.13106 445
40.15117 575
40.17129 631
40.1914 802
40.21152 946
40.23163 1130
40.25174 1276
40.27186 1328
40.29197 1216
40.31208 987
40.3322 850
40.35231 770
40.37242 743
40.39254 642
40.41265 474
40.43277 342
40.45288 250
40.47299 255
40.49311 195
40.51322 203
40.53333 187
40.55345 162
40.57356 218
40.59368 181
40.61379 174
40.6339 190
40.65402 172
40.67413 184
40.69424 182
40.71436 183
40.73447 184
40.75458 163
40.7747 178
40.79481 160
40.81493 161
40.83504 175
40.85515 149
40.87527 172
40.89538 165
40.91549 173
40.93561 184
40.95572 161
40.97584 159
40.99595 158
41.01606 170
41.03618 171
41.05629 154
41.0764 169
41.09652 166
41.11663 152
41.13675 174
41.15686 156
41.17697 160
41.19709 181
41.2172 171
41.23731 182
41.25743 167
41.27754 142
41.29765 153
41.31777 170
41.33788 151
41.358 132
41.37811 134
41.39822 162
41.41834 163
41.43845 163
41.45856 174
41.47868 152
41.49879 183
41.51891 186
41.53902 175
41.55913 138
41.57925 181
41.59936 182
41.61947 160
41.63959 198
41.6597 197
41.67982 206
41.69993 168
41.72004 177
41.74016 177
41.76027 201
41.78038 211
41.8005 160
41.82061 198
41.84072 217
41.86084 198
41.88095 203
41.90107 193
41.92118 180
41.94129 186
41.96141 189
41.98152 185
42.00163 205
42.02175 183
42.04186 182
42.06198 207
42.08209 195
42.1022 201
42.12232 228
42.14243 242
42.16254 270
42.18266 264
42.20277 279
42.22289 354
42.243 356
42.26311 455
42.28323 545
42.30334 678
42.32345 897
42.34357 1026
42.36368 1332
42.38379 1475
42.40391 1753
42.42402 1850
42.44414 1728
42.46425 1513
42.48436 1153
42.50448 1040
42.52459 1000
42.5447 927
42.56482 837
42.58493 529
42.60505 389
42.62516 278
42.64527 252
42.66539 251
42.6855 220
42.70561 202
42.72573 194
42.74584 195
42.76595 175
42.78607 181
42.80618 177
42.8263 153
42.84641 161
42.86652 164
42.88664 158
42.90675 175
42.92686 151
42.94698 164
42.96709 150
42.98721 139
43.00732 161
43.02743 181
43.04755 155
43.06766 127
43.08777 180
43.10789 194
43.128 166
43.14812 146
43.16823 157
43.18834 154
43.20846 154
43.22857 140
43.24868 155
43.2688 158
43.28891 164
43.30902 137
43.32914 140
43.34925 141
43.36937 137
43.38948 140
43.40959 141
43.42971 154
43.44982 165
43.46993 151
43.49005 151
43.51016 149
43.53028 140
43.55039 159
43.5705 137
43.59062 140
43.61073 145
43.63084 152
43.65096 124
43.67107 137
43.69119 137
43.7113 150
43.73141 139
43.75153 135
43.77164 127
43.79175 142
43.81187 146
43.83198 134
43.85209 151
43.87221 145
43.89232 134
43.91244 142
43.93255 134
43.95266 146
43.97278 133
43.99289 146
44.013 145
44.03312 141
44.05323 129
44.07335 129
44.09346 127
44.11357 159
44.13369 153
44.1538 130
44.17391 163
44.19403 146
44.21414 134
44.23426 160
44.25437 141
44.27448 135
44.2946 131
44.31471 139
44.33482 181
44.35494 138
44.37505 157
44.39516 154
44.41528 156
44.43539 149
44.45551 139
44.47562 132
44.49573 136
44.51585 169
44.53596 116
44.55607 122
44.57619 140
44.5963 151
44.61642 151
44.63653 131
44.65664 133
44.67676 150
44.69687 134
44.71698 160
44.7371 147
44.75721 137
44.77732 156
44.79744 143
44.81755 175
44.83767 139
44.85778 147
44.87789 146
44.89801 154
44.91812 141
44.93823 154
44.95835 172
44.97846 153
44.99858 146
45.01869 145
45.0388 187
45.05892 159
45.07903 148
45.09914 168
45.11926 138
45.13937 135
45.15949 159
45.1796 142
45.19971 164
45.21983 165
45.23994 175
45.26005 171
45.28017 146
45.30028 160
45.32039 170
45.34051 155
45.36062 174
45.38074 158
45.40085 166
45.42096 201
45.44108 178
45.46119 194
45.4813 215
45.50142 203
45.52153 228
45.54165 249
45.56176 266
45.58187 294
45.60199 367
45.6221 408
45.64221 483
45.66233 629
45.68244 749
45.70256 870
45.72267 999
45.74278 1169
45.7629 1325
45.78301 1225
45.80312 1024
45.82324 867
45.84335 664
45.86346 726
45.88358 656
45.90369 621
45.92381 512
45.94392 333
45.96403 293
45.98415 230
46.00426 184
46.02437 187
46.04449 162
46.0646 175
46.08472 156
46.10483 171
46.12494 164
46.14506 167
46.16517 141
46.18528 163
46.2054 154
46.22551 156
46.24563 141
46.26574 139
46.28585 148
46.30597 129
46.32608 139
46.34619 142
46.36631 132
46.38642 148
46.40653 139
46.42665 131
46.44676 120
46.46688 139
46.48699 141
46.5071 135
46.52722 132
46.54733 154
46.56744 131
46.58756 125
46.60767 133
46.62779 135
46.6479 141
46.66801 124
46.68813 104
46.70824 134
46.72835 133
46.74847 160
46.76858 134
46.78869 155
46.80881 127
46.82892 152
46.84904 108
46.86915 152
46.88926 120
46.90938 125
46.92949 127
46.9496 151
46.96972 157
46.98983 125
47.00995 134
47.03006 132
47.05017 134
47.07029 147
47.0904 141
47.11051 168
47.13063 137
47.15074 134
47.17086 132
47.19097 137
47.21108 145
47.2312 127
47.25131 152
47.27142 119
47.29154 140
47.31165 127
47.33176 129
47.35188 131
47.37199 140
47.39211 139
47.41222 146
47.43233 134
47.45245 127
47.47256 136
47.49267 124
47.51279 144
47.5329 134
47.55302 128
47.57313 139
47.59324 130
47.61336 166
47.63347 126
47.65358 120
47.6737 136
47.69381 127
47.71393 140
47.73404 125
47.75415 131
47.77427 135
47.79438 116
47.81449 115
47.83461 148
47.85472 137
47.87483 135
47.89495 133
47.91506 132
47.93518 138
47.95529 131
47.9754 129
47.99552 139
48.01563 130
48.03574 146
48.05586 146
48.07597 141
48.09609 119
48.1162 130
48.13631 144
48.15643 131
48.17654 105
48.19665 147
48.21677 147
48.23688 136
48.257 156
48.27711 140
48.29722 138
48.31734 129
48.33745 153
48.35756 138
48.37768 131
48.39779 120
48.4179 147
48.43802 120
48.45813 151
48.47825 132
48.49836 119
48.51847 150
48.53859 141
48.5587 126
48.57881 157
48.59893 140
48.61904 139
48.63916 137
48.65927 145
48.67938 145
48.6995 136
48.71961 165
48.73972 136
48.75984 145
48.77995 147
48.80006 165
48.82018 128
48.84029 141
48.86041 164
48.88052 164
48.90063 149
48.92075 149
48.94086 152
48.96097 134
48.98109 137
49.0012 165
49.02132 138
49.04143 147
49.06154 142
49.08166 151
49.10177 153
49.12188 160
49.142 158
49.16211 144
49.18223 156
49.20234 158
49.22245 155
49.24257 149
49.26268 146
49.28279 152
49.30291 151
49.32302 165
49.34313 164
49.36325 153
49.38336 149
49.40348 191
49.42359 163
49.4437 165
49.46382 171
49.48393 167
49.50404 155
49.52416 182
49.54427 163
49.56439 173
49.5845 165
49.60461 206
49.62473 177
49.64484 206
49.66495 197
49.68507 235
49.70518 237
49.7253 252
49.74541 262
49.76552 280
49.78564 336
49.80575 332
49.82586 397
49.84598 447
49.86609 485
49.8862 563
49.90632 677
49.92643 797
49.94655 956
49.96666 1224
49.98677 1540
50.00689 1902
50.027 2301
50.04711 2854
50.06723 3465
50.08734 3801
50.10746 4034
50.12757 4024
50.14768 3319
50.1678 2587
50.18791 2195
50.20802 1996
50.22814 2081
50.24825 1945
50.26837 1735
50.28848 1271
50.30859 816
50.32871 557
50.34882 433
50.36893 367
50.38905 326
50.40916 329
50.42927 268
50.44939 296
50.4695 290
50.48962 291
50.50973 300
50.52984 268
50.54996 252
50.57007 301
50.59018 287
50.6103 255
50.63041 269
50.65053 226
50.67064 222
50.69075 202
50.71087 222
50.73098 204
50.75109 217
50.77121 183
50.79132 191
50.81143 174
50.83155 176
50.85166 161
50.87178 178
50.89189 164
50.912 139
50.93212 151
50.95223 146
50.97234 156
50.99246 137
51.01257 139
51.03269 148
51.0528 143
51.07291 144
51.09303 160
51.11314 140
51.13325 146
51.15337 132
51.17348 134
51.1936 127
51.21371 137
51.23382 125
51.25394 129
51.27405 123
51.29416 143
51.31428 119
51.33439 130
51.3545 133
51.37462 164
51.39473 131
51.41485 118
51.43496 131
51.45507 121
51.47519 140
51.4953 120
51.51541 133
51.53553 114
51.55564 145
51.57576 116
51.59587 129
51.61598 148
51.6361 121
51.65621 127
51.67632 126
51.69644 124
51.71655 122
51.73667 107
51.75678 120
51.77689 142
51.79701 131
51.81712 143
51.83723 141
51.85735 126
51.87746 126
51.89757 128
51.91769 129
51.9378 141
51.95792 125
51.97803 130
51.99814 120
52.01826 126
52.03837 132
52.05848 119
52.0786 118
52.09871 101
52.11883 114
52.13894 120
52.15905 132
52.17917 138
52.19928 127
52.21939 153
52.23951 130
52.25962 128
52.27974 116
52.29985 130
52.31996 129
52.34008 107
52.36019 136
52.3803 146
52.40042 113
52.42053 109
52.44064 128
52.46076 146
52.48087 125
52.50099 126
52.5211 138
52.54121 144
52.56133 136
52.58144 133
52.60155 109
52.62167 120
52.64178 115
52.6619 131
52.68201 133
52.70212 139
52.72224 123
52.74235 139
52.76246 136
52.78258 127
52.80269 138
52.8228 109
52.84292 120
52.86303 135
52.88315 134
52.90326 132
52.92337 135
52.94349 119
52.9636 113
52.98371 122
53.00383 134
53.02394 134
53.04406 143
53.06417 136
53.08428 113
53.1044 143
53.12451 127
53.14462 120
53.16474 122
53.18485 116
53.20497 108
53.22508 136
53.24519 138
53.26531 135
53.28542 116
53.30553 146
53.32565 132
53.34576 128
53.36587 131
53.38599 141
53.4061 146
53.42622 144
53.44633 138
53.46644 117
53.48656 131
53.50667 141
53.52678 132
53.5469 133
53.56701 145
53.58713 141
53.60724 141
53.62735 161
53.64747 137
53.66758 139
53.68769 157
53.70781 131
53.72792 105
53.74804 146
53.76815 140
53.78826 133
53.80838 136
53.82849 145
53.8486 153
53.86872 144
53.88883 166
53.90894 164
53.92906 135
53.94917 137
53.96929 138
53.9894 152
54.00951 145
54.02963 139
54.04974 112
54.06985 147
54.08997 147
54.11008 150
54.1302 142
54.15031 142
54.17042 145
54.19054 137
54.21065 133
54.23076 167
54.25088 166
54.27099 144
54.29111 143
54.31122 132
54.33133 149
54.35145 149
54.37156 162
54.39167 148
54.41179 156
54.4319 164
54.45201 176
54.47213 181
54.49224 189
54.51236 200
54.53247 177
54.55258 190
54.5727 236
54.59281 245
54.61292 246
54.63304 292
54.65315 300
54.67327 359
54.69338 454
54.71349 543
54.73361 673
54.75372 750
54.77383 908
54.79395 1071
54.81406 1199
54.83417 1229
54.85429 1288
54.8744 1089
54.89452 870
54.91463 744
54.93474 680
54.95486 688
54.97497 687
54.99508 684
55.0152 677
55.03531 512
55.05543 376
55.07554 334
55.09565 317
55.11577 301
55.13588 318
55.15599 309
55.17611 361
55.19622 376
55.21634 445
55.23645 489
55.25656 574
55.27668 595
55.29679 655
55.3169 568
55.33702 490
55.35713 377
55.37724 349
55.39736 386
55.41747 335
55.43759 368
55.4577 351
55.47781 307
55.49793 244
55.51804 194
55.53815 186
55.55827 151
55.57838 166
55.5985 159
55.61861 157
55.63872 154
55.65884 152
55.67895 138
55.69906 154
55.71918 145
55.73929 127
55.75941 148
55.77952 145
55.79963 136
55.81975 166
55.83986 133
55.85997 133
55.88009 145
55.9002 146
55.92031 125
55.94043 143
55.96054 147
55.98066 143
56.00077 134
56.02088 131
56.041 137
56.06111 150
56.08122 120
56.10134 144
56.12145 133
56.14157 130
56.16168 127
56.18179 130
56.20191 122
56.22202 153
56.24213 122
56.26225 122
56.28236 116
56.30248 118
56.32259 119
56.3427 122
56.36282 117
56.38293 122
56.40304 128
56.42316 138
56.44327 118
56.46338 114
56.4835 113
56.50361 118
56.52373 120
56.54384 134
56.56395 114
56.58407 121
56.60418 120
56.62429 136
56.64441 148
56.66452 145
56.68464 138
56.70475 120
56.72486 132
56.74498 121
56.76509 108
56.7852 120
56.80532 110
56.82543 141
56.84554 135
56.86566 153
56.88577 115
56.90589 142
56.926 125
56.94611 122
56.96623 140
56.98634 154
57.00645 123
57.02657 132
57.04668 147
57.0668 153
57.08691 144
57.10702 170
57.12714 181
57.14725 174
57.16736 191
57.18748 180
57.20759 215
57.22771 166
57.24782 168
57.26793 148
57.28805 143
57.30816 154
57.32827 174
57.34839 167
57.3685 178
57.38861 148
57.40873 159
57.42884 131
57.44896 135
57.46907 114
57.48918 116
57.5093 138
57.52941 151
57.54952 112
57.56964 126
57.58975 123
57.60987 117
57.62998 141
57.65009 139
57.67021 119
57.69032 140
57.71043 110
57.73055 124
57.75066 135
57.77078 131
57.79089 131
57.811 129
57.83112 135
57.85123 134
57.87134 125
57.89146 124
57.91157 119
57.93168 108
57.9518 131
57.97191 118
57.99203 125
58.01214 128
58.03225 133
58.05237 105
58.07248 98
58.09259 136
58.11271 110
58.13282 141
58.15294 142
58.17305 137
58.19316 126
58.21328 122
58.23339 129
58.2535 126
58.27362 125
58.29373 144
58.31385 137
58.33396 138
58.35407 121
58.37419 129
58.3943 110
58.41441 123
58.43453 129
58.45464 129
58.47475 151
58.49487 152
58.51498 131
58.5351 119
58.55521 135
58.57532 128
58.59544 132
58.61555 144
58.63566 137
58.65578 132
58.67589 161
58.69601 128
58.71612 128
58.73623 116
58.75635 110
58.77646 137
58.79657 143
58.81669 130
58.8368 143
58.85691 132
58.87703 128
58.89714 122
58.91726 120
58.93737 141
58.95748 123
58.9776 165
58.99771 128
59.01782 132
59.03794 138
59.05805 136
59.07817 136
59.09828 131
59.11839 134
59.13851 150
59.15862 133
59.17873 148
59.19885 137
59.21896 161
59.23908 142
59.25919 162
59.2793 152
59.29942 152
59.31953 149
59.33964 145
59.35976 159
59.37987 163
59.39998 187
59.4201 172
59.44021 197
59.46033 183
59.48044 197
59.50055 175
59.52067 206
59.54078 226
59.56089 241
59.58101 228
59.60112 269
59.62124 280
59.64135 363
59.66146 379
59.68158 400
59.70169 462
59.7218 545
59.74192 630
59.76203 793
59.78215 1000
59.80226 1135
59.82237 1439
59.84249 1649
59.8626 1982
59.88271 2208
59.90283 2370
59.92294 2544
59.94305 2305
59.96317 1991
59.98328 1580
60.0034 1395
60.02351 1208
60.04362 1243
60.06374 1354
60.08385 1335
60.10396 1125
60.12408 993
60.14419 727
60.16431 503
60.18442 387
60.20453 322
60.22465 257
60.24476 248
60.26487 210
60.28499 186
60.3051 177
60.32522 186
60.34533 190
60.36544 164
60.38556 167
60.40567 170
60.42578 186
60.4459 185
60.46601 176
60.48612 161
60.50624 148
60.52635 148
60.54647 149
60.56658 138
60.58669 153
60.60681 145
60.62692 141
60.64703 155
60.66715 120
60.68726 140
60.70738 137
60.72749 152
60.7476 132
60.76772 127
60.78783 126
60.80794 158
60.82806 135
60.84817 138
60.86828 140
60.8884 141
60.90851 140
60.92863 137
60.94874 149
60.96885 132
60.98897 143
61.00908 150
61.02919 148
61.04931 128
61.06942 133
61.08954 129
61.10965 129
61.12976 133
61.14988 134
61.16999 140
61.1901 159
61.21022 128
61.23033 140
61.25045 158
61.27056 127
61.29067 150
61.31079 128
61.3309 136
61.35101 136
61.37113 130
61.39124 153
61.41135 140
61.43147 145
61.45158 139
61.4717 134
61.49181 132
61.51192 137
61.53204 135
61.55215 130
61.57226 130
61.59238 169
61.61249 154
61.63261 142
61.65272 163
61.67283 147
61.69295 141
61.71306 132
61.73317 147
61.75329 141
61.7734 125
61.79352 129
61.81363 137
61.83374 138
61.85386 149
61.87397 137
61.89408 138
61.9142 147
61.93431 128
61.95442 131
61.97454 135
61.99465 136
62.01477 143
62.03488 141
62.05499 121
62.07511 127
62.09522 135
62.11533 136
62.13545 127
62.15556 134
62.17568 125
62.19579 141
62.2159 142
62.23602 120
62.25613 127
62.27624 152
62.29636 121
62.31647 142
62.33659 116
62.3567 144
62.37681 121
62.39693 153
62.41704 125
62.43715 136
62.45727 120
62.47738 129
62.49749 144
62.51761 120
62.53772 131
62.55784 130
62.57795 138
62.59806 142
62.61818 122
62.63829 120
62.6584 113
62.67852 145
62.69863 136
62.71875 126
62.73886 113
62.75897 97
62.77909 123
62.7992 116
62.81931 133
62.83943 113
62.85954 119
62.87965 103
62.89977 128
62.91988 127
62.94 121
62.96011 104
62.98022 139
63.00034 123
63.02045 117
63.04056 127
63.06068 124
63.08079 133
63.10091 112
63.12102 117
63.14113 117
63.16125 114
63.18136 108
63.20147 131
63.22159 113
63.2417 134
63.26182 124
63.28193 151
63.30204 99
63.32216 117
63.34227 127
63.36238 124
63.3825 122
63.40261 117
63.42272 122
63.44284 103
63.46295 128
63.48307 118
63.50318 135
63.52329 141
63.54341 119
63.56352 132
63.58363 121
63.60375 131
63.62386 120
63.64398 151
63.66409 136
63.6842 149
63.70432 165
63.72443 165
63.74454 159
63.76466 168
63.78477 216
63.80489 199
63.825 218
63.84511 271
63.86523 258
63.88534 336
63.90545 381
63.92557 409
63.94568 461
63.96579 527
63.98591 561
64.00602 569
64.02614 485
64.04625 413
64.06636 326
64.08648 320
64.10659 324
64.1267 293
64.14682 320
64.16693 352
64.18705 316
64.20716 300
64.22727 211
64.24739 181
64.2675 188
64.28761 151
64.30773 127
64.32784 147
64.34796 140
64.36807 139
64.38818 125
64.4083 141
64.42841 141
64.44852 121
64.46864 130
64.48875 114
64.50886 110
64.52898 124
64.54909 117
64.56921 121
64.58932 124
64.60943 122
64.62955 107
64.64966 126
64.66977 116
64.68989 111
64.71 128
64.73012 115
64.75023 107
64.77034 129
64.79046 127
64.81057 118
64.83068 134
64.8508 100
64.87091 123
64.89102 103
64.91114 101
64.93125 116
64.95137 121
64.97148 110
64.99159 115
65.01171 114
65.03182 142
65.05193 155
65.07205 134
65.09216 120
65.11228 127
65.13239 118
65.1525 108
65.17262 111
65.19273 149
65.21284 133
65.23296 132
65.25307 125
65.27319 135
65.2933 120
65.31341 104
65.33353 120
65.35364 120
65.37375 141
65.39387 131
65.41398 130
65.43409 149
65.45421 121
65.47432 133
65.49444 129
65.51455 130
65.53466 134
65.55478 142
65.57489 137
65.595 170
65.61512 161
65.63523 170
65.65535 178
65.67546 205
65.69557 227
65.71569 240
65.7358 249
65.75591 227
65.77603 213
65.79614 194
65.81626 186
65.83637 160
65.85648 186
65.8766 172
65.89671 177
65.91682 181
65.93694 172
65.95705 167
65.97716 164
65.99728 149
66.01739 137
66.03751 151
66.05762 152
66.07773 141
66.09785 125
66.11796 134
66.13807 122
66.15819 136
66.1783 130
66.19842 134
66.21853 114
66.23864 130
66.25876 127
66.27887 141
66.29898 108
66.3191 142
66.33921 134
66.35933 143
66.37944 130
66.39955 153
66.41967 135
66.43978 142
66.45989 138
66.48001 123
66.50012 124
66.52023 125
66.54035 117
66.56046 122
66.58058 118
66.60069 141
66.6208 134
66.64092 149
66.66103 129
66.68114 149
66.70126 147
66.72137 117
66.74149 118
66.7616 140
66.78171 132
66.80183 129
66.82194 126
66.84205 147
66.86217 149
66.88228 128
66.90239 128
66.92251 144
66.94262 147
66.96274 156
66.98285 147
67.00296 162
67.02308 153
67.04319 149
67.0633 166
67.08342 162
67.10353 152
67.12365 178
67.14376 142
67.16387 165
67.18399 159
67.2041 167
67.22421 195
67.24433 160
67.26444 171
67.28456 192
67.30467 180
67.32478 201
67.3449 208
67.36501 236
67.38512 232
67.40524 252
67.42535 273
67.44546 313
67.46558 329
67.48569 380
67.50581 422
67.52592 498
67.54603 582
67.56615 658
67.58626 754
67.60637 893
67.62649 1094
67.6466 1210
67.66672 1406
67.68683 1446
67.70694 1478
67.72706 1435
67.74717 1240
67.76728 995
67.7874 868
67.80751 870
67.82763 913
67.84774 945
67.86785 1011
67.88797 1073
67.90808 1119
67.92819 1118
67.94831 1010
67.96842 1114
67.98853 1081
68.00865 1277
68.02876 1445
68.04888 1657
68.06899 1800
68.0891 1867
68.10922 1941
68.12933 1998
68.14944 1813
68.16956 1652
68.18967 1537
68.20979 1577
68.2299 1674
68.25001 1830
68.27013 1804
68.29024 1857
68.31035 1597
68.33047 1343
68.35058 998
68.3707 825
68.39081 731
68.41092 681
68.43104 731
68.45115 675
68.47126 659
68.49138 570
68.51149 504
68.5316 400
68.55172 340
68.57183 233
68.59195 213
68.61206 186
68.63217 198
68.65229 191
68.6724 187
68.69251 167
68.71263 176
68.73274 169
68.75286 178
68.77297 154
68.79308 163
68.8132 174
68.83331 153
68.85342 146
68.87354 135
68.89365 155
68.91376 142
68.93388 142
68.95399 136
68.97411 131
68.99422 138
69.01433 166
69.03445 133
69.05456 144
69.07467 147
69.09479 140
69.1149 111
69.13502 133
69.15513 136
69.17524 135
69.19536 108
69.21547 126
69.23558 112
69.2557 132
69.27581 141
69.29593 137
69.31604 125
69.33615 120
69.35627 142
69.37638 118
69.39649 122
69.41661 126
69.43672 122
69.45683 124
69.47695 129
69.49706 136
69.51718 121
69.53729 119
69.5574 114
69.57752 113
69.59763 110
69.61774 137
69.63786 125
69.65797 122
69.67809 161
69.6982 117
69.71831 150
69.73843 142
69.75854 110
69.77865 109
69.79877 132
69.81888 108
69.839 105
69.85911 120
69.87922 131
69.89934 119
69.91945 111
69.93956 112
69.95968 127
69.97979 114
69.9999 106
70.02002 118
70.04013 140
70.06025 109
70.08036 127
70.10047 136
70.12059 125
70.1407 130
70.16081 94
70.18093 124
70.20104 117
70.22116 150
70.24127 116
70.26138 106
70.2815 125
70.30161 117
70.32172 112
70.34184 114
70.36195 127
70.38207 112
70.40218 114
70.42229 105
70.44241 121
70.46252 124
70.48263 117
70.50275 129
70.52286 122
70.54297 121
70.56309 106
70.5832 125
70.60332 123
70.62343 108
70.64354 121
70.66366 119
70.68377 107
70.70388 124
70.724 106
70.74411 131
70.76423 124
70.78434 125
70.80445 102
70.82457 108
70.84468 113
70.86479 109
70.88491 111
70.90502 113
70.92513 114
70.94525 118
70.96536 117
70.98548 104
71.00559 113
71.0257 111
71.04582 101
71.06593 118
71.08604 96
71.10616 127
71.12627 120
71.14639 114
71.1665 101
71.18661 116
71.20673 101
71.22684 102
71.24695 114
71.26707 111
71.28718 107
71.3073 117
71.32741 98
71.34752 104
71.36764 111
71.38775 110
71.40786 91
71.42798 115
71.44809 104
71.4682 113
71.48832 127
71.50843 108
71.52855 123
71.54866 117
71.56877 115
71.58889 126
71.609 130
71.62911 123
71.64923 108
71.66934 140
71.68946 119
71.70957 96
71.72968 108
71.7498 125
71.76991 117
71.79002 98
71.81014 136
71.83025 115
71.85037 127
71.87048 112
71.89059 127
71.91071 116
71.93082 121
71.95093 115
71.97105 120
71.99116 128
72.01127 120
72.03139 108
72.0515 107
72.07162 123
72.09173 112
72.11184 82
72.13196 113
72.15207 112
72.17218 109
72.1923 117
72.21241 126
72.23253 123
72.25264 112
72.27275 140
72.29287 119
72.31298 106
72.33309 120
72.35321 108
72.37332 110
72.39344 101
72.41355 117
72.43366 122
72.45378 104
72.47389 126
72.494 118
72.51412 116
72.53423 119
72.55434 101
72.57446 114
72.59457 119
72.61469 124
72.6348 136
72.65491 103
72.67503 124
72.69514 127
72.71525 116
72.73537 107
72.75548 113
72.7756 120
72.79571 119
72.81582 131
72.83594 113
72.85605 119
72.87616 119
72.89628 125
72.91639 138
72.9365 126
72.95662 123
72.97673 120
72.99685 143
73.01696 138
73.03707 153
73.05719 141
73.0773 149
73.09741 154
73.11753 155
73.13764 162
73.15776 185
73.17787 193
73.19798 193
73.2181 200
73.23821 235
73.25832 241
73.27844 250
73.29855 306
73.31867 363
73.33878 435
73.35889 454
73.37901 518
73.39912 544
73.41923 603
73.43935 525
73.45946 521
73.47957 461
73.49969 358
73.5198 319
73.53992 297
73.56003 293
73.58014 318
73.60026 323
73.62037 333
73.64048 349
73.6606 324
73.68071 323
73.70083 237
73.72094 234
73.74105 165
73.76117 160
73.78128 158
73.80139 135
73.82151 132
73.84162 112
73.86174 131
73.88185 128
73.90196 124
73.92208 124
73.94219 131
73.9623 116
73.98242 125
74.00253 115
74.02264 133
74.04276 110
74.06287 111
74.08299 102
74.1031 122
74.12321 102
74.14333 121
74.16344 109
74.18355 104
74.20367 123
74.22378 102
74.2439 103
74.26401 111
74.28412 125
74.30424 128
74.32435 133
74.34446 115
74.36458 110
74.38469 127
74.40481 102
74.42492 88
74.44503 121
74.46515 100
74.48526 128
74.50537 113
74.52549 117
74.5456 139
74.56571 98
74.58583 113
74.60594 110
74.62606 109
74.64617 104
74.66628 109
74.6864 118
74.70651 120
74.72662 125
74.74674 145
74.76685 103
74.78697 85
74.80708 114
74.82719 120
74.84731 124
74.86742 120
74.88753 126
74.90765 116
74.92776 122
74.94787 119
74.96799 117
74.9881 106
75.00822 129
