3.00117 16062
3.02128 16031
3.0414 15434
3.06151 15025
3.08162 14538
3.10174 14087
3.12185 13719
3.14197 12949
3.16208 12815
3.18219 12191
3.20231 11806
3.22242 11833
3.24253 11008
3.26265 10786
3.28276 10500
3.30288 9923
3.32299 10040
3.3431 9140
3.36322 9134
3.38333 8630
3.40344 8305
3.42356 8205
3.44367 7562
3.46379 7596
3.4839 7304
3.50401 7124
3.52413 6967
3.54424 6341
3.56435 6212
3.58447 6109
3.60458 5845
3.62469 5831
3.64481 5265
3.66492 5055
3.68504 5054
3.70515 4720
3.72526 4551
3.74538 4212
3.76549 4166
3.7856 4055
3.80572 3776
3.82583 3713
3.84595 3360
3.86606 3263
3.88617 3201
3.90629 3042
3.9264 3102
3.94651 2794
3.96663 2653
3.98674 2677
4.00686 2492
4.02697 2446
4.04708 2227
4.0672 2191
4.08731 2232
4.10742 2014
4.12754 2074
4.14765 1779
4.16776 1885
4.18788 1818
4.20799 1832
4.22811 1786
4.24822 1690
4.26833 1603
4.28845 1699
4.30856 1554
4.32867 1558
4.34879 1415
4.3689 1561
4.38902 1453
4.40913 1437
4.42924 1421
4.44936 1315
4.46947 1263
4.48958 1352
4.5097 1286
4.52981 1308
4.54992 1221
4.57004 1097
4.59015 1199
4.61027 1127
4.63038 1089
4.65049 1112
4.67061 1125
4.69072 1070
4.71083 1048
4.73095 1030
4.75106 983
4.77118 984
4.79129 1027
4.8114 941
4.83152 1017
4.85163 935
4.87174 866
4.89186 901
4.91197 900
4.93209 865
4.9522 846
4.97231 832
4.99243 796
5.01254 823
5.03265 800
5.05277 782
5.07288 778
5.09299 798
5.11311 820
5.13322 730
5.15334 841
5.17345 679
5.19356 690
5.21368 704
5.23379 681
5.2539 701
5.27402 631
5.29413 718
5.31425 675
5.33436 657
5.35447 682
5.37459 640
5.3947 599
5.41481 659
5.43493 651
5.45504 665
5.47516 607
5.49527 632
5.51538 649
5.5355 589
5.55561 685
5.57572 600
5.59584 576
5.61595 561
5.63606 577
5.65618 602
5.67629 603
5.69641 563
5.71652 595
5.73663 604
5.75675 565
5.77686 560
5.79697 582
5.81709 604
5.8372 548
5.85732 621
5.87743 577
5.89754 560
5.91766 539
5.93777 598
5.95788 550
5.978 520
5.99811 566
6.01823 555
6.03834 586
6.05845 545
6.07857 527
6.09868 531
6.11879 530
6.13891 532
6.15902 502
6.17913 573
6.19925 508
6.21936 501
6.23948 485
6.25959 479
6.2797 464
6.29982 483
6.31993 475
6.34004 477
6.36016 476
6.38027 431
6.40039 456
6.4205 437
6.44061 432
6.46073 456
6.48084 402
6.50095 402
6.52107 401
6.54118 447
6.56129 431
6.58141 465
6.60152 414
6.62164 393
6.64175 358
6.66186 369
6.68198 387
6.70209 406
6.7222 347
6.74232 388
6.76243 377
6.78255 380
6.80266 362
6.82277 376
6.84289 366
6.863 346
6.88311 367
6.90323 385
6.92334 369
6.94346 399
6.96357 358
6.98368 373
7.0038 350
7.02391 344
7.04402 343
7.06414 383
7.08425 326
7.10436 328
7.12448 316
7.14459 304
7.16471 334
7.18482 317
7.20493 319
7.22505 333
7.24516 339
7.26527 302
7.28539 335
7.3055 330
7.32562 331
7.34573 326
7.36584 303
7.38596 298
7.40607 328
7.42618 304
7.4463 331
7.46641 293
7.48653 296
7.50664 298
7.52675 304
7.54687 334
7.56698 271
7.58709 267
7.60721 278
7.62732 310
7.64743 343
7.66755 312
7.68766 296
7.70778 285
7.72789 276
7.748 310
7.76812 275
7.78823 306
7.80834 302
7.82846 282
7.84857 301
7.86869 271
7.8888 310
7.90891 321
7.92903 314
7.94914 281
7.96925 271
7.98937 296
8.00948 284
8.0296 290
8.04971 278
8.06982 308
8.08994 307
8.11005 298
8.13016 291
8.15028 273
8.17039 296
8.1905 293
8.21062 260
8.23073 261
8.25085 300
8.27096 287
8.29107 318
8.31119 288
8.3313 256
8.35141 328
8.37153 303
8.39164 244
8.41176 287
8.43187 325
8.45198 298
8.4721 265
8.49221 294
8.51232 315
8.53244 317
8.55255 299
8.57266 298
8.59278 299
8.61289 292
8.63301 288
8.65312 274
8.67323 281
8.69335 294
8.71346 279
8.73357 306
8.75369 277
8.7738 320
8.79392 287
8.81403 284
8.83414 295
8.85426 281
8.87437 262
8.89448 272
8.9146 262
8.93471 309
8.95483 279
8.97494 260
8.99505 294
9.01517 290
9.03528 270
9.05539 278
9.07551 295
9.09562 252
9.11573 293
9.13585 260
9.15596 279
9.17608 279
9.19619 248
9.2163 291
9.23642 257
9.25653 283
9.27664 279
9.29676 303
9.31687 248
9.33699 285
9.3571 257
9.37721 263
9.39733 292
9.41744 248
9.43755 269
9.45767 291
9.47778 246
9.4979 264
9.51801 218
9.53812 249
9.55824 271
9.57835 278
9.59846 256
9.61858 242
9.63869 285
9.6588 269
9.67892 245
9.69903 289
9.71915 252
9.73926 291
9.75937 273
9.77949 276
9.7996 272
9.81971 276
9.83983 277
9.85994 254
9.88006 299
9.90017 254
9.92028 287
9.9404 246
9.96051 246
9.98062 250
10.00074 284
10.02085 260
10.04097 270
10.06108 269
10.08119 276
10.10131 259
10.12142 269
10.14153 263
10.16165 284
10.18176 265
10.20187 280
10.22199 256
10.2421 261
10.26222 249
10.28233 267
10.30244 257
10.32256 274
10.34267 305
10.36278 265
10.3829 304
10.40301 304
10.42313 335
10.44324 294
10.46335 281
10.48347 322
10.50358 314
10.52369 289
10.54381 241
10.56392 303
10.58403 289
10.60415 284
10.62426 257
10.64438 294
10.66449 274
10.6846 270
10.70472 286
10.72483 255
10.74494 255
10.76506 274
10.78517 269
10.80529 272
10.8254 254
10.84551 257
10.86563 250
10.88574 280
10.90585 219
10.92597 243
10.94608 272
10.9662 254
10.98631 285
11.00642 259
11.02654 245
11.04665 292
11.06676 232
11.08688 264
11.10699 265
11.1271 273
11.14722 270
11.16733 265
11.18745 262
11.20756 269
11.22767 266
11.24779 310
11.2679 272
11.28801 278
11.30813 267
11.32824 297
11.34836 258
11.36847 280
11.38858 280
11.4087 282
11.42881 284
11.44892 300
11.46904 274
11.48915 289
11.50927 254
11.52938 283
11.54949 281
11.56961 298
11.58972 263
11.60983 282
11.62995 275
11.65006 287
11.67017 276
11.69029 286
11.7104 319
11.73052 289
11.75063 294
11.77074 307
11.79086 306
11.81097 278
11.83108 283
11.8512 266
11.87131 284
11.89143 278
11.91154 283
11.93165 299
11.95177 305
11.97188 306
11.99199 259
12.01211 289
12.03222 279
12.05234 285
12.07245 285
12.09256 289
12.11268 319
12.13279 339
12.1529 291
12.17302 290
12.19313 297
12.21324 281
12.23336 292
12.25347 292
12.27359 281
12.2937 299
12.31381 252
12.33393 269
12.35404 280
12.37415 269
12.39427 281
12.41438 303
12.4345 279
12.45461 298
12.47472 240
12.49484 263
12.51495 256
12.53506 250
12.55518 268
12.57529 259
12.5954 249
12.61552 257
12.63563 224
12.65575 242
12.67586 236
12.69597 263
12.71609 223
12.7362 235
12.75631 258
12.77643 249
12.79654 250
12.81666 228
12.83677 286
12.85688 234
12.877 268
12.89711 246
12.91722 234
12.93734 240
12.95745 239
12.97757 231
12.99768 266
13.01779 251
13.03791 262
13.05802 261
13.07813 251
13.09825 262
13.11836 275
13.13847 232
13.15859 267
13.1787 208
13.19882 279
13.21893 245
13.23904 250
13.25916 271
13.27927 236
13.29938 266
13.3195 238
13.33961 254
13.35973 269
13.37984 247
13.39995 219
13.42007 230
13.44018 266
13.46029 252
13.48041 230
13.50052 252
13.52064 263
13.54075 266
13.56086 260
13.58098 236
13.60109 289
13.6212 273
13.64132 285
13.66143 305
13.68154 252
13.70166 278
13.72177 275
13.74189 232
13.762 325
13.78211 280
13.80223 281
13.82234 295
13.84245 342
13.86257 321
13.88268 284
13.9028 321
13.92291 281
13.94302 266
13.96314 273
13.98325 258
14.00336 276
14.02348 264
14.04359 222
14.06371 238
14.08382 199
14.10393 230
14.12405 235
14.14416 232
14.16427 204
14.18439 239
14.2045 203
14.22461 221
14.24473 198
14.26484 213
14.28496 216
14.30507 238
14.32518 192
14.3453 211
14.36541 238
14.38552 207
14.40564 238
14.42575 230
14.44587 212
14.46598 226
14.48609 231
14.50621 215
14.52632 209
14.54643 210
14.56655 212
14.58666 207
14.60677 235
14.62689 201
14.647 249
14.66712 229
14.68723 256
14.70734 234
14.72746 221
14.74757 208
14.76768 215
14.7878 242
14.80791 200
14.82803 243
14.84814 245
14.86825 230
14.88837 256
14.90848 228
14.92859 266
14.94871 236
14.96882 261
14.98894 222
15.00905 280
15.02916 254
15.04928 285
15.06939 267
15.0895 288
15.10962 246
15.12973 230
15.14984 229
15.16996 229
15.19007 201
15.21019 259
15.2303 228
15.25041 218
15.27053 213
15.29064 213
15.31075 210
15.33087 211
15.35098 224
15.3711 199
15.39121 226
15.41132 202
15.43144 201
15.45155 219
15.47166 223
15.49178 223
15.51189 232
15.53201 212
15.55212 249
15.57223 224
15.59235 231
15.61246 204
15.63257 190
15.65269 229
15.6728 213
15.69291 210
15.71303 209
15.73314 220
15.75326 253
15.77337 241
15.79348 245
15.8136 235
15.83371 224
15.85382 217
15.87394 216
15.89405 221
15.91417 256
15.93428 206
15.95439 222
15.97451 211
15.99462 194
16.01473 232
16.03485 189
16.05496 216
16.07508 233
16.09519 207
16.1153 175
16.13542 225
16.15553 174
16.17564 249
16.19576 208
16.21587 211
16.23598 213
16.2561 230
16.27621 239
16.29633 203
16.31644 223
16.33655 203
16.35667 234
16.37678 217
16.39689 215
16.41701 220
16.43712 195
16.45724 207
16.47735 183
16.49746 225
16.51758 196
16.53769 203
16.5578 194
16.57792 242
16.59803 210
16.61814 207
16.63826 212
16.65837 236
16.67849 230
16.6986 205
16.71871 211
16.73883 215
16.75894 216
16.77905 211
16.79917 206
16.81928 204
16.8394 189
16.85951 212
16.87962 237
16.89974 189
16.91985 228
16.93996 210
16.96008 206
16.98019 208
17.00031 206
17.02042 217
17.04053 215
17.06065 195
17.08076 214
17.10087 206
17.12099 199
17.1411 199
17.16121 185
17.18133 179
17.20144 220
17.22156 224
17.24167 216
17.26178 198
17.2819 216
17.30201 212
17.32212 222
17.34224 182
17.36235 222
17.38247 188
17.40258 230
17.42269 208
17.44281 206
17.46292 202
17.48303 187
17.50315 227
17.52326 198
17.54338 250
17.56349 215
17.5836 196
17.60372 240
17.62383 202
17.64394 211
17.66406 219
17.68417 218
17.70428 221
17.7244 209
17.74451 210
17.76463 210
17.78474 191
17.80485 208
17.82497 240
17.84508 205
17.86519 202
17.88531 224
17.90542 235
17.92554 236
17.94565 230
17.96576 243
17.98588 242
18.00599 226
18.0261 205
18.04622 198
18.06633 227
18.08645 226
18.10656 202
18.12667 209
18.14679 209
18.1669 224
18.18701 235
18.20713 226
18.22724 226
18.24735 237
18.26747 219
18.28758 224
18.3077 225
18.32781 205
18.34792 226
18.36804 204
18.38815 207
18.40826 196
18.42838 230
18.44849 231
18.46861 211
18.48872 238
18.50883 215
18.52895 214
18.54906 244
18.56917 219
18.58929 214
18.6094 203
18.62951 208
18.64963 211
18.66974 212
18.68986 189
18.70997 214
18.73008 225
18.7502 228
18.77031 234
18.79042 241
18.81054 218
18.83065 247
18.85077 230
18.87088 238
18.89099 224
18.91111 239
18.93122 224
18.95133 214
18.97145 230
18.99156 235
19.01168 211
19.03179 235
19.0519 234
19.07202 215
19.09213 236
19.11224 192
19.13236 224
19.15247 230
19.17258 240
19.1927 263
19.21281 256
19.23293 257
19.25304 242
19.27315 283
19.29327 261
19.31338 250
19.33349 296
19.35361 272
19.37372 269
19.39384 293
19.41395 298
19.43406 324
19.45418 285
19.47429 315
19.4944 311
19.51452 333
19.53463 352
19.55475 361
19.57486 350
19.59497 359
19.61509 428
19.6352 429
19.65531 406
19.67543 391
19.69554 440
19.71565 446
19.73577 487
19.75588 473
19.776 480
19.79611 494
19.81622 496
19.83634 520
19.85645 500
19.87656 509
19.89668 505
19.91679 446
19.93691 450
19.95702 517
19.97713 505
19.99725 499
20.01736 469
20.03747 427
20.05759 428
20.0777 478
20.09782 418
20.11793 408
20.13804 449
20.15816 425
20.17827 444
20.19838 438
20.2185 433
20.23861 454
20.25872 456
20.27884 453
20.29895 474
20.31907 449
20.33918 440
20.35929 449
20.37941 428
20.39952 455
20.41963 468
20.43975 493
20.45986 460
20.47998 446
20.50009 473
20.5202 452
20.54032 489
20.56043 548
20.58054 531
20.60066 584
20.62077 647
20.64088 708
20.661 817
20.68111 1026
20.70123 1245
20.72134 1598
20.74145 1943
20.76157 2521
20.78168 3143
20.80179 3808
20.82191 4269
20.84202 4387
20.86214 4097
20.88225 3368
20.90236 2568
20.92248 1914
20.94259 1308
20.9627 1030
20.98282 885
21.00293 774
21.02305 778
21.04316 737
21.06327 688
21.08339 602
21.1035 547
21.12361 489
21.14373 470
21.16384 429
21.18395 417
21.20407 408
21.22418 402
21.2443 403
21.26441 369
21.28452 355
21.30464 371
21.32475 373
21.34486 354
21.36498 320
21.38509 356
21.40521 362
21.42532 386
21.44543 363
21.46555 343
21.48566 338
21.50577 367
21.52589 347
21.546 343
21.56612 356
21.58623 328
21.60634 351
21.62646 345
21.64657 329
21.66668 367
21.6868 324
21.70691 401
21.72702 371
21.74714 388
21.76725 367
21.78737 374
21.80748 410
21.82759 430
21.84771 464
21.86782 488
21.88793 555
21.90805 603
21.92816 711
21.94828 732
21.96839 754
21.9885 807
22.00862 693
22.02873 656
22.04884 613
22.06896 512
22.08907 460
22.10919 385
22.1293 387
22.14941 401
22.16953 357
22.18964 389
22.20975 394
22.22987 397
22.24998 371
22.27009 383
22.29021 391
22.31032 398
22.33044 348
22.35055 345
22.37066 363
22.39078 338
22.41089 324
22.431 328
22.45112 292
22.47123 342
22.49135 330
22.51146 332
22.53157 338
22.55169 328
22.5718 344
22.59191 369
22.61203 318
22.63214 325
22.65225 357
22.67237 327
22.69248 320
22.7126 328
22.73271 337
22.75282 307
22.77294 308
22.79305 351
22.81316 391
22.83328 343
22.85339 360
22.87351 386
22.89362 403
22.91373 401
22.93385 392
22.95396 386
22.97407 410
22.99419 338
23.0143 376
23.03442 359
23.05453 376
23.07464 358
23.09476 408
23.11487 399
23.13498 394
23.1551 375
23.17521 425
23.19532 446
23.21544 334
23.23555 383
23.25567 382
23.27578 377
23.29589 406
23.31601 364
23.33612 368
23.35623 318
23.37635 392
23.39646 375
23.41658 459
23.43669 399
23.4568 396
23.47692 426
23.49703 448
23.51714 465
23.53726 498
23.55737 534
23.57749 544
23.5976 526
23.61771 487
23.63783 478
23.65794 411
23.67805 429
23.69817 428
23.71828 400
23.73839 400
23.75851 366
23.77862 391
23.79874 419
23.81885 474
23.83896 455
23.85908 518
23.87919 506
23.8993 520
23.91942 562
23.93953 543
23.95965 601
23.97976 576
23.99987 581
24.01999 525
24.0401 429
24.06021 440
24.08033 430
24.10044 399
24.12056 392
24.14067 408
24.16078 463
24.1809 470
24.20101 494
24.22112 545
24.24124 558
24.26135 511
24.28146 557
24.30158 499
24.32169 492
24.34181 493
24.36192 433
24.38203 436
24.40215 417
24.42226 392
24.44237 389
24.46249 411
24.4826 382
24.50272 333
24.52283 352
24.54294 382
24.56306 339
24.58317 365
24.60328 368
24.6234 322
24.64351 342
24.66362 333
24.68374 342
24.70385 395
24.72397 321
24.74408 351
24.76419 335
24.78431 348
24.80442 358
24.82453 348
24.84465 354
24.86476 383
24.88488 360
24.90499 355
24.9251 363
24.94522 391
24.96533 366
24.98544 354
25.00556 359
25.02567 339
25.04579 334
25.0659 360
25.08601 383
25.10613 362
25.12624 351
25.14635 399
25.16647 381
25.18658 353
25.20669 353
25.22681 406
25.24692 383
25.26704 375
25.28715 390
25.30726 347
25.32738 350
25.34749 390
25.3676 400
25.38772 422
25.40783 439
25.42795 494
25.44806 484
25.46817 522
25.48829 563
25.5084 543
25.52851 566
25.54863 562
25.56874 606
25.58886 610
25.60897 538
25.62908 570
25.6492 576
25.66931 508
25.68942 495
25.70954 519
25.72965 493
25.74976 540
25.76988 512
25.78999 441
25.81011 457
25.83022 449
25.85033 452
25.87045 456
25.89056 450
25.91067 462
25.93079 477
25.9509 463
25.97102 491
25.99113 464
26.01124 522
26.03136 481
26.05147 497
26.07158 506
26.0917 574
26.11181 624
26.13193 633
26.15204 668
26.17215 687
26.19227 715
26.21238 782
26.23249 872
26.25261 912
26.27272 1039
26.29283 1175
26.31295 1199
26.33306 1355
26.35318 1567
26.37329 1796
26.3934 2203
26.41352 2765
26.43363 3350
26.45374 4199
26.47386 5473
26.49397 6920
26.51409 8816
26.5342 11236
26.55431 13556
26.57443 16237
26.59454 17890
26.61465 18728
26.63477 17519
26.65488 14886
26.67499 11539
26.69511 8610
26.71522 6270
26.73534 4011
26.75545 2458
26.77556 1733
26.79568 1411
26.81579 1151
26.8359 1107
26.85602 1098
26.87613 1018
26.89625 979
26.91636 899
26.93647 863
26.95659 865
26.9767 797
26.99681 803
27.01693 858
27.03704 827
27.05716 802
27.07727 809
27.09738 740
27.1175 690
27.13761 689
27.15772 617
27.17784 643
27.19795 627
27.21806 572
27.23818 582
27.25829 599
27.27841 622
27.29852 635
27.31863 696
27.33875 806
27.35886 796
27.37897 862
27.39909 843
27.4192 896
27.43932 922
27.45943 967
27.47954 893
27.49966 910
27.51977 835
27.53988 727
27.56 694
27.58011 688
27.60023 672
27.62034 659
27.64045 716
27.66057 762
27.68068 849
27.70079 948
27.72091 953
27.74102 1064
27.76113 1143
27.78125 1130
27.80136 1081
27.82148 1227
27.84159 1113
27.8617 1170
27.88182 1144
27.90193 1127
27.92204 1064
27.94216 1122
27.96227 1089
27.98239 976
28.0025 926
28.02261 775
28.04273 659
28.06284 615
28.08295 555
28.10307 492
28.12318 508
28.1433 490
28.16341 476
28.18352 486
28.20364 503
28.22375 516
28.24386 469
28.26398 529
28.28409 486
28.3042 504
28.32432 437
28.34443 470
28.36455 385
28.38466 380
28.40477 339
28.42489 345
28.445 351
28.46511 301
28.48523 305
28.50534 317
28.52546 308
28.54557 294
28.56568 298
28.5858 317
28.60591 296
28.62602 285
28.64614 279
28.66625 312
28.68636 318
28.70648 320
28.72659 338
28.74671 323
28.76682 301
28.78693 323
28.80705 291
28.82716 295
28.84727 301
28.86739 266
28.8875 294
28.90762 275
28.92773 280
28.94784 309
28.96796 278
28.98807 288
29.00818 285
29.0283 274
29.04841 285
29.06853 283
29.08864 296
29.10875 306
29.12887 270
29.14898 289
29.16909 264
29.18921 265
29.20932 314
29.22943 288
29.24955 296
29.26966 268
29.28978 301
29.30989 335
29.33 265
29.35012 315
29.37023 335
29.39034 340
29.41046 297
29.43057 356
29.45069 362
29.4708 317
29.49091 348
29.51103 346
29.53114 332
29.55125 287
29.57137 310
29.59148 318
29.6116 330
29.63171 329
29.65182 373
29.67194 352
29.69205 376
29.71216 363
29.73228 390
29.75239 410
29.7725 411
29.79262 437
29.81273 451
29.83285 403
29.85296 353
29.87307 353
29.89319 361
29.9133 362
29.93341 354
29.95353 346
29.97364 307
29.99376 342
30.01387 361
30.03398 344
30.0541 362
30.07421 365
30.09432 380
30.11444 369
30.13455 375
30.15467 385
30.17478 417
30.19489 383
30.21501 420
30.23512 467
30.25523 431
30.27535 424
30.29546 428
30.31557 457
30.33569 493
30.3558 488
30.37592 491
30.39603 478
30.41614 480
30.43626 465
30.45637 395
30.47648 376
30.4966 387
30.51671 356
30.53683 335
30.55694 300
30.57705 349
30.59717 343
30.61728 293
30.63739 345
30.65751 348
30.67762 326
30.69773 359
30.71785 347
30.73796 389
30.75808 385
30.77819 353
30.7983 355
30.81842 340
30.83853 318
30.85864 350
30.87876 342
30.89887 327
30.91899 307
30.9391 309
30.95921 275
30.97933 265
30.99944 277
31.01955 265
31.03967 272
31.05978 277
31.0799 280
31.10001 259
31.12012 273
31.14024 259
31.16035 264
31.18046 242
31.20058 289
31.22069 308
31.2408 275
31.26092 325
31.28103 296
31.30115 294
31.32126 329
31.34137 293
31.36149 288
31.3816 326
31.40171 289
31.42183 303
31.44194 291
31.46206 284
31.48217 280
31.50228 280
31.5224 270
31.54251 286
31.56262 258
31.58274 252
31.60285 251
31.62297 240
31.64308 237
31.66319 265
31.68331 239
31.70342 247
31.72353 253
31.74365 238
31.76376 259
31.78387 267
31.80399 236
31.8241 257
31.84422 250
31.86433 252
31.88444 211
31.90456 238
31.92467 244
31.94478 238
31.9649 224
31.98501 271
32.00513 235
32.02524 261
32.04535 238
32.06547 261
32.08558 237
32.10569 244
32.12581 280
32.14592 240
32.16604 260
32.18615 290
32.20626 266
32.22638 290
32.24649 285
32.2666 243
32.28672 311
32.30683 269
32.32694 252
32.34706 266
32.36717 247
32.38729 299
32.4074 301
32.42751 235
32.44763 258
32.46774 254
32.48785 250
32.50797 265
32.52808 222
32.5482 239
32.56831 219
32.58842 223
32.60854 252
32.62865 200
32.64876 212
32.66888 220
32.68899 217
32.7091 216
32.72922 255
32.74933 228
32.76945 253
32.78956 240
32.80967 224
32.82979 206
32.8499 225
32.87001 259
32.89013 230
32.91024 218
32.93036 233
32.95047 237
32.97058 272
32.9907 258
33.01081 251
33.03092 236
33.05104 230
33.07115 212
33.09127 212
33.11138 223
33.13149 227
33.15161 198
33.17172 229
33.19183 224
33.21195 253
33.23206 212
33.25217 194
33.27229 209
33.2924 200
33.31252 202
33.33263 189
33.35274 199
33.37286 224
33.39297 221
33.41308 235
33.4332 217
33.45331 213
33.47343 214
33.49354 226
33.51365 225
33.53377 222
33.55388 219
33.57399 206
33.59411 205
33.61422 216
33.63434 242
33.65445 233
33.67456 256
33.69468 236
33.71479 249
33.7349 261
33.75502 225
33.77513 246
33.79524 290
33.81536 277
33.83547 284
33.85559 276
33.8757 279
33.89581 263
33.91593 237
33.93604 227
33.95615 273
33.97627 258
33.99638 258
34.0165 261
34.03661 256
34.05672 252
34.07684 252
34.09695 251
34.11706 240
34.13718 322
34.15729 305
34.17741 288
34.19752 290
34.21763 327
34.23775 340
34.25786 323
34.27797 312
34.29809 291
34.3182 321
34.33831 333
34.35843 297
34.37854 303
34.39866 313
34.41877 318
34.43888 302
34.459 311
34.47911 301
34.49922 306
34.51934 315
34.53945 295
34.55957 332
34.57968 321
34.59979 321
34.61991 372
34.64002 347
34.66013 367
34.68025 340
34.70036 354
34.72047 353
34.74059 321
34.7607 363
34.78082 348
34.80093 348
34.82104 349
34.84116 357
34.86127 339
34.88138 372
34.9015 397
34.92161 364
34.94173 347
34.96184 359
34.98195 383
35.00207 370
35.02218 426
35.04229 355
35.06241 331
35.08252 375
35.10264 379
35.12275 399
35.14286 394
35.16298 409
35.18309 393
35.2032 439
35.22332 413
35.24343 454
35.26354 445
35.28366 426
35.30377 448
35.32389 454
35.344 418
35.36411 375
35.38423 436
35.40434 369
35.42445 375
35.44457 376
35.46468 331
35.4848 378
35.50491 391
35.52502 347
35.54514 370
35.56525 352
35.58536 388
35.60548 310
35.62559 367
35.64571 336
35.66582 345
35.68593 327
35.70605 321
35.72616 322
35.74627 330
35.76639 314
35.7865 315
35.80661 344
35.82673 296
35.84684 328
35.86696 328
35.88707 288
35.90718 330
35.9273 295
35.94741 303
35.96752 303
35.98764 307
36.00775 315
36.02787 352
36.04798 336
36.06809 335
36.08821 339
36.10832 321
36.12843 322
36.14855 360
36.16866 363
36.18878 370
36.20889 366
36.229 411
36.24912 436
36.26923 464
36.28934 459
36.30946 455
36.32957 517
36.34968 581
36.3698 663
36.38991 808
36.41003 901
36.43014 1011
36.45025 1137
36.47037 1321
36.49048 1371
36.51059 1514
36.53071 1416
36.55082 1261
36.57094 1039
36.59105 973
36.61116 878
36.63128 666
36.65139 557
36.6715 452
36.69162 391
36.71173 354
36.73184 336
36.75196 309
36.77207 330
36.79219 328
36.8123 353
36.83241 332
36.85253 342
36.87264 299
36.89275 339
36.91287 362
36.93298 305
36.9531 342
36.97321 343
36.99332 371
37.01344 363
37.03355 364
37.05366 349
37.07378 329
37.09389 283
37.11401 302
37.13412 271
37.15423 281
37.17435 293
37.19446 297
37.21457 294
37.23469 291
37.2548 294
37.27491 269
37.29503 286
37.31514 299
37.33526 257
37.35537 332
37.37548 314
37.3956 308
37.41571 294
37.43582 299
37.45594 301
37.47605 305
37.49617 308
37.51628 302
37.53639 350
37.55651 309
37.57662 322
37.59673 306
37.61685 286
37.63696 299
37.65708 286
37.67719 305
37.6973 311
37.71742 311
37.73753 278
37.75764 245
37.77776 277
37.79787 283
37.81798 278
37.8381 246
37.85821 269
37.87833 285
37.89844 273
37.91855 286
37.93867 297
37.95878 262
37.97889 271
37.99901 281
38.01912 277
38.03924 281
38.05935 267
38.07946 267
38.09958 270
38.11969 286
38.1398 265
38.15992 308
38.18003 268
38.20015 271
38.22026 274
38.24037 295
38.26049 251
38.2806 283
38.30071 266
38.32083 300
38.34094 294
38.36105 323
38.38117 286
38.40128 313
38.4214 286
38.44151 297
38.46162 287
38.48174 297
38.50185 287
38.52196 286
38.54208 292
38.56219 307
38.58231 347
38.60242 301
38.62253 296
38.64265 258
38.66276 286
38.68287 294
38.70299 267
38.7231 273
38.74321 259
38.76333 267
38.78344 269
38.80356 280
38.82367 289
38.84378 275
38.8639 273
38.88401 289
38.90412 284
38.92424 293
38.94435 287
38.96447 305
38.98458 281
39.00469 308
39.02481 273
39.04492 307
39.06503 322
39.08515 301
39.10526 324
39.12538 357
39.14549 346
39.1656 344
39.18572 391
39.20583 404
39.22594 439
39.24606 462
39.26617 535
39.28628 599
39.3064 658
39.32651 814
39.34663 890
39.36674 1067
39.38685 1175
39.40697 1257
39.42708 1341
39.44719 1233
39.46731 1179
39.48742 1047
39.50754 853
39.52765 790
39.54776 739
39.56788 624
39.58799 497
39.6081 367
39.62822 343
39.64833 305
39.66845 293
39.68856 301
39.70867 286
39.72879 284
39.7489 274
39.76901 270
39.78913 278
39.80924 245
39.82935 271
39.84947 262
39.86958 259
39.8897 274
39.90981 265
39.92992 276
39.95004 292
39.97015 259
39.99026 284
40.01038 329
40.03049 341
40.05061 350
40.07072 346
40.09083 390
40.11095 413
40.13106 473
40.15117 504
40.17129 519
40.1914 627
40.21152 701
40.23163 724
40.25174 729
40.27186 700
40.29197 678
40.31208 607
40.3322 519
40.35231 487
40.37242 448
40.39254 443
40.41265 358
40.43277 299
40.45288 290
40.47299 260
40.49311 259
40.51322 251
40.53333 263
40.55345 265
40.57356 231
40.59368 244
40.61379 224
40.6339 238
40.65402 253
40.67413 236
40.69424 229
40.71436 246
40.73447 239
40.75458 256
40.7747 238
40.79481 262
40.81493 232
40.83504 266
40.85515 228
40.87527 245
40.89538 248
40.91549 236
40.93561 258
40.95572 226
40.97584 241
40.99595 257
41.01606 243
41.03618 249
41.05629 257
41.0764 247
41.09652 227
41.11663 260
41.13675 252
41.15686 238
41.17697 237
41.19709 232
41.2172 228
41.23731 225
41.25743 241
41.27754 238
41.29765 248
41.31777 257
41.33788 246
41.358 226
41.37811 252
41.39822 244
41.41834 237
41.43845 252
41.45856 260
41.47868 257
41.49879 250
41.51891 258
41.53902 284
41.55913 292
41.57925 283
41.59936 305
41.61947 273
41.63959 299
41.6597 315
41.67982 324
41.69993 329
41.72004 304
41.74016 341
41.76027 365
41.78038 358
41.8005 311
41.82061 341
41.84072 322
41.86084 285
41.88095 320
41.90107 315
41.92118 301
41.94129 282
41.96141 252
41.98152 277
42.00163 269
42.02175 281
42.04186 271
42.06198 294
42.08209 257
42.1022 326
42.12232 317
42.14243 327
42.16254 330
42.18266 372
42.20277 380
42.22289 429
42.243 442
42.26311 524
42.28323 540
42.30334 625
42.32345 746
42.34357 814
42.36368 899
42.38379 945
42.40391 1017
42.42402 993
42.44414 941
42.46425 781
42.48436 699
42.50448 674
42.52459 528
42.5447 556
42.56482 435
42.58493 349
42.60505 331
42.62516 299
42.64527 292
42.66539 301
42.6855 275
42.70561 297
42.72573 257
42.74584 299
42.76595 278
42.78607 278
42.80618 268
42.8263 310
42.84641 279
42.86652 283
42.88664 260
42.90675 261
42.92686 284
42.94698 274
42.96709 254
42.98721 265
43.00732 242
43.02743 260
43.04755 246
43.06766 217
43.08777 234
43.10789 240
43.128 234
43.14812 216
43.16823 245
43.18834 253
43.20846 234
43.22857 243
43.24868 220
43.2688 234
43.28891 236
43.30902 223
43.32914 235
43.34925 230
43.36937 226
43.38948 197
43.40959 225
43.42971 238
43.44982 218
43.46993 214
43.49005 204
43.51016 216
43.53028 228
43.55039 224
43.5705 216
43.59062 219
43.61073 221
43.63084 228
43.65096 207
43.67107 230
43.69119 220
43.7113 222
43.73141 219
43.75153 193
43.77164 240
43.79175 194
43.81187 218
43.83198 186
43.85209 221
43.87221 201
43.89232 204
43.91244 217
43.93255 210
43.95266 212
43.97278 240
43.99289 232
44.013 234
44.03312 214
44.05323 207
44.07335 213
44.09346 231
44.11357 221
44.13369 218
44.1538 238
44.17391 259
44.19403 201
44.21414 213
44.23426 233
44.25437 233
44.27448 228
44.2946 191
44.31471 216
44.33482 211
44.35494 227
44.37505 180
44.39516 200
44.41528 203
44.43539 236
44.45551 221
44.47562 215
44.49573 217
44.51585 197
44.53596 227
44.55607 210
44.57619 194
44.5963 238
44.61642 205
44.63653 217
44.65664 208
44.67676 213
44.69687 226
44.71698 232
44.7371 194
44.75721 237
44.77732 237
44.79744 229
44.81755 212
44.83767 238
44.85778 251
44.87789 240
44.89801 200
44.91812 243
44.93823 240
44.95835 237
44.97846 234
44.99858 235
45.01869 234
45.0388 240
45.05892 227
45.07903 220
45.09914 218
45.11926 234
45.13937 218
45.15949 236
45.1796 219
45.19971 222
45.21983 236
45.23994 235
45.26005 229
45.28017 239
45.30028 249
45.32039 237
45.34051 270
45.36062 258
45.38074 282
45.40085 260
45.42096 311
45.44108 283
45.46119 264
45.4813 285
45.50142 295
45.52153 322
45.54165 333
45.56176 384
45.58187 408
45.60199 431
45.6221 490
45.64221 538
45.66233 572
45.68244 586
45.70256 673
45.72267 720
45.74278 715
45.7629 733
45.78301 690
45.80312 618
45.82324 510
45.84335 495
45.86346 472
45.88358 417
45.90369 393
45.92381 365
45.94392 325
45.96403 275
45.98415 256
46.00426 231
46.02437 229
46.04449 269
46.0646 185
46.08472 220
46.10483 253
46.12494 218
46.14506 233
46.16517 219
46.18528 241
46.2054 212
46.22551 237
46.24563 231
46.26574 219
46.28585 211
46.30597 206
46.32608 216
46.34619 228
46.36631 219
46.38642 229
46.40653 201
46.42665 231
46.44676 228
46.46688 202
46.48699 214
46.5071 195
46.52722 202
46.54733 184
46.56744 189
46.58756 201
46.60767 210
46.62779 198
46.6479 192
46.66801 201
46.68813 201
46.70824 216
46.72835 216
46.74847 209
46.76858 204
46.78869 214
46.80881 214
46.82892 225
46.84904 227
46.86915 215
46.88926 227
46.90938 241
46.92949 217
46.9496 245
46.96972 219
46.98983 215
47.00995 239
47.03006 214
47.05017 235
47.07029 245
47.0904 213
47.11051 223
47.13063 236
47.15074 225
47.17086 233
47.19097 228
47.21108 203
47.2312 227
47.25131 208
47.27142 222
47.29154 202
47.31165 198
47.33176 218
47.35188 205
47.37199 263
47.39211 213
47.41222 224
47.43233 242
47.45245 258
47.47256 247
47.49267 265
47.51279 255
47.5329 227
47.55302 257
47.57313 232
47.59324 196
47.61336 208
47.63347 243
47.65358 238
47.6737 219
47.69381 197
47.71393 221
47.73404 215
47.75415 216
47.77427 220
47.79438 185
47.81449 186
47.83461 212
47.85472 201
47.87483 203
47.89495 206
47.91506 203
47.93518 197
47.95529 208
47.9754 212
47.99552 232
48.01563 232
48.03574 231
48.05586 201
48.07597 207
48.09609 213
48.1162 238
48.13631 205
48.15643 240
48.17654 203
48.19665 239
48.21677 211
48.23688 232
48.257 203
48.27711 203
48.29722 228
48.31734 227
48.33745 226
48.35756 215
48.37768 211
48.39779 209
48.4179 223
48.43802 214
48.45813 205
48.47825 205
48.49836 211
48.51847 221
48.53859 206
48.5587 194
48.57881 210
48.59893 214
48.61904 204
48.63916 210
48.65927 203
48.67938 212
48.6995 215
48.71961 230
48.73972 222
48.75984 220
48.77995 219
48.80006 217
48.82018 228
48.84029 217
48.86041 217
48.88052 241
48.90063 230
48.92075 235
48.94086 237
48.96097 255
48.98109 266
49.0012 242
49.02132 225
49.04143 245
49.06154 297
49.08166 257
49.10177 247
49.12188 248
49.142 280
49.16211 283
49.18223 245
49.20234 258
49.22245 220
49.24257 245
49.26268 241
49.28279 230
49.30291 212
49.32302 256
49.34313 215
49.36325 262
49.38336 231
49.40348 239
49.42359 233
49.4437 219
49.46382 240
49.48393 231
49.50404 231
49.52416 240
49.54427 264
49.56439 277
49.5845 268
49.60461 321
49.62473 306
49.64484 323
49.66495 297
49.68507 261
49.70518 332
49.7253 376
49.74541 399
49.76552 408
49.78564 427
49.80575 496
49.82586 510
49.84598 540
49.86609 587
49.8862 630
49.90632 739
49.92643 803
49.94655 897
49.96666 1008
49.98677 1230
50.00689 1322
50.027 1530
50.04711 1672
50.06723 1924
50.08734 1956
50.10746 1971
50.12757 1742
50.14768 1528
50.1678 1203
50.18791 1115
50.20802 1041
50.22814 1046
50.24825 919
50.26837 721
50.28848 619
50.30859 482
50.32871 408
50.34882 352
50.36893 358
50.38905 323
50.40916 341
50.42927 349
50.44939 346
50.4695 339
50.48962 350
50.50973 335
50.52984 333
50.54996 356
50.57007 374
50.59018 352
50.6103 371
50.63041 353
50.65053 305
50.67064 350
50.69075 315
50.71087 323
50.73098 303
50.75109 298
50.77121 283
50.79132 273
50.81143 276
50.83155 256
50.85166 252
50.87178 256
50.89189 237
50.912 237
50.93212 228
50.95223 239
50.97234 221
50.99246 231
51.01257 218
51.03269 233
51.0528 231
51.07291 270
51.09303 234
51.11314 225
51.13325 265
51.15337 232
51.17348 262
51.1936 260
51.21371 286
51.23382 254
51.25394 284
51.27405 271
51.29416 306
51.31428 261
51.33439 253
51.3545 228
51.37462 251
51.39473 227
51.41485 248
51.43496 221
51.45507 208
51.47519 221
51.4953 217
51.51541 219
51.53553 186
51.55564 215
51.57576 212
51.59587 200
51.61598 190
51.6361 183
51.65621 206
51.67632 188
51.69644 196
51.71655 187
51.73667 187
51.75678 187
51.77689 184
51.79701 201
51.81712 215
51.83723 215
51.85735 214
51.87746 167
51.89757 183
51.91769 204
51.9378 210
51.95792 200
51.97803 216
51.99814 205
52.01826 172
52.03837 214
52.05848 175
52.0786 187
52.09871 195
52.11883 202
52.13894 206
52.15905 205
52.17917 211
52.19928 196
52.21939 194
52.23951 164
52.25962 243
52.27974 204
52.29985 206
52.31996 215
52.34008 211
52.36019 191
52.3803 214
52.40042 217
52.42053 177
52.44064 195
52.46076 201
52.48087 183
52.50099 197
52.5211 209
52.54121 224
52.56133 243
52.58144 243
52.60155 192
52.62167 203
52.64178 245
52.6619 219
52.68201 229
52.70212 230
52.72224 220
52.74235 189
52.76246 238
52.78258 230
52.80269 221
52.8228 207
52.84292 232
52.86303 211
52.88315 225
52.90326 198
52.92337 190
52.94349 215
52.9636 205
52.98371 212
53.00383 231
53.02394 225
53.04406 232
53.06417 261
53.08428 226
53.1044 215
53.12451 233
53.14462 230
53.16474 214
53.18485 244
53.20497 225
53.22508 208
53.24519 246
53.26531 228
53.28542 251
53.30553 203
53.32565 203
53.34576 216
53.36587 212
53.38599 204
53.4061 214
53.42622 211
53.44633 212
53.46644 201
53.48656 191
53.50667 225
53.52678 225
53.5469 213
53.56701 210
53.58713 236
53.60724 209
53.62735 204
53.64747 208
53.66758 212
53.68769 207
53.70781 223
53.72792 248
53.74804 253
53.76815 236
53.78826 210
53.80838 224
53.82849 240
53.8486 242
53.86872 240
53.88883 244
53.90894 209
53.92906 230
53.94917 245
53.96929 232
53.9894 250
54.00951 219
54.02963 232
54.04974 230
54.06985 232
54.08997 258
54.11008 225
54.1302 220
54.15031 264
54.17042 198
54.19054 223
54.21065 253
54.23076 237
54.25088 227
54.27099 243
54.29111 244
54.31122 252
54.33133 234
54.35145 238
54.37156 237
54.39167 243
54.41179 242
54.4319 261
54.45201 235
54.47213 280
54.49224 280
54.51236 271
54.53247 286
54.55258 283
54.5727 308
54.59281 299
54.61292 337
54.63304 369
54.65315 389
54.67327 432
54.69338 437
54.71349 484
54.73361 506
54.75372 619
54.77383 646
54.79395 689
54.81406 681
54.83417 667
54.85429 640
54.8744 585
54.89452 548
54.91463 510
54.93474 449
54.95486 502
54.97497 481
54.99508 424
55.0152 405
55.03531 335
55.05543 346
55.07554 331
55.09565 311
55.11577 300
55.13588 325
55.15599 305
55.17611 374
55.19622 356
55.21634 387
55.23645 402
55.25656 417
55.27668 443
55.29679 414
55.3169 389
55.33702 379
55.35713 381
55.37724 369
55.39736 349
55.41747 347
55.43759 342
55.4577 301
55.47781 286
55.49793 276
55.51804 243
55.53815 224
55.55827 234
55.57838 220
55.5985 220
55.61861 232
55.63872 224
55.65884 217
55.67895 215
55.69906 228
55.71918 222
55.73929 191
55.75941 207
55.77952 223
55.79963 219
55.81975 226
55.83986 232
55.85997 194
55.88009 236
55.9002 252
55.92031 227
55.94043 202
55.96054 206
55.98066 193
56.00077 184
56.02088 199
56.041 189
56.06111 204
56.08122 215
56.10134 209
56.12145 220
56.14157 211
56.16168 205
56.18179 202
56.20191 176
56.22202 183
56.24213 217
56.26225 187
56.28236 193
56.30248 198
56.32259 183
56.3427 206
56.36282 205
56.38293 178
56.40304 191
56.42316 188
56.44327 208
56.46338 187
56.4835 186
56.50361 185
56.52373 202
56.54384 187
56.56395 222
56.58407 187
56.60418 219
56.62429 211
56.64441 208
56.66452 197
56.68464 218
56.70475 209
56.72486 205
56.74498 201
56.76509 201
56.7852 193
56.80532 191
56.82543 215
56.84554 224
56.86566 195
56.88577 182
56.90589 196
56.926 199
56.94611 213
56.96623 197
56.98634 189
57.00645 206
57.02657 189
57.04668 214
57.0668 176
57.08691 209
57.10702 210
57.12714 190
57.14725 192
57.16736 237
57.18748 225
57.20759 201
57.22771 232
57.24782 226
57.26793 193
57.28805 246
57.30816 211
57.32827 217
57.34839 191
57.3685 194
57.38861 219
57.40873 201
57.42884 219
57.44896 187
57.46907 218
57.48918 204
57.5093 207
57.52941 200
57.54952 242
57.56964 197
57.58975 161
57.60987 212
57.62998 207
57.65009 204
57.67021 208
57.69032 198
57.71043 198
57.73055 207
57.75066 177
57.77078 192
57.79089 184
57.811 193
57.83112 207
57.85123 209
57.87134 164
57.89146 174
57.91157 224
57.93168 191
57.9518 205
57.97191 198
57.99203 213
58.01214 222
58.03225 204
58.05237 207
58.07248 194
58.09259 180
58.11271 208
58.13282 185
58.15294 201
58.17305 175
58.19316 203
58.21328 199
58.23339 209
58.2535 210
58.27362 185
58.29373 193
58.31385 224
58.33396 211
58.35407 207
58.37419 185
58.3943 222
58.41441 201
58.43453 232
58.45464 211
58.47475 227
58.49487 220
58.51498 209
58.5351 221
58.55521 238
58.57532 203
58.59544 208
58.61555 217
58.63566 199
58.65578 237
58.67589 223
58.69601 229
58.71612 215
58.73623 195
58.75635 181
58.77646 221
58.79657 208
58.81669 203
58.8368 189
58.85691 203
58.87703 179
58.89714 201
58.91726 212
58.93737 195
58.95748 213
58.9776 207
58.99771 192
59.01782 192
59.03794 213
59.05805 214
59.07817 182
59.09828 173
59.11839 195
59.13851 204
59.15862 180
59.17873 243
59.19885 201
59.21896 187
59.23908 188
59.25919 199
59.2793 199
59.29942 211
59.31953 214
59.33964 209
59.35976 214
59.37987 220
59.39998 214
59.4201 209
59.44021 243
59.46033 246
59.48044 272
59.50055 279
59.52067 295
59.54078 274
59.56089 313
59.58101 315
59.60112 321
59.62124 378
59.64135 374
59.66146 409
59.68158 476
59.70169 484
59.7218 570
59.74192 539
59.76203 680
59.78215 726
59.80226 871
59.82237 936
59.84249 1095
59.8626 1139
59.88271 1173
59.90283 1239
59.92294 1127
59.94305 1101
59.96317 959
59.98328 816
60.0034 754
60.02351 752
60.04362 710
60.06374 699
60.08385 636
60.10396 641
60.12408 484
60.14419 437
60.16431 361
60.18442 289
60.20453 300
60.22465 259
60.24476 251
60.26487 241
60.28499 246
60.3051 234
60.32522 229
60.34533 214
60.36544 200
60.38556 223
60.40567 215
60.42578 225
60.4459 204
60.46601 185
60.48612 226
60.50624 214
60.52635 205
60.54647 224
60.56658 204
60.58669 201
60.60681 214
60.62692 199
60.64703 237
60.66715 227
60.68726 222
60.70738 218
60.72749 196
60.7476 226
60.76772 207
60.78783 206
60.80794 210
60.82806 218
60.84817 228
60.86828 225
60.8884 208
60.90851 230
60.92863 222
60.94874 221
60.96885 215
60.98897 214
61.00908 228
61.02919 212
61.04931 217
61.06942 231
61.08954 212
61.10965 231
61.12976 226
61.14988 241
61.16999 224
61.1901 238
61.21022 216
61.23033 221
61.25045 223
61.27056 243
61.29067 223
61.31079 215
61.3309 238
61.35101 240
61.37113 230
61.39124 232
61.41135 239
61.43147 227
61.45158 251
61.4717 232
61.49181 246
61.51192 216
61.53204 219
61.55215 231
61.57226 212
61.59238 224
61.61249 218
61.63261 209
61.65272 233
61.67283 251
61.69295 230
61.71306 264
61.73317 237
61.75329 217
61.7734 238
61.79352 228
61.81363 227
61.83374 254
61.85386 232
61.87397 241
61.89408 246
61.9142 267
61.93431 248
61.95442 244
61.97454 250
61.99465 229
62.01477 271
62.03488 241
62.05499 249
62.07511 297
62.09522 251
62.11533 242
62.13545 227
62.15556 249
62.17568 240
62.19579 243
62.2159 228
62.23602 257
62.25613 260
62.27624 225
62.29636 226
62.31647 227
62.33659 226
62.3567 238
62.37681 252
62.39693 233
62.41704 228
62.43715 235
62.45727 225
62.47738 210
62.49749 229
62.51761 215
62.53772 195
62.55784 218
62.57795 218
62.59806 213
62.61818 222
62.63829 251
62.6584 195
62.67852 195
62.69863 214
62.71875 204
62.73886 213
62.75897 226
62.77909 204
62.7992 222
62.81931 214
62.83943 212
62.85954 230
62.87965 216
62.89977 220
62.91988 208
62.94 218
62.96011 210
62.98022 197
63.00034 214
63.02045 197
63.04056 224
63.06068 235
63.08079 231
63.10091 211
63.12102 205
63.14113 185
63.16125 188
63.18136 214
63.20147 198
63.22159 194
63.2417 237
63.26182 214
63.28193 224
63.30204 218
63.32216 204
63.34227 226
63.36238 210
63.3825 230
63.40261 210
63.42272 229
63.44284 195
63.46295 208
63.48307 192
63.50318 215
63.52329 221
63.54341 229
63.56352 231
63.58363 225
63.60375 224
63.62386 257
63.64398 246
63.66409 232
63.6842 256
63.70432 256
63.72443 256
63.74454 250
63.76466 258
63.78477 302
63.80489 316
63.825 295
63.84511 328
63.86523 342
63.88534 364
63.90545 336
63.92557 398
63.94568 377
63.96579 389
63.98591 371
64.00602 374
64.02614 357
64.04625 318
64.06636 328
64.08648 304
64.10659 296
64.1267 281
64.14682 297
64.16693 240
64.18705 271
64.20716 264
64.22727 234
64.24739 207
64.2675 195
64.28761 206
64.30773 183
64.32784 196
64.34796 189
64.36807 167
64.38818 196
64.4083 177
64.42841 214
64.44852 177
64.46864 192
64.48875 182
64.50886 172
64.52898 182
64.54909 185
64.56921 157
64.58932 189
64.60943 177
64.62955 193
64.64966 183
64.66977 203
64.68989 196
64.71 177
64.73012 167
64.75023 217
64.77034 188
64.79046 205
64.81057 193
64.83068 188
64.8508 194
64.87091 189
64.89102 163
64.91114 207
64.93125 162
64.95137 188
64.97148 213
64.99159 200
65.01171 220
65.03182 203
65.05193 199
65.07205 199
65.09216 196
65.11228 175
65.13239 217
65.1525 193
65.17262 199
65.19273 206
65.21284 206
65.23296 197
65.25307 220
65.27319 222
65.2933 186
65.31341 195
65.33353 183
65.35364 198
65.37375 213
65.39387 203
65.41398 219
65.43409 208
65.45421 187
65.47432 217
65.49444 219
65.51455 209
65.53466 202
65.55478 209
65.57489 205
65.595 203
65.61512 225
65.63523 223
65.65535 228
65.67546 204
65.69557 232
65.71569 233
65.7358 243
65.75591 214
65.77603 202
65.79614 231
65.81626 198
65.83637 210
65.85648 212
65.8766 204
65.89671 210
65.91682 210
65.93694 211
65.95705 195
65.97716 172
65.99728 172
66.01739 172
66.03751 189
66.05762 187
66.07773 200
66.09785 177
66.11796 209
66.13807 199
66.15819 191
66.1783 198
66.19842 208
66.21853 195
66.23864 195
66.25876 209
66.27887 220
66.29898 203
66.3191 185
66.33921 197
66.35933 183
66.37944 187
66.39955 193
66.41967 168
66.43978 193
66.45989 188
66.48001 194
66.50012 212
66.52023 206
66.54035 176
66.56046 192
66.58058 183
66.60069 210
66.6208 200
66.64092 183
66.66103 203
66.68114 210
66.70126 197
66.72137 168
66.74149 195
66.7616 172
66.78171 199
66.80183 188
66.82194 186
66.84205 201
66.86217 202
66.88228 178
66.90239 194
66.92251 181
66.94262 211
66.96274 183
66.98285 218
67.00296 185
67.02308 218
67.04319 188
67.0633 190
67.08342 212
67.10353 218
67.12365 211
67.14376 189
67.16387 214
67.18399 243
67.2041 208
67.22421 214
67.24433 219
67.26444 240
67.28456 241
67.30467 247
67.32478 220
67.3449 250
67.36501 277
67.38512 265
67.40524 303
67.42535 346
67.44546 302
67.46558 376
67.48569 361
67.50581 411
67.52592 422
67.54603 544
67.56615 534
67.58626 587
67.60637 615
67.62649 706
67.6466 737
67.66672 800
67.68683 775
67.70694 814
67.72706 725
67.74717 707
67.76728 622
67.7874 626
67.80751 598
67.82763 632
67.84774 659
67.86785 658
67.88797 689
67.90808 714
67.92819 740
67.94831 688
67.96842 781
67.98853 776
68.00865 869
68.02876 899
68.04888 981
68.06899 1038
68.0891 1066
68.10922 995
68.12933 967
68.14944 964
68.16956 913
68.18967 856
68.20979 959
68.2299 962
68.25001 970
68.27013 917
68.29024 854
68.31035 803
68.33047 638
68.35058 562
68.3707 498
68.39081 465
68.41092 461
68.43104 446
68.45115 423
68.47126 400
68.49138 394
68.51149 349
68.5316 322
68.55172 268
68.57183 254
68.59195 227
68.61206 239
68.63217 227
68.65229 217
68.6724 200
68.69251 200
68.71263 221
68.73274 221
68.75286 202
68.77297 195
68.79308 236
68.8132 201
68.83331 181
68.85342 201
68.87354 199
68.89365 212
68.91376 185
68.93388 200
68.95399 183
68.97411 213
68.99422 200
69.01433 188
69.03445 194
69.05456 194
69.07467 201
69.09479 213
69.1149 188
69.13502 203
69.15513 203
69.17524 225
69.19536 188
69.21547 200
69.23558 178
69.2557 187
69.27581 203
69.29593 203
69.31604 200
69.33615 176
69.35627 207
69.37638 186
69.39649 199
69.41661 196
69.43672 176
69.45683 195
69.47695 189
69.49706 188
69.51718 186
69.53729 175
69.5574 201
69.57752 193
69.59763 181
69.61774 195
69.63786 169
69.65797 198
69.67809 206
69.6982 195
69.71831 186
69.73843 204
69.75854 197
69.77865 202
69.79877 193
69.81888 185
69.839 182
69.85911 167
69.87922 197
69.89934 196
69.91945 192
69.93956 181
69.95968 182
69.97979 196
69.9999 179
70.02002 199
70.04013 185
70.06025 169
70.08036 187
70.10047 173
70.12059 177
70.1407 175
70.16081 169
70.18093 162
70.20104 162
70.22116 163
70.24127 168
70.26138 179
70.2815 182
70.30161 146
70.32172 173
70.34184 155
70.36195 184
70.38207 155
70.40218 188
70.42229 164
70.44241 170
70.46252 189
70.48263 186
70.50275 164
70.52286 161
70.54297 168
70.56309 165
70.5832 186
70.60332 185
70.62343 155
70.64354 174
70.66366 164
70.68377 198
70.70388 174
70.724 182
70.74411 177
70.76423 176
70.78434 183
70.80445 169
70.82457 176
70.84468 209
70.86479 180
70.88491 190
70.90502 155
70.92513 152
70.94525 169
70.96536 164
70.98548 192
71.00559 172
71.0257 161
71.04582 177
71.06593 178
71.08604 182
71.10616 195
71.12627 205
71.14639 187
71.1665 184
71.18661 185
71.20673 209
71.22684 176
71.24695 202
71.26707 210
71.28718 184
71.3073 179
71.32741 167
71.34752 187
71.36764 172
71.38775 205
71.40786 187
71.42798 204
71.44809 200
71.4682 195
71.48832 183
71.50843 200
71.52855 209
71.54866 195
71.56877 167
71.58889 183
71.609 164
71.62911 202
71.64923 180
71.66934 176
71.68946 192
71.70957 196
71.72968 167
71.7498 169
71.76991 182
71.79002 168
71.81014 196
71.83025 178
71.85037 160
71.87048 171
71.89059 200
71.91071 181
71.93082 178
71.95093 172
71.97105 169
71.99116 181
72.01127 178
72.03139 195
72.0515 186
72.07162 194
72.09173 177
72.11184 168
72.13196 176
72.15207 170
72.17218 181
72.1923 165
72.21241 178
72.23253 182
72.25264 170
72.27275 199
72.29287 184
72.31298 172
72.33309 192
72.35321 186
72.37332 164
72.39344 184
72.41355 175
72.43366 188
72.45378 186
72.47389 177
72.494 188
72.51412 201
72.53423 197
72.55434 165
72.57446 183
72.59457 203
72.61469 180
72.6348 195
72.65491 187
72.67503 185
72.69514 185
72.71525 205
72.73537 171
72.75548 195
72.7756 190
72.79571 173
72.81582 179
72.83594 203
72.85605 187
72.87616 215
72.89628 206
72.91639 180
72.9365 201
72.95662 179
72.97673 178
72.99685 211
73.01696 197
73.03707 233
73.05719 193
73.0773 229
73.09741 211
73.11753 218
73.13764 243
73.15776 251
73.17787 223
73.19798 263
73.2181 240
73.23821 255
73.25832 309
73.27844 292
73.29855 330
73.31867 339
73.33878 356
73.35889 387
73.37901 382
73.39912 355
73.41923 374
73.43935 355
73.45946 363
73.47957 331
73.49969 296
73.5198 305
73.53992 273
73.56003 279
73.58014 314
73.60026 297
73.62037 275
73.64048 280
73.6606 246
73.68071 237
73.70083 243
73.72094 226
73.74105 188
73.76117 218
73.78128 214
73.80139 219
73.82151 210
73.84162 200
73.86174 212
73.88185 204
73.90196 199
73.92208 187
73.94219 192
73.9623 179
73.98242 184
74.00253 210
74.02264 199
74.04276 203
74.06287 181
74.08299 196
74.1031 174
74.12321 165
74.14333 180
74.16344 156
74.18355 181
74.20367 188
74.22378 173
74.2439 205
74.26401 177
74.28412 176
74.30424 180
74.32435 186
74.34446 185
74.36458 172
74.38469 189
74.40481 196
74.42492 200
74.44503 184
74.46515 172
74.48526 181
74.50537 214
74.52549 213
74.5456 202
74.56571 160
74.58583 195
74.60594 182
74.62606 188
74.64617 194
74.66628 200
74.6864 198
74.70651 170
74.72662 189
74.74674 173
74.76685 193
74.78697 176
74.80708 179
74.82719 215
74.84731 195
74.86742 199
74.88753 210
74.90765 208
74.92776 193
74.94787 194
74.96799 189
74.9881 172
75.00822 165
