3.00117 15911
3.02128 15884
3.0414 14929
3.06151 14953
3.08162 14544
3.10174 14043
3.12185 13857
3.14197 13075
3.16208 13011
3.18219 12525
3.20231 11944
3.22242 11945
3.24253 11319
3.26265 11162
3.28276 10365
3.30288 10254
3.32299 10230
3.3431 9260
3.36322 9215
3.38333 8899
3.40344 8574
3.42356 8289
3.44367 7870
3.46379 7932
3.4839 7366
3.50401 7126
3.52413 6763
3.54424 6389
3.56435 6323
3.58447 6102
3.60458 5788
3.62469 5808
3.64481 5245
3.66492 5165
3.68504 5127
3.70515 4785
3.72526 4760
3.74538 4213
3.76549 4323
3.7856 3967
3.80572 3766
3.82583 3837
3.84595 3421
3.86606 3463
3.88617 3414
3.90629 3054
3.9264 3060
3.94651 2709
3.96663 2771
3.98674 2545
4.00686 2526
4.02697 2570
4.04708 2205
4.0672 2262
4.08731 2200
4.10742 2107
4.12754 2051
4.14765 1830
4.16776 1853
4.18788 1898
4.20799 1650
4.22811 1883
4.24822 1620
4.26833 1582
4.28845 1654
4.30856 1528
4.32867 1463
4.34879 1414
4.3689 1451
4.38902 1418
4.40913 1356
4.42924 1411
4.44936 1277
4.46947 1228
4.48958 1307
4.5097 1326
4.52981 1303
4.54992 1182
4.57004 1202
4.59015 1146
4.61027 1115
4.63038 1120
4.65049 1014
4.67061 1123
4.69072 992
4.71083 1068
4.73095 1018
4.75106 974
4.77118 968
4.79129 941
4.8114 957
4.83152 978
4.85163 817
4.87174 851
4.89186 873
4.91197 844
4.93209 827
4.9522 806
4.97231 779
4.99243 818
5.01254 814
5.03265 788
5.05277 758
5.07288 738
5.09299 740
5.11311 721
5.13322 672
5.15334 689
5.17345 665
5.19356 661
5.21368 643
5.23379 614
5.2539 695
5.27402 618
5.29413 644
5.31425 641
5.33436 569
5.35447 583
5.37459 592
5.3947 600
5.41481 568
5.43493 547
5.45504 500
5.47516 565
5.49527 535
5.51538 563
5.5355 534
5.55561 504
5.57572 487
5.59584 491
5.61595 510
5.63606 503
5.65618 466
5.67629 446
5.69641 512
5.71652 459
5.73663 457
5.75675 499
5.77686 463
5.79697 491
5.81709 496
5.8372 474
5.85732 440
5.87743 493
5.89754 463
5.91766 481
5.93777 429
5.95788 450
5.978 462
5.99811 456
6.01823 473
6.03834 487
6.05845 473
6.07857 470
6.09868 443
6.11879 433
6.13891 471
6.15902 437
6.17913 404
6.19925 408
6.21936 433
6.23948 389
6.25959 473
6.2797 433
6.29982 460
6.31993 417
6.34004 390
6.36016 413
6.38027 431
6.40039 426
6.4205 386
6.44061 449
6.46073 379
6.48084 361
6.50095 377
6.52107 419
6.54118 405
6.56129 366
6.58141 378
6.60152 422
6.62164 372
6.64175 436
6.66186 380
6.68198 372
6.70209 417
6.7222 400
6.74232 363
6.76243 382
6.78255 389
6.80266 380
6.82277 382
6.84289 389
6.863 368
6.88311 387
6.90323 404
6.92334 367
6.94346 369
6.96357 338
6.98368 402
7.0038 353
7.02391 361
7.04402 358
7.06414 367
7.08425 362
7.10436 371
7.12448 340
7.14459 383
7.16471 345
7.18482 357
7.20493 348
7.22505 371
7.24516 374
7.26527 319
7.28539 347
7.3055 331
7.32562 326
7.34573 328
7.36584 309
7.38596 377
7.40607 339
7.42618 315
7.4463 328
7.46641 379
7.48653 343
7.50664 368
7.52675 364
7.54687 346
7.56698 350
7.58709 331
7.60721 308
7.62732 341
7.64743 354
7.66755 355
7.68766 334
7.70778 351
7.72789 331
7.748 358
7.76812 350
7.78823 320
7.80834 318
7.82846 325
7.84857 321
7.86869 323
7.8888 335
7.90891 339
7.92903 351
7.94914 307
7.96925 327
7.98937 348
8.00948 349
8.0296 267
8.04971 359
8.06982 317
8.08994 348
8.11005 357
8.13016 328
8.15028 365
8.17039 341
8.1905 321
8.21062 318
8.23073 331
8.25085 338
8.27096 325
8.29107 335
8.31119 326
8.3313 335
8.35141 370
8.37153 330
8.39164 374
8.41176 328
8.43187 374
8.45198 376
8.4721 357
8.49221 404
8.51232 383
8.53244 364
8.55255 408
8.57266 434
8.59278 370
8.61289 411
8.63301 466
8.65312 433
8.67323 377
8.69335 440
8.71346 446
8.73357 465
8.75369 417
8.7738 434
8.79392 458
8.81403 439
8.83414 439
8.85426 430
8.87437 423
8.89448 448
8.9146 409
8.93471 403
8.95483 372
8.97494 369
8.99505 343
9.01517 343
9.03528 309
9.05539 331
9.07551 331
9.09562 305
9.11573 328
9.13585 295
9.15596 333
9.17608 325
9.19619 340
9.2163 304
9.23642 302
9.25653 321
9.27664 332
9.29676 319
9.31687 324
9.33699 320
9.3571 310
9.37721 315
9.39733 319
9.41744 297
9.43755 282
9.45767 301
9.47778 276
9.4979 316
9.51801 271
9.53812 279
9.55824 312
9.57835 285
9.59846 271
9.61858 275
9.63869 284
9.6588 315
9.67892 266
9.69903 245
9.71915 296
9.73926 286
9.75937 287
9.77949 270
9.7996 319
9.81971 312
9.83983 328
9.85994 274
9.88006 280
9.90017 295
9.92028 274
9.9404 274
9.96051 332
9.98062 302
10.00074 273
10.02085 275
10.04097 328
10.06108 300
10.08119 305
10.10131 337
10.12142 269
10.14153 249
10.16165 246
10.18176 286
10.20187 289
10.22199 286
10.2421 277
10.26222 280
10.28233 257
10.30244 274
10.32256 281
10.34267 283
10.36278 295
10.3829 270
10.40301 296
10.42313 311
10.44324 319
10.46335 311
10.48347 287
10.50358 329
10.52369 323
10.54381 278
10.56392 289
10.58403 307
10.60415 283
10.62426 285
10.64438 284
10.66449 289
10.6846 283
10.70472 274
10.72483 272
10.74494 289
10.76506 285
10.78517 292
10.80529 268
10.8254 289
10.84551 263
10.86563 304
10.88574 283
10.90585 317
10.92597 288
10.94608 316
10.9662 278
10.98631 302
11.00642 341
11.02654 290
11.04665 325
11.06676 290
11.08688 227
11.10699 286
11.1271 270
11.14722 290
11.16733 310
11.18745 276
11.20756 296
11.22767 270
11.24779 335
11.2679 284
11.28801 291
11.30813 296
11.32824 288
11.34836 305
11.36847 288
11.38858 301
11.4087 311
11.42881 278
11.44892 308
11.46904 271
11.48915 321
11.50927 300
11.52938 290
11.54949 267
11.56961 285
11.58972 345
11.60983 286
11.62995 301
11.65006 333
11.67017 271
11.69029 305
11.7104 292
11.73052 318
11.75063 276
11.77074 313
11.79086 311
11.81097 313
11.83108 310
11.8512 320
11.87131 300
11.89143 327
11.91154 294
11.93165 338
11.95177 319
11.97188 325
11.99199 343
12.01211 340
12.03222 304
12.05234 325
12.07245 341
12.09256 359
12.11268 326
12.13279 324
12.1529 326
12.17302 333
12.19313 350
12.21324 337
12.23336 346
12.25347 350
12.27359 368
12.2937 355
12.31381 354
12.33393 398
12.35404 383
12.37415 376
12.39427 334
12.41438 342
12.4345 341
12.45461 352
12.47472 332
12.49484 340
12.51495 295
12.53506 326
12.55518 313
12.57529 314
12.5954 319
12.61552 282
12.63563 301
12.65575 307
12.67586 269
12.69597 294
12.71609 290
12.7362 269
12.75631 279
12.77643 314
12.79654 296
12.81666 267
12.83677 264
12.85688 255
12.877 298
12.89711 267
12.91722 264
12.93734 267
12.95745 233
12.97757 311
12.99768 268
13.01779 303
13.03791 266
13.05802 288
13.07813 323
13.09825 294
13.11836 277
13.13847 310
13.15859 301
13.1787 293
13.19882 295
13.21893 296
13.23904 261
13.25916 256
13.27927 249
13.29938 283
13.3195 281
13.33961 252
13.35973 258
13.37984 274
13.39995 257
13.42007 252
13.44018 264
13.46029 271
13.48041 256
13.50052 283
13.52064 255
13.54075 301
13.56086 283
13.58098 283
13.60109 305
13.6212 287
13.64132 294
13.66143 300
13.68154 319
13.70166 313
13.72177 328
13.74189 305
13.762 331
13.78211 326
13.80223 342
13.82234 322
13.84245 325
13.86257 376
13.88268 349
13.9028 311
13.92291 358
13.94302 315
13.96314 293
13.98325 267
14.00336 290
14.02348 268
14.04359 288
14.06371 276
14.08382 260
14.10393 306
14.12405 281
14.14416 258
14.16427 252
14.18439 244
14.2045 241
14.22461 252
14.24473 243
14.26484 250
14.28496 254
14.30507 251
14.32518 238
14.3453 230
14.36541 253
14.38552 242
14.40564 280
14.42575 256
14.44587 234
14.46598 239
14.48609 228
14.50621 248
14.52632 240
14.54643 243
14.56655 262
14.58666 242
14.60677 241
14.62689 257
14.647 237
14.66712 231
14.68723 235
14.70734 270
14.72746 262
14.74757 268
14.76768 246
14.7878 231
14.80791 278
14.82803 254
14.84814 274
14.86825 294
14.88837 256
14.90848 266
14.92859 268
14.94871 308
14.96882 290
14.98894 290
15.00905 270
15.02916 311
15.04928 262
15.06939 284
15.0895 292
15.10962 264
15.12973 252
15.14984 259
15.16996 287
15.19007 240
15.21019 279
15.2303 251
15.25041 257
15.27053 271
15.29064 275
15.31075 223
15.33087 231
15.35098 247
15.3711 243
15.39121 231
15.41132 232
15.43144 257
15.45155 227
15.47166 235
15.49178 230
15.51189 254
15.53201 254
15.55212 235
15.57223 265
15.59235 236
15.61246 241
15.63257 222
15.65269 270
15.6728 256
15.69291 250
15.71303 262
15.73314 274
15.75326 252
15.77337 264
15.79348 285
15.8136 266
15.83371 267
15.85382 252
15.87394 267
15.89405 256
15.91417 234
15.93428 247
15.95439 245
15.97451 246
15.99462 260
16.01473 245
16.03485 244
16.05496 263
16.07508 242
16.09519 221
16.1153 223
16.13542 214
16.15553 259
16.17564 205
16.19576 240
16.21587 263
16.23598 245
16.2561 233
16.27621 233
16.29633 237
16.31644 232
16.33655 240
16.35667 241
16.37678 203
16.39689 252
16.41701 231
16.43712 231
16.45724 240
16.47735 234
16.49746 246
16.51758 212
16.53769 237
16.5578 233
16.57792 233
16.59803 244
16.61814 222
16.63826 241
16.65837 256
16.67849 226
16.6986 243
16.71871 233
16.73883 243
16.75894 226
16.77905 235
16.79917 228
16.81928 267
16.8394 225
16.85951 241
16.87962 247
16.89974 210
16.91985 236
16.93996 228
16.96008 255
16.98019 234
17.00031 235
17.02042 221
17.04053 209
17.06065 230
17.08076 210
17.10087 247
17.12099 226
17.1411 222
17.16121 261
17.18133 224
17.20144 244
17.22156 247
17.24167 238
17.26178 259
17.2819 234
17.30201 246
17.32212 238
17.34224 248
17.36235 258
17.38247 260
17.40258 249
17.42269 236
17.44281 251
17.46292 270
17.48303 259
17.50315 245
17.52326 249
17.54338 246
17.56349 250
17.5836 263
17.60372 268
17.62383 278
17.64394 275
17.66406 255
17.68417 277
17.70428 260
17.7244 272
17.74451 224
17.76463 250
17.78474 268
17.80485 275
17.82497 266
17.84508 236
17.86519 263
17.88531 228
17.90542 272
17.92554 244
17.94565 243
17.96576 253
17.98588 217
18.00599 241
18.0261 252
18.04622 245
18.06633 242
18.08645 201
18.10656 257
18.12667 231
18.14679 233
18.1669 239
18.18701 216
18.20713 237
18.22724 273
18.24735 229
18.26747 245
18.28758 256
18.3077 226
18.32781 258
18.34792 268
18.36804 223
18.38815 240
18.40826 251
18.42838 266
18.44849 237
18.46861 273
18.48872 228
18.50883 226
18.52895 211
18.54906 251
18.56917 274
18.58929 250
18.6094 253
18.62951 248
18.64963 241
18.66974 220
18.68986 241
18.70997 253
18.73008 272
18.7502 217
18.77031 249
18.79042 241
18.81054 249
18.83065 282
18.85077 265
18.87088 231
18.89099 229
18.91111 246
18.93122 254
18.95133 238
18.97145 233
18.99156 252
19.01168 269
19.03179 239
19.0519 240
19.07202 254
19.09213 230
19.11224 267
19.13236 251
19.15247 294
19.17258 248
19.1927 274
19.21281 288
19.23293 324
19.25304 328
19.27315 341
19.29327 346
19.31338 360
19.33349 334
19.35361 360
19.37372 331
19.39384 324
19.41395 338
19.43406 309
19.45418 373
19.47429 356
19.4944 351
19.51452 356
19.53463 393
19.55475 385
19.57486 439
19.59497 411
19.61509 405
19.6352 447
19.65531 464
19.67543 423
19.69554 469
19.71565 487
19.73577 460
19.75588 482
19.776 487
19.79611 522
19.81622 536
19.83634 545
19.85645 511
19.87656 500
19.89668 554
19.91679 481
19.93691 511
19.95702 510
19.97713 475
19.99725 511
20.01736 484
20.03747 505
20.05759 432
20.0777 451
20.09782 451
20.11793 440
20.13804 493
20.15816 482
20.17827 436
20.19838 447
20.2185 461
20.23861 465
20.25872 453
20.27884 451
20.29895 461
20.31907 438
20.33918 420
20.35929 443
20.37941 428
20.39952 442
20.41963 409
20.43975 460
20.45986 451
20.47998 476
20.50009 471
20.5202 446
20.54032 490
20.56043 472
20.58054 497
20.60066 492
20.62077 559
20.64088 585
20.661 628
20.68111 654
20.70123 833
20.72134 907
20.74145 1164
20.76157 1413
20.78168 1694
20.80179 1976
20.82191 2083
20.84202 2391
20.86214 2298
20.88225 2049
20.90236 1790
20.92248 1430
20.94259 1346
20.9627 1087
20.98282 1048
21.00293 889
21.02305 869
21.04316 782
21.06327 782
21.08339 637
21.1035 631
21.12361 553
21.14373 474
21.16384 461
21.18395 450
21.20407 434
21.22418 425
21.2443 416
21.26441 410
21.28452 412
21.30464 419
21.32475 395
21.34486 410
21.36498 402
21.38509 364
21.40521 343
21.42532 358
21.44543 393
21.46555 369
21.48566 366
21.50577 382
21.52589 376
21.546 359
21.56612 398
21.58623 399
21.60634 370
21.62646 371
21.64657 400
21.66668 384
21.6868 340
21.70691 396
21.72702 388
21.74714 360
21.76725 376
21.78737 397
21.80748 431
21.82759 453
21.84771 463
21.86782 533
21.88793 534
21.90805 568
21.92816 724
21.94828 729
21.96839 856
21.9885 894
22.00862 967
22.02873 887
22.04884 834
22.06896 761
22.08907 665
22.10919 571
22.1293 503
22.14941 519
22.16953 450
22.18964 458
22.20975 431
22.22987 467
22.24998 461
22.27009 421
22.29021 476
22.31032 462
22.33044 469
22.35055 407
22.37066 408
22.39078 369
22.41089 389
22.431 345
22.45112 326
22.47123 361
22.49135 377
22.51146 371
22.53157 381
22.55169 386
22.5718 349
22.59191 351
22.61203 392
22.63214 357
22.65225 391
22.67237 360
22.69248 388
22.7126 337
22.73271 391
22.75282 345
22.77294 374
22.79305 385
22.81316 387
22.83328 383
22.85339 394
22.87351 406
22.89362 413
22.91373 438
22.93385 417
22.95396 429
22.97407 446
22.99419 441
23.0143 533
23.03442 451
23.05453 519
23.07464 494
23.09476 521
23.11487 543
23.13498 529
23.1551 525
23.17521 530
23.19532 566
23.21544 478
23.23555 499
23.25567 498
23.27578 441
23.29589 392
23.31601 387
23.33612 452
23.35623 430
23.37635 395
23.39646 419
23.41658 446
23.43669 455
23.4568 497
23.47692 465
23.49703 566
23.51714 557
23.53726 609
23.55737 626
23.57749 611
23.5976 566
23.61771 565
23.63783 511
23.65794 482
23.67805 489
23.69817 441
23.71828 426
23.73839 456
23.75851 434
23.77862 417
23.79874 423
23.81885 458
23.83896 478
23.85908 514
23.87919 589
23.8993 605
23.91942 619
23.93953 655
23.95965 623
23.97976 717
23.99987 631
24.01999 635
24.0401 678
24.06021 614
24.08033 592
24.10044 546
24.12056 577
24.14067 636
24.16078 584
24.1809 655
24.20101 629
24.22112 682
24.24124 736
24.26135 726
24.28146 746
24.30158 716
24.32169 690
24.34181 632
24.36192 604
24.38203 528
24.40215 493
24.42226 438
24.44237 459
24.46249 431
24.4826 442
24.50272 438
24.52283 406
24.54294 426
24.56306 430
24.58317 389
24.60328 404
24.6234 460
24.64351 437
24.66362 460
24.68374 487
24.70385 461
24.72397 422
24.74408 465
24.76419 438
24.78431 418
24.80442 434
24.82453 416
24.84465 452
24.86476 453
24.88488 430
24.90499 393
24.9251 443
24.94522 413
24.96533 419
24.98544 421
25.00556 441
25.02567 402
25.04579 418
25.0659 442
25.08601 451
25.10613 405
25.12624 404
25.14635 411
25.16647 400
25.18658 388
25.20669 440
25.22681 453
25.24692 460
25.26704 459
25.28715 429
25.30726 436
25.32738 482
25.34749 510
25.3676 498
25.38772 561
25.40783 578
25.42795 571
25.44806 610
25.46817 726
25.48829 686
25.5084 716
25.52851 752
25.54863 776
25.56874 707
25.58886 660
25.60897 663
25.62908 651
25.6492 594
25.66931 640
25.68942 575
25.70954 529
25.72965 505
25.74976 489
25.76988 463
25.78999 444
25.81011 428
25.83022 437
25.85033 400
25.87045 446
25.89056 435
25.91067 425
25.93079 439
25.9509 450
25.97102 461
25.99113 455
26.01124 463
26.03136 427
26.05147 487
26.07158 533
26.0917 504
26.11181 518
26.13193 548
26.15204 569
26.17215 593
26.19227 651
26.21238 618
26.23249 656
26.25261 772
26.27272 772
26.29283 890
26.31295 958
26.33306 1032
26.35318 1233
26.37329 1342
26.3934 1490
26.41352 1809
26.43363 1946
26.45374 2311
26.47386 2979
26.49397 3567
26.51409 4586
26.5342 5427
26.55431 6712
26.57443 7773
26.59454 8715
26.61465 9147
26.63477 8897
26.65488 8043
26.67499 6607
26.69511 5373
26.71522 4088
26.73534 2953
26.75545 2176
26.77556 1517
26.79568 1119
26.81579 1007
26.8359 875
26.85602 826
26.87613 794
26.89625 762
26.91636 709
26.93647 747
26.95659 802
26.9767 785
26.99681 861
27.01693 780
27.03704 821
27.05716 842
27.07727 791
27.09738 806
27.1175 688
27.13761 734
27.15772 622
27.17784 629
27.19795 622
27.21806 646
27.23818 649
27.25829 637
27.27841 706
27.29852 792
27.31863 868
27.33875 933
27.35886 1071
27.37897 1042
27.39909 1172
27.4192 1181
27.43932 1232
27.45943 1228
27.47954 1090
27.49966 1044
27.51977 981
27.53988 881
27.56 827
27.58011 802
27.60023 718
27.62034 840
27.64045 798
27.66057 884
27.68068 947
27.70079 1028
27.72091 1090
27.74102 1139
27.76113 1151
27.78125 1254
27.80136 1266
27.82148 1269
27.84159 1300
27.8617 1365
27.88182 1405
27.90193 1412
27.92204 1371
27.94216 1338
27.96227 1322
27.98239 1161
28.0025 1070
28.02261 1015
28.04273 876
28.06284 789
28.08295 726
28.10307 680
28.12318 638
28.1433 605
28.16341 618
28.18352 554
28.20364 603
28.22375 555
28.24386 620
28.26398 623
28.28409 595
28.3042 529
28.32432 515
28.34443 510
28.36455 478
28.38466 411
28.40477 422
28.42489 390
28.445 383
28.46511 380
28.48523 365
28.50534 343
28.52546 359
28.54557 326
28.56568 358
28.5858 351
28.60591 371
28.62602 344
28.64614 310
28.66625 358
28.68636 321
28.70648 330
28.72659 317
28.74671 328
28.76682 333
28.78693 327
28.80705 319
28.82716 337
28.84727 298
28.86739 350
28.8875 309
28.90762 287
28.92773 323
28.94784 294
28.96796 321
28.98807 271
29.00818 307
29.0283 326
29.04841 318
29.06853 341
29.08864 343
29.10875 299
29.12887 308
29.14898 356
29.16909 316
29.18921 321
29.20932 334
29.22943 319
29.24955 356
29.26966 337
29.28978 360
29.30989 367
29.33 402
29.35012 400
29.37023 451
29.39034 410
29.41046 446
29.43057 471
29.45069 451
29.4708 369
29.49091 432
29.51103 395
29.53114 378
29.55125 355
29.57137 340
29.59148 335
29.6116 355
29.63171 367
29.65182 349
29.67194 395
29.69205 401
29.71216 412
29.73228 365
29.75239 409
29.7725 414
29.79262 387
29.81273 443
29.83285 385
29.85296 476
29.87307 451
29.89319 434
29.9133 414
29.93341 430
29.95353 410
29.97364 366
29.99376 405
30.01387 421
30.03398 449
30.0541 467
30.07421 470
30.09432 489
30.11444 538
30.13455 501
30.15467 541
30.17478 603
30.19489 583
30.21501 563
30.23512 564
30.25523 518
30.27535 501
30.29546 541
30.31557 538
30.33569 516
30.3558 504
30.37592 492
30.39603 586
30.41614 512
30.43626 548
30.45637 555
30.47648 516
30.4966 514
30.51671 528
30.53683 459
30.55694 507
30.57705 460
30.59717 457
30.61728 446
30.63739 462
30.65751 465
30.67762 466
30.69773 486
30.71785 524
30.73796 516
30.75808 541
30.77819 553
30.7983 504
30.81842 471
30.83853 524
30.85864 483
30.87876 483
30.89887 446
30.91899 375
30.9391 372
30.95921 371
30.97933 345
30.99944 348
31.01955 360
31.03967 342
31.05978 300
31.0799 361
31.10001 324
31.12012 322
31.14024 347
31.16035 380
31.18046 343
31.20058 391
31.22069 381
31.2408 362
31.26092 367
31.28103 355
31.30115 353
31.32126 340
31.34137 338
31.36149 383
31.3816 362
31.40171 340
31.42183 292
31.44194 342
31.46206 334
31.48217 330
31.50228 330
31.5224 322
31.54251 309
31.56262 321
31.58274 296
31.60285 326
31.62297 328
31.64308 298
31.66319 323
31.68331 334
31.70342 314
31.72353 302
31.74365 305
31.76376 341
31.78387 326
31.80399 328
31.8241 280
31.84422 326
31.86433 308
31.88444 327
31.90456 317
31.92467 290
31.94478 298
31.9649 355
31.98501 329
32.00513 324
32.02524 314
32.04535 323
32.06547 323
32.08558 326
32.10569 346
32.12581 328
32.14592 356
32.16604 322
32.18615 308
32.20626 305
32.22638 281
32.24649 325
32.2666 313
32.28672 286
32.30683 305
32.32694 304
32.34706 326
32.36717 352
32.38729 344
32.4074 324
32.42751 326
32.44763 304
32.46774 306
32.48785 327
32.50797 301
32.52808 321
32.5482 302
32.56831 275
32.58842 262
32.60854 254
32.62865 300
32.64876 293
32.66888 298
32.68899 278
32.7091 287
32.72922 274
32.74933 258
32.76945 270
32.78956 302
32.80967 284
32.82979 269
32.8499 294
32.87001 278
32.89013 310
32.91024 288
32.93036 308
32.95047 304
32.97058 308
32.9907 315
33.01081 290
33.03092 292
33.05104 310
33.07115 270
33.09127 307
33.11138 282
33.13149 285
33.15161 317
33.17172 321
33.19183 283
33.21195 284
33.23206 323
33.25217 280
33.27229 344
33.2924 303
33.31252 286
33.33263 318
33.35274 290
33.37286 305
33.39297 287
33.41308 292
33.4332 270
33.45331 291
33.47343 283
33.49354 305
33.51365 297
33.53377 279
33.55388 279
33.57399 281
33.59411 283
33.61422 285
33.63434 269
33.65445 320
33.67456 286
33.69468 299
33.71479 321
33.7349 329
33.75502 323
33.77513 384
33.79524 378
33.81536 347
33.83547 357
33.85559 348
33.8757 346
33.89581 378
33.91593 351
33.93604 359
33.95615 327
33.97627 382
33.99638 347
34.0165 392
34.03661 392
34.05672 352
34.07684 408
34.09695 446
34.11706 491
34.13718 465
34.15729 538
34.17741 519
34.19752 536
34.21763 516
34.23775 557
34.25786 538
34.27797 483
34.29809 533
34.3182 498
34.33831 471
34.35843 486
34.37854 506
34.39866 466
34.41877 485
34.43888 462
34.459 457
34.47911 427
34.49922 402
34.51934 401
34.53945 464
34.55957 402
34.57968 448
34.59979 411
34.61991 453
34.64002 396
34.66013 412
34.68025 398
34.70036 455
34.72047 416
34.74059 396
34.7607 456
34.78082 473
34.80093 497
34.82104 472
34.84116 483
34.86127 472
34.88138 478
34.9015 467
34.92161 473
34.94173 494
34.96184 513
34.98195 499
35.00207 511
35.02218 471
35.04229 460
35.06241 478
35.08252 503
35.10264 424
35.12275 484
35.14286 434
35.16298 485
35.18309 493
35.2032 494
35.22332 506
35.24343 460
35.26354 463
35.28366 444
35.30377 469
35.32389 470
35.344 456
35.36411 474
35.38423 476
35.40434 473
35.42445 542
35.44457 500
35.46468 510
35.4848 458
35.50491 459
35.52502 497
35.54514 430
35.56525 487
35.58536 448
35.60548 449
35.62559 456
35.64571 436
35.66582 398
35.68593 434
35.70605 378
35.72616 432
35.74627 393
35.76639 427
35.7865 408
35.80661 375
35.82673 367
35.84684 426
35.86696 412
35.88707 370
35.90718 402
35.9273 401
35.94741 381
35.96752 372
35.98764 412
36.00775 392
36.02787 372
36.04798 381
36.06809 356
36.08821 341
36.10832 371
36.12843 385
36.14855 376
36.16866 375
36.18878 394
36.20889 411
36.229 372
36.24912 424
36.26923 402
36.28934 434
36.30946 401
36.32957 469
36.34968 489
36.3698 521
36.38991 551
36.41003 633
36.43014 717
36.45025 813
36.47037 851
36.49048 861
36.51059 873
36.53071 864
36.55082 891
36.57094 788
36.59105 743
36.61116 650
36.63128 640
36.65139 529
36.6715 457
36.69162 458
36.71173 443
36.73184 468
36.75196 397
36.77207 446
36.79219 461
36.8123 431
36.83241 441
36.85253 472
36.87264 423
36.89275 463
36.91287 464
36.93298 474
36.9531 480
36.97321 487
36.99332 468
37.01344 470
37.03355 415
37.05366 420
37.07378 437
37.09389 391
37.11401 418
37.13412 377
37.15423 360
37.17435 361
37.19446 369
37.21457 351
37.23469 350
37.2548 358
37.27491 351
37.29503 368
37.31514 389
37.33526 343
37.35537 357
37.37548 371
37.3956 405
37.41571 382
37.43582 392
37.45594 385
37.47605 390
37.49617 382
37.51628 380
37.53639 392
37.55651 360
37.57662 416
37.59673 392
37.61685 415
37.63696 364
37.65708 366
37.67719 367
37.6973 379
37.71742 369
37.73753 337
37.75764 337
37.77776 286
37.79787 344
37.81798 335
37.8381 321
37.85821 310
37.87833 309
37.89844 318
37.91855 285
37.93867 350
37.95878 296
37.97889 288
37.99901 297
38.01912 279
38.03924 315
38.05935 327
38.07946 312
38.09958 297
38.11969 310
38.1398 313
38.15992 300
38.18003 333
38.20015 315
38.22026 319
38.24037 367
38.26049 317
38.2806 338
38.30071 301
38.32083 315
38.34094 335
38.36105 339
38.38117 328
38.40128 315
38.4214 366
38.44151 315
38.46162 382
38.48174 372
38.50185 352
38.52196 383
38.54208 375
38.56219 373
38.58231 392
38.60242 366
38.62253 340
38.64265 358
38.66276 329
38.68287 358
38.70299 347
38.7231 351
38.74321 329
38.76333 332
38.78344 341
38.80356 336
38.82367 337
38.84378 322
38.8639 340
38.88401 332
38.90412 341
38.92424 343
38.94435 331
38.96447 347
38.98458 336
39.00469 318
39.02481 353
39.04492 331
39.06503 359
39.08515 374
39.10526 348
39.12538 375
39.14549 397
39.1656 391
39.18572 387
39.20583 388
39.22594 426
39.24606 423
39.26617 416
39.28628 492
39.3064 535
39.32651 550
39.34663 679
39.36674 658
39.38685 778
39.40697 730
39.42708 810
39.44719 776
39.46731 748
39.48742 692
39.50754 629
39.52765 583
39.54776 539
39.56788 510
39.58799 439
39.6081 377
39.62822 373
39.64833 361
39.66845 346
39.68856 323
39.70867 332
39.72879 294
39.7489 309
39.76901 310
39.78913 318
39.80924 331
39.82935 298
39.84947 323
39.86958 319
39.8897 322
39.90981 319
39.92992 308
39.95004 303
39.97015 339
39.99026 340
40.01038 311
40.03049 321
40.05061 335
40.07072 347
40.09083 346
40.11095 390
40.13106 381
40.15117 482
40.17129 470
40.1914 469
40.21152 496
40.23163 503
40.25174 486
40.27186 513
40.29197 496
40.31208 477
40.3322 466
40.35231 427
40.37242 427
40.39254 373
40.41265 332
40.43277 347
40.45288 330
40.47299 297
40.49311 301
40.51322 281
40.53333 299
40.55345 257
40.57356 300
40.59368 297
40.61379 303
40.6339 296
40.65402 266
40.67413 270
40.69424 279
40.71436 260
40.73447 289
40.75458 305
40.7747 300
40.79481 283
40.81493 325
40.83504 280
40.85515 293
40.87527 277
40.89538 287
40.91549 277
40.93561 300
40.95572 279
40.97584 288
40.99595 271
41.01606 296
41.03618 267
41.05629 309
41.0764 264
41.09652 316
41.11663 271
41.13675 319
41.15686 304
41.17697 296
41.19709 297
41.2172 324
41.23731 314
41.25743 321
41.27754 335
41.29765 346
41.31777 308
41.33788 321
41.358 309
41.37811 309
41.39822 318
41.41834 349
41.43845 344
41.45856 329
41.47868 317
41.49879 348
41.51891 348
41.53902 353
41.55913 344
41.57925 359
41.59936 359
41.61947 386
41.63959 384
41.6597 366
41.67982 420
41.69993 422
41.72004 439
41.74016 512
41.76027 445
41.78038 444
41.8005 442
41.82061 449
41.84072 421
41.86084 395
41.88095 387
41.90107 359
41.92118 341
41.94129 321
41.96141 324
41.98152 326
42.00163 311
42.02175 312
42.04186 289
42.06198 277
42.08209 318
42.1022 331
42.12232 305
42.14243 305
42.16254 294
42.18266 347
42.20277 383
42.22289 370
42.243 379
42.26311 449
42.28323 456
42.30334 500
42.32345 524
42.34357 562
42.36368 633
42.38379 631
42.40391 677
42.42402 689
42.44414 641
42.46425 601
42.48436 575
42.50448 549
42.52459 461
42.5447 462
42.56482 447
42.58493 383
42.60505 336
42.62516 352
42.64527 365
42.66539 322
42.6855 375
42.70561 371
42.72573 324
42.74584 340
42.76595 339
42.78607 396
42.80618 341
42.8263 344
42.84641 348
42.86652 330
42.88664 311
42.90675 312
42.92686 302
42.94698 297
42.96709 303
42.98721 284
43.00732 269
43.02743 272
43.04755 301
43.06766 271
43.08777 294
43.10789 297
43.128 293
43.14812 290
43.16823 284
43.18834 270
43.20846 302
43.22857 271
43.24868 271
43.2688 272
43.28891 268
43.30902 290
43.32914 273
43.34925 265
43.36937 278
43.38948 276
43.40959 280
43.42971 248
43.44982 272
43.46993 263
43.49005 281
43.51016 285
43.53028 274
43.55039 265
43.5705 270
43.59062 283
43.61073 263
43.63084 271
43.65096 270
43.67107 262
43.69119 281
43.7113 236
43.73141 229
43.75153 249
43.77164 275
43.79175 256
43.81187 254
43.83198 251
43.85209 237
43.87221 263
43.89232 238
43.91244 249
43.93255 277
43.95266 241
43.97278 257
43.99289 272
44.013 261
44.03312 284
44.05323 255
44.07335 265
44.09346 231
44.11357 264
44.13369 245
44.1538 270
44.17391 264
44.19403 289
44.21414 251
44.23426 241
44.25437 253
44.27448 265
44.2946 258
44.31471 261
44.33482 287
44.35494 233
44.37505 266
44.39516 255
44.41528 251
44.43539 270
44.45551 256
44.47562 251
44.49573 261
44.51585 269
44.53596 243
44.55607 245
44.57619 278
44.5963 267
44.61642 297
44.63653 242
44.65664 251
44.67676 255
44.69687 265
44.71698 269
44.7371 284
44.75721 288
44.77732 252
44.79744 248
44.81755 261
44.83767 261
44.85778 277
44.87789 267
44.89801 256
44.91812 257
44.93823 271
44.95835 276
44.97846 258
44.99858 306
45.01869 291
45.0388 272
45.05892 308
45.07903 286
45.09914 271
45.11926 275
45.13937 293
45.15949 292
45.1796 281
45.19971 290
45.21983 275
45.23994 295
45.26005 276
45.28017 290
45.30028 283
45.32039 286
45.34051 325
45.36062 323
45.38074 321
45.40085 344
45.42096 318
45.44108 337
45.46119 318
45.4813 371
45.50142 323
45.52153 393
45.54165 373
45.56176 366
45.58187 396
45.60199 422
45.6221 441
45.64221 464
45.66233 467
45.68244 503
45.70256 512
45.72267 513
45.74278 531
45.7629 536
45.78301 500
45.80312 450
45.82324 463
45.84335 470
45.86346 406
45.88358 399
45.90369 345
45.92381 352
45.94392 324
45.96403 321
45.98415 298
46.00426 295
46.02437 302
46.04449 271
46.0646 259
46.08472 257
46.10483 265
46.12494 282
46.14506 260
46.16517 305
46.18528 257
46.2054 262
46.22551 262
46.24563 271
46.26574 271
46.28585 279
46.30597 285
46.32608 268
46.34619 272
46.36631 258
46.38642 250
46.40653 275
46.42665 264
46.44676 230
46.46688 222
46.48699 236
46.5071 228
46.52722 268
46.54733 259
46.56744 234
46.58756 236
46.60767 213
46.62779 229
46.6479 207
46.66801 239
46.68813 243
46.70824 238
46.72835 223
46.74847 259
46.76858 266
46.78869 251
46.80881 271
46.82892 253
46.84904 271
46.86915 292
46.88926 262
46.90938 290
46.92949 281
46.9496 261
46.96972 281
46.98983 295
47.00995 296
47.03006 303
47.05017 276
47.07029 270
47.0904 278
47.11051 303
47.13063 295
47.15074 280
47.17086 284
47.19097 281
47.21108 256
47.2312 295
47.25131 283
47.27142 270
47.29154 232
47.31165 257
47.33176 271
47.35188 245
47.37199 301
47.39211 278
47.41222 284
47.43233 295
47.45245 281
47.47256 294
47.49267 280
47.51279 258
47.5329 267
47.55302 292
47.57313 282
47.59324 261
47.61336 259
47.63347 254
47.65358 265
47.6737 267
47.69381 241
47.71393 252
47.73404 268
47.75415 257
47.77427 241
47.79438 268
47.81449 274
47.83461 274
47.85472 264
47.87483 293
47.89495 270
47.91506 276
47.93518 276
47.95529 305
47.9754 274
47.99552 271
48.01563 268
48.03574 257
48.05586 281
48.07597 282
48.09609 286
48.1162 291
48.13631 272
48.15643 286
48.17654 266
48.19665 325
48.21677 301
48.23688 267
48.257 292
48.27711 276
48.29722 278
48.31734 294
48.33745 298
48.35756 280
48.37768 278
48.39779 259
48.4179 261
48.43802 236
48.45813 243
48.47825 287
48.49836 280
48.51847 254
48.53859 308
48.5587 290
48.57881 257
48.59893 296
48.61904 266
48.63916 260
48.65927 239
48.67938 280
48.6995 260
48.71961 256
48.73972 288
48.75984 289
48.77995 278
48.80006 262
48.82018 263
48.84029 268
48.86041 280
48.88052 267
48.90063 276
48.92075 259
48.94086 288
48.96097 311
48.98109 299
49.0012 277
49.02132 286
49.04143 311
49.06154 287
49.08166 311
49.10177 316
49.12188 342
49.142 353
49.16211 315
49.18223 307
49.20234 326
49.22245 285
49.24257 284
49.26268 290
49.28279 293
49.30291 304
49.32302 306
49.34313 289
49.36325 290
49.38336 270
49.40348 266
49.42359 288
49.4437 313
49.46382 278
49.48393 273
49.50404 294
49.52416 254
49.54427 298
49.56439 284
49.5845 290
49.60461 300
49.62473 302
49.64484 306
49.66495 299
49.68507 348
49.70518 354
49.7253 351
49.74541 364
49.76552 352
49.78564 388
49.80575 410
49.82586 418
49.84598 451
49.86609 480
49.8862 460
49.90632 550
49.92643 598
49.94655 652
49.96666 676
49.98677 760
50.00689 820
50.027 878
50.04711 1050
50.06723 1084
50.08734 1074
50.10746 1094
50.12757 1037
50.14768 917
50.1678 873
50.18791 805
50.20802 667
50.22814 700
50.24825 635
50.26837 583
50.28848 531
50.30859 468
50.32871 383
50.34882 382
50.36893 419
50.38905 411
50.40916 408
50.42927 411
50.44939 412
50.4695 424
50.48962 453
50.50973 447
50.52984 455
50.54996 424
50.57007 409
50.59018 395
50.6103 385
50.63041 400
50.65053 375
50.67064 376
50.69075 357
50.71087 325
50.73098 335
50.75109 342
50.77121 323
50.79132 293
50.81143 297
50.83155 333
50.85166 284
50.87178 289
50.89189 319
50.912 307
50.93212 283
50.95223 295
50.97234 285
50.99246 274
51.01257 332
51.03269 337
51.0528 297
51.07291 301
51.09303 303
51.11314 336
51.13325 305
51.15337 331
51.17348 315
51.1936 300
51.21371 303
51.23382 319
51.25394 302
51.27405 312
51.29416 298
51.31428 275
51.33439 260
51.3545 256
51.37462 270
51.39473 242
51.41485 292
51.43496 235
51.45507 263
51.47519 243
51.4953 239
51.51541 238
51.53553 242
51.55564 239
51.57576 221
51.59587 208
51.61598 233
51.6361 222
51.65621 256
51.67632 240
51.69644 229
51.71655 223
51.73667 202
51.75678 237
51.77689 212
51.79701 232
51.81712 228
51.83723 242
51.85735 196
51.87746 205
51.89757 223
51.91769 234
51.9378 238
51.95792 222
51.97803 239
51.99814 225
52.01826 238
52.03837 245
52.05848 238
52.0786 243
52.09871 230
52.11883 248
52.13894 230
52.15905 238
52.17917 260
52.19928 266
52.21939 266
52.23951 255
52.25962 248
52.27974 276
52.29985 223
52.31996 260
52.34008 263
52.36019 276
52.3803 272
52.40042 263
52.42053 266
52.44064 231
52.46076 257
52.48087 246
52.50099 264
52.5211 260
52.54121 282
52.56133 261
52.58144 294
52.60155 287
52.62167 283
52.64178 238
52.6619 278
52.68201 254
52.70212 278
52.72224 268
52.74235 276
52.76246 244
52.78258 246
52.80269 265
52.8228 289
52.84292 260
52.86303 278
52.88315 273
52.90326 255
52.92337 262
52.94349 287
52.9636 292
52.98371 269
53.00383 248
53.02394 272
53.04406 236
53.06417 261
53.08428 258
53.1044 267
53.12451 272
53.14462 270
53.16474 280
53.18485 258
53.20497 276
53.22508 271
53.24519 275
53.26531 301
53.28542 276
53.30553 268
53.32565 275
53.34576 268
53.36587 259
53.38599 266
53.4061 234
53.42622 273
53.44633 279
53.46644 261
53.48656 264
53.50667 241
53.52678 263
53.5469 240
53.56701 284
53.58713 249
53.60724 259
53.62735 270
53.64747 274
53.66758 247
53.68769 265
53.70781 294
53.72792 268
53.74804 256
53.76815 258
53.78826 265
53.80838 280
53.82849 292
53.8486 291
53.86872 275
53.88883 279
53.90894 262
53.92906 290
53.94917 245
53.96929 267
53.9894 287
54.00951 283
54.02963 285
54.04974 264
54.06985 283
54.08997 277
54.11008 269
54.1302 289
54.15031 271
54.17042 280
54.19054 270
54.21065 302
54.23076 294
54.25088 328
54.27099 278
54.29111 303
54.31122 307
54.33133 305
54.35145 280
54.37156 281
54.39167 301
54.41179 306
54.4319 346
54.45201 283
54.47213 309
54.49224 305
54.51236 272
54.53247 291
54.55258 299
54.5727 313
54.59281 331
54.61292 323
54.63304 345
54.65315 353
54.67327 395
54.69338 427
54.71349 412
54.73361 441
54.75372 468
54.77383 526
54.79395 511
54.81406 524
54.83417 527
54.85429 507
54.8744 505
54.89452 454
54.91463 432
54.93474 436
54.95486 412
54.97497 383
54.99508 396
55.0152 356
55.03531 388
55.05543 361
55.07554 310
55.09565 350
55.11577 322
55.13588 346
55.15599 367
55.17611 378
55.19622 342
55.21634 363
55.23645 422
55.25656 409
55.27668 393
55.29679 351
55.3169 376
55.33702 429
55.35713 369
55.37724 374
55.39736 343
55.41747 343
55.43759 345
55.4577 331
55.47781 308
55.49793 295
55.51804 296
55.53815 289
55.55827 298
55.57838 282
55.5985 298
55.61861 262
55.63872 294
55.65884 297
55.67895 284
55.69906 271
55.71918 282
55.73929 271
55.75941 256
55.77952 272
55.79963 268
55.81975 270
55.83986 253
55.85997 268
55.88009 257
55.9002 282
55.92031 266
55.94043 275
55.96054 282
55.98066 255
56.00077 292
56.02088 254
56.041 279
56.06111 274
56.08122 252
56.10134 271
56.12145 252
56.14157 270
56.16168 291
56.18179 246
56.20191 251
56.22202 252
56.24213 262
56.26225 270
56.28236 268
56.30248 263
56.32259 280
56.3427 240
56.36282 243
56.38293 265
56.40304 285
56.42316 255
56.44327 263
56.46338 264
56.4835 234
56.50361 282
56.52373 273
56.54384 218
56.56395 252
56.58407 239
56.60418 256
56.62429 268
56.64441 247
56.66452 263
56.68464 255
56.70475 261
56.72486 252
56.74498 268
56.76509 280
56.7852 237
56.80532 270
56.82543 261
56.84554 258
56.86566 237
56.88577 262
56.90589 246
56.926 234
56.94611 261
56.96623 224
56.98634 249
57.00645 214
57.02657 248
57.04668 228
57.0668 251
57.08691 247
57.10702 249
57.12714 269
57.14725 264
57.16736 254
57.18748 271
57.20759 246
57.22771 264
57.24782 245
57.26793 248
57.28805 269
57.30816 248
57.32827 254
57.34839 253
57.3685 273
57.38861 283
57.40873 259
57.42884 288
57.44896 260
57.46907 241
57.48918 256
57.5093 241
57.52941 245
57.54952 274
57.56964 239
57.58975 266
57.60987 263
57.62998 243
57.65009 237
57.67021 235
57.69032 231
57.71043 236
57.73055 247
57.75066 250
57.77078 263
57.79089 272
57.811 257
57.83112 254
57.85123 237
57.87134 231
57.89146 244
57.91157 244
57.93168 264
57.9518 234
57.97191 274
57.99203 229
58.01214 255
58.03225 256
58.05237 264
58.07248 251
58.09259 274
58.11271 263
58.13282 270
58.15294 228
58.17305 246
58.19316 242
58.21328 277
58.23339 273
58.2535 261
58.27362 250
58.29373 247
58.31385 248
58.33396 262
58.35407 277
58.37419 292
58.3943 270
58.41441 258
58.43453 251
58.45464 266
58.47475 260
58.49487 256
58.51498 268
58.5351 267
58.55521 276
58.57532 245
58.59544 283
58.61555 243
58.63566 294
58.65578 299
58.67589 244
58.69601 254
58.71612 282
58.73623 251
58.75635 267
58.77646 252
58.79657 223
58.81669 261
58.8368 247
58.85691 244
58.87703 256
58.89714 255
58.91726 249
58.93737 240
58.95748 238
58.9776 250
58.99771 214
59.01782 235
59.03794 238
59.05805 233
59.07817 245
59.09828 234
59.11839 245
59.13851 255
59.15862 264
59.17873 242
59.19885 250
59.21896 256
59.23908 251
59.25919 246
59.2793 215
59.29942 242
59.31953 234
59.33964 244
59.35976 259
59.37987 266
59.39998 266
59.4201 244
59.44021 268
59.46033 288
59.48044 287
59.50055 258
59.52067 276
59.54078 275
59.56089 297
59.58101 305
59.60112 334
59.62124 293
59.64135 291
59.66146 317
59.68158 351
59.70169 355
59.7218 415
59.74192 455
59.76203 465
59.78215 522
59.80226 558
59.82237 616
59.84249 657
59.8626 722
59.88271 764
59.90283 760
59.92294 757
59.94305 700
59.96317 687
59.98328 588
60.0034 572
60.02351 528
60.04362 558
60.06374 558
60.08385 459
60.10396 483
60.12408 445
60.14419 409
60.16431 378
60.18442 348
60.20453 333
60.22465 386
60.24476 307
60.26487 318
60.28499 325
60.3051 349
60.32522 327
60.34533 310
60.36544 305
60.38556 311
60.40567 293
60.42578 278
60.4459 299
60.46601 271
60.48612 258
60.50624 290
60.52635 257
60.54647 257
60.56658 251
60.58669 264
60.60681 273
60.62692 254
60.64703 267
60.66715 241
60.68726 253
60.70738 251
60.72749 267
60.7476 265
60.76772 249
60.78783 294
60.80794 274
60.82806 248
60.84817 266
60.86828 244
60.8884 249
60.90851 304
60.92863 268
60.94874 293
60.96885 266
60.98897 271
61.00908 298
61.02919 294
61.04931 294
61.06942 310
61.08954 279
61.10965 291
61.12976 328
61.14988 293
61.16999 319
61.1901 298
61.21022 272
61.23033 315
61.25045 274
61.27056 306
61.29067 322
61.31079 301
61.3309 315
61.35101 297
61.37113 270
61.39124 285
61.41135 287
61.43147 299
61.45158 292
61.4717 282
61.49181 293
61.51192 303
61.53204 270
61.55215 285
61.57226 284
61.59238 301
61.61249 287
61.63261 277
61.65272 298
61.67283 284
61.69295 277
61.71306 287
61.73317 269
61.75329 255
61.7734 295
61.79352 275
61.81363 329
61.83374 307
61.85386 288
61.87397 248
61.89408 279
61.9142 316
61.93431 284
61.95442 267
61.97454 324
61.99465 302
62.01477 281
62.03488 267
62.05499 280
62.07511 285
62.09522 271
62.11533 301
62.13545 261
62.15556 323
62.17568 281
62.19579 303
62.2159 299
62.23602 306
62.25613 278
62.27624 291
62.29636 280
62.31647 300
62.33659 286
62.3567 302
62.37681 275
62.39693 299
62.41704 288
62.43715 269
62.45727 266
62.47738 296
62.49749 255
62.51761 267
62.53772 253
62.55784 266
62.57795 255
62.59806 256
62.61818 277
62.63829 224
62.6584 275
62.67852 265
62.69863 259
62.71875 252
62.73886 238
62.75897 250
62.77909 246
62.7992 266
62.81931 271
62.83943 249
62.85954 252
62.87965 228
62.89977 284
62.91988 281
62.94 253
62.96011 235
62.98022 257
63.00034 279
63.02045 276
63.04056 263
63.06068 275
63.08079 255
63.10091 275
63.12102 307
63.14113 272
63.16125 262
63.18136 275
63.20147 286
63.22159 288
63.2417 298
63.26182 244
63.28193 283
63.30204 276
63.32216 273
63.34227 278
63.36238 294
63.3825 262
63.40261 270
63.42272 262
63.44284 289
63.46295 243
63.48307 285
63.50318 278
63.52329 265
63.54341 280
63.56352 255
63.58363 280
63.60375 281
63.62386 264
63.64398 293
63.66409 302
63.6842 302
63.70432 297
63.72443 301
63.74454 338
63.76466 334
63.78477 336
63.80489 329
63.825 340
63.84511 330
63.86523 356
63.88534 344
63.90545 343
63.92557 384
63.94568 371
63.96579 383
63.98591 380
64.00602 337
64.02614 340
64.04625 339
64.06636 335
64.08648 320
64.10659 313
64.1267 275
64.14682 268
64.16693 291
64.18705 245
64.20716 290
64.22727 276
64.24739 238
64.2675 249
64.28761 262
64.30773 246
64.32784 237
64.34796 216
64.36807 213
64.38818 216
64.4083 264
64.42841 245
64.44852 256
64.46864 231
64.48875 219
64.50886 215
64.52898 230
64.54909 212
64.56921 236
64.58932 257
64.60943 226
64.62955 213
64.64966 252
64.66977 224
64.68989 260
64.71 241
64.73012 238
64.75023 244
64.77034 250
64.79046 208
64.81057 268
64.83068 270
64.8508 243
64.87091 243
64.89102 243
64.91114 233
64.93125 225
64.95137 248
64.97148 206
64.99159 248
65.01171 260
65.03182 233
65.05193 263
65.07205 269
65.09216 245
65.11228 259
65.13239 287
65.1525 271
65.17262 275
65.19273 269
65.21284 248
65.23296 271
65.25307 248
65.27319 264
65.2933 270
65.31341 242
65.33353 259
65.35364 277
65.37375 285
65.39387 264
65.41398 261
65.43409 240
65.45421 239
65.47432 223
65.49444 221
65.51455 256
65.53466 236
65.55478 257
65.57489 253
65.595 263
65.61512 227
65.63523 231
65.65535 249
65.67546 248
65.69557 239
65.71569 265
65.7358 230
65.75591 249
65.77603 242
65.79614 235
65.81626 229
65.83637 240
65.85648 215
65.8766 229
65.89671 224
65.91682 223
65.93694 248
65.95705 246
65.97716 228
65.99728 259
66.01739 220
66.03751 217
66.05762 256
66.07773 229
66.09785 219
66.11796 242
66.13807 242
66.15819 245
66.1783 229
66.19842 221
66.21853 265
66.23864 250
66.25876 250
66.27887 223
66.29898 259
66.3191 246
66.33921 233
66.35933 238
66.37944 251
66.39955 221
66.41967 268
66.43978 260
66.45989 253
66.48001 233
66.50012 215
66.52023 216
66.54035 227
66.56046 220
66.58058 229
66.60069 208
66.6208 227
66.64092 232
66.66103 225
66.68114 217
66.70126 270
66.72137 238
66.74149 241
66.7616 226
66.78171 236
66.80183 228
66.82194 272
66.84205 228
66.86217 242
66.88228 213
66.90239 219
66.92251 239
66.94262 236
66.96274 238
66.98285 269
67.00296 245
67.02308 249
67.04319 275
67.0633 254
67.08342 245
67.10353 238
67.12365 277
67.14376 227
67.16387 261
67.18399 255
67.2041 233
67.22421 264
67.24433 255
67.26444 248
67.28456 248
67.30467 251
67.32478 272
67.3449 261
67.36501 294
67.38512 268
67.40524 277
67.42535 304
67.44546 299
67.46558 299
67.48569 326
67.50581 320
67.52592 356
67.54603 358
67.56615 396
67.58626 473
67.60637 459
67.62649 484
67.6466 524
67.66672 535
67.68683 582
67.70694 519
67.72706 521
67.74717 485
67.76728 447
67.7874 505
67.80751 447
67.82763 465
67.84774 461
67.86785 476
67.88797 476
67.90808 462
67.92819 473
67.94831 503
67.96842 477
67.98853 529
68.00865 560
68.02876 627
68.04888 637
68.06899 652
68.0891 700
68.10922 663
68.12933 657
68.14944 596
68.16956 609
68.18967 635
68.20979 586
68.2299 627
68.25001 590
68.27013 618
68.29024 571
68.31035 508
68.33047 498
68.35058 479
68.3707 427
68.39081 396
68.41092 353
68.43104 372
68.45115 339
68.47126 315
68.49138 318
68.51149 296
68.5316 277
68.55172 312
68.57183 277
68.59195 242
68.61206 265
68.63217 249
68.65229 252
68.6724 260
68.69251 264
68.71263 223
68.73274 250
68.75286 243
68.77297 236
68.79308 229
68.8132 268
68.83331 246
68.85342 259
68.87354 238
68.89365 216
68.91376 227
68.93388 216
68.95399 243
68.97411 226
68.99422 233
69.01433 216
69.03445 222
69.05456 226
69.07467 228
69.09479 236
69.1149 255
69.13502 219
69.15513 216
69.17524 229
69.19536 234
69.21547 256
69.23558 240
69.2557 256
69.27581 255
69.29593 253
69.31604 252
69.33615 227
69.35627 255
69.37638 253
69.39649 265
69.41661 214
69.43672 276
69.45683 229
69.47695 257
69.49706 245
69.51718 264
69.53729 236
69.5574 257
69.57752 253
69.59763 235
69.61774 237
69.63786 213
69.65797 241
69.67809 233
69.6982 224
69.71831 254
69.73843 232
69.75854 228
69.77865 251
69.79877 217
69.81888 245
69.839 228
69.85911 258
69.87922 246
69.89934 225
69.91945 236
69.93956 213
69.95968 249
69.97979 217
69.9999 234
70.02002 218
70.04013 228
70.06025 222
70.08036 233
70.10047 215
70.12059 236
70.1407 214
70.16081 226
70.18093 217
70.20104 222
70.22116 204
70.24127 201
70.26138 218
70.2815 202
70.30161 220
70.32172 195
70.34184 208
70.36195 228
70.38207 210
70.40218 215
70.42229 227
70.44241 189
70.46252 195
70.48263 196
70.50275 219
70.52286 216
70.54297 206
70.56309 221
70.5832 197
70.60332 230
70.62343 219
70.64354 214
70.66366 268
70.68377 212
70.70388 246
70.724 232
70.74411 229
70.76423 227
70.78434 242
70.80445 242
70.82457 243
70.84468 211
70.86479 228
70.88491 218
70.90502 237
70.92513 224
70.94525 229
70.96536 205
70.98548 214
71.00559 213
71.0257 205
71.04582 215
71.06593 249
71.08604 207
71.10616 213
71.12627 256
71.14639 212
71.1665 218
71.18661 226
71.20673 218
71.22684 220
71.24695 233
71.26707 202
71.28718 219
71.3073 225
71.32741 249
71.34752 236
71.36764 217
71.38775 222
71.40786 235
71.42798 241
71.44809 239
71.4682 243
71.48832 254
71.50843 219
71.52855 237
71.54866 219
71.56877 230
71.58889 239
71.609 236
71.62911 223
71.64923 202
71.66934 192
71.68946 211
71.70957 212
71.72968 203
71.7498 219
71.76991 214
71.79002 213
71.81014 246
71.83025 239
71.85037 213
71.87048 210
71.89059 223
71.91071 258
71.93082 215
71.95093 207
71.97105 230
71.99116 226
72.01127 241
72.03139 232
72.0515 244
72.07162 252
72.09173 213
72.11184 247
72.13196 197
72.15207 222
72.17218 249
72.1923 219
72.21241 243
72.23253 266
72.25264 223
72.27275 220
72.29287 241
72.31298 207
72.33309 246
72.35321 233
72.37332 231
72.39344 238
72.41355 224
72.43366 208
72.45378 233
72.47389 238
72.494 224
72.51412 219
72.53423 227
72.55434 236
72.57446 229
72.59457 204
72.61469 242
72.6348 225
72.65491 212
72.67503 234
72.69514 233
72.71525 242
72.73537 231
72.75548 228
72.7756 226
72.79571 232
72.81582 228
72.83594 198
72.85605 253
72.87616 209
72.89628 242
72.91639 265
72.9365 232
72.95662 248
72.97673 233
72.99685 257
73.01696 255
73.03707 243
73.05719 271
73.0773 235
73.09741 255
73.11753 238
73.13764 276
73.15776 250
73.17787 254
73.19798 270
73.2181 269
73.23821 278
73.25832 280
73.27844 308
73.29855 279
73.31867 277
73.33878 298
73.35889 318
73.37901 322
73.39912 324
73.41923 332
73.43935 305
73.45946 299
73.47957 309
73.49969 300
73.5198 290
73.53992 285
73.56003 261
73.58014 273
73.60026 297
73.62037 287
73.64048 289
73.6606 267
73.68071 284
73.70083 268
73.72094 227
73.74105 254
73.76117 259
73.78128 212
73.80139 229
73.82151 191
73.84162 228
73.86174 225
73.88185 255
73.90196 212
73.92208 241
73.94219 207
73.9623 262
73.98242 213
74.00253 216
74.02264 211
74.04276 222
74.06287 217
74.08299 216
74.1031 229
74.12321 232
74.14333 208
74.16344 193
74.18355 224
74.20367 224
74.22378 224
74.2439 229
74.26401 202
74.28412 224
74.30424 226
74.32435 202
74.34446 237
74.36458 244
74.38469 234
74.40481 219
74.42492 222
74.44503 224
74.46515 221
74.48526 200
74.50537 236
74.52549 242
74.5456 254
74.56571 191
74.58583 214
74.60594 248
74.62606 231
74.64617 235
74.66628 235
74.6864 234
74.70651 259
74.72662 254
74.74674 234
74.76685 218
74.78697 226
74.80708 228
74.82719 217
74.84731 252
74.86742 240
74.88753 214
74.90765 246
74.92776 239
74.94787 232
74.96799 223
74.9881 234
75.00822 248
