3.00117 20512
3.02128 19988
3.0414 19347
3.06151 19178
3.08162 18231
3.10174 18184
3.12185 17291
3.14197 16998
3.16208 16488
3.18219 16061
3.20231 15641
3.22242 15022
3.24253 14462
3.26265 14372
3.28276 13733
3.30288 13584
3.32299 12536
3.3431 12423
3.36322 11949
3.38333 11450
3.40344 11475
3.42356 10971
3.44367 10547
3.46379 10285
3.4839 9670
3.50401 9408
3.52413 9210
3.54424 8639
3.56435 8518
3.58447 8055
3.60458 7835
3.62469 7724
3.64481 7354
3.66492 7203
3.68504 6605
3.70515 6477
3.72526 6246
3.74538 6133
3.76549 5913
3.7856 5358
3.80572 5278
3.82583 5210
3.84595 4777
3.86606 4746
3.88617 4327
3.90629 4220
3.9264 4231
3.94651 3821
3.96663 3662
3.98674 3490
4.00686 3457
4.02697 3245
4.04708 3013
4.0672 2952
4.08731 2731
4.10742 2742
4.12754 2614
4.14765 2364
4.16776 2385
4.18788 2119
4.20799 2189
4.22811 2111
4.24822 1959
4.26833 1854
4.28845 1706
4.30856 1665
4.32867 1720
4.34879 1512
4.3689 1589
4.38902 1480
4.40913 1512
4.42924 1472
4.44936 1292
4.46947 1327
4.48958 1404
4.5097 1291
4.52981 1310
4.54992 1201
4.57004 1186
4.59015 1122
4.61027 1091
4.63038 1194
4.65049 1069
4.67061 1076
4.69072 1019
4.71083 955
4.73095 1025
4.75106 912
4.77118 915
4.79129 911
4.8114 898
4.83152 831
4.85163 814
4.87174 855
4.89186 803
4.91197 793
4.93209 752
4.9522 785
4.97231 697
4.99243 722
5.01254 625
5.03265 684
5.05277 622
5.07288 587
5.09299 623
5.11311 588
5.13322 602
5.15334 561
5.17345 562
5.19356 617
5.21368 552
5.23379 566
5.2539 469
5.27402 480
5.29413 473
5.31425 452
5.33436 464
5.35447 444
5.37459 431
5.3947 413
5.41481 404
5.43493 407
5.45504 368
5.47516 385
5.49527 365
5.51538 357
5.5355 395
5.55561 349
5.57572 364
5.59584 331
5.61595 346
5.63606 327
5.65618 284
5.67629 290
5.69641 299
5.71652 319
5.73663 300
5.75675 310
5.77686 309
5.79697 276
5.81709 281
5.8372 262
5.85732 258
5.87743 256
5.89754 262
5.91766 266
5.93777 238
5.95788 253
5.978 235
5.99811 248
6.01823 230
6.03834 240
6.05845 230
6.07857 239
6.09868 211
6.11879 239
6.13891 232
6.15902 236
6.17913 252
6.19925 256
6.21936 231
6.23948 202
6.25959 205
6.2797 214
6.29982 213
6.31993 197
6.34004 217
6.36016 202
6.38027 214
6.40039 219
6.4205 207
6.44061 193
6.46073 214
6.48084 202
6.50095 216
6.52107 217
6.54118 186
6.56129 197
6.58141 181
6.60152 207
6.62164 200
6.64175 222
6.66186 170
6.68198 217
6.70209 182
6.7222 189
6.74232 191
6.76243 204
6.78255 207
6.80266 165
6.82277 171
6.84289 197
6.863 188
6.88311 180
6.90323 197
6.92334 195
6.94346 203
6.96357 171
6.98368 207
7.0038 177
7.02391 207
7.04402 188
7.06414 189
7.08425 211
7.10436 216
7.12448 175
7.14459 237
7.16471 216
7.18482 213
7.20493 177
7.22505 180
7.24516 186
7.26527 178
7.28539 165
7.3055 194
7.32562 211
7.34573 207
7.36584 196
7.38596 201
7.40607 178
7.42618 205
7.4463 197
7.46641 198
7.48653 215
7.50664 202
7.52675 193
7.54687 170
7.56698 210
7.58709 201
7.60721 232
7.62732 239
7.64743 173
7.66755 220
7.68766 224
7.70778 203
7.72789 197
7.748 191
7.76812 183
7.78823 184
7.80834 234
7.82846 185
7.84857 167
7.86869 196
7.8888 204
7.90891 215
7.92903 214
7.94914 205
7.96925 216
7.98937 209
8.00948 230
8.0296 199
8.04971 200
8.06982 230
8.08994 216
8.11005 208
8.13016 190
8.15028 202
8.17039 190
8.1905 190
8.21062 195
8.23073 211
8.25085 205
8.27096 209
8.29107 214
8.31119 216
8.3313 212
8.35141 200
8.37153 184
8.39164 217
8.41176 228
8.43187 192
8.45198 203
8.4721 220
8.49221 214
8.51232 190
8.53244 207
8.55255 234
8.57266 242
8.59278 209
8.61289 209
8.63301 224
8.65312 206
8.67323 225
8.69335 206
8.71346 233
8.73357 223
8.75369 221
8.7738 227
8.79392 211
8.81403 237
8.83414 243
8.85426 228
8.87437 218
8.89448 211
8.9146 214
8.93471 206
8.95483 226
8.97494 207
8.99505 217
9.01517 196
9.03528 213
9.05539 208
9.07551 217
9.09562 223
9.11573 227
9.13585 228
9.15596 190
9.17608 216
9.19619 205
9.2163 240
9.23642 206
9.25653 243
9.27664 188
9.29676 222
9.31687 239
9.33699 223
9.3571 220
9.37721 225
9.39733 220
9.41744 251
9.43755 254
9.45767 250
9.47778 212
9.4979 219
9.51801 202
9.53812 216
9.55824 219
9.57835 223
9.59846 221
9.61858 218
9.63869 192
9.6588 228
9.67892 229
9.69903 209
9.71915 266
9.73926 227
9.75937 262
9.77949 226
9.7996 244
9.81971 226
9.83983 212
9.85994 223
9.88006 243
9.90017 227
9.92028 238
9.9404 228
9.96051 243
9.98062 226
10.00074 208
10.02085 209
10.04097 217
10.06108 194
10.08119 231
10.10131 220
10.12142 231
10.14153 217
10.16165 248
10.18176 233
10.20187 239
10.22199 221
10.2421 238
10.26222 240
10.28233 232
10.30244 247
10.32256 200
10.34267 240
10.36278 202
10.3829 259
10.40301 220
10.42313 225
10.44324 228
10.46335 258
10.48347 257
10.50358 252
10.52369 237
10.54381 211
10.56392 238
10.58403 234
10.60415 242
10.62426 228
10.64438 259
10.66449 218
10.6846 236
10.70472 219
10.72483 233
10.74494 237
10.76506 221
10.78517 200
10.80529 216
10.8254 228
10.84551 217
10.86563 231
10.88574 241
10.90585 221
10.92597 216
10.94608 215
10.9662 212
10.98631 233
11.00642 234
11.02654 220
11.04665 239
11.06676 241
11.08688 197
11.10699 204
11.1271 217
11.14722 208
11.16733 230
11.18745 218
11.20756 205
11.22767 205
11.24779 193
11.2679 221
11.28801 219
11.30813 216
11.32824 211
11.34836 229
11.36847 226
11.38858 208
11.4087 232
11.42881 231
11.44892 235
11.46904 212
11.48915 205
11.50927 233
11.52938 218
11.54949 245
11.56961 220
11.58972 211
11.60983 220
11.62995 239
11.65006 242
11.67017 211
11.69029 206
11.7104 243
11.73052 264
11.75063 210
11.77074 252
11.79086 221
11.81097 202
11.83108 234
11.8512 219
11.87131 218
11.89143 210
11.91154 215
11.93165 218
11.95177 273
11.97188 263
11.99199 257
12.01211 239
12.03222 220
12.05234 222
12.07245 240
12.09256 270
12.11268 263
12.13279 270
12.1529 249
12.17302 249
12.19313 279
12.21324 253
12.23336 283
12.25347 274
12.27359 266
12.2937 274
12.31381 261
12.33393 249
12.35404 263
12.37415 246
12.39427 270
12.41438 243
12.4345 255
12.45461 257
12.47472 230
12.49484 254
12.51495 242
12.53506 255
12.55518 233
12.57529 228
12.5954 213
12.61552 245
12.63563 211
12.65575 203
12.67586 225
12.69597 213
12.71609 202
12.7362 194
12.75631 196
12.77643 207
12.79654 214
12.81666 203
12.83677 215
12.85688 180
12.877 189
12.89711 221
12.91722 183
12.93734 220
12.95745 191
12.97757 209
12.99768 206
13.01779 196
13.03791 198
13.05802 205
13.07813 200
13.09825 207
13.11836 214
13.13847 216
13.15859 191
13.1787 186
13.19882 197
13.21893 206
13.23904 222
13.25916 205
13.27927 167
13.29938 188
13.3195 188
13.33961 209
13.35973 202
13.37984 184
13.39995 182
13.42007 208
13.44018 191
13.46029 194
13.48041 221
13.50052 196
13.52064 179
13.54075 198
13.56086 207
13.58098 210
13.60109 209
13.6212 216
13.64132 222
13.66143 246
13.68154 227
13.70166 201
13.72177 212
13.74189 191
13.762 199
13.78211 235
13.80223 211
13.82234 221
13.84245 202
13.86257 196
13.88268 205
13.9028 209
13.92291 223
13.94302 208
13.96314 205
13.98325 192
14.00336 226
14.02348 209
14.04359 186
14.06371 173
14.08382 197
14.10393 188
14.12405 191
14.14416 220
14.16427 161
14.18439 192
14.2045 184
14.22461 210
14.24473 187
14.26484 179
14.28496 192
14.30507 193
14.32518 193
14.3453 189
14.36541 165
14.38552 202
14.40564 223
14.42575 195
14.44587 182
14.46598 191
14.48609 194
14.50621 174
14.52632 186
14.54643 192
14.56655 194
14.58666 193
14.60677 179
14.62689 162
14.647 162
14.66712 173
14.68723 186
14.70734 177
14.72746 185
14.74757 183
14.76768 182
14.7878 179
14.80791 193
14.82803 180
14.84814 173
14.86825 195
14.88837 187
14.90848 219
14.92859 201
14.94871 203
14.96882 154
14.98894 186
15.00905 210
15.02916 180
15.04928 199
15.06939 185
15.0895 181
15.10962 196
15.12973 162
15.14984 197
15.16996 173
15.19007 172
15.21019 185
15.2303 196
15.25041 185
15.27053 174
15.29064 179
15.31075 180
15.33087 182
15.35098 170
15.3711 178
15.39121 170
15.41132 157
15.43144 192
15.45155 165
15.47166 185
15.49178 162
15.51189 181
15.53201 194
15.55212 191
15.57223 175
15.59235 138
15.61246 182
15.63257 180
15.65269 175
15.6728 186
15.69291 181
15.71303 182
15.73314 166
15.75326 149
15.77337 182
15.79348 174
15.8136 162
15.83371 191
15.85382 188
15.87394 186
15.89405 186
15.91417 180
15.93428 183
15.95439 172
15.97451 192
15.99462 149
16.01473 169
16.03485 168
16.05496 172
16.07508 190
16.09519 155
16.1153 175
16.13542 188
16.15553 173
16.17564 168
16.19576 168
16.21587 162
16.23598 181
16.2561 175
16.27621 157
16.29633 179
16.31644 194
16.33655 179
16.35667 201
16.37678 189
16.39689 190
16.41701 156
16.43712 179
16.45724 212
16.47735 186
16.49746 171
16.51758 193
16.53769 180
16.5578 205
16.57792 153
16.59803 175
16.61814 162
16.63826 191
16.65837 183
16.67849 169
16.6986 173
16.71871 187
16.73883 167
16.75894 187
16.77905 133
16.79917 176
16.81928 196
16.8394 169
16.85951 147
16.87962 190
16.89974 184
16.91985 175
16.93996 151
16.96008 157
16.98019 196
17.00031 170
17.02042 164
17.04053 172
17.06065 171
17.08076 161
17.10087 189
17.12099 186
17.1411 175
17.16121 166
17.18133 157
17.20144 165
17.22156 168
17.24167 163
17.26178 170
17.2819 184
17.30201 187
17.32212 194
17.34224 153
17.36235 180
17.38247 175
17.40258 171
17.42269 166
17.44281 175
17.46292 175
17.48303 149
17.50315 182
17.52326 171
17.54338 166
17.56349 171
17.5836 170
17.60372 199
17.62383 175
17.64394 171
17.66406 159
17.68417 137
17.70428 190
17.7244 175
17.74451 163
17.76463 187
17.78474 156
17.80485 172
17.82497 177
17.84508 152
17.86519 138
17.88531 137
17.90542 171
17.92554 159
17.94565 184
17.96576 159
17.98588 171
18.00599 149
18.0261 169
18.04622 175
18.06633 150
18.08645 180
18.10656 188
18.12667 165
18.14679 179
18.1669 205
18.18701 164
18.20713 189
18.22724 164
18.24735 181
18.26747 168
18.28758 173
18.3077 174
18.32781 185
18.34792 170
18.36804 154
18.38815 211
18.40826 164
18.42838 147
18.44849 185
18.46861 182
18.48872 169
18.50883 181
18.52895 171
18.54906 187
18.56917 181
18.58929 152
18.6094 170
18.62951 177
18.64963 193
18.66974 169
18.68986 172
18.70997 172
18.73008 210
18.7502 188
18.77031 188
18.79042 203
18.81054 163
18.83065 189
18.85077 195
18.87088 176
18.89099 159
18.91111 167
18.93122 188
18.95133 142
18.97145 167
18.99156 175
19.01168 158
19.03179 169
19.0519 171
19.07202 189
19.09213 189
19.11224 173
19.13236 166
19.15247 177
19.17258 180
19.1927 185
19.21281 194
19.23293 180
19.25304 184
19.27315 167
19.29327 201
19.31338 174
19.33349 211
19.35361 204
19.37372 184
19.39384 178
19.41395 203
19.43406 217
19.45418 213
19.47429 155
19.4944 196
19.51452 189
19.53463 172
19.55475 216
19.57486 209
19.59497 216
19.61509 209
19.6352 212
19.65531 181
19.67543 244
19.69554 226
19.71565 220
19.73577 216
19.75588 253
19.776 266
19.79611 262
19.81622 263
19.83634 262
19.85645 281
19.87656 294
19.89668 264
19.91679 300
19.93691 314
19.95702 287
19.97713 266
19.99725 311
20.01736 271
20.03747 236
20.05759 255
20.0777 267
20.09782 309
20.11793 260
20.13804 301
20.15816 328
20.17827 294
20.19838 295
20.2185 317
20.23861 294
20.25872 310
20.27884 328
20.29895 276
20.31907 268
20.33918 328
20.35929 328
20.37941 353
20.39952 349
20.41963 364
20.43975 378
20.45986 367
20.47998 379
20.50009 423
20.5202 436
20.54032 505
20.56043 586
20.58054 652
20.60066 699
20.62077 854
20.64088 1057
20.661 1303
20.68111 1710
20.70123 2311
20.72134 2994
20.74145 3790
20.76157 4920
20.78168 5965
20.80179 6919
20.82191 7308
20.84202 6815
20.86214 5913
20.88225 4329
20.90236 2993
20.92248 2042
20.94259 1347
20.9627 812
20.98282 691
21.00293 585
21.02305 560
21.04316 504
21.06327 480
21.08339 419
21.1035 381
21.12361 334
21.14373 343
21.16384 290
21.18395 316
21.20407 320
21.22418 305
21.2443 287
21.26441 287
21.28452 287
21.30464 270
21.32475 265
21.34486 257
21.36498 270
21.38509 244
21.40521 287
21.42532 265
21.44543 246
21.46555 268
21.48566 262
21.50577 268
21.52589 233
21.546 226
21.56612 270
21.58623 243
21.60634 271
21.62646 244
21.64657 260
21.66668 251
21.6868 245
21.70691 235
21.72702 260
21.74714 241
21.76725 265
21.78737 235
21.80748 288
21.82759 286
21.84771 275
21.86782 245
21.88793 293
21.90805 303
21.92816 291
21.94828 277
21.96839 319
21.9885 270
22.00862 295
22.02873 233
22.04884 232
22.06896 242
22.08907 224
22.10919 215
22.1293 264
22.14941 218
22.16953 236
22.18964 211
22.20975 239
22.22987 194
22.24998 221
22.27009 228
22.29021 245
22.31032 210
22.33044 229
22.35055 256
22.37066 237
22.39078 233
22.41089 230
22.431 250
22.45112 224
22.47123 229
22.49135 226
22.51146 236
22.53157 199
22.55169 203
22.5718 244
22.59191 222
22.61203 216
22.63214 221
22.65225 216
22.67237 260
22.69248 215
22.7126 221
22.73271 211
22.75282 239
22.77294 226
22.79305 227
22.81316 218
22.83328 223
22.85339 241
22.87351 246
22.89362 235
22.91373 222
22.93385 239
22.95396 241
22.97407 219
22.99419 257
23.0143 278
23.03442 225
23.05453 241
23.07464 235
23.09476 230
23.11487 222
23.13498 238
23.1551 251
23.17521 224
23.19532 227
23.21544 217
23.23555 250
23.25567 244
23.27578 220
23.29589 230
23.31601 206
23.33612 221
23.35623 263
23.37635 238
23.39646 227
23.41658 235
23.43669 232
23.4568 247
23.47692 238
23.49703 290
23.51714 240
23.53726 265
23.55737 282
23.57749 278
23.5976 289
23.61771 289
23.63783 243
23.65794 261
23.67805 253
23.69817 273
23.71828 298
23.73839 279
23.75851 255
23.77862 287
23.79874 266
23.81885 285
23.83896 267
23.85908 273
23.87919 295
23.8993 316
23.91942 327
23.93953 320
23.95965 299
23.97976 321
23.99987 312
24.01999 237
24.0401 228
24.06021 279
24.08033 245
24.10044 236
24.12056 243
24.14067 233
24.16078 209
24.1809 254
24.20101 206
24.22112 249
24.24124 215
24.26135 240
24.28146 251
24.30158 268
24.32169 253
24.34181 234
24.36192 229
24.38203 252
24.40215 238
24.42226 238
24.44237 211
24.46249 222
24.4826 226
24.50272 220
24.52283 232
24.54294 228
24.56306 272
24.58317 239
24.60328 228
24.6234 249
24.64351 231
24.66362 252
24.68374 266
24.70385 254
24.72397 240
24.74408 235
24.76419 256
24.78431 253
24.80442 237
24.82453 251
24.84465 259
24.86476 273
24.88488 274
24.90499 250
24.9251 283
24.94522 228
24.96533 241
24.98544 230
25.00556 220
25.02567 254
25.04579 220
25.0659 228
25.08601 238
25.10613 215
25.12624 285
25.14635 248
25.16647 230
25.18658 248
25.20669 248
25.22681 260
25.24692 212
25.26704 249
25.28715 250
25.30726 260
25.32738 261
25.34749 242
25.3676 279
25.38772 265
25.40783 279
25.42795 274
25.44806 257
25.46817 309
25.48829 300
25.5084 301
25.52851 334
25.54863 303
25.56874 346
25.58886 322
25.60897 381
25.62908 385
25.6492 436
25.66931 388
25.68942 441
25.70954 383
25.72965 430
25.74976 441
25.76988 439
25.78999 450
25.81011 443
25.83022 458
25.85033 441
25.87045 433
25.89056 435
25.91067 442
25.93079 499
25.9509 516
25.97102 468
25.99113 496
26.01124 515
26.03136 552
26.05147 585
26.07158 582
26.0917 603
26.11181 664
26.13193 716
26.15204 753
26.17215 855
26.19227 961
26.21238 1045
26.23249 1084
26.25261 1196
26.27272 1333
26.29283 1648
26.31295 1830
26.33306 2280
26.35318 2808
26.37329 3351
26.3934 4180
26.41352 5359
26.43363 6714
26.45374 8703
26.47386 10835
26.49397 14021
26.51409 17582
26.5342 21953
26.55431 26169
26.57443 30389
26.59454 32530
26.61465 30774
26.63477 26542
26.65488 21295
26.67499 16319
26.69511 11693
26.71522 7313
26.73534 4471
26.75545 2780
26.77556 1993
26.79568 1614
26.81579 1396
26.8359 1227
26.85602 1185
26.87613 1075
26.89625 972
26.91636 928
26.93647 846
26.95659 775
26.9767 697
26.99681 693
27.01693 687
27.03704 682
27.05716 578
27.07727 583
27.09738 503
27.1175 530
27.13761 494
27.15772 417
27.17784 457
27.19795 446
27.21806 445
27.23818 442
27.25829 465
27.27841 430
27.29852 443
27.31863 489
27.33875 481
27.35886 518
27.37897 538
27.39909 521
27.4192 540
27.43932 555
27.45943 561
27.47954 473
27.49966 452
27.51977 488
27.53988 452
27.56 403
27.58011 395
27.60023 397
27.62034 388
27.64045 389
27.66057 408
27.68068 396
27.70079 410
27.72091 450
27.74102 457
27.76113 509
27.78125 456
27.80136 414
27.82148 417
27.84159 372
27.8617 435
27.88182 385
27.90193 393
27.92204 430
27.94216 395
27.96227 392
27.98239 355
28.0025 350
28.02261 332
28.04273 317
28.06284 337
28.08295 325
28.10307 295
28.12318 274
28.1433 287
28.16341 281
28.18352 286
28.20364 281
28.22375 295
28.24386 300
28.26398 294
28.28409 276
28.3042 281
28.32432 266
28.34443 262
28.36455 287
28.38466 263
28.40477 270
28.42489 250
28.445 272
28.46511 259
28.48523 234
28.50534 271
28.52546 273
28.54557 254
28.56568 254
28.5858 210
28.60591 271
28.62602 217
28.64614 231
28.66625 225
28.68636 218
28.70648 243
28.72659 252
28.74671 235
28.76682 214
28.78693 256
28.80705 225
28.82716 256
28.84727 230
28.86739 236
28.8875 220
28.90762 215
28.92773 213
28.94784 221
28.96796 215
28.98807 233
29.00818 231
29.0283 237
29.04841 219
29.06853 254
29.08864 248
29.10875 250
29.12887 258
29.14898 246
29.16909 233
29.18921 211
29.20932 239
29.22943 223
29.24955 234
29.26966 253
29.28978 228
29.30989 230
29.33 218
29.35012 229
29.37023 239
29.39034 224
29.41046 219
29.43057 236
29.45069 259
29.4708 241
29.49091 225
29.51103 208
29.53114 217
29.55125 224
29.57137 231
29.59148 241
29.6116 230
29.63171 229
29.65182 237
29.67194 233
29.69205 270
29.71216 260
29.73228 246
29.75239 245
29.7725 257
29.79262 265
29.81273 234
29.83285 248
29.85296 250
29.87307 216
29.89319 222
29.9133 242
29.93341 213
29.95353 208
29.97364 246
29.99376 237
30.01387 228
30.03398 240
30.0541 231
30.07421 220
30.09432 240
30.11444 226
30.13455 262
30.15467 241
30.17478 220
30.19489 234
30.21501 273
30.23512 240
30.25523 264
30.27535 241
30.29546 250
30.31557 260
30.33569 243
30.3558 230
30.37592 240
30.39603 246
30.41614 241
30.43626 247
30.45637 226
30.47648 252
30.4966 227
30.51671 212
30.53683 232
30.55694 212
30.57705 215
30.59717 228
30.61728 191
30.63739 221
30.65751 249
30.67762 233
30.69773 215
30.71785 229
30.73796 227
30.75808 233
30.77819 247
30.7983 237
30.81842 238
30.83853 235
30.85864 209
30.87876 210
30.89887 196
30.91899 202
30.9391 185
30.95921 153
30.97933 188
30.99944 195
31.01955 202
31.03967 207
31.05978 196
31.0799 188
31.10001 166
31.12012 206
31.14024 183
31.16035 195
31.18046 194
31.20058 196
31.22069 199
31.2408 211
31.26092 192
31.28103 189
31.30115 190
31.32126 204
31.34137 176
31.36149 165
31.3816 191
31.40171 176
31.42183 211
31.44194 199
31.46206 192
31.48217 195
31.50228 185
31.5224 205
31.54251 169
31.56262 193
31.58274 197
31.60285 197
31.62297 187
31.64308 165
31.66319 183
31.68331 169
31.70342 184
31.72353 184
31.74365 196
31.76376 173
31.78387 189
31.80399 171
31.8241 172
31.84422 192
31.86433 169
31.88444 156
31.90456 187
31.92467 173
31.94478 175
31.9649 171
31.98501 179
32.00513 161
32.02524 176
32.04535 146
32.06547 158
32.08558 189
32.10569 205
32.12581 147
32.14592 176
32.16604 159
32.18615 181
32.20626 172
32.22638 148
32.24649 194
32.2666 198
32.28672 209
32.30683 187
32.32694 186
32.34706 198
32.36717 189
32.38729 165
32.4074 194
32.42751 208
32.44763 205
32.46774 176
32.48785 187
32.50797 198
32.52808 214
32.5482 187
32.56831 188
32.58842 185
32.60854 202
32.62865 176
32.64876 163
32.66888 186
32.68899 176
32.7091 191
32.72922 179
32.74933 175
32.76945 170
32.78956 164
32.80967 168
32.82979 156
32.8499 177
32.87001 193
32.89013 200
32.91024 180
32.93036 170
32.95047 182
32.97058 213
32.9907 201
33.01081 195
33.03092 174
33.05104 171
33.07115 170
33.09127 192
33.11138 153
33.13149 159
33.15161 166
33.17172 150
33.19183 152
33.21195 155
33.23206 134
33.25217 170
33.27229 154
33.2924 157
33.31252 136
33.33263 167
33.35274 169
33.37286 178
33.39297 167
33.41308 184
33.4332 169
33.45331 166
33.47343 160
33.49354 158
33.51365 162
33.53377 171
33.55388 170
33.57399 163
33.59411 169
33.61422 148
33.63434 147
33.65445 165
33.67456 170
33.69468 179
33.71479 152
33.7349 170
33.75502 156
33.77513 155
33.79524 180
33.81536 160
33.83547 179
33.85559 145
33.8757 173
33.89581 167
33.91593 164
33.93604 175
33.95615 184
33.97627 164
33.99638 146
34.0165 170
34.03661 170
34.05672 179
34.07684 172
34.09695 161
34.11706 177
34.13718 159
34.15729 186
34.17741 188
34.19752 182
34.21763 187
34.23775 161
34.25786 184
34.27797 173
34.29809 154
34.3182 177
34.33831 158
34.35843 187
34.37854 164
34.39866 161
34.41877 179
34.43888 164
34.459 178
34.47911 195
34.49922 174
34.51934 181
34.53945 168
34.55957 174
34.57968 176
34.59979 168
34.61991 194
34.64002 191
34.66013 188
34.68025 201
34.70036 187
34.72047 168
34.74059 199
34.7607 196
34.78082 211
34.80093 191
34.82104 178
34.84116 202
34.86127 190
34.88138 195
34.9015 173
34.92161 184
34.94173 221
34.96184 204
34.98195 210
35.00207 196
35.02218 174
35.04229 202
35.06241 199
35.08252 233
35.10264 214
35.12275 203
35.14286 214
35.16298 212
35.18309 206
35.2032 217
35.22332 214
35.24343 252
35.26354 252
35.28366 234
35.30377 232
35.32389 244
35.344 228
35.36411 213
35.38423 219
35.40434 242
35.42445 261
35.44457 278
35.46468 225
35.4848 232
35.50491 250
35.52502 214
35.54514 229
35.56525 240
35.58536 204
35.60548 215
35.62559 228
35.64571 200
35.66582 261
35.68593 187
35.70605 207
35.72616 215
35.74627 186
35.76639 209
35.7865 228
35.80661 200
35.82673 209
35.84684 231
35.86696 205
35.88707 221
35.90718 239
35.9273 202
35.94741 216
35.96752 235
35.98764 199
36.00775 225
36.02787 250
36.04798 227
36.06809 247
36.08821 267
36.10832 265
36.12843 279
36.14855 292
36.16866 279
36.18878 314
36.20889 339
36.229 344
36.24912 389
36.26923 461
36.28934 566
36.30946 670
36.32957 732
36.34968 821
36.3698 967
36.38991 1201
36.41003 1416
36.43014 1699
36.45025 1911
36.47037 2158
36.49048 2185
36.51059 2112
36.53071 1837
36.55082 1531
36.57094 1294
36.59105 1138
36.61116 1010
36.63128 737
36.65139 482
36.6715 358
36.69162 327
36.71173 243
36.73184 271
36.75196 229
36.77207 239
36.79219 203
36.8123 239
36.83241 236
36.85253 207
36.87264 251
36.89275 198
36.91287 198
36.93298 211
36.9531 211
36.97321 174
36.99332 206
37.01344 207
37.03355 184
37.05366 181
37.07378 162
37.09389 172
37.11401 176
37.13412 180
37.15423 177
37.17435 173
37.19446 156
37.21457 177
37.23469 180
37.2548 172
37.27491 174
37.29503 199
37.31514 173
37.33526 142
37.35537 155
37.37548 176
37.3956 179
37.41571 177
37.43582 169
37.45594 184
37.47605 161
37.49617 142
37.51628 159
37.53639 160
37.55651 177
37.57662 172
37.59673 178
37.61685 193
37.63696 177
37.65708 162
37.67719 180
37.6973 157
37.71742 188
37.73753 205
37.75764 167
37.77776 177
37.79787 165
37.81798 163
37.8381 172
37.85821 169
37.87833 173
37.89844 183
37.91855 176
37.93867 179
37.95878 147
37.97889 175
37.99901 158
38.01912 195
38.03924 196
38.05935 179
38.07946 166
38.09958 174
38.11969 177
38.1398 195
38.15992 172
38.18003 217
38.20015 173
38.22026 199
38.24037 191
38.26049 197
38.2806 190
38.30071 191
38.32083 177
38.34094 213
38.36105 184
38.38117 213
38.40128 231
38.4214 189
38.44151 215
38.46162 200
38.48174 207
38.50185 210
38.52196 201
38.54208 204
38.56219 201
38.58231 199
38.60242 201
38.62253 209
38.64265 183
38.66276 178
38.68287 189
38.70299 175
38.7231 200
38.74321 200
38.76333 192
38.78344 192
38.80356 213
38.82367 181
38.84378 201
38.8639 193
38.88401 192
38.90412 205
38.92424 219
38.94435 208
38.96447 208
38.98458 224
39.00469 224
39.02481 261
39.04492 268
39.06503 287
39.08515 323
39.10526 333
39.12538 344
39.14549 384
39.1656 425
39.18572 470
39.20583 523
39.22594 605
39.24606 665
39.26617 793
39.28628 928
39.3064 1039
39.32651 1279
39.34663 1436
39.36674 1772
39.38685 1904
39.40697 2078
39.42708 1960
39.44719 1756
39.46731 1597
39.48742 1297
39.50754 1125
39.52765 984
39.54776 831
39.56788 618
39.58799 429
39.6081 351
39.62822 273
39.64833 293
39.66845 239
39.68856 235
39.70867 243
39.72879 230
39.7489 222
39.76901 230
39.78913 216
39.80924 234
39.82935 224
39.84947 222
39.86958 222
39.8897 226
39.90981 253
39.92992 251
39.95004 257
39.97015 258
39.99026 335
40.01038 305
40.03049 327
40.05061 440
40.07072 451
40.09083 482
40.11095 529
40.13106 636
40.15117 742
40.17129 848
40.1914 967
40.21152 1010
40.23163 1088
40.25174 1018
40.27186 943
40.29197 813
40.31208 747
40.3322 622
40.35231 543
40.37242 501
40.39254 396
40.41265 337
40.43277 249
40.45288 224
40.47299 214
40.49311 200
40.51322 203
40.53333 184
40.55345 199
40.57356 190
40.59368 188
40.61379 203
40.6339 184
40.65402 189
40.67413 183
40.69424 192
40.71436 182
40.73447 146
40.75458 189
40.7747 170
40.79481 179
40.81493 171
40.83504 192
40.85515 168
40.87527 176
40.89538 192
40.91549 178
40.93561 184
40.95572 163
40.97584 177
40.99595 194
41.01606 173
41.03618 168
41.05629 185
41.0764 226
41.09652 190
41.11663 164
41.13675 192
41.15686 171
41.17697 172
41.19709 187
41.2172 184
41.23731 178
41.25743 175
41.27754 177
41.29765 183
41.31777 180
41.33788 171
41.358 183
41.37811 188
41.39822 170
41.41834 163
41.43845 160
41.45856 182
41.47868 176
41.49879 179
41.51891 183
41.53902 163
41.55913 168
41.57925 182
41.59936 191
41.61947 179
41.63959 210
41.6597 195
41.67982 229
41.69993 211
41.72004 209
41.74016 195
41.76027 214
41.78038 208
41.8005 209
41.82061 175
41.84072 197
41.86084 191
41.88095 179
41.90107 191
41.92118 182
41.94129 196
41.96141 201
41.98152 210
42.00163 202
42.02175 235
42.04186 214
42.06198 252
42.08209 262
42.1022 290
42.12232 325
42.14243 304
42.16254 347
42.18266 454
42.20277 487
42.22289 518
42.243 650
42.26311 728
42.28323 824
42.30334 890
42.32345 1061
42.34357 1254
42.36368 1397
42.38379 1452
42.40391 1476
42.42402 1405
42.44414 1144
42.46425 934
42.48436 864
42.50448 762
42.52459 762
42.5447 582
42.56482 456
42.58493 338
42.60505 271
42.62516 264
42.64527 210
42.66539 216
42.6855 215
42.70561 190
42.72573 211
42.74584 201
42.76595 200
42.78607 173
42.80618 187
42.8263 197
42.84641 207
42.86652 190
42.88664 185
42.90675 177
42.92686 169
42.94698 171
42.96709 159
42.98721 145
43.00732 165
43.02743 163
43.04755 149
43.06766 133
43.08777 164
43.10789 158
43.128 160
43.14812 170
43.16823 145
43.18834 147
43.20846 158
43.22857 156
43.24868 136
43.2688 142
43.28891 136
43.30902 141
43.32914 137
43.34925 123
43.36937 165
43.38948 166
43.40959 171
43.42971 160
43.44982 138
43.46993 154
43.49005 161
43.51016 154
43.53028 168
43.55039 129
43.5705 166
43.59062 158
43.61073 135
43.63084 170
43.65096 150
43.67107 142
43.69119 145
43.7113 163
43.73141 149
43.75153 163
43.77164 164
43.79175 156
43.81187 151
43.83198 181
43.85209 145
43.87221 156
43.89232 163
43.91244 162
43.93255 142
43.95266 151
43.97278 191
43.99289 147
44.013 142
44.03312 150
44.05323 158
44.07335 141
44.09346 143
44.11357 157
44.13369 148
44.1538 154
44.17391 161
44.19403 161
44.21414 139
44.23426 156
44.25437 132
44.27448 155
44.2946 155
44.31471 141
44.33482 142
44.35494 162
44.37505 162
44.39516 140
44.41528 161
44.43539 154
44.45551 155
44.47562 138
44.49573 162
44.51585 145
44.53596 147
44.55607 148
44.57619 150
44.5963 165
44.61642 171
44.63653 149
44.65664 165
44.67676 158
44.69687 151
44.71698 152
44.7371 157
44.75721 148
44.77732 147
44.79744 169
44.81755 144
44.83767 175
44.85778 160
44.87789 168
44.89801 140
44.91812 158
44.93823 170
44.95835 176
44.97846 161
44.99858 176
45.01869 172
45.0388 158
45.05892 151
45.07903 159
45.09914 172
45.11926 154
45.13937 158
45.15949 143
45.1796 200
45.19971 177
45.21983 150
45.23994 153
45.26005 189
45.28017 164
45.30028 158
45.32039 155
45.34051 202
45.36062 217
45.38074 200
45.40085 245
45.42096 200
45.44108 233
45.46119 260
45.4813 302
45.50142 336
45.52153 331
45.54165 370
45.56176 432
45.58187 462
45.60199 497
45.6221 609
45.64221 668
45.66233 736
45.68244 759
45.70256 891
45.72267 1024
45.74278 1044
45.7629 985
45.78301 858
45.80312 729
45.82324 626
45.84335 547
45.86346 565
45.88358 493
45.90369 396
45.92381 326
45.94392 238
45.96403 212
45.98415 209
46.00426 193
46.02437 198
46.04449 161
46.0646 185
46.08472 194
46.10483 141
46.12494 154
46.14506 169
46.16517 154
46.18528 167
46.2054 134
46.22551 150
46.24563 181
46.26574 163
46.28585 156
46.30597 161
46.32608 165
46.34619 156
46.36631 143
46.38642 158
46.40653 145
46.42665 151
46.44676 160
46.46688 154
46.48699 172
46.5071 147
46.52722 159
46.54733 137
46.56744 143
46.58756 185
46.60767 151
46.62779 153
46.6479 154
46.66801 140
46.68813 139
46.70824 166
46.72835 151
46.74847 144
46.76858 152
46.78869 130
46.80881 128
46.82892 140
46.84904 142
46.86915 141
46.88926 154
46.90938 137
46.92949 153
46.9496 144
46.96972 155
46.98983 119
47.00995 142
47.03006 149
47.05017 156
47.07029 154
47.0904 159
47.11051 132
47.13063 149
47.15074 167
47.17086 143
47.19097 145
47.21108 146
47.2312 150
47.25131 145
47.27142 153
47.29154 151
47.31165 161
47.33176 148
47.35188 162
47.37199 152
47.39211 160
47.41222 130
47.43233 160
47.45245 148
47.47256 132
47.49267 157
47.51279 138
47.5329 144
47.55302 138
47.57313 153
47.59324 123
47.61336 152
47.63347 166
47.65358 144
47.6737 158
47.69381 145
47.71393 141
47.73404 148
47.75415 149
47.77427 116
47.79438 127
47.81449 145
47.83461 129
47.85472 121
47.87483 144
47.89495 141
47.91506 142
47.93518 151
47.95529 147
47.9754 162
47.99552 145
48.01563 150
48.03574 148
48.05586 143
48.07597 153
48.09609 149
48.1162 126
48.13631 137
48.15643 127
48.17654 143
48.19665 133
48.21677 171
48.23688 168
48.257 150
48.27711 161
48.29722 147
48.31734 127
48.33745 142
48.35756 144
48.37768 162
48.39779 155
48.4179 156
48.43802 129
48.45813 165
48.47825 159
48.49836 154
48.51847 147
48.53859 167
48.5587 136
48.57881 154
48.59893 175
48.61904 152
48.63916 160
48.65927 169
48.67938 169
48.6995 148
48.71961 158
48.73972 166
48.75984 177
48.77995 144
48.80006 145
48.82018 165
48.84029 159
48.86041 149
48.88052 193
48.90063 163
48.92075 168
48.94086 182
48.96097 152
48.98109 182
49.0012 177
49.02132 162
49.04143 150
49.06154 183
49.08166 179
49.10177 160
49.12188 135
49.142 165
49.16211 166
49.18223 175
49.20234 182
49.22245 159
49.24257 157
49.26268 157
49.28279 184
49.30291 170
49.32302 163
49.34313 163
49.36325 169
49.38336 197
49.40348 167
49.42359 193
49.4437 204
49.46382 189
49.48393 216
49.50404 213
49.52416 190
49.54427 241
49.56439 245
49.5845 276
49.60461 242
49.62473 263
49.64484 271
49.66495 300
49.68507 313
49.70518 342
49.7253 376
49.74541 395
49.76552 456
49.78564 503
49.80575 602
49.82586 676
49.84598 760
49.86609 789
49.8862 961
49.90632 1122
49.92643 1328
49.94655 1513
49.96666 1771
49.98677 2050
50.00689 2346
50.027 2634
50.04711 2967
50.06723 3138
50.08734 3218
50.10746 3007
50.12757 2535
50.14768 1991
50.1678 1825
50.18791 1645
50.20802 1547
50.22814 1501
50.24825 1196
50.26837 937
50.28848 639
50.30859 498
50.32871 412
50.34882 342
50.36893 331
50.38905 295
50.40916 305
50.42927 287
50.44939 295
50.4695 283
50.48962 276
50.50973 269
50.52984 304
50.54996 288
50.57007 292
50.59018 254
50.6103 258
50.63041 255
50.65053 255
50.67064 219
50.69075 237
50.71087 249
50.73098 210
50.75109 213
50.77121 189
50.79132 208
50.81143 184
50.83155 171
50.85166 175
50.87178 156
50.89189 153
50.912 162
50.93212 157
50.95223 181
50.97234 159
50.99246 151
51.01257 154
51.03269 152
51.0528 132
51.07291 150
51.09303 135
51.11314 127
51.13325 154
51.15337 170
51.17348 153
51.1936 156
51.21371 133
51.23382 145
51.25394 157
51.27405 159
51.29416 175
51.31428 155
51.33439 156
51.3545 169
51.37462 160
51.39473 156
51.41485 159
51.43496 130
51.45507 160
51.47519 147
51.4953 145
51.51541 140
51.53553 141
51.55564 145
51.57576 144
51.59587 153
51.61598 142
51.6361 165
51.65621 155
51.67632 145
51.69644 136
51.71655 138
51.73667 137
51.75678 151
51.77689 146
51.79701 138
51.81712 142
51.83723 124
51.85735 151
51.87746 155
51.89757 135
51.91769 141
51.9378 117
51.95792 140
51.97803 142
51.99814 158
52.01826 111
52.03837 142
52.05848 129
52.0786 134
52.09871 151
52.11883 135
52.13894 150
52.15905 145
52.17917 163
52.19928 116
52.21939 145
52.23951 148
52.25962 138
52.27974 121
52.29985 154
52.31996 143
52.34008 126
52.36019 133
52.3803 143
52.40042 151
52.42053 138
52.44064 128
52.46076 128
52.48087 124
52.50099 141
52.5211 125
52.54121 122
52.56133 124
52.58144 142
52.60155 141
52.62167 121
52.64178 124
52.6619 149
52.68201 151
52.70212 153
52.72224 145
52.74235 152
52.76246 126
52.78258 128
52.80269 125
52.8228 149
52.84292 158
52.86303 135
52.88315 132
52.90326 124
52.92337 146
52.94349 129
52.9636 139
52.98371 147
53.00383 162
53.02394 158
53.04406 159
53.06417 155
53.08428 140
53.1044 155
53.12451 157
53.14462 148
53.16474 144
53.18485 168
53.20497 145
53.22508 152
53.24519 142
53.26531 165
53.28542 162
53.30553 151
53.32565 158
53.34576 156
53.36587 142
53.38599 161
53.4061 166
53.42622 163
53.44633 168
53.46644 155
53.48656 155
53.50667 148
53.52678 158
53.5469 178
53.56701 164
53.58713 151
53.60724 146
53.62735 168
53.64747 153
53.66758 164
53.68769 163
53.70781 160
53.72792 146
53.74804 159
53.76815 150
53.78826 152
53.80838 169
53.82849 157
53.8486 164
53.86872 174
53.88883 185
53.90894 177
53.92906 158
53.94917 175
53.96929 152
53.9894 162
54.00951 194
54.02963 172
54.04974 169
54.06985 169
54.08997 189
54.11008 160
54.1302 175
54.15031 169
54.17042 187
54.19054 184
54.21065 178
54.23076 181
54.25088 193
54.27099 183
54.29111 189
54.31122 195
54.33133 201
54.35145 184
54.37156 211
54.39167 182
54.41179 210
54.4319 218
54.45201 218
54.47213 253
54.49224 240
54.51236 288
54.53247 306
54.55258 304
54.5727 307
54.59281 384
54.61292 419
54.63304 387
54.65315 490
54.67327 571
54.69338 605
54.71349 701
54.73361 775
54.75372 840
54.77383 958
54.79395 966
54.81406 1013
54.83417 1022
54.85429 881
54.8744 731
54.89452 568
54.91463 597
54.93474 584
54.95486 553
54.97497 531
54.99508 482
55.0152 435
55.03531 389
55.05543 327
55.07554 348
55.09565 358
55.11577 368
55.13588 360
55.15599 385
55.17611 416
55.19622 441
55.21634 479
55.23645 517
55.25656 517
55.27668 554
55.29679 469
55.3169 454
55.33702 379
55.35713 324
55.37724 325
55.39736 340
55.41747 330
55.43759 349
55.4577 315
55.47781 210
55.49793 209
55.51804 181
55.53815 149
55.55827 172
55.57838 157
55.5985 171
55.61861 174
55.63872 167
55.65884 173
55.67895 139
55.69906 138
55.71918 133
55.73929 148
55.75941 144
55.77952 133
55.79963 156
55.81975 158
55.83986 139
55.85997 150
55.88009 146
55.9002 144
55.92031 147
55.94043 149
55.96054 161
55.98066 149
56.00077 160
56.02088 136
56.041 133
56.06111 144
56.08122 132
56.10134 129
56.12145 119
56.14157 147
56.16168 147
56.18179 128
56.20191 134
56.22202 128
56.24213 137
56.26225 124
56.28236 138
56.30248 148
56.32259 138
56.3427 131
56.36282 127
56.38293 141
56.40304 138
56.42316 128
56.44327 146
56.46338 168
56.4835 141
56.50361 149
56.52373 148
56.54384 137
56.56395 156
56.58407 143
56.60418 142
56.62429 147
56.64441 149
56.66452 158
56.68464 153
56.70475 146
56.72486 144
56.74498 138
56.76509 130
56.7852 129
56.80532 138
56.82543 145
56.84554 132
56.86566 140
56.88577 141
56.90589 161
56.926 137
56.94611 156
56.96623 124
56.98634 160
57.00645 164
57.02657 156
57.04668 163
57.0668 166
57.08691 173
57.10702 174
57.12714 165
57.14725 211
57.16736 184
57.18748 180
57.20759 165
57.22771 172
57.24782 159
57.26793 173
57.28805 139
57.30816 158
57.32827 170
57.34839 163
57.3685 177
57.38861 146
57.40873 136
57.42884 164
57.44896 113
57.46907 138
57.48918 144
57.5093 138
57.52941 153
57.54952 126
57.56964 132
57.58975 155
57.60987 135
57.62998 143
57.65009 139
57.67021 127
57.69032 141
57.71043 144
57.73055 144
57.75066 133
57.77078 138
57.79089 133
57.811 140
57.83112 156
57.85123 160
57.87134 145
57.89146 133
57.91157 137
57.93168 147
57.9518 131
57.97191 144
57.99203 154
58.01214 132
58.03225 135
58.05237 129
58.07248 132
58.09259 145
58.11271 135
58.13282 129
58.15294 165
58.17305 158
58.19316 152
58.21328 122
58.23339 124
58.2535 167
58.27362 156
58.29373 136
58.31385 148
58.33396 166
58.35407 168
58.37419 138
58.3943 124
58.41441 127
58.43453 152
58.45464 146
58.47475 156
58.49487 140
58.51498 169
58.5351 149
58.55521 124
58.57532 143
58.59544 169
58.61555 136
58.63566 146
58.65578 156
58.67589 148
58.69601 143
58.71612 133
58.73623 144
58.75635 154
58.77646 162
58.79657 146
58.81669 139
58.8368 143
58.85691 147
58.87703 125
58.89714 142
58.91726 162
58.93737 157
58.95748 156
58.9776 127
58.99771 140
59.01782 136
59.03794 149
59.05805 138
59.07817 154
59.09828 152
59.11839 142
59.13851 164
59.15862 152
59.17873 138
59.19885 131
59.21896 165
59.23908 158
59.25919 165
59.2793 188
59.29942 154
59.31953 203
59.33964 173
59.35976 194
59.37987 193
59.39998 180
59.4201 205
59.44021 231
59.46033 227
59.48044 260
59.50055 302
59.52067 311
59.54078 306
59.56089 365
59.58101 368
59.60112 422
59.62124 469
59.64135 545
59.66146 579
59.68158 668
59.70169 744
59.7218 882
59.74192 975
59.76203 1122
59.78215 1286
59.80226 1445
59.82237 1613
59.84249 1819
59.8626 2025
59.88271 2088
59.90283 2095
59.92294 1853
59.94305 1558
59.96317 1396
59.98328 1161
60.0034 1073
60.02351 1082
60.04362 1055
60.06374 1033
60.08385 860
60.10396 678
60.12408 521
60.14419 420
60.16431 324
60.18442 248
60.20453 236
60.22465 239
60.24476 202
60.26487 205
60.28499 200
60.3051 188
60.32522 159
60.34533 184
60.36544 189
60.38556 172
60.40567 169
60.42578 166
60.4459 133
60.46601 150
60.48612 164
60.50624 158
60.52635 160
60.54647 168
60.56658 141
60.58669 154
60.60681 138
60.62692 134
60.64703 131
60.66715 140
60.68726 145
60.70738 158
60.72749 160
60.7476 139
60.76772 147
60.78783 150
60.80794 143
60.82806 136
60.84817 163
60.86828 164
60.8884 138
60.90851 157
60.92863 140
60.94874 169
60.96885 138
60.98897 159
61.00908 160
61.02919 142
61.04931 163
61.06942 168
61.08954 149
61.10965 154
61.12976 138
61.14988 134
61.16999 142
61.1901 120
61.21022 155
61.23033 123
61.25045 149
61.27056 146
61.29067 157
61.31079 133
61.3309 139
61.35101 156
61.37113 152
61.39124 137
61.41135 152
61.43147 152
61.45158 154
61.4717 130
61.49181 122
61.51192 136
61.53204 148
61.55215 160
61.57226 144
61.59238 137
61.61249 134
61.63261 142
61.65272 149
61.67283 137
61.69295 121
61.71306 144
61.73317 160
61.75329 137
61.7734 164
61.79352 161
61.81363 170
61.83374 147
61.85386 139
61.87397 160
61.89408 147
61.9142 133
61.93431 169
61.95442 147
61.97454 151
61.99465 151
62.01477 141
62.03488 163
62.05499 139
62.07511 133
62.09522 156
62.11533 150
62.13545 164
62.15556 151
62.17568 163
62.19579 166
62.2159 147
62.23602 137
62.25613 149
62.27624 164
62.29636 162
62.31647 133
62.33659 169
62.3567 137
62.37681 151
62.39693 161
62.41704 122
62.43715 121
62.45727 151
62.47738 140
62.49749 124
62.51761 141
62.53772 130
62.55784 156
62.57795 136
62.59806 141
62.61818 134
62.63829 129
62.6584 151
62.67852 135
62.69863 157
62.71875 156
62.73886 146
62.75897 130
62.77909 138
62.7992 137
62.81931 149
62.83943 152
62.85954 134
62.87965 162
62.89977 156
62.91988 119
62.94 147
62.96011 142
62.98022 143
63.00034 145
63.02045 147
63.04056 147
63.06068 134
63.08079 136
63.10091 148
63.12102 134
63.14113 142
63.16125 140
63.18136 126
63.20147 132
63.22159 129
63.2417 151
63.26182 128
63.28193 151
63.30204 132
63.32216 144
63.34227 137
63.36238 123
63.3825 156
63.40261 139
63.42272 131
63.44284 144
63.46295 164
63.48307 140
63.50318 155
63.52329 159
63.54341 133
63.56352 165
63.58363 144
63.60375 154
63.62386 185
63.64398 195
63.66409 212
63.6842 189
63.70432 205
63.72443 185
63.74454 221
63.76466 252
63.78477 282
63.80489 289
63.825 321
63.84511 278
63.86523 327
63.88534 365
63.90545 450
63.92557 424
63.94568 471
63.96579 463
63.98591 449
64.00602 400
64.02614 374
64.04625 339
64.06636 318
64.08648 257
64.10659 330
64.1267 283
64.14682 282
64.16693 299
64.18705 244
64.20716 211
64.22727 159
64.24739 183
64.2675 158
64.28761 164
64.30773 128
64.32784 144
64.34796 142
64.36807 130
64.38818 143
64.4083 152
64.42841 134
64.44852 121
64.46864 131
64.48875 113
64.50886 147
64.52898 116
64.54909 124
64.56921 114
64.58932 121
64.60943 132
64.62955 131
64.64966 128
64.66977 152
64.68989 153
64.71 126
64.73012 129
64.75023 145
64.77034 143
64.79046 131
64.81057 133
64.83068 138
64.8508 121
64.87091 127
64.89102 129
64.91114 147
64.93125 124
64.95137 131
64.97148 117
64.99159 128
65.01171 131
65.03182 125
65.05193 133
65.07205 131
65.09216 127
65.11228 122
65.13239 143
65.1525 146
65.17262 130
65.19273 126
65.21284 140
65.23296 152
65.25307 133
65.27319 145
65.2933 145
65.31341 152
65.33353 145
65.35364 164
65.37375 137
65.39387 144
65.41398 145
65.43409 153
65.45421 162
65.47432 146
65.49444 178
65.51455 174
65.53466 160
65.55478 164
65.57489 175
65.595 191
65.61512 181
65.63523 192
65.65535 208
65.67546 238
65.69557 227
65.71569 223
65.7358 226
65.75591 229
65.77603 194
65.79614 188
65.81626 195
65.83637 202
65.85648 199
65.8766 183
65.89671 189
65.91682 173
65.93694 179
65.95705 161
65.97716 147
65.99728 136
66.01739 161
66.03751 147
66.05762 143
66.07773 137
66.09785 136
66.11796 154
66.13807 151
66.15819 131
66.1783 141
66.19842 130
66.21853 129
66.23864 139
66.25876 140
66.27887 149
66.29898 111
66.3191 151
66.33921 147
66.35933 130
66.37944 153
66.39955 145
66.41967 150
66.43978 143
66.45989 155
66.48001 122
66.50012 158
66.52023 156
66.54035 151
66.56046 140
66.58058 123
66.60069 154
66.6208 148
66.64092 139
66.66103 123
66.68114 130
66.70126 134
66.72137 162
66.74149 145
66.7616 152
66.78171 150
66.80183 172
66.82194 147
66.84205 163
66.86217 144
66.88228 156
66.90239 164
66.92251 163
66.94262 170
66.96274 152
66.98285 167
67.00296 193
67.02308 165
67.04319 179
67.0633 156
67.08342 171
67.10353 158
67.12365 177
67.14376 194
67.16387 196
67.18399 198
67.2041 196
67.22421 184
67.24433 221
67.26444 234
67.28456 245
67.30467 258
67.32478 265
67.3449 306
67.36501 303
67.38512 348
67.40524 367
67.42535 379
67.44546 451
67.46558 495
67.48569 522
67.50581 612
67.52592 714
67.54603 745
67.56615 887
67.58626 998
67.60637 1011
67.62649 1181
67.6466 1253
67.66672 1251
67.68683 1290
67.70694 1199
67.72706 1152
67.74717 959
67.76728 956
67.7874 868
67.80751 911
67.82763 1057
67.84774 1005
67.86785 1024
67.88797 1148
67.90808 1151
67.92819 1127
67.94831 1191
67.96842 1219
67.98853 1300
68.00865 1372
68.02876 1578
68.04888 1627
68.06899 1672
68.0891 1717
68.10922 1664
68.12933 1592
68.14944 1415
68.16956 1359
68.18967 1397
68.20979 1425
68.2299 1496
68.25001 1477
68.27013 1363
68.29024 1298
68.31035 1090
68.33047 897
68.35058 690
68.3707 625
68.39081 593
68.41092 522
68.43104 587
68.45115 593
68.47126 450
68.49138 383
68.51149 317
68.5316 271
68.55172 228
68.57183 197
68.59195 204
68.61206 214
68.63217 200
68.65229 190
68.6724 175
68.69251 193
68.71263 143
68.73274 190
68.75286 191
68.77297 185
68.79308 165
68.8132 181
68.83331 160
68.85342 160
68.87354 137
68.89365 144
68.91376 150
68.93388 155
68.95399 137
68.97411 148
68.99422 163
69.01433 148
69.03445 135
69.05456 154
69.07467 172
69.09479 148
69.1149 134
69.13502 141
69.15513 136
69.17524 154
69.19536 161
69.21547 156
69.23558 143
69.2557 124
69.27581 151
69.29593 137
69.31604 136
69.33615 154
69.35627 129
69.37638 148
69.39649 144
69.41661 146
69.43672 129
69.45683 153
69.47695 117
69.49706 137
69.51718 128
69.53729 148
69.5574 141
69.57752 131
69.59763 133
69.61774 139
69.63786 137
69.65797 125
69.67809 124
69.6982 125
69.71831 140
69.73843 139
69.75854 128
69.77865 127
69.79877 146
69.81888 130
69.839 132
69.85911 115
69.87922 157
69.89934 134
69.91945 132
69.93956 128
69.95968 128
69.97979 129
69.9999 133
70.02002 144
70.04013 152
70.06025 135
70.08036 144
70.10047 108
70.12059 120
70.1407 116
70.16081 139
70.18093 130
70.20104 144
70.22116 118
70.24127 143
70.26138 126
70.2815 115
70.30161 125
70.32172 119
70.34184 126
70.36195 131
70.38207 131
70.40218 120
70.42229 128
70.44241 120
70.46252 126
70.48263 112
70.50275 146
70.52286 133
70.54297 144
70.56309 121
70.5832 132
70.60332 111
70.62343 115
70.64354 120
70.66366 147
70.68377 132
70.70388 123
70.724 119
70.74411 108
70.76423 128
70.78434 137
70.80445 121
70.82457 125
70.84468 126
70.86479 124
70.88491 122
70.90502 128
70.92513 115
70.94525 116
70.96536 124
70.98548 129
71.00559 161
71.0257 130
71.04582 111
71.06593 133
71.08604 114
71.10616 112
71.12627 134
71.14639 119
71.1665 126
71.18661 123
71.20673 142
71.22684 100
71.24695 121
71.26707 108
71.28718 138
71.3073 112
71.32741 130
71.34752 109
71.36764 145
71.38775 115
71.40786 131
71.42798 130
71.44809 132
71.4682 139
71.48832 114
71.50843 142
71.52855 134
71.54866 107
71.56877 127
71.58889 112
71.609 123
71.62911 121
71.64923 130
71.66934 131
71.68946 105
71.70957 127
71.72968 133
71.7498 129
71.76991 138
71.79002 134
71.81014 144
71.83025 126
71.85037 137
71.87048 124
71.89059 110
71.91071 136
71.93082 111
71.95093 135
71.97105 132
71.99116 107
72.01127 124
72.03139 133
72.0515 135
72.07162 121
72.09173 142
72.11184 115
72.13196 131
72.15207 121
72.17218 112
72.1923 149
72.21241 106
72.23253 115
72.25264 123
72.27275 124
72.29287 129
72.31298 141
72.33309 136
72.35321 125
72.37332 132
72.39344 129
72.41355 112
72.43366 130
72.45378 97
72.47389 111
72.494 118
72.51412 148
72.53423 130
72.55434 141
72.57446 135
72.59457 115
72.61469 128
72.6348 115
72.65491 118
72.67503 130
72.69514 120
72.71525 113
72.73537 116
72.75548 141
72.7756 119
72.79571 128
72.81582 141
72.83594 140
72.85605 136
72.87616 146
72.89628 141
72.91639 156
72.9365 157
72.95662 158
72.97673 151
72.99685 135
73.01696 160
73.03707 159
73.05719 169
73.0773 183
73.09741 211
73.11753 203
73.13764 203
73.15776 220
73.17787 234
73.19798 234
73.2181 318
73.23821 298
73.25832 353
73.27844 342
73.29855 386
73.31867 426
73.33878 459
73.35889 472
73.37901 510
73.39912 487
73.41923 469
73.43935 445
73.45946 411
73.47957 365
73.49969 305
73.5198 298
73.53992 324
73.56003 291
73.58014 290
73.60026 306
73.62037 308
73.64048 267
73.6606 239
73.68071 219
73.70083 194
73.72094 165
73.74105 148
73.76117 145
73.78128 132
73.80139 157
73.82151 137
73.84162 142
73.86174 140
73.88185 118
73.90196 122
73.92208 159
73.94219 125
73.9623 132
73.98242 128
74.00253 133
74.02264 143
74.04276 134
74.06287 120
74.08299 120
74.1031 134
74.12321 118
74.14333 127
74.16344 128
74.18355 139
74.20367 133
74.22378 101
74.2439 140
74.26401 129
74.28412 124
74.30424 125
74.32435 142
74.34446 135
74.36458 116
74.38469 130
74.40481 122
74.42492 130
74.44503 138
74.46515 113
74.48526 140
74.50537 146
74.52549 129
74.5456 124
74.56571 126
74.58583 138
74.60594 121
74.62606 119
74.64617 125
74.66628 118
74.6864 132
74.70651 153
74.72662 139
74.74674 134
74.76685 125
74.78697 128
74.80708 144
74.82719 156
74.84731 138
74.86742 128
74.88753 127
74.90765 130
74.92776 138
74.94787 140
74.96799 113
74.9881 131
75.00822 133
