3.00117 16999
3.02128 16664
3.0414 16221
3.06151 15759
3.08162 15225
3.10174 14954
3.12185 14189
3.14197 14009
3.16208 13459
3.18219 13052
3.20231 12623
3.22242 12345
3.24253 11816
3.26265 11572
3.28276 11018
3.30288 10824
3.32299 10135
3.3431 9988
3.36322 9843
3.38333 9246
3.40344 9119
3.42356 8870
3.44367 8275
3.46379 8265
3.4839 7611
3.50401 7532
3.52413 7127
3.54424 6818
3.56435 6789
3.58447 6111
3.60458 6274
3.62469 5952
3.64481 5635
3.66492 5681
3.68504 5056
3.70515 4965
3.72526 4956
3.74538 4622
3.76549 4475
3.7856 4110
3.80572 4074
3.82583 3928
3.84595 3657
3.86606 3802
3.88617 3370
3.90629 3264
3.9264 3203
3.94651 3045
3.96663 3009
3.98674 2680
4.00686 2684
4.02697 2507
4.04708 2414
4.0672 2497
4.08731 2132
4.10742 2150
4.12754 2077
4.14765 1914
4.16776 2084
4.18788 1777
4.20799 1683
4.22811 1731
4.24822 1777
4.26833 1733
4.28845 1566
4.30856 1614
4.32867 1582
4.34879 1447
4.3689 1576
4.38902 1386
4.40913 1382
4.42924 1475
4.44936 1344
4.46947 1344
4.48958 1233
4.5097 1177
4.52981 1271
4.54992 1104
4.57004 1158
4.59015 1075
4.61027 1113
4.63038 1075
4.65049 1099
4.67061 1043
4.69072 1009
4.71083 924
4.73095 995
4.75106 949
4.77118 940
4.79129 948
4.8114 917
4.83152 897
4.85163 872
4.87174 823
4.89186 837
4.91197 791
4.93209 751
4.9522 793
4.97231 797
4.99243 702
5.01254 707
5.03265 756
5.05277 722
5.07288 647
5.09299 711
5.11311 680
5.13322 628
5.15334 643
5.17345 610
5.19356 583
5.21368 651
5.23379 586
5.2539 571
5.27402 543
5.29413 535
5.31425 548
5.33436 539
5.35447 552
5.37459 505
5.3947 528
5.41481 468
5.43493 470
5.45504 511
5.47516 472
5.49527 464
5.51538 456
5.5355 431
5.55561 468
5.57572 415
5.59584 420
5.61595 435
5.63606 436
5.65618 432
5.67629 404
5.69641 414
5.71652 424
5.73663 400
5.75675 410
5.77686 370
5.79697 400
5.81709 396
5.8372 378
5.85732 399
5.87743 350
5.89754 396
5.91766 370
5.93777 400
5.95788 399
5.978 401
5.99811 397
6.01823 393
6.03834 372
6.05845 360
6.07857 330
6.09868 378
6.11879 359
6.13891 356
6.15902 360
6.17913 378
6.19925 322
6.21936 373
6.23948 315
6.25959 320
6.2797 354
6.29982 322
6.31993 322
6.34004 353
6.36016 310
6.38027 297
6.40039 348
6.4205 304
6.44061 393
6.46073 345
6.48084 352
6.50095 348
6.52107 338
6.54118 354
6.56129 335
6.58141 352
6.60152 366
6.62164 324
6.64175 338
6.66186 372
6.68198 328
6.70209 366
6.7222 331
6.74232 322
6.76243 323
6.78255 335
6.80266 297
6.82277 334
6.84289 347
6.863 302
6.88311 336
6.90323 325
6.92334 305
6.94346 285
6.96357 317
6.98368 345
7.0038 324
7.02391 302
7.04402 287
7.06414 326
7.08425 336
7.10436 360
7.12448 340
7.14459 323
7.16471 318
7.18482 306
7.20493 328
7.22505 307
7.24516 316
7.26527 310
7.28539 318
7.3055 346
7.32562 323
7.34573 314
7.36584 317
7.38596 334
7.40607 318
7.42618 294
7.4463 326
7.46641 295
7.48653 334
7.50664 331
7.52675 352
7.54687 300
7.56698 341
7.58709 321
7.60721 331
7.62732 319
7.64743 322
7.66755 319
7.68766 317
7.70778 296
7.72789 301
7.748 326
7.76812 337
7.78823 294
7.80834 290
7.82846 311
7.84857 287
7.86869 341
7.8888 308
7.90891 329
7.92903 318
7.94914 297
7.96925 309
7.98937 304
8.00948 320
8.0296 329
8.04971 314
8.06982 328
8.08994 317
8.11005 321
8.13016 303
8.15028 341
8.17039 299
8.1905 317
8.21062 326
8.23073 325
8.25085 363
8.27096 321
8.29107 347
8.31119 363
8.3313 341
8.35141 343
8.37153 327
8.39164 325
8.41176 343
8.43187 340
8.45198 335
8.4721 343
8.49221 360
8.51232 361
8.53244 356
8.55255 349
8.57266 409
8.59278 399
8.61289 363
8.63301 350
8.65312 386
8.67323 380
8.69335 382
8.71346 367
8.73357 386
8.75369 354
8.7738 379
8.79392 391
8.81403 405
8.83414 384
8.85426 374
8.87437 391
8.89448 336
8.9146 366
8.93471 386
8.95483 358
8.97494 359
8.99505 340
9.01517 338
9.03528 346
9.05539 337
9.07551 352
9.09562 357
9.11573 300
9.13585 322
9.15596 313
9.17608 332
9.19619 327
9.2163 320
9.23642 329
9.25653 326
9.27664 302
9.29676 339
9.31687 312
9.33699 318
9.3571 321
9.37721 303
9.39733 329
9.41744 327
9.43755 310
9.45767 290
9.47778 304
9.4979 308
9.51801 303
9.53812 311
9.55824 276
9.57835 324
9.59846 336
9.61858 313
9.63869 282
9.6588 344
9.67892 342
9.69903 303
9.71915 334
9.73926 323
9.75937 317
9.77949 311
9.7996 322
9.81971 283
9.83983 319
9.85994 287
9.88006 314
9.90017 291
9.92028 299
9.9404 309
9.96051 308
9.98062 312
10.00074 328
10.02085 283
10.04097 314
10.06108 319
10.08119 331
10.10131 313
10.12142 287
10.14153 290
10.16165 304
10.18176 341
10.20187 299
10.22199 316
10.2421 331
10.26222 317
10.28233 344
10.30244 330
10.32256 330
10.34267 320
10.36278 365
10.3829 381
10.40301 407
10.42313 419
10.44324 460
10.46335 414
10.48347 401
10.50358 412
10.52369 380
10.54381 398
10.56392 349
10.58403 360
10.60415 320
10.62426 334
10.64438 298
10.66449 300
10.6846 350
10.70472 332
10.72483 302
10.74494 327
10.76506 343
10.78517 319
10.80529 302
10.8254 333
10.84551 352
10.86563 301
10.88574 328
10.90585 331
10.92597 351
10.94608 316
10.9662 289
10.98631 325
11.00642 370
11.02654 340
11.04665 342
11.06676 320
11.08688 307
11.10699 297
11.1271 315
11.14722 293
11.16733 311
11.18745 347
11.20756 297
11.22767 356
11.24779 323
11.2679 326
11.28801 338
11.30813 325
11.32824 283
11.34836 356
11.36847 317
11.38858 332
11.4087 322
11.42881 340
11.44892 336
11.46904 333
11.48915 303
11.50927 370
11.52938 334
11.54949 346
11.56961 359
11.58972 333
11.60983 306
11.62995 364
11.65006 346
11.67017 332
11.69029 341
11.7104 370
11.73052 358
11.75063 372
11.77074 345
11.79086 320
11.81097 311
11.83108 392
11.8512 347
11.87131 361
11.89143 327
11.91154 397
11.93165 336
11.95177 366
11.97188 347
11.99199 323
12.01211 371
12.03222 346
12.05234 358
12.07245 341
12.09256 402
12.11268 367
12.13279 362
12.1529 349
12.17302 357
12.19313 373
12.21324 362
12.23336 364
12.25347 367
12.27359 361
12.2937 367
12.31381 385
12.33393 371
12.35404 342
12.37415 338
12.39427 344
12.41438 352
12.4345 326
12.45461 346
12.47472 288
12.49484 350
12.51495 327
12.53506 323
12.55518 318
12.57529 298
12.5954 286
12.61552 324
12.63563 339
12.65575 316
12.67586 309
12.69597 281
12.71609 288
12.7362 313
12.75631 296
12.77643 298
12.79654 289
12.81666 297
12.83677 276
12.85688 257
12.877 314
12.89711 292
12.91722 265
12.93734 313
12.95745 302
12.97757 304
12.99768 298
13.01779 308
13.03791 317
13.05802 295
13.07813 300
13.09825 302
13.11836 312
13.13847 297
13.15859 296
13.1787 290
13.19882 292
13.21893 307
13.23904 309
13.25916 271
13.27927 288
13.29938 292
13.3195 306
13.33961 267
13.35973 309
13.37984 281
13.39995 271
13.42007 275
13.44018 320
13.46029 276
13.48041 287
13.50052 289
13.52064 295
13.54075 319
13.56086 290
13.58098 279
13.60109 353
13.6212 308
13.64132 325
13.66143 316
13.68154 328
13.70166 333
13.72177 335
13.74189 383
13.762 361
13.78211 420
13.80223 421
13.82234 432
13.84245 447
13.86257 406
13.88268 401
13.9028 389
13.92291 363
13.94302 338
13.96314 314
13.98325 286
14.00336 300
14.02348 318
14.04359 287
14.06371 270
14.08382 298
14.10393 298
14.12405 285
14.14416 267
14.16427 280
14.18439 287
14.2045 285
14.22461 260
14.24473 251
14.26484 264
14.28496 250
14.30507 234
14.32518 262
14.3453 267
14.36541 265
14.38552 272
14.40564 263
14.42575 259
14.44587 294
14.46598 273
14.48609 277
14.50621 296
14.52632 248
14.54643 263
14.56655 240
14.58666 269
14.60677 259
14.62689 247
14.647 254
14.66712 248
14.68723 256
14.70734 247
14.72746 240
14.74757 270
14.76768 256
14.7878 239
14.80791 318
14.82803 271
14.84814 282
14.86825 291
14.88837 283
14.90848 273
14.92859 297
14.94871 319
14.96882 304
14.98894 330
15.00905 332
15.02916 307
15.04928 308
15.06939 289
15.0895 286
15.10962 284
15.12973 302
15.14984 264
15.16996 314
15.19007 265
15.21019 258
15.2303 254
15.25041 265
15.27053 272
15.29064 260
15.31075 269
15.33087 254
15.35098 258
15.3711 265
15.39121 265
15.41132 240
15.43144 254
15.45155 248
15.47166 256
15.49178 250
15.51189 246
15.53201 259
15.55212 241
15.57223 270
15.59235 256
15.61246 273
15.63257 270
15.65269 253
15.6728 273
15.69291 260
15.71303 281
15.73314 269
15.75326 264
15.77337 305
15.79348 306
15.8136 255
15.83371 286
15.85382 260
15.87394 283
15.89405 246
15.91417 244
15.93428 289
15.95439 273
15.97451 248
15.99462 271
16.01473 236
16.03485 230
16.05496 254
16.07508 262
16.09519 280
16.1153 256
16.13542 256
16.15553 274
16.17564 239
16.19576 290
16.21587 276
16.23598 261
16.2561 219
16.27621 251
16.29633 276
16.31644 275
16.33655 270
16.35667 241
16.37678 255
16.39689 249
16.41701 261
16.43712 253
16.45724 251
16.47735 239
16.49746 239
16.51758 221
16.53769 227
16.5578 275
16.57792 237
16.59803 279
16.61814 236
16.63826 260
16.65837 245
16.67849 256
16.6986 254
16.71871 239
16.73883 249
16.75894 244
16.77905 250
16.79917 237
16.81928 229
16.8394 247
16.85951 240
16.87962 268
16.89974 251
16.91985 275
16.93996 243
16.96008 245
16.98019 250
17.00031 269
17.02042 277
17.04053 232
17.06065 263
17.08076 240
17.10087 234
17.12099 249
17.1411 261
17.16121 247
17.18133 231
17.20144 239
17.22156 255
17.24167 262
17.26178 235
17.2819 231
17.30201 261
17.32212 239
17.34224 279
17.36235 265
17.38247 237
17.40258 248
17.42269 262
17.44281 258
17.46292 254
17.48303 236
17.50315 237
17.52326 227
17.54338 281
17.56349 244
17.5836 285
17.60372 217
17.62383 249
17.64394 253
17.66406 260
17.68417 254
17.70428 247
17.7244 245
17.74451 251
17.76463 240
17.78474 255
17.80485 253
17.82497 239
17.84508 268
17.86519 287
17.88531 280
17.90542 271
17.92554 257
17.94565 284
17.96576 273
17.98588 267
18.00599 270
18.0261 271
18.04622 285
18.06633 306
18.08645 273
18.10656 297
18.12667 254
18.14679 276
18.1669 257
18.18701 252
18.20713 243
18.22724 248
18.24735 238
18.26747 244
18.28758 247
18.3077 263
18.32781 265
18.34792 258
18.36804 256
18.38815 263
18.40826 275
18.42838 254
18.44849 241
18.46861 242
18.48872 264
18.50883 240
18.52895 261
18.54906 259
18.56917 259
18.58929 256
18.6094 237
18.62951 252
18.64963 284
18.66974 261
18.68986 249
18.70997 231
18.73008 248
18.7502 282
18.77031 282
18.79042 260
18.81054 300
18.83065 281
18.85077 279
18.87088 258
18.89099 333
18.91111 269
18.93122 268
18.95133 277
18.97145 293
18.99156 281
19.01168 246
19.03179 277
19.0519 282
19.07202 262
19.09213 248
19.11224 245
19.13236 244
19.15247 281
19.17258 294
19.1927 309
19.21281 312
19.23293 306
19.25304 334
19.27315 291
19.29327 315
19.31338 309
19.33349 311
19.35361 341
19.37372 299
19.39384 335
19.41395 331
19.43406 347
19.45418 327
19.47429 351
19.4944 365
19.51452 353
19.53463 351
19.55475 344
19.57486 415
19.59497 365
19.61509 380
19.6352 390
19.65531 424
19.67543 393
19.69554 392
19.71565 424
19.73577 466
19.75588 429
19.776 505
19.79611 517
19.81622 518
19.83634 491
19.85645 527
19.87656 544
19.89668 517
19.91679 502
19.93691 506
19.95702 531
19.97713 495
19.99725 488
20.01736 493
20.03747 492
20.05759 500
20.0777 484
20.09782 460
20.11793 464
20.13804 458
20.15816 468
20.17827 474
20.19838 466
20.2185 436
20.23861 478
20.25872 480
20.27884 519
20.29895 499
20.31907 479
20.33918 429
20.35929 446
20.37941 459
20.39952 477
20.41963 478
20.43975 451
20.45986 467
20.47998 457
20.50009 505
20.5202 515
20.54032 523
20.56043 503
20.58054 504
20.60066 505
20.62077 550
20.64088 585
20.661 665
20.68111 770
20.70123 998
20.72134 1184
20.74145 1520
20.76157 1806
20.78168 2312
20.80179 2600
20.82191 2794
20.84202 2828
20.86214 2528
20.88225 2060
20.90236 1624
20.92248 1266
20.94259 991
20.9627 784
20.98282 785
21.00293 788
21.02305 723
21.04316 733
21.06327 617
21.08339 581
21.1035 597
21.12361 524
21.14373 496
21.16384 512
21.18395 432
21.20407 512
21.22418 459
21.2443 433
21.26441 423
21.28452 465
21.30464 472
21.32475 469
21.34486 389
21.36498 436
21.38509 414
21.40521 414
21.42532 454
21.44543 425
21.46555 392
21.48566 379
21.50577 425
21.52589 407
21.546 444
21.56612 418
21.58623 393
21.60634 411
21.62646 384
21.64657 414
21.66668 395
21.6868 364
21.70691 410
21.72702 418
21.74714 395
21.76725 484
21.78737 448
21.80748 482
21.82759 522
21.84771 603
21.86782 700
21.88793 771
21.90805 933
21.92816 1085
21.94828 1239
21.96839 1328
21.9885 1299
22.00862 1242
22.02873 1112
22.04884 884
22.06896 710
22.08907 609
22.10919 524
22.1293 455
22.14941 432
22.16953 454
22.18964 419
22.20975 408
22.22987 391
22.24998 405
22.27009 432
22.29021 392
22.31032 416
22.33044 399
22.35055 399
22.37066 401
22.39078 410
22.41089 389
22.431 362
22.45112 388
22.47123 396
22.49135 405
22.51146 404
22.53157 375
22.55169 390
22.5718 398
22.59191 389
22.61203 375
22.63214 372
22.65225 355
22.67237 361
22.69248 326
22.7126 362
22.73271 349
22.75282 377
22.77294 385
22.79305 401
22.81316 408
22.83328 427
22.85339 435
22.87351 461
22.89362 495
22.91373 504
22.93385 488
22.95396 488
22.97407 496
22.99419 459
23.0143 429
23.03442 464
23.05453 454
23.07464 450
23.09476 475
23.11487 404
23.13498 409
23.1551 421
23.17521 443
23.19532 417
23.21544 464
23.23555 414
23.25567 392
23.27578 438
23.29589 409
23.31601 417
23.33612 420
23.35623 436
23.37635 426
23.39646 456
23.41658 515
23.43669 524
23.4568 607
23.47692 681
23.49703 683
23.51714 741
23.53726 748
23.55737 700
23.57749 667
23.5976 678
23.61771 579
23.63783 588
23.65794 549
23.67805 470
23.69817 525
23.71828 408
23.73839 436
23.75851 460
23.77862 518
23.79874 512
23.81885 505
23.83896 551
23.85908 563
23.87919 611
23.8993 660
23.91942 672
23.93953 641
23.95965 657
23.97976 666
23.99987 626
24.01999 640
24.0401 682
24.06021 626
24.08033 616
24.10044 662
24.12056 597
24.14067 721
24.16078 689
24.1809 791
24.20101 803
24.22112 841
24.24124 872
24.26135 797
24.28146 793
24.30158 770
24.32169 693
24.34181 697
24.36192 532
24.38203 539
24.40215 493
24.42226 437
24.44237 468
24.46249 441
24.4826 462
24.50272 424
24.52283 451
24.54294 401
24.56306 413
24.58317 380
24.60328 405
24.6234 410
24.64351 409
24.66362 422
24.68374 428
24.70385 417
24.72397 417
24.74408 436
24.76419 395
24.78431 437
24.80442 449
24.82453 381
24.84465 427
24.86476 413
24.88488 427
24.90499 446
24.9251 414
24.94522 408
24.96533 427
24.98544 399
25.00556 425
25.02567 456
25.04579 423
25.0659 451
25.08601 431
25.10613 435
25.12624 450
25.14635 443
25.16647 417
25.18658 449
25.20669 450
25.22681 460
25.24692 403
25.26704 429
25.28715 411
25.30726 453
25.32738 483
25.34749 530
25.3676 549
25.38772 543
25.40783 524
25.42795 564
25.44806 603
25.46817 625
25.48829 597
25.5084 612
25.52851 631
25.54863 659
25.56874 575
25.58886 614
25.60897 670
25.62908 562
25.6492 541
25.66931 572
25.68942 549
25.70954 528
25.72965 485
25.74976 504
25.76988 493
25.78999 465
25.81011 457
25.83022 418
25.85033 465
25.87045 419
25.89056 430
25.91067 472
25.93079 451
25.9509 442
25.97102 462
25.99113 459
26.01124 470
26.03136 434
26.05147 472
26.07158 546
26.0917 544
26.11181 565
26.13193 554
26.15204 597
26.17215 661
26.19227 713
26.21238 713
26.23249 772
26.25261 777
26.27272 805
26.29283 928
26.31295 1014
26.33306 1076
26.35318 1262
26.37329 1374
26.3934 1627
26.41352 1904
26.43363 2276
26.45374 2791
26.47386 3525
26.49397 4495
26.51409 5966
26.5342 7741
26.55431 9342
26.57443 11141
26.59454 11745
26.61465 11579
26.63477 10382
26.65488 8467
26.67499 6724
26.69511 4770
26.71522 3351
26.73534 2359
26.75545 1590
26.77556 1189
26.79568 1046
26.81579 966
26.8359 873
26.85602 829
26.87613 844
26.89625 809
26.91636 803
26.93647 767
26.95659 769
26.9767 735
26.99681 746
27.01693 822
27.03704 767
27.05716 702
27.07727 739
27.09738 656
27.1175 599
27.13761 637
27.15772 614
27.17784 576
27.19795 545
27.21806 531
27.23818 567
27.25829 576
27.27841 626
27.29852 621
27.31863 682
27.33875 737
27.35886 836
27.37897 827
27.39909 921
27.4192 892
27.43932 971
27.45943 961
27.47954 942
27.49966 835
27.51977 834
27.53988 837
27.56 788
27.58011 768
27.60023 818
27.62034 964
27.64045 1124
27.66057 1251
27.68068 1320
27.70079 1467
27.72091 1521
27.74102 1533
27.76113 1688
27.78125 1686
27.80136 1753
27.82148 1815
27.84159 1893
27.8617 1921
27.88182 1944
27.90193 1962
27.92204 1849
27.94216 1803
27.96227 1677
27.98239 1417
28.0025 1301
28.02261 1068
28.04273 946
28.06284 894
28.08295 839
28.10307 804
28.12318 728
28.1433 723
28.16341 768
28.18352 766
28.20364 715
28.22375 749
28.24386 719
28.26398 666
28.28409 696
28.3042 609
28.32432 619
28.34443 513
28.36455 522
28.38466 458
28.40477 441
28.42489 433
28.445 442
28.46511 404
28.48523 378
28.50534 432
28.52546 386
28.54557 342
28.56568 386
28.5858 353
28.60591 345
28.62602 356
28.64614 356
28.66625 318
28.68636 345
28.70648 328
28.72659 320
28.74671 328
28.76682 310
28.78693 331
28.80705 332
28.82716 346
28.84727 340
28.86739 331
28.8875 348
28.90762 304
28.92773 344
28.94784 311
28.96796 274
28.98807 324
29.00818 332
29.0283 290
29.04841 340
29.06853 351
29.08864 321
29.10875 328
29.12887 307
29.14898 324
29.16909 308
29.18921 319
29.20932 304
29.22943 310
29.24955 323
29.26966 337
29.28978 350
29.30989 336
29.33 324
29.35012 335
29.37023 383
29.39034 370
29.41046 380
29.43057 379
29.45069 378
29.4708 346
29.49091 401
29.51103 406
29.53114 352
29.55125 370
29.57137 370
29.59148 380
29.6116 370
29.63171 397
29.65182 417
29.67194 414
29.69205 449
29.71216 455
29.73228 479
29.75239 457
29.7725 465
29.79262 472
29.81273 449
29.83285 468
29.85296 431
29.87307 425
29.89319 441
29.9133 421
29.93341 408
29.95353 428
29.97364 445
29.99376 498
30.01387 466
30.03398 486
30.0541 523
30.07421 510
30.09432 529
30.11444 478
30.13455 530
30.15467 530
30.17478 491
30.19489 466
30.21501 517
30.23512 541
30.25523 556
30.27535 553
30.29546 601
30.31557 556
30.33569 602
30.3558 633
30.37592 687
30.39603 639
30.41614 662
30.43626 666
30.45637 624
30.47648 537
30.4966 534
30.51671 478
30.53683 461
30.55694 452
30.57705 399
30.59717 374
30.61728 403
30.63739 411
30.65751 385
30.67762 409
30.69773 427
30.71785 438
30.73796 393
30.75808 414
30.77819 398
30.7983 415
30.81842 417
30.83853 387
30.85864 374
30.87876 345
30.89887 356
30.91899 356
30.9391 313
30.95921 342
30.97933 314
30.99944 292
31.01955 313
31.03967 319
31.05978 305
31.0799 348
31.10001 344
31.12012 335
31.14024 335
31.16035 369
31.18046 380
31.20058 386
31.22069 402
31.2408 411
31.26092 366
31.28103 389
31.30115 396
31.32126 409
31.34137 400
31.36149 383
31.3816 367
31.40171 426
31.42183 362
31.44194 363
31.46206 341
31.48217 340
31.50228 300
31.5224 313
31.54251 354
31.56262 307
31.58274 310
31.60285 318
31.62297 306
31.64308 309
31.66319 335
31.68331 283
31.70342 304
31.72353 317
31.74365 318
31.76376 332
31.78387 297
31.80399 311
31.8241 325
31.84422 328
31.86433 289
31.88444 311
31.90456 308
31.92467 295
31.94478 301
31.9649 303
31.98501 306
32.00513 300
32.02524 344
32.04535 327
32.06547 314
32.08558 319
32.10569 318
32.12581 325
32.14592 300
32.16604 337
32.18615 315
32.20626 358
32.22638 320
32.24649 302
32.2666 308
32.28672 326
32.30683 334
32.32694 328
32.34706 346
32.36717 325
32.38729 328
32.4074 342
32.42751 327
32.44763 303
32.46774 316
32.48785 323
32.50797 301
32.52808 300
32.5482 318
32.56831 308
32.58842 312
32.60854 323
32.62865 332
32.64876 325
32.66888 272
32.68899 314
32.7091 322
32.72922 305
32.74933 303
32.76945 335
32.78956 318
32.80967 302
32.82979 367
32.8499 338
32.87001 381
32.89013 377
32.91024 361
32.93036 382
32.95047 357
32.97058 352
32.9907 374
33.01081 327
33.03092 378
33.05104 325
33.07115 346
33.09127 318
33.11138 305
33.13149 319
33.15161 302
33.17172 369
33.19183 313
33.21195 308
33.23206 341
33.25217 315
33.27229 339
33.2924 310
33.31252 296
33.33263 298
33.35274 309
33.37286 285
33.39297 301
33.41308 288
33.4332 297
33.45331 306
33.47343 306
33.49354 305
33.51365 287
33.53377 314
33.55388 288
33.57399 305
33.59411 342
33.61422 306
33.63434 334
33.65445 327
33.67456 342
33.69468 384
33.71479 321
33.7349 336
33.75502 359
33.77513 354
33.79524 390
33.81536 349
33.83547 373
33.85559 387
33.8757 409
33.89581 390
33.91593 381
33.93604 371
33.95615 371
33.97627 356
33.99638 350
34.0165 341
34.03661 356
34.05672 359
34.07684 351
34.09695 399
34.11706 405
34.13718 448
34.15729 402
34.17741 376
34.19752 440
34.21763 417
34.23775 426
34.25786 412
34.27797 415
34.29809 403
34.3182 427
34.33831 385
34.35843 416
34.37854 417
34.39866 391
34.41877 426
34.43888 437
34.459 389
34.47911 400
34.49922 401
34.51934 361
34.53945 397
34.55957 410
34.57968 401
34.59979 405
34.61991 380
34.64002 387
34.66013 376
34.68025 427
34.70036 399
34.72047 410
34.74059 386
34.7607 408
34.78082 403
34.80093 435
34.82104 399
34.84116 441
34.86127 469
34.88138 460
34.9015 478
34.92161 465
34.94173 481
34.96184 479
34.98195 473
35.00207 526
35.02218 479
35.04229 498
35.06241 516
35.08252 532
35.10264 493
35.12275 460
35.14286 506
35.16298 488
35.18309 481
35.2032 474
35.22332 540
35.24343 519
35.26354 530
35.28366 532
35.30377 487
35.32389 511
35.344 497
35.36411 450
35.38423 450
35.40434 460
35.42445 494
35.44457 476
35.46468 491
35.4848 451
35.50491 479
35.52502 444
35.54514 424
35.56525 435
35.58536 430
35.60548 399
35.62559 438
35.64571 378
35.66582 438
35.68593 406
35.70605 423
35.72616 417
35.74627 390
35.76639 406
35.7865 401
35.80661 404
35.82673 421
35.84684 396
35.86696 377
35.88707 431
35.90718 384
35.9273 341
35.94741 402
35.96752 378
35.98764 395
36.00775 416
36.02787 404
36.04798 386
36.06809 413
36.08821 391
36.10832 418
36.12843 391
36.14855 420
36.16866 444
36.18878 412
36.20889 414
36.229 464
36.24912 456
36.26923 463
36.28934 457
36.30946 494
36.32957 520
36.34968 574
36.3698 613
36.38991 620
36.41003 816
36.43014 866
36.45025 998
36.47037 1078
36.49048 1114
36.51059 1106
36.53071 1003
36.55082 900
36.57094 853
36.59105 775
36.61116 692
36.63128 672
36.65139 572
36.6715 481
36.69162 482
36.71173 460
36.73184 416
36.75196 480
36.77207 455
36.79219 452
36.8123 434
36.83241 453
36.85253 491
36.87264 453
36.89275 459
36.91287 432
36.93298 468
36.9531 481
36.97321 460
36.99332 447
37.01344 444
37.03355 477
37.05366 419
37.07378 455
37.09389 453
37.11401 389
37.13412 377
37.15423 387
37.17435 404
37.19446 370
37.21457 411
37.23469 406
37.2548 401
37.27491 357
37.29503 394
37.31514 374
37.33526 394
37.35537 387
37.37548 393
37.3956 409
37.41571 402
37.43582 399
37.45594 376
37.47605 417
37.49617 438
37.51628 404
37.53639 426
37.55651 359
37.57662 348
37.59673 422
37.61685 404
37.63696 358
37.65708 391
37.67719 374
37.6973 372
37.71742 365
37.73753 361
37.75764 368
37.77776 381
37.79787 344
37.81798 366
37.8381 339
37.85821 354
37.87833 343
37.89844 338
37.91855 304
37.93867 326
37.95878 358
37.97889 340
37.99901 325
38.01912 324
38.03924 325
38.05935 305
38.07946 349
38.09958 333
38.11969 353
38.1398 332
38.15992 355
38.18003 367
38.20015 328
38.22026 376
38.24037 370
38.26049 344
38.2806 381
38.30071 358
38.32083 322
38.34094 361
38.36105 305
38.38117 339
38.40128 366
38.4214 375
38.44151 384
38.46162 359
38.48174 352
38.50185 362
38.52196 358
38.54208 349
38.56219 382
38.58231 381
38.60242 333
38.62253 352
38.64265 335
38.66276 380
38.68287 354
38.70299 353
38.7231 359
38.74321 356
38.76333 337
38.78344 372
38.80356 370
38.82367 327
38.84378 348
38.8639 355
38.88401 352
38.90412 307
38.92424 353
38.94435 361
38.96447 346
38.98458 353
39.00469 364
39.02481 359
39.04492 352
39.06503 393
39.08515 363
39.10526 358
39.12538 376
39.14549 389
39.1656 391
39.18572 364
39.20583 443
39.22594 403
39.24606 435
39.26617 505
39.28628 551
39.3064 584
39.32651 668
39.34663 790
39.36674 874
39.38685 925
39.40697 987
39.42708 1031
39.44719 982
39.46731 891
39.48742 750
39.50754 704
39.52765 641
39.54776 591
39.56788 505
39.58799 440
39.6081 386
39.62822 367
39.64833 330
39.66845 360
39.68856 297
39.70867 332
39.72879 308
39.7489 338
39.76901 324
39.78913 288
39.80924 324
39.82935 311
39.84947 318
39.86958 301
39.8897 304
39.90981 307
39.92992 318
39.95004 326
39.97015 334
39.99026 348
40.01038 338
40.03049 350
40.05061 371
40.07072 374
40.09083 403
40.11095 400
40.13106 437
40.15117 480
40.17129 559
40.1914 600
40.21152 592
40.23163 639
40.25174 627
40.27186 593
40.29197 555
40.31208 542
40.3322 488
40.35231 448
40.37242 427
40.39254 399
40.41265 341
40.43277 377
40.45288 347
40.47299 304
40.49311 316
40.51322 352
40.53333 310
40.55345 302
40.57356 302
40.59368 291
40.61379 323
40.6339 287
40.65402 315
40.67413 305
40.69424 303
40.71436 308
40.73447 326
40.75458 325
40.7747 308
40.79481 311
40.81493 337
40.83504 330
40.85515 282
40.87527 335
40.89538 293
40.91549 277
40.93561 316
40.95572 321
40.97584 308
40.99595 299
41.01606 275
41.03618 328
41.05629 355
41.0764 332
41.09652 366
41.11663 339
41.13675 331
41.15686 313
41.17697 306
41.19709 338
41.2172 297
41.23731 343
41.25743 299
41.27754 305
41.29765 309
41.31777 314
41.33788 301
41.358 346
41.37811 332
41.39822 327
41.41834 317
41.43845 317
41.45856 289
41.47868 314
41.49879 332
41.51891 363
41.53902 327
41.55913 324
41.57925 339
41.59936 353
41.61947 381
41.63959 368
41.6597 385
41.67982 371
41.69993 398
41.72004 388
41.74016 418
41.76027 394
41.78038 364
41.8005 375
41.82061 358
41.84072 359
41.86084 354
41.88095 356
41.90107 342
41.92118 343
41.94129 324
41.96141 310
41.98152 290
42.00163 273
42.02175 314
42.04186 323
42.06198 344
42.08209 352
42.1022 327
42.12232 341
42.14243 325
42.16254 340
42.18266 368
42.20277 386
42.22289 433
42.243 440
42.26311 488
42.28323 541
42.30334 551
42.32345 645
42.34357 701
42.36368 744
42.38379 818
42.40391 786
42.42402 816
42.44414 744
42.46425 604
42.48436 585
42.50448 574
42.52459 514
42.5447 501
42.56482 430
42.58493 381
42.60505 372
42.62516 368
42.64527 339
42.66539 365
42.6855 364
42.70561 368
42.72573 356
42.74584 354
42.76595 352
42.78607 341
42.80618 375
42.8263 370
42.84641 331
42.86652 325
42.88664 301
42.90675 330
42.92686 341
42.94698 311
42.96709 322
42.98721 295
43.00732 315
43.02743 325
43.04755 315
43.06766 277
43.08777 318
43.10789 279
43.128 288
43.14812 282
43.16823 287
43.18834 294
43.20846 285
43.22857 313
43.24868 259
43.2688 326
43.28891 281
43.30902 284
43.32914 272
43.34925 257
43.36937 264
43.38948 289
43.40959 299
43.42971 292
43.44982 270
43.46993 284
43.49005 258
43.51016 243
43.53028 279
43.55039 298
43.5705 258
43.59062 279
43.61073 290
43.63084 273
43.65096 267
43.67107 267
43.69119 269
43.7113 312
43.73141 283
43.75153 254
43.77164 255
43.79175 294
43.81187 271
43.83198 299
43.85209 251
43.87221 268
43.89232 258
43.91244 253
43.93255 265
43.95266 267
43.97278 274
43.99289 239
44.013 265
44.03312 291
44.05323 260
44.07335 275
44.09346 260
44.11357 302
44.13369 277
44.1538 249
44.17391 268
44.19403 265
44.21414 246
44.23426 255
44.25437 285
44.27448 239
44.2946 271
44.31471 260
44.33482 260
44.35494 263
44.37505 257
44.39516 275
44.41528 267
44.43539 284
44.45551 286
44.47562 273
44.49573 294
44.51585 261
44.53596 317
44.55607 284
44.57619 278
44.5963 292
44.61642 285
44.63653 287
44.65664 292
44.67676 292
44.69687 280
44.71698 295
44.7371 280
44.75721 314
44.77732 276
44.79744 284
44.81755 313
44.83767 285
44.85778 302
44.87789 314
44.89801 297
44.91812 300
44.93823 291
44.95835 328
44.97846 286
44.99858 272
45.01869 280
45.0388 292
45.05892 291
45.07903 297
45.09914 328
45.11926 297
45.13937 283
45.15949 322
45.1796 309
45.19971 311
45.21983 314
45.23994 309
45.26005 308
45.28017 297
45.30028 289
45.32039 302
45.34051 301
45.36062 297
45.38074 298
45.40085 304
45.42096 327
45.44108 289
45.46119 333
45.4813 337
45.50142 336
45.52153 350
45.54165 399
45.56176 386
45.58187 407
45.60199 418
45.6221 491
45.64221 499
45.66233 545
45.68244 554
45.70256 555
45.72267 586
45.74278 657
45.7629 590
45.78301 590
45.80312 535
45.82324 470
45.84335 433
45.86346 444
45.88358 424
45.90369 382
45.92381 341
45.94392 322
45.96403 302
45.98415 286
46.00426 295
46.02437 270
46.04449 285
46.0646 314
46.08472 312
46.10483 315
46.12494 276
46.14506 292
46.16517 287
46.18528 299
46.2054 307
46.22551 288
46.24563 278
46.26574 272
46.28585 272
46.30597 249
46.32608 266
46.34619 260
46.36631 240
46.38642 255
46.40653 268
46.42665 256
46.44676 304
46.46688 262
46.48699 253
46.5071 294
46.52722 261
46.54733 262
46.56744 254
46.58756 262
46.60767 279
46.62779 251
46.6479 273
46.66801 274
46.68813 235
46.70824 277
46.72835 294
46.74847 278
46.76858 302
46.78869 311
46.80881 276
46.82892 269
46.84904 274
46.86915 275
46.88926 280
46.90938 280
46.92949 257
46.9496 282
46.96972 262
46.98983 276
47.00995 318
47.03006 281
47.05017 281
47.07029 315
47.0904 257
47.11051 298
47.13063 319
47.15074 273
47.17086 322
47.19097 247
47.21108 297
47.2312 285
47.25131 312
47.27142 284
47.29154 318
47.31165 277
47.33176 306
47.35188 301
47.37199 285
47.39211 321
47.41222 311
47.43233 289
47.45245 292
47.47256 309
47.49267 313
47.51279 310
47.5329 315
47.55302 308
47.57313 312
47.59324 308
47.61336 287
47.63347 300
47.65358 292
47.6737 283
47.69381 298
47.71393 303
47.73404 271
47.75415 306
47.77427 309
47.79438 311
47.81449 310
47.83461 309
47.85472 290
47.87483 297
47.89495 320
47.91506 257
47.93518 309
47.95529 333
47.9754 319
47.99552 327
48.01563 298
48.03574 307
48.05586 338
48.07597 345
48.09609 298
48.1162 338
48.13631 282
48.15643 297
48.17654 294
48.19665 332
48.21677 294
48.23688 308
48.257 312
48.27711 296
48.29722 300
48.31734 318
48.33745 297
48.35756 302
48.37768 308
48.39779 263
48.4179 285
48.43802 287
48.45813 273
48.47825 264
48.49836 258
48.51847 272
48.53859 261
48.5587 225
48.57881 265
48.59893 271
48.61904 277
48.63916 263
48.65927 298
48.67938 285
48.6995 267
48.71961 269
48.73972 284
48.75984 299
48.77995 303
48.80006 283
48.82018 296
48.84029 293
48.86041 288
48.88052 303
48.90063 312
48.92075 314
48.94086 313
48.96097 324
48.98109 336
49.0012 325
49.02132 351
49.04143 327
49.06154 358
49.08166 340
49.10177 372
49.12188 383
49.142 382
49.16211 392
49.18223 331
49.20234 343
49.22245 330
49.24257 347
49.26268 347
49.28279 309
49.30291 317
49.32302 314
49.34313 313
49.36325 289
49.38336 309
49.40348 290
49.42359 315
49.4437 323
49.46382 323
49.48393 357
49.50404 316
49.52416 327
49.54427 333
49.56439 342
49.5845 335
49.60461 353
49.62473 354
49.64484 390
49.66495 405
49.68507 436
49.70518 441
49.7253 406
49.74541 468
49.76552 470
49.78564 451
49.80575 501
49.82586 535
49.84598 550
49.86609 592
49.8862 605
49.90632 607
49.92643 651
49.94655 770
49.96666 826
49.98677 930
50.00689 1092
50.027 1165
50.04711 1342
50.06723 1263
50.08734 1418
50.10746 1320
50.12757 1182
50.14768 1018
50.1678 888
50.18791 948
50.20802 769
50.22814 790
50.24825 683
50.26837 577
50.28848 506
50.30859 446
50.32871 391
50.34882 382
50.36893 369
50.38905 385
50.40916 340
50.42927 368
50.44939 410
50.4695 388
50.48962 429
50.50973 418
50.52984 426
50.54996 416
50.57007 445
50.59018 388
50.6103 374
50.63041 387
50.65053 411
50.67064 349
50.69075 353
50.71087 368
50.73098 358
50.75109 346
50.77121 371
50.79132 310
50.81143 318
50.83155 315
50.85166 298
50.87178 314
50.89189 288
50.912 310
50.93212 281
50.95223 331
50.97234 337
50.99246 293
51.01257 334
51.03269 328
51.0528 329
51.07291 325
51.09303 382
51.11314 308
51.13325 349
51.15337 380
51.17348 373
51.1936 368
51.21371 354
51.23382 391
51.25394 379
51.27405 371
51.29416 378
51.31428 317
51.33439 337
51.3545 297
51.37462 310
51.39473 340
51.41485 312
51.43496 274
51.45507 291
51.47519 284
51.4953 298
51.51541 261
51.53553 265
51.55564 256
51.57576 233
51.59587 254
51.61598 261
51.6361 244
51.65621 245
51.67632 275
51.69644 275
51.71655 288
51.73667 275
51.75678 246
51.77689 252
51.79701 263
51.81712 254
51.83723 265
51.85735 248
51.87746 273
51.89757 272
51.91769 261
51.9378 237
51.95792 262
51.97803 247
51.99814 268
52.01826 283
52.03837 275
52.05848 288
52.0786 264
52.09871 288
52.11883 291
52.13894 294
52.15905 297
52.17917 289
52.19928 255
52.21939 272
52.23951 266
52.25962 270
52.27974 266
52.29985 265
52.31996 249
52.34008 268
52.36019 271
52.3803 293
52.40042 284
52.42053 280
52.44064 296
52.46076 289
52.48087 285
52.50099 309
52.5211 274
52.54121 285
52.56133 255
52.58144 305
52.60155 290
52.62167 322
52.64178 288
52.6619 288
52.68201 282
52.70212 289
52.72224 285
52.74235 306
52.76246 269
52.78258 264
52.80269 268
52.8228 281
52.84292 275
52.86303 299
52.88315 322
52.90326 295
52.92337 286
52.94349 284
52.9636 301
52.98371 321
53.00383 304
53.02394 303
53.04406 315
53.06417 326
53.08428 330
53.1044 347
53.12451 313
53.14462 328
53.16474 318
53.18485 347
53.20497 300
53.22508 317
53.24519 314
53.26531 304
53.28542 304
53.30553 315
53.32565 314
53.34576 333
53.36587 286
53.38599 310
53.4061 307
53.42622 288
53.44633 279
53.46644 278
53.48656 282
53.50667 302
53.52678 256
53.5469 284
53.56701 274
53.58713 280
53.60724 276
53.62735 311
53.64747 286
53.66758 313
53.68769 286
53.70781 324
53.72792 276
53.74804 282
53.76815 261
53.78826 325
53.80838 315
53.82849 291
53.8486 326
53.86872 309
53.88883 309
53.90894 324
53.92906 304
53.94917 295
53.96929 312
53.9894 311
54.00951 335
54.02963 296
54.04974 297
54.06985 309
54.08997 284
54.11008 340
54.1302 319
54.15031 338
54.17042 350
54.19054 306
54.21065 321
54.23076 285
54.25088 350
54.27099 333
54.29111 323
54.31122 335
54.33133 337
54.35145 353
54.37156 317
54.39167 321
54.41179 376
54.4319 297
54.45201 332
54.47213 363
54.49224 343
54.51236 304
54.53247 332
54.55258 346
54.5727 359
54.59281 368
54.61292 364
54.63304 366
54.65315 382
54.67327 369
54.69338 427
54.71349 460
54.73361 473
54.75372 554
54.77383 598
54.79395 618
54.81406 544
54.83417 613
54.85429 539
54.8744 561
54.89452 511
54.91463 493
54.93474 436
54.95486 465
54.97497 424
54.99508 433
55.0152 439
55.03531 358
55.05543 382
55.07554 328
55.09565 385
55.11577 339
55.13588 359
55.15599 370
55.17611 379
55.19622 376
55.21634 386
55.23645 449
55.25656 432
55.27668 428
55.29679 405
55.3169 410
55.33702 376
55.35713 377
55.37724 361
55.39736 372
55.41747 364
55.43759 353
55.4577 356
55.47781 328
55.49793 331
55.51804 335
55.53815 291
55.55827 337
55.57838 316
55.5985 291
55.61861 297
55.63872 287
55.65884 283
55.67895 266
55.69906 281
55.71918 255
55.73929 281
55.75941 287
55.77952 296
55.79963 246
55.81975 284
55.83986 263
55.85997 261
55.88009 258
55.9002 261
55.92031 277
55.94043 272
55.96054 245
55.98066 269
56.00077 268
56.02088 277
56.041 275
56.06111 251
56.08122 302
56.10134 274
56.12145 277
56.14157 248
56.16168 263
56.18179 255
56.20191 274
56.22202 269
56.24213 275
56.26225 276
56.28236 245
56.30248 281
56.32259 261
56.3427 245
56.36282 265
56.38293 242
56.40304 264
56.42316 250
56.44327 263
56.46338 294
56.4835 250
56.50361 269
56.52373 233
56.54384 252
56.56395 222
56.58407 260
56.60418 265
56.62429 266
56.64441 240
56.66452 265
56.68464 271
56.70475 259
56.72486 263
56.74498 300
56.76509 257
56.7852 252
56.80532 275
56.82543 252
56.84554 245
56.86566 237
56.88577 258
56.90589 266
56.926 234
56.94611 260
56.96623 262
56.98634 252
57.00645 282
57.02657 241
57.04668 255
57.0668 253
57.08691 275
57.10702 250
57.12714 289
57.14725 255
57.16736 274
57.18748 256
57.20759 250
57.22771 259
57.24782 282
57.26793 301
57.28805 266
57.30816 297
57.32827 276
57.34839 242
57.3685 259
57.38861 254
57.40873 286
57.42884 256
57.44896 278
57.46907 293
57.48918 287
57.5093 288
57.52941 262
57.54952 281
57.56964 253
57.58975 271
57.60987 277
57.62998 306
57.65009 251
57.67021 282
57.69032 286
57.71043 255
57.73055 284
57.75066 250
57.77078 243
57.79089 255
57.811 253
57.83112 282
57.85123 260
57.87134 267
57.89146 264
57.91157 249
57.93168 247
57.9518 290
57.97191 303
57.99203 278
58.01214 238
58.03225 293
58.05237 241
58.07248 283
58.09259 255
58.11271 280
58.13282 270
58.15294 246
58.17305 263
58.19316 253
58.21328 247
58.23339 278
58.2535 286
58.27362 247
58.29373 288
58.31385 288
58.33396 258
58.35407 271
58.37419 242
58.3943 281
58.41441 240
58.43453 288
58.45464 278
58.47475 241
58.49487 278
58.51498 309
58.5351 286
58.55521 272
58.57532 300
58.59544 262
58.61555 281
58.63566 300
58.65578 326
58.67589 279
58.69601 259
58.71612 274
58.73623 254
58.75635 274
58.77646 309
58.79657 275
58.81669 263
58.8368 264
58.85691 241
58.87703 272
58.89714 243
58.91726 271
58.93737 270
58.95748 266
58.9776 245
58.99771 236
59.01782 249
59.03794 257
59.05805 279
59.07817 265
59.09828 259
59.11839 270
59.13851 289
59.15862 284
59.17873 278
59.19885 268
59.21896 285
59.23908 269
59.25919 268
59.2793 276
59.29942 293
59.31953 271
59.33964 271
59.35976 288
59.37987 292
59.39998 279
59.4201 300
59.44021 292
59.46033 297
59.48044 302
59.50055 298
59.52067 343
59.54078 304
59.56089 320
59.58101 324
59.60112 362
59.62124 338
59.64135 376
59.66146 375
59.68158 357
59.70169 386
59.7218 436
59.74192 498
59.76203 550
59.78215 577
59.80226 656
59.82237 760
59.84249 866
59.8626 857
59.88271 968
59.90283 922
59.92294 891
59.94305 795
59.96317 699
59.98328 672
60.0034 634
60.02351 632
60.04362 593
60.06374 622
60.08385 572
60.10396 519
60.12408 435
60.14419 408
60.16431 402
60.18442 353
60.20453 358
60.22465 331
60.24476 296
60.26487 286
60.28499 317
60.3051 313
60.32522 313
60.34533 315
60.36544 313
60.38556 289
60.40567 307
60.42578 275
60.4459 309
60.46601 272
60.48612 295
60.50624 259
60.52635 276
60.54647 263
60.56658 295
60.58669 275
60.60681 297
60.62692 301
60.64703 276
60.66715 273
60.68726 283
60.70738 300
60.72749 290
60.7476 278
60.76772 289
60.78783 256
60.80794 272
60.82806 276
60.84817 276
60.86828 272
60.8884 298
60.90851 280
60.92863 261
60.94874 263
60.96885 274
60.98897 267
61.00908 301
61.02919 283
61.04931 265
61.06942 264
61.08954 276
61.10965 274
61.12976 286
61.14988 279
61.16999 277
61.1901 258
61.21022 287
61.23033 290
61.25045 304
61.27056 278
61.29067 294
61.31079 292
61.3309 288
61.35101 290
61.37113 291
61.39124 271
61.41135 280
61.43147 285
61.45158 281
61.4717 311
61.49181 308
61.51192 282
61.53204 292
61.55215 297
61.57226 301
61.59238 301
61.61249 304
61.63261 287
61.65272 324
61.67283 299
61.69295 306
61.71306 296
61.73317 333
61.75329 287
61.7734 328
61.79352 319
61.81363 295
61.83374 328
61.85386 323
61.87397 312
61.89408 302
61.9142 307
61.93431 332
61.95442 315
61.97454 319
61.99465 311
62.01477 338
62.03488 335
62.05499 336
62.07511 309
62.09522 306
62.11533 324
62.13545 359
62.15556 348
62.17568 314
62.19579 310
62.2159 291
62.23602 310
62.25613 326
62.27624 301
62.29636 318
62.31647 293
62.33659 335
62.3567 343
62.37681 314
62.39693 307
62.41704 308
62.43715 314
62.45727 299
62.47738 298
62.49749 284
62.51761 290
62.53772 292
62.55784 270
62.57795 270
62.59806 288
62.61818 303
62.63829 280
62.6584 293
62.67852 298
62.69863 289
62.71875 304
62.73886 291
62.75897 285
62.77909 281
62.7992 305
62.81931 280
62.83943 291
62.85954 267
62.87965 298
62.89977 277
62.91988 271
62.94 278
62.96011 281
62.98022 273
63.00034 285
63.02045 303
63.04056 300
63.06068 286
63.08079 304
63.10091 302
63.12102 281
63.14113 280
63.16125 277
63.18136 245
63.20147 276
63.22159 273
63.2417 300
63.26182 253
63.28193 313
63.30204 288
63.32216 295
63.34227 315
63.36238 292
63.3825 309
63.40261 303
63.42272 287
63.44284 287
63.46295 282
63.48307 302
63.50318 315
63.52329 321
63.54341 334
63.56352 326
63.58363 331
63.60375 324
63.62386 338
63.64398 321
63.66409 331
63.6842 372
63.70432 323
63.72443 326
63.74454 359
63.76466 319
63.78477 372
63.80489 379
63.825 356
63.84511 401
63.86523 356
63.88534 370
63.90545 409
63.92557 405
63.94568 403
63.96579 379
63.98591 419
64.00602 371
64.02614 351
64.04625 357
64.06636 345
64.08648 373
64.10659 325
64.1267 300
64.14682 344
64.16693 348
64.18705 313
64.20716 300
64.22727 297
64.24739 269
64.2675 239
64.28761 279
64.30773 287
64.32784 245
64.34796 247
64.36807 254
64.38818 271
64.4083 268
64.42841 265
64.44852 253
64.46864 254
64.48875 255
64.50886 258
64.52898 241
64.54909 262
64.56921 264
64.58932 265
64.60943 240
64.62955 263
64.64966 290
64.66977 250
64.68989 275
64.71 281
64.73012 252
64.75023 262
64.77034 274
64.79046 224
64.81057 229
64.83068 245
64.8508 252
64.87091 241
64.89102 263
64.91114 275
64.93125 246
64.95137 268
64.97148 278
64.99159 269
65.01171 254
65.03182 289
65.05193 274
65.07205 252
65.09216 260
65.11228 251
65.13239 281
65.1525 263
65.17262 266
65.19273 271
65.21284 308
65.23296 273
65.25307 294
65.27319 279
65.2933 304
65.31341 291
65.33353 257
65.35364 280
65.37375 258
65.39387 274
65.41398 263
65.43409 262
65.45421 258
65.47432 262
65.49444 297
65.51455 261
65.53466 265
65.55478 270
65.57489 239
65.595 283
65.61512 245
65.63523 260
65.65535 243
65.67546 264
65.69557 261
65.71569 248
65.7358 269
65.75591 274
65.77603 246
65.79614 226
65.81626 258
65.83637 258
65.85648 252
65.8766 239
65.89671 254
65.91682 276
65.93694 266
65.95705 263
65.97716 233
65.99728 253
66.01739 275
66.03751 271
66.05762 242
66.07773 238
66.09785 261
66.11796 254
66.13807 250
66.15819 260
66.1783 245
66.19842 222
66.21853 256
66.23864 245
66.25876 236
66.27887 247
66.29898 266
66.3191 280
66.33921 263
66.35933 225
66.37944 256
66.39955 237
66.41967 239
66.43978 242
66.45989 257
66.48001 252
66.50012 225
66.52023 239
66.54035 267
66.56046 249
66.58058 269
66.60069 260
66.6208 250
66.64092 227
66.66103 257
66.68114 241
66.70126 226
66.72137 216
66.74149 238
66.7616 241
66.78171 216
66.80183 236
66.82194 246
66.84205 252
66.86217 237
66.88228 240
66.90239 246
66.92251 243
66.94262 274
66.96274 272
66.98285 254
67.00296 265
67.02308 290
67.04319 267
67.0633 268
67.08342 279
67.10353 244
67.12365 262
67.14376 289
67.16387 257
67.18399 255
67.2041 242
67.22421 277
67.24433 291
67.26444 266
67.28456 263
67.30467 285
67.32478 284
67.3449 280
67.36501 299
67.38512 289
67.40524 307
67.42535 331
67.44546 328
67.46558 361
67.48569 381
67.50581 387
67.52592 388
67.54603 443
67.56615 499
67.58626 520
67.60637 554
67.62649 635
67.6466 626
67.66672 691
67.68683 654
67.70694 633
67.72706 576
67.74717 534
67.76728 513
67.7874 499
67.80751 548
67.82763 464
67.84774 512
67.86785 571
67.88797 572
67.90808 565
67.92819 540
67.94831 581
67.96842 585
67.98853 613
68.00865 679
68.02876 757
68.04888 770
68.06899 782
68.0891 768
68.10922 791
68.12933 755
68.14944 733
68.16956 683
68.18967 704
68.20979 693
68.2299 758
68.25001 780
68.27013 700
68.29024 737
68.31035 639
68.33047 560
68.35058 485
68.3707 430
68.39081 398
68.41092 449
68.43104 467
68.45115 383
68.47126 379
68.49138 373
68.51149 312
68.5316 310
68.55172 291
68.57183 281
68.59195 292
68.61206 268
68.63217 271
68.65229 280
68.6724 261
68.69251 279
68.71263 265
68.73274 255
68.75286 267
68.77297 283
68.79308 247
68.8132 301
68.83331 297
68.85342 267
68.87354 249
68.89365 284
68.91376 261
68.93388 264
68.95399 246
68.97411 277
68.99422 262
69.01433 256
69.03445 250
69.05456 269
69.07467 292
69.09479 278
69.1149 257
69.13502 280
69.15513 279
69.17524 293
69.19536 291
69.21547 283
69.23558 302
69.2557 292
69.27581 255
69.29593 296
69.31604 280
69.33615 286
69.35627 312
69.37638 295
69.39649 270
69.41661 266
69.43672 276
69.45683 272
69.47695 256
69.49706 264
69.51718 279
69.53729 276
69.5574 270
69.57752 279
69.59763 258
69.61774 273
69.63786 280
69.65797 257
69.67809 262
69.6982 298
69.71831 247
69.73843 254
69.75854 285
69.77865 252
69.79877 256
69.81888 288
69.839 245
69.85911 273
69.87922 234
69.89934 293
69.91945 242
69.93956 249
69.95968 216
69.97979 249
69.9999 249
70.02002 264
70.04013 244
70.06025 226
70.08036 242
70.10047 249
70.12059 246
70.1407 252
70.16081 220
70.18093 228
70.20104 228
70.22116 225
70.24127 217
70.26138 221
70.2815 235
70.30161 226
70.32172 225
70.34184 244
70.36195 225
70.38207 212
70.40218 226
70.42229 209
70.44241 202
70.46252 241
70.48263 207
70.50275 247
70.52286 250
70.54297 240
70.56309 236
70.5832 242
70.60332 246
70.62343 255
70.64354 219
70.66366 230
70.68377 218
70.70388 230
70.724 255
70.74411 265
70.76423 241
70.78434 244
70.80445 236
70.82457 259
70.84468 225
70.86479 261
70.88491 260
70.90502 260
70.92513 237
70.94525 243
70.96536 260
70.98548 240
71.00559 226
71.0257 251
71.04582 269
71.06593 279
71.08604 251
71.10616 230
71.12627 212
71.14639 244
71.1665 226
71.18661 250
71.20673 264
71.22684 267
71.24695 254
71.26707 243
71.28718 239
71.3073 249
71.32741 263
71.34752 238
71.36764 255
71.38775 267
71.40786 248
71.42798 242
71.44809 234
71.4682 253
71.48832 261
71.50843 239
71.52855 242
71.54866 239
71.56877 219
71.58889 239
71.609 248
71.62911 225
71.64923 225
71.66934 250
71.68946 231
71.70957 250
71.72968 220
71.7498 225
71.76991 221
71.79002 225
71.81014 226
71.83025 239
71.85037 243
71.87048 224
71.89059 227
71.91071 227
71.93082 230
71.95093 247
71.97105 243
71.99116 232
72.01127 240
72.03139 247
72.0515 231
72.07162 215
72.09173 228
72.11184 209
72.13196 249
72.15207 259
72.17218 231
72.1923 273
72.21241 221
72.23253 240
72.25264 252
72.27275 238
72.29287 230
72.31298 223
72.33309 227
72.35321 221
72.37332 218
72.39344 247
72.41355 222
72.43366 248
72.45378 223
72.47389 202
72.494 214
72.51412 234
72.53423 254
72.55434 228
72.57446 204
72.59457 223
72.61469 219
72.6348 227
72.65491 248
72.67503 232
72.69514 228
72.71525 244
72.73537 251
72.75548 254
72.7756 253
72.79571 237
72.81582 218
72.83594 220
72.85605 215
72.87616 220
72.89628 241
72.91639 222
72.9365 247
72.95662 216
72.97673 239
72.99685 245
73.01696 242
73.03707 261
73.05719 223
73.0773 253
73.09741 281
73.11753 276
73.13764 257
73.15776 247
73.17787 271
73.19798 248
73.2181 290
73.23821 291
73.25832 309
73.27844 308
73.29855 315
73.31867 339
73.33878 313
73.35889 378
73.37901 348
73.39912 384
73.41923 387
73.43935 356
73.45946 345
73.47957 318
73.49969 303
73.5198 278
73.53992 292
73.56003 302
73.58014 325
73.60026 320
73.62037 297
73.64048 305
73.6606 276
73.68071 259
73.70083 252
73.72094 251
73.74105 280
73.76117 267
73.78128 249
73.80139 253
73.82151 308
73.84162 258
73.86174 261
73.88185 264
73.90196 287
73.92208 267
73.94219 248
73.9623 233
73.98242 248
74.00253 246
74.02264 253
74.04276 229
74.06287 225
74.08299 243
74.1031 246
74.12321 259
74.14333 251
74.16344 261
74.18355 234
74.20367 227
74.22378 231
74.2439 248
74.26401 216
74.28412 281
74.30424 247
74.32435 233
74.34446 267
74.36458 217
74.38469 253
74.40481 226
74.42492 239
74.44503 247
74.46515 245
74.48526 273
74.50537 247
74.52549 265
74.5456 238
74.56571 290
74.58583 249
74.60594 268
74.62606 270
74.64617 234
74.66628 242
74.6864 247
74.70651 259
74.72662 261
74.74674 269
74.76685 239
74.78697 282
74.80708 246
74.82719 214
74.84731 244
74.86742 233
74.88753 246
74.90765 247
74.92776 213
74.94787 249
74.96799 250
74.9881 255
75.00822 211
