3.00117 22341.1833400363
3.02128 21684.3808285443
3.0414 21363
3.06151 20500.6363380303
3.08162 20031.5427757349
3.10174 19450.8488308343
3.12185 18914.4308728821
3.14197 18334.6958073158
3.16208 17987.337309056
3.18219 17657.1039183116
3.20231 17353.6391861599
3.22242 16459.5205950897
3.24253 16341.4308800415
3.26265 15646.9273715478
3.28276 15489.887632116
3.30288 14650.7683794848
3.32299 14287.0356061168
3.3431 14165
3.36322 13561.4889196308
3.38333 13224.4523762239
3.40344 12711.872262854
3.42356 12318.1643887633
3.44367 12262.6717406447
3.46379 11507.271894214
3.4839 11342
3.50401 10976.7276493464
3.52413 10493.6570630468
3.54424 10403.5007923401
3.56435 9946.01610374462
3.58447 9674.44859906062
3.60458 9280.38206491471
3.62469 9053.01334185995
3.64481 8958.76482742872
3.66492 8212.39966844273
3.68504 8037.24326319979
3.70515 8041.00884767944
3.72526 7491.3247432689
3.74538 7606.2508234363
3.76549 6964.20285376846
3.7856 7001
3.80572 6748.49535795668
3.82583 6313.85145128594
3.84595 6348.27037392415
3.86606 5793.57029421075
3.88617 5825.19031478899
3.90629 5441.12806541272
3.9264 5478
3.94651 5370.79232890768
3.96663 4906.76233752124
3.98674 5032.0799183245
4.00686 4758.88486829021
4.02697 4467.92700834019
4.04708 4606.20822006372
4.0672 4070
4.08731 4030.04780325978
4.10742 3991.7858544838
4.12754 3768.96355604948
4.14765 3873.16891120055
4.16776 3526.87100529792
4.18788 3286.93969103351
4.20799 3463.99618184013
4.22811 3294.96685911528
4.24822 3291.74447271856
4.26833 2853.65618184884
4.28845 2929.22772719711
4.30856 2858.24546918816
4.32867 2852.7407489582
4.34879 2986.09387563096
4.3689 2589
4.38902 2676.09861175067
4.40913 2608.80994293319
4.42924 2569.17828721363
4.44936 2628.3451901421
4.46947 2336.14144661666
4.48958 2487.87002952759
4.5097 2446
4.52981 2388.98108266426
4.54992 2351.96758796928
4.57004 2293.76749760179
4.59015 2185.99323824045
4.61027 2265.96623985988
4.63038 2166.15183235904
4.65049 2044.03883754022
4.67061 2016.00732924834
4.69072 2038.00112387057
4.71083 1991.86344485216
4.73095 1911.96724252542
4.75106 1949.96354403649
4.77118 1924.02402963529
4.79129 1940.97450003245
4.8114 1957
4.83152 1833.95603722687
4.85163 1858.94807490177
4.87174 1724.71257922424
4.89186 1699.73048546442
4.91197 1855.01022919617
4.93209 1688.07087980949
4.9522 1689
4.97231 1735.98557540851
4.99243 1681.01962948464
5.01254 1757.0796514238
5.03265 1711.205863353
5.05277 1640.08903918744
5.07288 1594.0295842432
5.09299 1584.99329299376
5.11311 1625.03420701146
5.13322 1675.9845070138
5.15334 1631.02261624507
5.17345 1681.97193327004
5.19356 1604.09325332518
5.21368 1634.94217290413
5.23379 1667.99689181409
5.2539 1652
5.27402 1628.00190541979
5.29413 1636.96931612553
5.31425 1605.02788436586
5.33436 1644.00647163011
5.35447 1611.96628639948
5.37459 1675.99583386498
5.3947 1608
5.41481 1605.02520783874
5.43493 1655.00935853095
5.45504 1613.90212457387
5.47516 1610.88394897035
5.49527 1699.88971733684
5.51538 1721.02350761889
5.5355 1706
5.55561 1794.0434061458
5.57572 1824.96915340075
5.59584 1780.99533109859
5.61595 1842.7669557582
5.63606 1890.09122572572
5.65618 1824.96361269074
5.67629 1923.00095199408
5.69641 1829.99328736247
5.71652 1963.17557272549
5.73663 2036.8929792823
5.75675 1924.98959186649
5.77686 2051.7357742893
5.79697 2091.04439612845
5.81709 2069.97977638069
5.8372 2137
5.85732 2091.00248657654
5.87743 2165.10371068176
5.89754 2189.02641000066
5.91766 2180.15374764546
5.93777 2049.18480281259
5.95788 2028.88141588109
5.978 2194
5.99811 2135.93851005396
6.01823 2023.85538974754
6.03834 1957.95497644904
6.05845 1920.30713578868
6.07857 1762.10502124753
6.09868 1784.00377716612
6.11879 1730.0051049081
6.13891 1734.94905196251
6.15902 1565.92797561693
6.17913 1600.98592408713
6.19925 1542.09402747569
6.21936 1636.07288355622
6.23948 1462.13072382862
6.25959 1452.99357365542
6.2797 1410
6.29982 1342.96277994578
6.31993 1320.93895350804
6.34004 1265.94004003059
6.36016 1268.98897049124
6.38027 1262.00582379672
6.40039 1255.01590407066
6.4205 1210
6.44061 1209.99683000161
6.46073 1177.9307056209
6.48084 1163.10197714755
6.50095 1234.97008521127
6.52107 1158.1709586679
6.54118 1077.02752539024
6.56129 1086.99407994691
6.58141 1069.97962721875
6.60152 1032.98997654843
6.62164 1046.01865105085
6.64175 1048.04350449362
6.66186 1061.06808564405
6.68198 1012.98567720423
6.70209 1053.02370042434
6.7222 942
6.74232 1006.05267713509
6.76243 984.930396717816
6.78255 975.101418827055
6.80266 1001.13559420222
6.82277 884.061545953525
6.84289 936.979957188294
6.863 905
6.88311 863.984405367715
6.90323 846.008070479052
6.92334 878.103369778154
6.94346 922.965502698269
6.96357 907.051905203432
6.98368 882.998158145216
7.0038 889
7.02391 849.001639488921
7.04402 870.95985963594
7.06414 803.039706406804
7.08425 902.860889549635
7.10436 846.228634378532
7.12448 770.992090467123
7.14459 823.991713718911
7.16471 799.004772583272
7.18482 853.032004218966
7.20493 821.896171070848
7.22505 767.977890653344
7.24516 792.963805042187
7.26527 784.023775926654
7.28539 776.002712549066
7.3055 788
7.32562 831.974550062986
7.34573 765.979507822048
7.36584 816.065737011956
7.38596 777.168870262592
7.40607 706.034746371842
7.42618 732.954683972796
7.4463 752
7.46641 721.001169107453
7.48653 767.084596971111
7.50664 776.877900881673
7.52675 684.147859620634
7.54687 678.991240484335
7.56698 682.967307068364
7.58709 725.99822834447
7.60721 696.997540995335
7.62732 733.037190020169
7.64743 743.994511286523
7.66755 722.868566690415
7.68766 677.965716474928
7.70778 720.024584710755
7.72789 641.01446494996
7.748 699
7.76812 738.008507124736
7.78823 724.948994530723
7.80834 687.95634811391
7.82846 684.001862705336
7.84857 681.988345834832
7.86869 683.016600134938
7.8888 643
7.90891 677.991709483253
7.92903 618.97887383157
7.94914 662.051386355308
7.96925 631.131292165951
7.98937 610.951636798254
8.00948 665.972358884456
8.0296 645
8.04971 630.014734331331
8.06982 661.973995087149
8.08994 598.963650195149
8.11005 630.009514947617
8.13016 604.95853535836
8.15028 675.949574007373
8.17039 672.011161894821
8.1905 664
8.21062 657.968069584997
8.23073 614.967388157616
8.25085 627.066549600291
8.27096 649.961075757165
8.29107 641.094351332011
8.31119 572.000142045368
8.3313 625
8.35141 585.988801072465
8.37153 616.070141782842
8.39164 628.927032519405
8.41176 590.950722236441
8.43187 643.029950814383
8.45198 568.012835241202
8.4721 633
8.49221 609.987024385867
8.51232 606.985258866499
8.53244 572.948765117751
8.55255 581.893925256691
8.57266 613.049449021284
8.59278 555.023516070828
8.61289 581.986963682139
8.63301 581.999918890968
8.65312 584.98356672768
8.67323 566.027140938884
8.69335 602.994908578086
8.71346 563.037664167057
8.73357 585.959821178162
8.75369 592.9993595446
8.7738 591
8.79392 576.015829351539
8.81403 612.024702476277
8.83414 588.913621211693
8.85426 570.932156907982
8.87437 616.01752544195
8.89448 571.983768925974
8.9146 630
8.93471 540.969313232516
8.95483 558.063989355139
8.97494 578.00211765092
8.99505 581.938727787019
9.01517 613.987742495454
9.03528 580.062917952474
9.05539 540.987158007331
9.07551 598.00683128193
9.09562 553.958247914567
9.11573 554.033288878009
9.13585 576.046786742589
9.15596 572.086353437536
9.17608 530.980244385723
9.19619 581.004634233883
9.2163 515
9.23642 551.040800431001
9.25653 555.983854882997
9.27664 551.004481662068
9.29676 558.978660669029
9.31687 559.031638457314
9.33699 544.983972343886
9.3571 590
9.37721 539.004461189635
9.39733 608.049302771193
9.41744 566.88512338494
9.43755 543.98488001136
9.45767 542.061454667478
9.47778 495.985216742553
9.4979 560
9.51801 532.977433602565
9.53812 507.990196647694
9.55824 507.013599185227
9.57835 524.076179063316
9.59846 550.001040204168
9.61858 520.040539325954
9.63869 505.98431699355
9.6588 555
9.67892 530.96558059038
9.69903 513.993958748682
9.71915 524.074421115505
9.73926 555.979835265322
9.75937 551.980294664463
9.77949 565.017957203812
9.7996 500
9.81971 532.01787807154
9.83983 535.983387864245
9.85994 521.957308605558
9.88006 496.045230805005
9.90017 488.979614251347
9.92028 510.987118028248
9.9404 521
9.96051 562.008736153275
9.98062 529.926358620567
10.00074 477.046915939144
10.02085 529.057868810323
10.04097 442.052830874064
10.06108 494.937943882525
10.08119 508.007978611413
10.10131 493.999442814865
10.12142 512.032416152378
10.14153 528.963819449053
10.16165 477.905793542529
10.18176 475.966340164608
10.20187 492.977051997867
10.22199 512.983785396983
10.2421 524
10.26222 463.028547934661
10.28233 558.060444136649
10.30244 506.881810616111
10.32256 496.971789625191
10.34267 502.017873129444
10.36278 494.972327625247
10.3829 541
10.40301 521.991591438583
10.42313 513.953869863292
10.44324 474.998792086302
10.46335 511.932592829866
10.48347 508.013304540077
10.50358 507.006375715663
10.52369 504.987282527293
10.54381 539.00001932534
10.56392 505.977272180927
10.58403 510.006660314214
10.60415 492.91507154602
10.62426 466.993457101187
10.64438 496.966949526248
10.66449 512.999086693942
10.6846 516
10.70472 530.986248527672
10.72483 481.905349166942
10.74494 447.031066930679
10.76506 486.968663554159
10.78517 479.970069831781
10.80529 528.985194506952
10.8254 510
10.84551 464.987349315922
10.86563 473.059546851523
10.88574 519.055634912119
10.90585 527.967671068073
10.92597 545.003328249101
10.94608 509.060571436428
10.9662 463
10.98631 501.018633176695
11.00642 507.985317204313
11.02654 491.98914456874
11.04665 495.998483102129
11.06676 494.976068113047
11.08688 507.015758936002
11.10699 473.007232223963
11.1271 483
11.14722 467.991872831117
11.16733 479.028150541873
11.18745 487.981785408194
11.20756 481.961587801459
11.22767 504.032633952392
11.24779 461.995751619379
11.2679 504
11.28801 456.011483451294
11.30813 539.037557263651
11.32824 485.931416820464
11.34836 502.990709288963
11.36847 486.971856837084
11.38858 537.975518928896
11.4087 523
11.42881 519.978958312793
11.44892 466.007171040335
11.46904 521.03325417798
11.48915 486.034815655985
11.50927 515.963930739448
11.52938 511.007556264346
11.54949 514.998405965716
11.56961 516.004870768947
11.58972 528.999652909347
11.60983 517.996324480213
11.62995 532.048059905542
11.65006 538.029529615257
11.67017 508.047763697329
11.69029 495.991633645112
11.7104 535
11.73052 549.962699181504
11.75063 477.900113669152
11.77074 454.034734850578
11.79086 494.905070796855
11.81097 524.99360136178
11.83108 518.992702507562
11.8512 533
11.87131 512.005246059594
11.89143 548.018778399218
11.91154 524.955840643318
11.93165 519.026530609067
11.95177 502.00583135454
11.97188 511.994839489727
11.99199 509.996420856217
12.01211 521.998005769166
12.03222 502.987842790293
12.05234 490.920126803054
12.07245 461.116165648055
12.09256 538.011579871838
12.11268 465.011761887906
12.13279 535.976716123196
12.1529 517
12.17302 539.039298713829
12.19313 540.900230226086
12.21324 453.945396824598
12.23336 493.929512547857
12.25347 492.996116868389
12.27359 509.000453655592
12.2937 493
12.31381 516.008766484594
12.33393 515.996113970704
12.35404 514.979725321639
12.37415 495.048295198142
12.39427 474.052104129784
12.41438 451.970056699275
12.4345 496
12.45461 437.002012628554
12.47472 511.048571429354
12.49484 491.931092933093
12.51495 483.978158499446
12.53506 484.048275312909
12.55518 461.977644620777
12.57529 494.017812908333
12.5954 419
12.61552 488.049708511957
12.63563 477.977369273626
12.65575 481.982019392909
12.67586 457.037302968653
12.69597 458.980025166539
12.71609 470.996445665401
12.7362 457
12.75631 417.011295757806
12.77643 491.088420618199
12.79654 490.92412348925
12.81666 458.010961646499
12.83677 462.039439284406
12.85688 431.96676822682
12.877 504
12.89711 448.972056631051
12.91722 454.056148142022
12.93734 506.002905117571
12.95745 469.042679260797
12.97757 473.047344572446
12.99768 427.978850689121
13.01779 495.992371178416
13.03791 445.985880870344
13.05802 477.041230723675
13.07813 482.960431022516
13.09825 450.96641583245
13.11836 456.994739152095
13.13847 441.040260508119
13.15859 423.996861406692
13.1787 448
13.19882 458.004961699605
13.21893 455.972168658889
13.23904 428.96517804114
13.25916 440.913558801281
13.27927 482.991591038428
13.29938 446.050376417967
13.3195 429
13.33961 472.995948721934
13.35973 418.951573713179
13.37984 432.030482908813
13.39995 435.945251863162
13.42007 475.957711881279
13.44018 467.041973460676
13.46029 434.991276765217
13.48041 482.008386065433
13.50052 447.954075806202
13.52064 425.999719409041
13.54075 436.027060083361
13.56086 443.97912275855
13.58098 453.001974541943
13.60109 448.993783527074
13.6212 459
13.64132 414.002764565755
13.66143 461.037671414771
13.68154 449.001939850055
13.70166 473.980786209254
13.72177 455.032407705443
13.74189 450.995938145744
13.762 463
13.78211 466.993924642958
13.80223 442.963892943583
13.82234 429.996131988445
13.84245 441.928386918397
13.86257 464.016978364886
13.88268 425.033845261501
13.9028 421
13.92291 432.992267840891
13.94302 401.986812663456
13.96314 432.130923140121
13.98325 486.988466206935
14.00336 450.0612158142
14.02348 446.004749326743
14.04359 429.006543184274
14.06371 434.010634828219
14.08382 455.005608725875
14.10393 437.952168078674
14.12405 420.043830613217
14.14416 445.034527671323
14.16427 398.021370125329
14.18439 429.985441336523
14.2045 427
14.22461 419.000427041798
14.24473 428.022934029497
14.26484 434.971428072943
14.28496 421.952203087939
14.30507 463.992042868918
14.32518 430.020902112449
14.3453 437
14.36541 412.989884917446
14.38552 416.020719497584
14.40564 440.035964663664
14.42575 427.148746134765
14.44587 372.969593163596
14.46598 445.96543732939
14.48609 416.014948442647
14.50621 418.000713204434
14.52632 402.985304494754
14.54643 417.081748554958
14.56655 469.991888740926
14.58666 420.06490669552
14.60677 425.996984259501
14.62689 414.995212371219
14.647 448
14.66712 449.993594933155
14.68723 446.996002890212
14.70734 445.004287260073
14.72746 448.999922341705
14.74757 437.039255243413
14.76768 414.99677848664
14.7878 428
14.80791 395.99750582237
14.82803 423.028259089638
14.84814 420.002165119593
14.86825 430.99839621241
14.88837 418.014402170353
14.90848 426.974236279966
14.92859 455.99005024567
14.94871 448.980158735631
14.96882 397.965673670221
14.98894 406.097726020473
15.00905 450.993035005051
15.02916 418.003927385067
15.04928 454.977361732217
15.06939 447.000979158769
15.0895 447
15.10962 395.001646525224
15.12973 437.003848756848
15.14984 385.921577914161
15.16996 398.918605537801
15.19007 434.965992318705
15.21019 442.999959645088
15.2303 438
15.25041 416.989165685656
15.27053 407.012284316502
15.29064 422.007855123016
15.31075 416.985249899604
15.33087 428.014524678032
15.35098 406.996876794686
15.3711 435
15.39121 438.008850414243
15.41132 460.988905084186
15.43144 418.939601598436
15.45155 409.057453716938
15.47166 384.958124866077
15.49178 429.99857852198
15.51189 386.011710858612
15.53201 417.026696987783
15.55212 441.976882158514
15.57223 396.968810784106
15.59235 412.04251526956
15.61246 405.046566376956
15.63257 391.97539395909
15.65269 423.992931526061
15.6728 411
15.69291 420.019395741311
15.71303 461.015403732012
15.73314 435.935149950275
15.75326 428.952187327345
15.77337 451.027407204782
15.79348 402.031086621599
15.8136 414
15.83371 438.005186474845
15.85382 433.986141453038
15.87394 421.994604122207
15.89405 422.027662824528
15.91417 408.987636151955
15.93428 437.974319636216
15.95439 439.010680341016
15.97451 416.998580866165
15.99462 437.026821504098
16.01473 449.991011781616
16.03485 436.992656022988
16.05496 443.006181159582
16.07508 432.996615496351
16.09519 451.991825654244
16.1153 443
16.13542 414.026011061785
16.15553 462.992168840979
16.17564 400.911135309938
16.19576 411.938687034097
16.21587 423.018624524108
16.23598 403.007694976982
16.2561 410
16.27621 413.010158322755
16.29633 443.01941612148
16.31644 424.926950801302
16.33655 412.891293375259
16.35667 471.000241668374
16.37678 417.030435114729
16.39689 440.983918106268
16.41701 442.989679880307
16.43712 417.981746523587
16.45724 402.94852740238
16.47735 385.056731556351
16.49746 439.909970355907
16.51758 445.024109594831
16.53769 414.013011450254
16.5578 414
16.57792 457.011706246967
16.59803 436.978957576201
16.61814 453.065325848719
16.63826 464.071942960826
16.65837 410.025818563282
16.67849 437.986583481128
16.6986 440
16.71871 444.998256467962
16.73883 438.012891565795
16.75894 453.992153102841
16.77905 412.174832579451
16.79917 359.994686534422
16.81928 403.968557624753
16.8394 404
16.85951 426.0128409419
16.87962 440.002548597511
16.89974 443.029732917919
16.91985 460.998606199663
16.93996 442.040297751803
16.96008 426.024459838015
16.98019 409.988758505065
17.00031 453.007486230265
17.02042 433.989133750363
17.04053 442.998113962919
17.06065 427.994731270139
17.08076 439.998477528947
17.10087 423.023796603403
17.12099 422.994049790368
17.1411 440
17.16121 456.005372396223
17.18133 456.983150566083
17.20144 438.96673607704
17.22156 432.987627124536
17.24167 439.012008534603
17.26178 432.974086280963
17.2819 467
17.30201 427.002629513332
17.32212 464.985362655724
17.34224 411.010706770022
17.36235 471.965209656811
17.38247 433.988642348946
17.40258 485.00572376513
17.42269 415.020522275406
17.44281 433.007279957325
17.46292 425.012528086356
17.48303 457.010630090233
17.50315 448.069140134207
17.52326 505.943570558026
17.54338 485.030470367646
17.56349 473.002390861616
17.5836 450
17.60372 416.054395478414
17.62383 506.007194254694
17.64394 432.952901176074
17.66406 500.852312942812
17.68417 525.991977977129
17.70428 519.041351044764
17.7244 453
17.74451 443.022573965436
17.76463 506.052916356699
17.78474 482.865369250148
17.80485 432.959171526099
17.82497 488.969733144189
17.84508 464.004215494615
17.86519 494.992775245879
17.88531 466.977713074244
17.90542 453.038597945177
17.92554 502.995432379187
17.94565 448.894858203935
17.96576 465.880198861835
17.98588 506.027428954797
18.00599 438.016709551576
18.0261 463
18.04622 467.992340434227
18.06633 468.01943324017
18.08645 477.964216474448
18.10656 446.042349470976
18.12667 442.012249422515
18.14679 428.998424380534
18.1669 447
18.18701 446.002891905377
18.20713 465.030268069282
18.22724 468.964105362275
18.24735 439.064262308212
18.26747 432.979651366204
18.28758 448.998840876323
18.3077 444
18.32781 474.007275396192
18.34792 474.016574057785
18.36804 490.939757774591
18.38815 423.119365588563
18.40826 436.879424056832
18.42838 483.014635203118
18.44849 431.009673627825
18.46861 460.011620588385
18.48872 454.99788936569
18.50883 472.031667663163
18.52895 484.010463254624
18.54906 484.004158563957
18.56917 481.00725242155
18.58929 469.011666295895
18.6094 447
18.62951 460.004815298681
18.64963 445.942552387276
18.66974 427.090219854985
18.68986 499.962947403721
18.70997 457.04538149634
18.73008 461.01410399217
18.7502 427
18.77031 462.01402810731
18.79042 462.997887612187
18.81054 465.984677645191
18.83065 452.992626730377
18.85077 464.015112109159
18.87088 433.022182583355
18.89099 437.989443127845
18.91111 462.012122796741
18.93122 479.00426749444
18.95133 479.014089018562
18.97145 497.029904648694
18.99156 484.084245715714
19.01168 452.974672715513
19.03179 509.990928079097
19.0519 482
19.07202 511.029738018019
19.09213 512.976964598801
19.11224 506.033525400351
19.13236 541.931021758026
19.15247 551.031097445565
19.17258 535.969313070439
19.1927 600
19.21281 597.989227033678
19.23293 591.023120289057
19.25304 613.009540077534
19.27315 601.011547947835
19.29327 625.921376088135
19.31338 669.99922864849
19.33349 645.997785188525
19.35361 687.016072584116
19.37372 695.013145662239
19.39384 710.973808251052
19.41395 675.955530781908
19.43406 702.879841348859
19.45418 760.969073807843
19.47429 773.985853970899
19.4944 819
19.51452 823.001997278362
19.53463 841.043171087825
19.55475 860.990683162468
19.57486 865.879407759897
19.59497 951.949144398511
19.61509 945.978304285917
19.6352 1034
19.65531 998.982946345246
19.67543 1012.05050829423
19.69554 1033.00172015876
19.71565 1010.10697876786
19.73577 978.985934865774
19.75588 1009.99501168102
19.776 994
19.79611 1025.99012332076
19.81622 959.961748745026
19.83634 976.047538401956
19.85645 974.037546659224
19.87656 980.897893255177
19.89668 1037.00154442332
19.91679 975.031236396033
19.93691 953.000346930132
19.95702 961.017898867382
19.97713 953.895899007176
19.99725 875.007077372501
20.01736 941.955461787743
20.03747 900.026341456316
20.05759 921.007513123781
20.0777 872
20.09782 905.993644236893
20.11793 855.974818823599
20.13804 883.010416083043
20.15816 851.03743561208
20.17827 868.957985315631
20.19838 884.991852983712
20.2185 869
20.23861 789.975275365496
20.25872 790.022683479916
20.27884 808.024912199629
20.29895 810.032027155088
20.31907 812.919542963859
20.33918 879.993117977211
20.35929 832.012050122508
20.37941 856.008888253627
20.39952 839.976723447448
20.41963 814.929385424662
20.43975 784.11128723624
20.45986 870.928442252191
20.47998 835.035991417234
20.50009 836.996645527897
20.5202 828
20.54032 819.989565829257
20.56043 798.950301875224
20.58054 787.089090060708
20.60066 859.927176441809
20.62077 860.955055261183
20.64088 920.974436735667
20.661 934
20.68111 1096.07654843929
20.70123 1189.09402159632
20.72134 1246.08772197523
20.74145 1337.48803162811
20.76157 1600.70797603149
20.78168 1674.97687581082
20.80179 1717.96886445972
20.82191 1775.01310663756
20.84202 1757.95214033348
20.86214 1657.63127170828
20.88225 1431.52877257905
20.90236 1294.29146700753
20.92248 1125.14253748817
20.94259 1027.04063935612
20.9627 937
20.98282 857.951212098524
21.00293 841.003542568774
21.02305 827.874314652211
21.04316 784.936712533466
21.06327 850.015429239132
21.08339 769.018762471945
21.1035 793
21.12361 731.983127943246
21.14373 738.975492908297
21.16384 700.00663614204
21.18395 738.00005365815
21.20407 707.969028599329
21.22418 792.91882789899
21.2443 793
21.26441 698.000744201573
21.28452 776.03504646176
21.30464 732.92486962286
21.32475 742.958136475196
21.34486 739.022645164398
21.36498 729.013201475292
21.38509 719.996291314415
21.40521 735.000688168672
21.42532 701.933229608823
21.44543 636.959689981218
21.46555 671.205548491313
21.48566 728.061247983049
21.50577 645.056787679065
21.52589 678.982363038217
21.546 688
21.56612 719.986866315549
21.58623 661.924370529858
21.60634 642.970343140501
21.62646 621.024724466906
21.64657 620.006226652491
21.66668 614.988922474857
21.6868 647
21.70691 659.980924003582
21.72702 603.983863986399
21.74714 630.026715991879
21.76725 625.929676826989
21.78737 671.005693656509
21.80748 622.024502604365
21.82759 649.980533645112
21.84771 658.989585920876
21.86782 639.011561810534
21.88793 672.020293789556
21.90805 652.939680266299
21.92816 658.911966764707
21.94828 695.026620352306
21.96839 632.008910749574
21.9885 674
22.00862 651.93709280177
22.02873 610.038351845128
22.04884 676.065435853638
22.06896 635.162674312121
22.08907 578.994960267215
22.10919 622.984214315908
22.1293 607
22.14941 589.025657173616
22.16953 672.052313936912
22.18964 633.885757773203
22.20975 610.970784099001
22.22987 631.992944382729
22.24998 617.012452812951
22.27009 619.995373772827
22.29021 622.996664134271
22.31032 609.987566455701
22.33044 614.059263353695
22.35055 640.966336899458
22.37066 611.963689122915
22.39078 653.023274236084
22.41089 581.008645311417
22.431 631
22.45112 588.934703837939
22.47123 554.007333525094
22.49135 581.055234299813
22.51146 590.966198454756
22.53157 616.973749473401
22.55169 604.023987554686
22.5718 562
22.59191 608.00926845476
22.61203 592.007501567014
22.63214 632.066831255639
22.65225 629.070412193211
22.67237 603.011033790702
22.69248 608.005238636741
22.7126 583
22.73271 574.014527975075
22.75282 620.02558656826
22.77294 606.933803437372
22.79305 587.971528299131
22.81316 609.012621262636
22.83328 572.033549397098
22.85339 578.974543682773
22.87351 621.989480998284
22.89362 556.967413705859
22.91373 580.039459730522
22.93385 571.929847964368
22.95396 558.953543943826
22.97407 596.985166889296
22.99419 590.983499935211
23.0143 644
23.03442 579.940876704534
23.05453 568.017372678932
23.07464 570.971898753447
23.09476 557.970442353064
23.11487 586.000306900712
23.13498 577.954068116588
23.1551 637
23.17521 534.976123274748
23.19532 590.082662275016
23.21544 618.93523479156
23.23555 568.04625927498
23.25567 591.960899651311
23.27578 606.969366533495
23.29589 636.008662641653
23.31601 579.979120780718
23.33612 596.065173341117
23.35623 644.962642532401
23.37635 579.965744961903
23.39646 627.94208140261
23.41658 596.054454719348
23.43669 578.978657497784
23.4568 646
23.47692 621.954484017075
23.49703 603.031571616701
23.51714 637.012593495423
23.53726 614.026553713572
23.55737 631.952071928631
23.57749 641.016990403928
23.5976 581
23.61771 576.016274891248
23.63783 622.060531643547
23.65794 650.0536425613
23.67805 655.122493399646
23.69817 579.063804910674
23.71828 599.945379490531
23.73839 640.995500589444
23.75851 615.978619695884
23.77862 579.979999572511
23.79874 597.132530510821
23.81885 653.939930541646
23.83896 574.0770574614
23.85908 598.985553104094
23.87919 585.991709045262
23.8993 630
23.91942 617.029322613037
23.93953 670.990461641925
23.95965 609.936938485987
23.97976 626.053304984682
23.99987 571.972108329472
24.01999 664.966010648589
24.0401 657
24.06021 649.015752798703
24.08033 689.009416044902
24.10044 658.945789894062
24.12056 651.022218431251
24.14067 627.035584481867
24.16078 627.96273029519
24.1809 664
24.20101 613.990706550308
24.22112 662.083693921463
24.24124 715.976316445171
24.26135 654.149293952072
24.28146 643.927690665057
24.30158 676.019603334681
24.32169 619.016051806431
24.34181 645.027703722773
24.36192 660.935686219823
24.38203 574.98901599119
24.40215 651.161076472348
24.42226 661.982432193472
24.44237 682.011251650955
24.46249 649.008659032792
24.4826 659
24.50272 657.008789892629
24.52283 670.988919202686
24.54294 629.879797520624
24.56306 584.022844599433
24.58317 609.930111416144
24.60328 638.01382113515
24.6234 616
24.64351 668.999470613664
24.66362 597.923442060075
24.68374 579.077823759178
24.70385 637.900470734643
24.72397 634.051643776138
24.74408 614.97058797615
24.76419 653.013365737969
24.78431 578.985155482245
24.80442 626.065187374907
24.82453 646.957630559499
24.84465 597.909923189786
24.86476 585.024644349851
24.88488 575.980034755992
24.90499 631.963706144492
24.9251 686
24.94522 657.933025960374
24.96533 595.971858638979
24.98544 624.081863420245
25.00556 643.00967922132
25.02567 631.996980723446
25.04579 634.015093379664
25.0659 581
25.08601 597.026740738527
25.10613 645.015738246086
25.12624 626.987616765605
25.14635 638.016506616466
25.16647 614.009125494154
25.18658 636.972214706545
25.20669 656.98835471516
25.22681 679.002199361827
25.24692 663.979945050498
25.26704 656.014439621696
25.28715 646.850930771362
25.30726 591.919382371769
25.32738 688.975980889658
25.34749 620.026215744164
25.3676 643
25.38772 659.978347854266
25.40783 635.021484859735
25.42795 678.045848109715
25.44806 651.079638417322
25.46817 628.012275817697
25.48829 633.989156451003
25.5084 655
25.52851 635.98818142621
25.54863 616.96871949612
25.56874 605.029112363175
25.58886 621.050766211403
25.60897 581.972656263482
25.62908 651.955490403915
25.6492 634
25.66931 621.013198854245
25.68942 643.965079103045
25.70954 586.017393630409
25.72965 674.770286483877
25.74976 685.162329737833
25.76988 592.014172470353
25.78999 647.986499118484
25.81011 612.984486181216
25.83022 623.022667637263
25.85033 644.049358065076
25.87045 669.964918222356
25.89056 629.042790160784
25.91067 648.944246879414
25.93079 664.011432783249
25.9509 641
25.97102 706.026038471211
25.99113 674.949665855207
26.01124 663.965879704055
26.03136 648.951542260662
26.05147 699.9585364512
26.07158 692.006195849538
26.0917 709
26.11181 744.032783481447
26.13193 817.054212919906
26.15204 812.99092318469
26.17215 806.126283218692
26.19227 754.949290717358
26.21238 859.924191324534
26.23249 850.02660112377
26.25261 835.031280241739
26.27272 933.050826458432
26.29283 936.053013181557
26.31295 1030.24444187751
26.33306 1086.9531508631
26.35318 1130.8909845213
26.37329 1318.88367283713
26.3934 1556
26.41352 1789.25481551033
26.43363 2110.60887027563
26.45374 2573.92482932949
26.47386 3090.66479526924
26.49397 3879.85496029177
26.51409 4565.66031478696
26.5342 5259
26.55431 5830.28152094406
26.57443 6321.42737498404
26.59454 6311.46741427988
26.61465 5868.42334111772
26.63477 5215.09096323805
26.65488 4403.89083489317
26.67499 3538.35600292182
26.69511 2945.69453882396
26.71522 2279.40018367318
26.73534 1825.33541230671
26.75545 1546.35446700934
26.77556 1288.47393910735
26.79568 1108.10077779002
26.81579 1052.03241675262
26.8359 956
26.85602 905.000487240545
26.87613 927.007846954
26.89625 877.74398051855
26.91636 778.078944356215
26.93647 793.984024508352
26.95659 764.022381282845
26.9767 728
26.99681 713.003342238178
27.01693 728.002711166984
27.03704 703.918025747002
27.05716 683.938283876221
27.07727 728.015871942117
27.09738 662.053715399098
27.1175 661
27.13761 661.976179248297
27.15772 597.977147797966
27.17784 625.057727134454
27.19795 621.059769541749
27.21806 619.896637697924
27.23818 678.013161239731
27.25829 601.027690727735
27.27841 620.030747312056
27.29852 653.967476733498
27.31863 594.9906326859
27.33875 644.070223640589
27.35886 619.068900473756
27.37897 610.983174273683
27.39909 640.972450453965
27.4192 686
27.43932 637.967256471269
27.45943 636.989097501489
27.47954 628.063874392767
27.49966 677.002777435787
27.51977 625.053509208073
27.53988 640.963632757197
27.56 650
27.58011 613.010560239715
27.60023 682.069580622945
27.62034 668.92003258186
27.64045 650.947455895968
27.66057 680.016678465395
27.68068 635.02399129668
27.70079 656.980867110625
27.72091 677.999612321545
27.74102 655.961794024688
27.76113 625.997582623435
27.78125 642.00757216488
27.80136 626.020938119917
27.82148 631.990952246387
27.84159 639.991978881906
27.8617 673
27.88182 712.002223369341
27.90193 679.943959574118
27.92204 645.900415222629
27.94216 615.908802657967
27.96227 693.983630558977
27.98239 626.029359500656
28.0025 615
28.02261 602.01714322235
28.04273 651.977618504224
28.06284 599.03195167368
28.08295 675.944388020564
28.10307 616.081452019516
28.12318 615.984254718942
28.1433 615
28.16341 597.988696649271
28.18352 581.000663834421
28.20364 578.926432641549
28.22375 536.029818418442
28.24386 586.97426913609
28.26398 553.012859897141
28.28409 592.971815741646
28.3042 623
28.32432 608.00329793591
28.34443 623.990408493637
28.36455 589.920833352418
28.38466 579.996131949163
28.40477 597.928050908538
28.42489 635.01491311612
28.445 563
28.46511 575.992782160155
28.48523 525.970297449324
28.50534 562.104646108109
28.52546 599.93817003476
28.54557 611.045347178121
28.56568 567.0082101901
28.5858 586
28.60591 550.002312878602
28.62602 586.996376789828
28.64614 539.959620620232
28.66625 567.931135890648
28.68636 568.012845627973
28.70648 566.007804506344
28.72659 563.987144644605
28.74671 590.98972905487
28.76682 549.01159246205
28.78693 598.997455111638
28.80705 540.927202779657
28.82716 561.984170446578
28.84727 549.963425773929
28.86739 596.002147417882
28.8875 540
28.90762 542.993891124164
28.92773 539.08752886135
28.94784 600.892078232569
28.96796 480.035780217725
28.98807 581.895602475364
29.00818 562.015269372742
29.0283 578
29.04841 516.98160428453
29.06853 535.05931853277
29.08864 558.001836266032
29.10875 552.97400437297
29.12887 566.028040966209
29.14898 529.007039256621
29.16909 557.988608311815
29.18921 546.984826384601
29.20932 534.027039572515
29.22943 574.004354297622
29.24955 539.947401812851
29.26966 554.950942134082
29.28978 558.023331987248
29.30989 527.007322875129
29.33 543
29.35012 572.000544354065
29.37023 558.008092820303
29.39034 583.021769254869
29.41046 560.085347371129
29.43057 529.001786453611
29.45069 556.980892775036
29.4708 573
29.49091 555.01869283271
29.51103 617.00327061305
29.53114 551.888613775191
29.55125 561.859406410369
29.57137 612.980763378105
29.59148 591.020651351042
29.6116 586
29.63171 558.984264996296
29.65182 555.044283392239
29.67194 606.995336804376
29.69205 567.000769900983
29.71216 619.920738424205
29.73228 617.009865682208
29.75239 624.992599923082
29.7725 626
29.79262 600.000589502657
29.81273 626.030451303239
29.83285 606.847073862852
29.85296 552.9864655924
29.87307 605.952601985118
29.89319 598.997788334203
29.9133 618
29.93341 573.98739917463
29.95353 583.01481455897
29.97364 572.965123780616
29.99376 561.011330846107
30.01387 559.997809954257
30.03398 569.973349038277
30.0541 589
30.07421 540.986588254418
30.09432 559.039471739159
30.11444 585.000465029195
30.13455 583.915125188717
30.15467 623.034231477021
30.17478 551.04069492322
30.19489 572.981942603108
30.21501 584.998841871611
30.23512 584.006006924398
30.25523 596.016742106736
30.27535 596.970206764268
30.29546 586.980743948457
30.31557 602.017375200169
30.33569 583.986011681998
30.3558 644
30.37592 617.973748871529
30.39603 620.012895535226
30.41614 606.917836682186
30.43626 557.063607388781
30.45637 551.992997857658
30.47648 556.986927181636
30.4966 571
30.51671 549.983597354037
30.53683 532.022752331954
30.55694 573.082084867873
30.57705 579.097477408485
30.59717 523.051431948424
30.61728 526.979296036881
30.63739 539.998922446501
30.65751 524.982362949937
30.67762 488.986707707838
30.69773 516.092686621352
30.71785 575.057240656087
30.73796 554.07987756891
30.75808 531.991417579031
30.77819 545.010701135258
30.7983 510
30.81842 563.029251950332
30.83853 545.968053970792
30.85864 536.956772443734
30.87876 506.022686780731
30.89887 517.984173581537
30.91899 516.998986529118
30.9391 521
30.95921 492.982561528785
30.97933 468.991042972694
30.99944 484.064145786438
31.01955 522.904021424957
31.03967 547.992604237452
31.05978 529.04000927853
31.0799 494
31.10001 506.999114983297
31.12012 485.989116880735
31.14024 497.031116460614
31.16035 498.038741761977
31.18046 481.996733607215
31.20058 501.979316819178
31.22069 497.019786342069
31.2408 458
31.26092 502.028982878221
31.28103 489.959460000139
31.30115 484.063734580061
31.32126 522.953415606811
31.34137 515.039688617453
31.36149 496.997482138791
31.3816 510
31.40171 483.995432011456
31.42183 488.973817687705
31.44194 459.008324915838
31.46206 504.903780446648
31.48217 514.049152632232
31.50228 477.997374835304
31.5224 500
31.54251 457.006888686143
31.56262 509.994633024639
31.58274 450.97905687262
31.60285 508.890155419403
31.62297 495.051076695253
31.64308 478.997172444334
31.66319 483.006582815145
31.68331 456.992115443639
31.70342 474.049491623515
31.72353 517.999872912024
31.74365 483.950990861434
31.76376 502.932707987437
31.78387 521.006883909381
31.80399 502.009044513041
31.8241 499
31.84422 503.978862157027
31.86433 476.006799356036
31.88444 498.976574406471
31.90456 450.06970131719
31.92467 463.929543076093
31.94478 501.000962655821
31.9649 480
31.98501 498.987753741729
32.00513 441.969426841138
32.02524 482.111585279672
32.04535 510.99278520002
32.06547 484.092503751915
32.08558 442.959036450462
32.10569 521.994587343279
32.12581 452.97292117652
32.14592 466.038927652353
32.16604 488.005753450769
32.18615 475.948070172258
32.20626 466.964958241594
32.22638 492.998504420196
32.24649 461.020637513566
32.2666 444
32.28672 483.03745951823
32.30683 498.995284798347
32.32694 484.961926425784
32.34706 475.978627121328
32.36717 497.977227866068
32.38729 486.020728145811
32.4074 453
32.42751 486.989365423126
32.44763 425.98202070548
32.46774 480.097839283049
32.48785 466.160025750189
32.50797 426.926602990595
32.52808 519.971156550447
32.5482 473
32.56831 493.999906669664
32.58842 455.976423724837
32.60854 468.034095362701
32.62865 476.95533798449
32.64876 504.956654511431
32.66888 503.026804697082
32.68899 469.010891944908
32.7091 466
32.72922 478.034845084582
32.74933 508.978310953707
32.76945 456.899945048344
32.78956 460.937289328104
32.80967 486.99359704607
32.82979 486.985322463509
32.8499 531
32.87001 496.981070072216
32.89013 494.047290866654
32.91024 533.038684848533
32.93036 517.080128369002
32.95047 494.958682461733
32.97058 551.966020611138
32.9907 539
33.01081 533.018590190743
33.03092 587.026554528229
33.05104 571.945602843175
33.07115 556.025203469631
33.09127 551.987902408856
33.11138 566.989435561558
33.13149 567.002755692155
33.15161 558.993806883166
33.17172 542.983404215154
33.19183 535.010747864358
33.21195 550.022280079927
33.23206 547.014043024986
33.25217 529.065202515687
33.27229 485.001993184965
33.2924 515
33.31252 500.981634451898
33.33263 503.030346439607
33.35274 514.958475436281
33.37286 477.029006179446
33.39297 496.961991757408
33.41308 500.01816124151
33.4332 481
33.45331 494.000807287715
33.47343 486.013200301499
33.49354 503.986315467843
33.51365 488.931484951057
33.53377 534.020076084067
33.55388 473.021188303573
33.57399 505.9928512862
33.59411 480.993983440373
33.61422 491.992157984004
33.63434 468.009062688666
33.65445 511.117189461816
33.67456 530.01439657305
33.69468 511.018379612521
33.71479 499.005910327803
33.7349 490
33.75502 501.005874611559
33.77513 504.022929417153
33.79524 524.003402564644
33.81536 507.026035739563
33.83547 502.022750469743
33.85559 483.99743877295
33.8757 512
33.89581 526.011173547948
33.91593 547.990357901381
33.93604 521.982421311159
33.95615 549.881970836127
33.97627 575.033091370762
33.99638 540.985519449529
34.0165 592
34.03661 561.99494910535
34.05672 587.011025892801
34.07684 556.90174058021
34.09695 529.961166524965
34.11706 576.906291121076
34.13718 592.017751092574
34.15729 568.001272432136
34.17741 588.007955704579
34.19752 580.977612613115
34.21763 572.038871058696
34.23775 612.028551631844
34.25786 591.029845974721
34.27797 615.909745207006
34.29809 670.993591999122
34.3182 638
34.33831 622.011794332354
34.35843 657.01202351346
34.37854 627.923868889363
34.39866 625.896886532741
34.41877 695.947785223434
34.43888 679.032224743074
34.459 681
34.47911 749.02184194082
34.49922 746.972782425828
34.51934 731.022979040872
34.53945 758.957786869478
34.55957 746.05156092129
34.57968 720.992703768794
34.59979 756.981080922447
34.61991 765.987827387588
34.64002 745.023744238572
34.66013 799.042115175563
34.68025 795.032416990928
34.70036 821.028534304138
34.72047 769.050347301382
34.74059 789.972137098663
34.7607 819
34.78082 744.970960887033
34.80093 781.065042074619
34.82104 794.003405937545
34.84116 797.999036369379
34.86127 799.978654833971
34.88138 803.04251645595
34.9015 737
34.92161 756.015022643845
34.94173 762.983944513685
34.96184 757.031488172883
34.98195 775.04111455406
35.00207 726.063605649938
35.02218 718.981211924513
35.04229 745.986587207081
35.06241 755.992170194488
35.08252 722.967108896963
35.10264 716.05591751775
35.12275 755.04201801848
35.14286 743.029287725161
35.16298 736.014952203222
35.18309 722.992613763684
35.2032 742
35.22332 684.97710551976
35.24343 719.074374287355
35.26354 742.995181682564
35.28366 726.03787424859
35.30377 724.963183483055
35.32389 739.020302061534
35.344 670
35.36411 706.023384053971
35.38423 729.022710524655
35.40434 728.922467376494
35.42445 686.963216902848
35.44457 748.940488455278
35.46468 760.95235819625
35.4848 836
35.50491 814.998345959252
35.52502 833.978127599383
35.54514 765.888595312698
35.56525 784.754928574055
35.58536 873.034342445816
35.60548 784.031135038467
35.62559 826.997935324622
35.64571 765.980527858672
35.66582 782.017558529248
35.68593 777.002171088585
35.70605 772.874325105991
35.72616 699.065389141311
35.74627 715.982664889563
35.76639 695.012666044627
35.7865 704
35.80661 756.997181150016
35.82673 702.948206575805
35.84684 706.98968890563
35.86696 666.109490479859
35.88707 638.967719690053
35.90718 679.989891041971
35.9273 647
35.94741 635.003539529966
35.96752 657.039436237679
35.98764 689.998643708658
36.00775 661.061510490476
36.02787 658.989958992722
36.04798 660.005209729009
36.06809 653.001867572856
36.08821 651.99812798747
36.10832 649.006769104523
36.12843 655.982935070511
36.14855 631.969698902517
36.16866 649.916460003987
36.18878 691.976049631941
36.20889 684.017980144112
36.229 659
36.24912 707.01867748182
36.26923 683.967269671962
36.28934 685.006142516848
36.30946 685.969122722938
36.32957 734.87365883555
36.34968 808.985364502026
36.3698 780
36.38991 832.043205665081
36.41003 908.066684140455
36.43014 919.99631785987
36.45025 929.9292296381
36.47037 968.948035652137
36.49048 967.056310263431
36.51059 891.020982746577
36.53071 897.007550864025
36.55082 893.99041669469
36.57094 893.022655320971
36.59105 887.865732885586
36.61116 797.164391678465
36.63128 754.016534465583
36.65139 739.012473267535
36.6715 712
36.69162 721.007295248482
36.71173 712.974105727204
36.73184 688.932333073213
36.75196 665.97504822329
36.77207 685.041587102178
36.79219 628.007294222432
36.8123 666
36.83241 654.988997454944
36.85253 656.043453164829
36.87264 694.045350328993
36.89275 689.052859153406
36.91287 665.036974352904
36.93298 648.999680095628
36.9531 652
36.97321 625.996576854804
36.99332 639.004170793221
37.01344 623.968205643487
37.03355 617.015295149667
37.05366 614.972752682605
37.07378 630.009718200188
37.09389 608.996273851386
37.11401 635.998848066821
37.13412 595.962811423868
37.15423 601.070159904015
37.17435 636.93121469883
37.19446 580.992781689893
37.21457 644.944150356874
37.23469 621.016388320678
37.2548 628
37.27491 657.985155642165
37.29503 595.96997630638
37.31514 636.089228768074
37.33526 636.077901575912
37.35537 593.025878317318
37.37548 605.98183514298
37.3956 620
37.41571 642.99576417468
37.43582 604.963836819217
37.45594 601.055826874868
37.47605 631.987726582026
37.49617 608.040222630912
37.51628 598.99616525859
37.53639 612.986835413428
37.55651 637.002113028756
37.57662 638.031376407472
37.59673 668.948750721986
37.61685 595.948904811132
37.63696 632.982704658656
37.65708 605.984278251025
37.67719 663.989597379414
37.6973 616
37.71742 580.00447967566
37.73753 601.00961136743
37.75764 593.017133744747
37.77776 616.986196165846
37.79787 595.045505534235
37.81798 591.960211895449
37.8381 636
37.85821 582.980015986405
37.87833 586.026125115129
37.89844 602.054032009455
37.91855 634.948938828935
37.93867 621.07833758121
37.95878 562.029171623424
37.97889 576.981314932143
37.99901 607.006970188792
38.01912 609.002354609959
38.03924 621.036954744751
38.05935 624.928529381753
38.07946 569.117608480522
38.09958 536.99827916533
38.11969 563.981601176645
38.1398 585
38.15992 571.006779748227
38.18003 595.012772955671
38.20015 578.957146845579
38.22026 578.975376642707
38.24037 585.021168095899
38.26049 558.0091886153
38.2806 568
38.30071 602.001105519715
38.32083 565.922313450539
38.34094 532.998156785273
38.36105 547.995572784343
38.38117 535.000264420028
38.40128 561.959410836065
38.4214 590
38.44151 568.986281717963
38.46162 552.997396060395
38.48174 561.028079342708
38.50185 566.036819741523
38.52196 541.029620605767
38.54208 548.976950442058
38.56219 562.007384446653
38.58231 535.998665674845
38.60242 562.025551297468
38.62253 563.975909300708
38.64265 548.999628806273
38.66276 558.002418075509
38.68287 536.050688013723
38.70299 515.994471269519
38.7231 550
38.74321 566.006563903742
38.76333 579.004174567919
38.78344 565.951222055666
38.80356 550.977446845332
38.82367 561.053143033549
38.84378 507.997597303413
38.8639 559
38.88401 525.98667006549
38.90412 532.006666530223
38.92424 520.969990592525
38.94435 532.859987271893
38.96447 591.99605041193
38.98458 540.045175089449
39.00469 537.991610341623
39.02481 551.005418741127
39.04492 555.993587371725
39.06503 539.972876391608
39.08515 515.898211425927
39.10526 486.954293522031
39.12538 550.94607154384
39.14549 559.01178729939
39.1656 541
39.18572 581.046786413831
39.20583 612.021142121879
39.22594 598.900709228623
39.24606 557.953002561852
39.26617 646.851261815513
39.28628 710.96337491456
39.3064 737
39.32651 760.008553556715
39.34663 784.073161235258
39.36674 839.047465394332
39.38685 848.875483061021
39.40697 909.021773517784
39.42708 816.089621823673
39.44719 790.989672822107
39.46731 793.970572102109
39.48742 699.943010255618
39.50754 719.126669940864
39.52765 754.919422170558
39.54776 682.088961094782
39.56788 670.042958584322
39.58799 600.014164929993
39.6081 613
39.62822 569.994805371818
39.64833 609.034700255417
39.66845 582.877821778194
39.68856 551.995063129292
39.70867 574.976761938436
39.72879 569.006789534381
39.7489 570
39.76901 599.003674132757
39.78913 575.946735795433
39.80924 544.947019262448
39.82935 532.966946908544
39.84947 557.981288446019
39.86958 554.99734455841
39.8897 570
39.90981 573.000180143176
39.92992 569.985876075757
39.95004 553.998820681645
39.97015 564.003539520327
39.99026 543.05303614471
40.01038 542.955243783242
40.03049 615.967421250867
40.05061 621.965205689517
40.07072 548.010221003425
40.09083 646.151293935357
40.11095 673.904982254231
40.13106 613.093895673326
40.15117 626.871022575379
40.17129 714.996515189833
40.1914 654
40.21152 683.029798316105
40.23163 675.968981823209
40.25174 669.022333509329
40.27186 686.982576363152
40.29197 667.078116894167
40.31208 614.01811637902
40.3322 632
40.35231 623.984261977814
40.37242 579.950802555224
40.39254 546.997006422157
40.41265 576.885194851815
40.43277 595.058705091168
40.45288 529.032239421691
40.47299 551.980247940957
40.49311 562.98782251895
40.51322 520.965337177344
40.53333 520.052214174316
40.55345 550.962543160463
40.57356 517.961956487871
40.59368 576.983458765376
40.61379 528.027554821821
40.6339 519
40.65402 555.012501754579
40.67413 551.021912263029
40.69424 569.947845814283
40.71436 517.02284912237
40.73447 546.994701755978
40.75458 517.002447170392
40.7747 561
40.79481 577.996546799979
40.81493 564.987578034637
40.83504 554.942774377551
40.85515 517.050453874851
40.87527 520.987785767192
40.89538 522.994507583408
40.91549 522.013566731601
40.93561 502.020244677092
40.95572 569.005575659009
40.97584 516.963395050147
40.99595 548.013844684298
41.01606 512.037279276245
41.03618 527.990572838248
41.05629 517.002060716399
41.0764 527
41.09652 529.023758412191
41.11663 554.976825381082
41.13675 500.885333287665
41.15686 497.942176103981
41.17697 519.023753483049
41.19709 485.002031861801
41.2172 521
41.23731 523.984204369628
41.25743 489.99377071537
41.27754 503.977429642071
41.29765 478.958807400074
41.31777 543.903086505551
41.33788 559.036006011729
41.358 505
41.37811 501.004905793698
41.39822 510.012399051133
41.41834 524.018510976931
41.43845 513.100580778285
41.45856 472.006736299503
41.47868 500.982566906865
41.49879 492.003304837022
41.51891 504.008975263608
41.53902 517.009404003112
41.55913 518.983756651604
41.57925 496.935268429327
41.59936 485.968067874103
41.61947 500.043254873878
41.63959 461.985954644445
41.6597 541
41.67982 504.945408277753
41.69993 477.987642591791
41.72004 486.061961289459
41.74016 508.052365135955
41.76027 449.055229853165
41.78038 476.919398899594
41.8005 547
41.82061 496.976193351302
41.84072 489.01076153451
41.86084 497.009161203212
41.88095 501.975970102524
41.90107 512.993058853946
41.92118 505.019095600558
41.94129 486.004396223614
41.96141 490.004729082335
41.98152 493.994814070918
42.00163 491.021400182289
42.02175 523.087091443204
42.04186 538.026946356875
42.06198 515.00501077228
42.08209 528.996719783977
42.1022 517
42.12232 522.033552465722
42.14243 560.014164438522
42.16254 539.964294190905
42.18266 540.989466588037
42.20277 548.964463462517
42.22289 584.984414184993
42.243 601
42.26311 622.025963487214
42.28323 667.978056675259
42.30334 612.958558658495
42.32345 663.787563950396
42.34357 731.946616246347
42.36368 725.04492195397
42.38379 685.996526932291
42.40391 738.0278942514
42.42402 743.942842965348
42.44414 670.945457120336
42.46425 693.036529738763
42.48436 670.067913557401
42.50448 645.021928252022
42.52459 614.022750866888
42.5447 568
42.56482 565.002718992309
42.58493 547.932792495017
42.60505 495.92607910197
42.62516 505.924548570972
42.64527 536.002875688491
42.66539 508.011901521797
42.6855 506
42.70561 499.984758691304
42.72573 466.996916744045
42.74584 484.988314673873
42.76595 465.944050840459
42.78607 521.960127337743
42.80618 500.026942840562
42.8263 482
42.84641 437.997393673236
42.86652 470.023369462684
42.88664 469.008334914705
42.90675 486.97359887328
42.92686 473.068985550109
42.94698 450.979919406957
42.96709 496.98720291438
42.98721 465.961180342402
43.00732 394.980539152938
43.02743 440.117352365582
43.04755 499.042301172973
43.06766 474.088745195448
43.08777 455.951542961831
43.10789 504.996353619622
43.128 466
43.14812 480.04429686333
43.16823 501.942592253068
43.18834 455.067866262359
43.20846 535.992820565637
43.22857 460.050813728049
43.24868 494.990929038177
43.2688 452
43.28891 476.019267472864
43.30902 500.015153280638
43.32914 497.932822149024
43.34925 461.985123607747
43.36937 495.994052987394
43.38948 455.042435126278
43.40959 453.979825948451
43.42971 501.009100574969
43.44982 490.997190366432
43.46993 492.953783560579
43.49005 444.971462999613
43.51016 476.942655108059
43.53028 487.975066818664
43.55039 517.004523176268
43.5705 465
43.59062 444.02038633728
43.61073 468.981628475613
43.63084 441.038890095726
43.65096 503.923190258093
43.67107 492.031971915918
43.69119 481.010897061885
43.7113 456
43.73141 478.004325173966
43.75153 473.022628238067
43.77164 495.969738064589
43.79175 446.086868994267
43.81187 452.960964715876
43.83198 469.997823050709
43.85209 469.991957908145
43.87221 497.007008578968
43.89232 474.942648275303
43.91244 431.03687482411
43.93255 488.05747391476
43.95266 458.059527679979
43.97278 455.999409505753
43.99289 448.001236877781
44.013 466
44.03312 492.980156454102
44.05323 449.988435834596
44.07335 473.985533500375
44.09346 434.033566665744
44.11357 463.935158070783
44.13369 475.016876180184
44.1538 435
44.17391 484.019592524041
44.19403 485.985054721336
44.21414 465.893747727005
44.23426 417.960423045306
44.25437 488.935498987694
44.27448 474.024288967473
44.2946 462
44.31471 436.008307544326
44.33482 485.028731391866
44.35494 481.005267883789
44.37505 496.016130055035
44.39516 461.072870876142
44.41528 453.973280315653
44.43539 486.996501905007
44.45551 458.980151834423
44.47562 443.020545572586
44.49573 476.012554768562
44.51585 456.968874860564
44.53596 451.065760466393
44.55607 420.944977046031
44.57619 500.98259264813
44.5963 465
44.61642 446.98214436669
44.63653 427.003723815423
44.65664 460.093958900796
44.67676 481.058613350388
44.69687 443.966693796374
44.71698 502.994299696391
44.7371 455
44.75721 491.002863242041
44.77732 455.991747797276
44.79744 487.031044686246
44.81755 462.089293037036
44.83767 447.983460504613
44.85778 480.951894904598
44.87789 506.015173067514
44.89801 451.993464608497
44.91812 481.008171120956
44.93823 457.997189986751
44.95835 484.021187460332
44.97846 461.045986987348
44.99858 451.014892510785
45.01869 442.98558564213
45.0388 492
45.05892 467.958351907926
45.07903 446.01128267121
45.09914 478.083289421415
45.11926 504.002462410004
45.13937 485.024209117906
45.15949 478.005938199511
45.1796 463
45.19971 484.018947805816
45.21983 506.972559247015
45.23994 464.956589142337
45.26005 478.946334049247
45.28017 492.970877473587
45.30028 498.042389654137
45.32039 432.015849485828
45.34051 461.029317890765
45.36062 503.009000483777
45.38074 480.929757408004
45.40085 462.022956791335
45.42096 490.943879260361
45.44108 501.005261640369
45.46119 483.015398520423
45.4813 462
45.50142 494.015305422641
45.52153 480.974867939363
45.54165 490.099832784191
45.56176 537.946461601913
45.58187 534.024224465834
45.60199 523.003444072983
45.6221 538
45.64221 596.001115884114
45.66233 558.997104145731
45.68244 615.125422983005
45.70256 635.04446406248
45.72267 599.032799658926
45.74278 605.977038699343
45.7629 615
45.78301 569.979378557308
45.80312 553.002261965128
45.82324 550.950936139351
45.84335 523.976486460723
45.86346 552.019938025368
45.88358 508.016813236698
45.90369 530.992798974285
45.92381 501.970655921149
45.94392 455.996536670125
45.96403 484.028520479166
45.98415 478.989771235524
46.00426 489.969664520979
46.02437 486.053545701455
46.04449 436.016659270227
46.0646 453
46.08472 515.990217753028
46.10483 444.9166036091
46.12494 436.993362515511
46.14506 422.993320245445
46.16517 443.983638559488
46.18528 443.984191570971
46.2054 473
46.22551 457.988347652219
46.24563 435.955681707815
46.26574 422.068178534356
46.28585 477.954534941628
46.30597 443.066583568856
46.32608 431.977938359599
46.34619 459.996633851639
46.36631 450.002413295689
46.38642 472.009857142533
46.40653 463.996157073182
46.42665 463.941292719861
46.44676 429.015595516409
46.46688 445.99880008944
46.48699 423.007419079382
46.5071 429
46.52722 435.021141120218
46.54733 457.991989621868
46.56744 422.928277371895
46.58756 418.935317664837
46.60767 459.974469180304
46.62779 440.018741907218
46.6479 415
46.66801 440.021410513298
46.68813 473.004693864742
46.70824 446.930581749089
46.72835 427.996104003003
46.74847 441.97937634009
46.76858 442.014734033173
46.78869 426.99976140783
46.80881 450.018331222005
46.82892 473.993117985777
46.84904 446.963586834744
46.86915 453.0431628578
46.88926 456.04777775939
46.90938 425.005280683326
46.92949 453.980552231976
46.9496 472
46.96972 448.986348719174
46.98983 449.998594724382
47.00995 437.961233306814
47.03006 429.993315134162
47.05017 437.99663350597
47.07029 415.02850411126
47.0904 366
47.11051 436.037900465199
47.13063 465.976256474493
47.15074 431.950708124708
47.17086 433.962225301597
47.19097 457.959907004654
47.21108 467.027258567942
47.2312 422
47.25131 430.008309309957
47.27142 434.997236992608
47.29154 435.018734977075
47.31165 447.989991838053
47.33176 437.038922148539
47.35188 426.988808185374
47.37199 449.993305648902
47.39211 452.004961082668
47.41222 471.009651310707
47.43233 460.967354951658
47.45245 437.947137584435
47.47256 423.0137404337
47.49267 425.980508990264
47.51279 442.992740073589
47.5329 445
47.55302 435.019076807385
47.57313 468.010229148375
47.59324 434.906662047447
47.61336 417.93867431757
47.63347 462.988281252884
47.65358 435.010839340272
47.6737 458
47.69381 444.979357231089
47.71393 411.006639585441
47.73404 448.065708695956
47.75415 443.100459653863
47.77427 409.978289333642
47.79438 451.991193433436
47.81449 416.015787578303
47.83461 411.999033323624
47.85472 403.000455217467
47.87483 424.054058477328
47.89495 460.063929641835
47.91506 458.073613604991
47.93518 413.018598618982
47.95529 431.983281514588
47.9754 454
47.99552 438.958650469236
48.01563 395.977547019243
48.03574 420.089645442507
48.05586 442.05418434786
48.07597 399.994615002627
48.09609 444.98937519421
48.1162 434
48.13631 464.993377563587
48.15643 412.965955633826
48.17654 428.993874536725
48.19665 397.031477742039
48.21677 415.977995446569
48.23688 407.016174296451
48.257 403
48.27711 423.009471211226
48.29722 429.993546898671
48.31734 435.085507207147
48.33745 474.9248036595
48.35756 401.047341099965
48.37768 439.97928784253
48.39779 415.008654278676
48.4179 424
48.43802 417.020357706851
48.45813 452.002309986033
48.47825 423.985347831436
48.49836 445.991928203595
48.51847 421.028879651121
48.53859 423.996400995448
48.5587 425
48.57881 424.99315295801
48.59893 405.993538739515
48.61904 421.038309292888
48.63916 423.043032503729
48.65927 398.998203053746
48.67938 427.968582554182
48.6995 433
48.71961 415.015650531696
48.73972 469.007689745229
48.75984 421.91710993473
48.77995 406.07380369887
48.80006 374.960685651539
48.82018 435.960156862239
48.84029 441.989468312343
48.86041 465.982675445876
48.88052 388.959166822521
48.90063 408.037752883034
48.92075 413.029288298612
48.94086 439.953532765067
48.96097 448.000629768973
48.98109 443.006270327807
49.0012 424
49.02132 413.007163405619
49.04143 434.033480840714
49.06154 440.97409802685
49.08166 426.982770068189
49.10177 452.978409058797
49.12188 451.991449448405
49.142 459
49.16211 415.002036502664
49.18223 465.048717053456
49.20234 453.96413562848
49.22245 451.006231999687
49.24257 446.989282629489
49.26268 464.984387461984
49.28279 468.003439669888
49.30291 462.00149374375
49.32302 454.956097320717
49.34313 415.048431710349
49.36325 487.026611008186
49.38336 435.030505057572
49.40348 482.961525448629
49.42359 475.009599272461
49.4437 469
49.46382 471.021030520939
49.48393 489.973038196996
49.50404 455.005791231992
49.52416 487.005349739246
49.54427 443.042187037644
49.56439 457.985811783996
49.5845 459
49.60461 414.997048832625
49.62473 457.083201117561
49.64484 474.925826195721
49.66495 430.961588482092
49.68507 494.946936478457
49.70518 474.028233849921
49.7253 466
49.74541 462.014232840498
49.76552 511.029542345646
49.78564 512.004955413621
49.80575 536.08842326413
49.82586 576.900971805684
49.84598 601.039933883006
49.86609 540.998466046314
49.8862 616
49.90632 654.04521878746
49.92643 708.032382157005
49.94655 716.133444230957
49.96666 817.815420837998
49.98677 876.914558273451
50.00689 925.99887675591
50.027 893
50.04711 911.012628247402
50.06723 927.027761519591
50.08734 932.932655822042
50.10746 885.017681367347
50.12757 893.074797093641
50.14768 787.083726287007
50.1678 765
50.18791 767.007001129265
50.20802 755.914566857318
50.22814 637.884952434471
50.24825 644.045707622257
50.26837 583.049351681446
50.28848 572.065213924442
50.30859 478.009695244735
50.32871 534.014528857857
50.34882 504.983495730197
50.36893 514.970569989075
50.38905 462.923419587048
50.40916 474.95430001456
50.42927 480.014903065767
50.44939 467.003441819133
50.4695 476
50.48962 488.970405686025
50.50973 443.995795706975
50.52984 477.010646107237
50.54996 440.060228285938
50.57007 440.988150455174
50.59018 451.965713987843
50.6103 482
50.63041 427.992649133463
50.65053 466.050964908848
50.67064 458.942045039937
50.69075 439.988965838154
50.71087 450.023046468505
50.73098 417.011427807075
50.75109 436.988936573015
50.77121 440.997277614994
50.79132 434.993693855318
50.81143 428.992274186142
50.83155 424.992668753846
50.85166 428.966418408234
50.87178 443.010566062984
50.89189 408.018538231788
50.912 406
50.93212 452.977535872179
50.95223 382.95863212746
50.97234 422.081526544445
50.99246 429.990674093593
51.01257 439.013394551044
51.03269 413.009759117989
51.0528 412
51.07291 425.014855789668
51.09303 448.977713062437
51.11314 408.96336206509
51.13325 424.958917710729
51.15337 416.039660807002
51.17348 395.997136664846
51.1936 416
51.21371 418.00169598188
51.23382 431.016390432539
51.25394 428.927560566524
51.27405 389.984258558798
51.29416 431.959671125876
51.31428 406.038815758327
51.33439 397.983171481704
51.3545 437
51.37462 396.976998627205
51.39473 400.982199081094
51.41485 379.041687481622
51.43496 429.937065588315
51.45507 422.021822758957
51.47519 422.997089360073
51.4953 435
51.51541 448.975785819373
51.53553 367.945452620429
51.55564 396.072497398732
51.57576 411.955103348517
51.59587 437.005992348381
51.61598 409.015180219457
51.6361 430
51.65621 446.976828596085
51.67632 379.992342354373
51.69644 444.13679015423
51.71655 448.157179921929
51.73667 382.003021840681
51.75678 431.977331249728
51.77689 407.006920591598
51.79701 420.999899637675
51.81712 397.987676013941
51.83723 399.980335095033
51.85735 380.027451520306
51.87746 419.942658096664
51.89757 412.045600821871
51.91769 399.983327733684
51.9378 452
51.95792 423.973129787952
51.97803 420.998203180167
51.99814 420.039455837911
52.01826 447.994646188133
52.03837 409.095128069326
52.05848 372.972818002006
52.0786 442
52.09871 440.982213258368
52.11883 410.99546958487
52.13894 437.071948917791
52.15905 443.113048130421
52.17917 386.010872376863
52.19928 423.982898188527
52.21939 406.000656186238
52.23951 438.01493532249
52.25962 441.989181235835
52.27974 425.955069367592
52.29985 413.035391431848
52.31996 444.955281383865
52.34008 447.999385393387
52.36019 448.007916515584
52.3803 426
52.40042 441.006545881089
52.42053 430.987310541341
52.44064 440.048832008463
52.46076 452.052997622142
52.48087 412.003142306412
52.50099 448.987224389434
52.5211 445
52.54121 457.002398980829
52.56133 448.991497862498
52.58144 453.012024817085
52.60155 455.993815722042
52.62167 458.001558763305
52.64178 454.004261298886
52.6619 438
52.68201 393.995831843538
52.70212 431.054202817213
52.72224 468.024705970246
52.74235 451.109262855831
52.76246 406.044775503424
52.78258 427.935745584171
52.80269 477.011439544726
52.8228 409
52.84292 438.023418358881
52.86303 440.041909531747
52.88315 478.968242807547
52.90326 426.037605341334
52.92337 457.961744418663
52.94349 447.010185110218
52.9636 449
52.98371 474.993611444865
53.00383 442.001538150329
53.02394 474.012024430147
53.04406 445.031849668285
53.06417 452.01173120779
53.08428 443.955688191472
53.1044 514
53.12451 458.969575377501
53.14462 448.031221559162
53.16474 482.009328489219
53.18485 462.020144757556
53.20497 475.985541511763
53.22508 468.012533242078
53.24519 475.979758081855
53.26531 515.996869462716
53.28542 459.936629356847
53.30553 446.076497581947
53.32565 502.969731418145
53.34576 450.975590010934
53.36587 522.965290612925
53.38599 473.019268525658
53.4061 482
53.42622 459.965029408032
53.44633 441.013358930976
53.46644 472.070763407619
53.48656 493.9849977058
53.50667 487.031344410415
53.52678 460.025307531058
53.5469 458
53.56701 517.026628994462
53.58713 532.962758157609
53.60724 498.984327564062
53.62735 520.94944064783
53.64747 517.029038440182
53.66758 500.005373677143
53.68769 501.003484359853
53.70781 494.007692054651
53.72792 522.008167238043
53.74804 498.933417866138
53.76815 485.036682386541
53.78826 506.00899172554
53.80838 493.969962838703
53.82849 551.989270302095
53.8486 511
53.86872 491.05668860791
53.88883 569.017402028019
53.90894 516.947884995155
53.92906 543.964287085558
53.94917 526.027773160771
53.96929 529.992825107573
53.9894 540
54.00951 529.987102268628
54.02963 510.016223109984
54.04974 547.06707278623
54.06985 547.08609984998
54.08997 509.013783827559
54.11008 522.003649449078
54.1302 492
54.15031 491.009246414153
54.17042 511.00957911493
54.19054 507.987736864222
54.21065 514.93321232275
54.23076 539.016582684152
54.25088 495.052843633451
54.27099 476.982694839797
54.29111 530.009340145354
54.31122 504.974085565953
54.33133 502.002244853558
54.35145 505.049915947383
54.37156 527.013607415543
54.39167 499.016220237616
54.41179 516.98999639868
54.4319 518
54.45201 494.982228000909
54.47213 470.017231281204
54.49224 520.129130333496
54.51236 548.074151931444
54.53247 495.982404556726
54.55258 556.983504784799
54.5727 520
54.59281 562.010730066147
54.61292 539.979465740313
54.63304 549.044006749143
54.65315 565.975153992093
54.67327 570.994456246151
54.69338 582.973988151102
54.71349 618.982268663548
54.73361 650.016071057423
54.75372 664.973236173574
54.77383 622.991279813327
54.79395 647.998804736317
54.81406 617.020282761488
54.83417 636.987503114901
54.85429 608.024935811601
54.8744 591
54.89452 666.007130139891
54.91463 593.888994002683
54.93474 584.088970463255
54.95486 628.005339994278
54.97497 591.019980009522
54.99508 606.009946287529
55.0152 561
55.03531 556.002898282636
55.05543 557.001679099163
55.07554 552.961490806659
55.09565 531.003906359876
55.11577 544.001853562048
55.13588 529.996378496434
55.15599 565.973852701771
55.17611 582.97265316298
55.19622 500.972369406847
55.21634 539.068421139477
55.23645 542.032150595245
55.25656 577.9391821382
55.27668 574.039244012408
55.29679 534.002300421734
55.3169 551
55.33702 508.974459278005
55.35713 514.004543774994
55.37724 506.008794597226
55.39736 527.958119364782
55.41747 531.020559100646
55.43759 508.012844357086
55.4577 495
55.47781 515.005255211037
55.49793 490.905318872891
55.51804 443.054072964727
55.53815 510.964080979978
55.55827 455.073235240811
55.57838 466.950566896746
55.5985 512
55.61861 504.989876731256
55.63872 493.003236357829
55.65884 508.032653853851
55.67895 514.014794206678
55.69906 500.033164502373
55.71918 485.014308254882
55.73929 487.981017756412
55.75941 530.999806986845
55.77952 481.945498475094
55.79963 474.072664041965
55.81975 518.928135533102
55.83986 440.069332200218
55.85997 477.931730486359
55.88009 483.00947817109
55.9002 464
55.92031 465.005374160399
55.94043 482.033206424369
55.96054 507.052205354881
55.98066 516.050165283134
56.00077 467.067805086946
56.02088 457.967367491662
56.041 490
56.06111 448.002570660309
56.08122 498.020351730503
56.10134 464.927878007893
56.12145 456.995797410604
56.14157 456.991461695936
56.16168 467.991659312344
56.18179 477.988179553388
56.20191 497.993287913415
56.22202 464.991178966319
56.24213 482.001647512084
56.26225 471.055643843102
56.28236 499.078434472268
56.30248 426.996718068721
56.32259 500.984155947927
56.3427 457
56.36282 467.028309276792
56.38293 482.002509452334
56.40304 475.983558660674
56.42316 472.991280749224
56.44327 476.013741465551
56.46338 457.015375282032
56.4835 451
56.50361 453.009710979233
56.52373 476.001384909085
56.54384 457.983235746443
56.56395 453.089434707537
56.58407 415.960420371329
56.60418 484.974720790007
56.62429 447.017338674905
56.64441 450.004465156686
56.66452 450.007850155603
56.68464 456.96109338472
56.70475 418.942895765617
56.72486 423.975198553908
56.74498 439.964026799347
56.76509 486.98416669246
56.7852 487
56.80532 459.976952992479
56.82543 444.983739224816
56.84554 449.067347748567
56.86566 481.033091024851
56.88577 431.032190967786
56.90589 452.990758632581
56.926 449
56.94611 462.00174296243
56.96623 443.954758265727
56.98634 425.013513635272
57.00645 451.933051778828
57.02657 457.027801880206
57.04668 440.985334276275
57.0668 475
57.08691 458.992696423662
57.10702 456.991327391235
57.12714 437.973131382998
57.14725 439.970846473257
57.16736 460.92920249881
57.18748 481.03095024828
57.20759 431.000451986194
57.22771 472.003750367529
57.24782 436.988627041768
57.26793 476.075286794544
57.28805 492.94396302898
57.30816 457.03416258558
57.32827 465.984329183487
57.34839 461.006365086216
57.3685 461
57.38861 480.98502718717
57.40873 425.98455666491
57.42884 468.065624727428
57.44896 477.932115999625
57.46907 515.042870403896
57.48918 440.032525621612
57.5093 467
57.52941 438.984553416599
57.54952 438.022014161342
57.56964 454.98117151791
57.58975 434.983248684598
57.60987 467.967933499381
57.62998 457.026406116503
57.65009 435.007099097966
57.67021 433.00577076705
57.69032 450.012818809147
57.71043 437.927987530568
57.73055 409.14227041302
57.75066 498.995547223001
57.77078 414.051380479195
57.79089 441.983509275296
57.811 433
57.83112 432.032622269882
57.85123 474.023742406693
57.87134 456.956836855589
57.89146 448.013969103829
57.91157 439.006035146303
57.93168 438.006810996828
57.9518 428
57.97191 443.013933253876
57.99203 460.982772917557
58.01214 436.999990902228
58.03225 460.971562595855
58.05237 445.032448702786
58.07248 446.966648430215
58.09259 473.014160514717
58.11271 412.989327785756
58.13282 431.991481212031
58.15294 396.009126995301
58.17305 457.163846336014
58.19316 477.050302686536
58.21328 433.036886822768
58.23339 425.989796898733
58.2535 451
58.27362 445.000679258228
58.29373 453.996087560955
58.31385 449.05418232827
58.33396 476.036786753957
58.35407 417.065556346531
58.37419 415.993058828664
58.3943 436
58.41441 475.992964764161
58.43453 425.972341849833
58.45464 456.057113894154
58.47475 450.060148945447
58.49487 432.00599505028
58.51498 424.037635933385
58.5351 392
58.55521 469.015325273643
58.57532 429.955297485049
58.59544 426.039956863025
58.61555 436.043150711401
58.63566 408.009391904438
58.65578 431.976211248831
58.67589 430.012388399295
58.69601 417.015323882895
58.71612 461.9977602865
58.73623 416.967075421471
58.75635 440.061705949182
58.77646 428.0875721376
58.79657 389.998115598946
58.81669 426.982291263036
58.8368 442
58.85691 454.999552777664
58.87703 435.960023199938
58.89714 417.99418934688
58.91726 430.953575477965
58.93737 450.987357197067
58.95748 445.015023888371
58.9776 439
58.99771 469.011547061366
59.01782 460.957312033567
59.03794 414.972862927223
59.05805 443.885077278212
59.07817 477.973710331817
59.09828 466.050214106151
59.11839 411.008245902342
59.13851 436.013247969352
59.15862 432.976051361424
59.17873 413.000943097945
59.19885 435.068967881761
59.21896 444.036991104117
59.23908 416.010415450928
59.25919 433.984897948217
59.2793 450
59.29942 430.996663730313
59.31953 448.024677493435
59.33964 458.036172661774
59.35976 468.058137699446
59.37987 426.991599109324
59.39998 473.97582308714
59.4201 450
59.44021 442.007126366135
59.46033 465.031873893444
59.48044 476.004333787659
59.50055 467.059516243502
59.52067 437.03476425619
59.54078 446.943319725225
59.56089 514.985467422939
59.58101 496.988222931949
59.60112 505.035438614106
59.62124 543.038290245711
59.64135 541.99545775339
59.66146 543.023645695789
59.68158 540.953847100247
59.70169 612.982036581652
59.7218 605
59.74192 640.039529386946
59.76203 667.038377597314
59.78215 691.025856635948
59.80226 693.973138992173
59.82237 724.944134995112
59.84249 759.982709476398
59.8626 790
59.88271 784.983083299328
59.90283 739.951399402988
59.92294 750.118528331808
59.94305 800.064303802546
59.96317 708.122710493791
59.98328 691.969623432015
60.0034 716
60.02351 670.985575621378
60.04362 681.027086040096
60.06374 677.882501654185
60.08385 604.05346613136
60.10396 637.949240027644
60.12408 617.041054496942
60.14419 592.997695006024
60.16431 608.999313041415
60.18442 586.982894105155
60.20453 582.988377275654
60.22465 562.94094131273
60.24476 540.051539483358
60.26487 526.970699306587
60.28499 562.991989531315
60.3051 541
60.32522 508.990019534636
60.34533 525.05115532934
60.36544 552.003871024531
60.38556 537.011965260687
60.40567 538.029534067816
60.42578 496.037458354721
60.4459 486
60.46601 504.002148874563
60.48612 495.99837430742
60.50624 515.070296147503
60.52635 530.093566348898
60.54647 473.016141015335
60.56658 513.96767844977
60.58669 503.014435322571
60.60681 490.005794578066
60.62692 509.00044271402
60.64703 501.029115778373
60.66715 532.984172862176
60.68726 496.017961394694
60.70738 513.017281943737
60.72749 473.993710145236
60.7476 524
60.76772 468.973962542623
60.78783 500.049842958863
60.80794 485.887189428855
60.82806 447.925438406584
60.84817 523.968451822579
60.86828 478.03133157781
60.8884 495
60.90851 490.999894680418
60.92863 508.033194172607
60.94874 515.972472436311
60.96885 496.006989895654
60.98897 517.953550972563
61.00908 524.037485532761
61.02919 474.006077098753
61.04931 499.005665645448
61.06942 482.993569765371
61.08954 502.046929059839
61.10965 521.064920668316
61.12976 538.039876648372
61.14988 504.994079426729
61.16999 542.994503942311
61.1901 515
61.21022 523.009156035618
61.23033 515.979332202266
61.25045 520.092781109257
61.27056 561.001070900354
61.29067 530.008207434224
61.31079 558.991915945038
61.3309 545
61.35101 540.993912479529
61.37113 524.000668966986
61.39124 540.01512735813
61.41135 542.935476011809
61.43147 579.98748328151
61.45158 556.020140254559
61.4717 551
61.49181 519.985137664369
61.51192 520.040857084911
61.53204 576.067117519557
61.55215 565.101720166723
61.57226 526.040022237019
61.59238 532.975046236948
61.61249 544.013075023114
61.63261 511.007067776949
61.65272 563.026466593622
61.67283 542.962912458793
61.69295 537.994758408253
61.71306 538.957863186305
61.73317 556.042713985788
61.75329 507.999657650978
61.7734 554
61.79352 532.995295063859
61.81363 551.990043815812
61.83374 512.942569761458
61.85386 514.977819976549
61.87397 513.023268699855
61.89408 492.017600080598
61.9142 500
61.93431 555.0086431811
61.95442 525.96124854116
61.97454 513.02491906952
61.99465 530.990609770211
62.01477 523.992126123454
62.03488 539.997975609171
62.05499 527.002153483872
62.07511 541.009078947802
62.09522 548.997300550067
62.11533 532.953026312678
62.13545 507.006503716366
62.15556 531.964289573758
62.17568 530.005513262504
62.19579 529.002365258222
62.2159 531
62.23602 559.987463904445
62.25613 515.966569329292
62.27624 519.96500540654
62.29636 484.005949987833
62.31647 522.942157548687
62.33659 518.02483521945
62.3567 476
62.37681 540.017705533199
62.39693 507.900550722401
62.41704 459.982077414244
62.43715 472.012964651554
62.45727 452.98662236949
62.47738 497.953121828038
62.49749 513.008644149579
62.51761 506.023149792674
62.53772 570.002307410176
62.55784 491.804499654523
62.57795 442.017353914019
62.59806 477.943701575083
62.61818 482.99740896267
62.63829 490.999841526826
62.6584 489
62.67852 501.97615936917
62.69863 451.955978255311
62.71875 468.100180178474
62.73886 493.017411771362
62.75897 469.999366751705
62.77909 498.98765732047
62.7992 494
62.81931 466.994992546653
62.83943 480.038817148567
62.85954 500.009992866486
62.87965 480.113921145434
62.89977 443.984443879442
62.91988 494.95152151994
62.94 492
62.96011 421.988745759654
62.98022 451.028745484128
63.00034 457.023838109984
63.02045 475.01216702392
63.04056 449.032709102191
63.06068 457.980647755119
63.08079 471.9962280164
63.10091 462.982699515959
63.12102 423.987567386035
63.14113 442.03273025622
63.16125 447.991773268123
63.18136 428.100224507762
63.20147 389.953741871148
63.22159 469.974238659977
63.2417 467
63.26182 480.006575859571
63.28193 460.944044717385
63.30204 424.956826122707
63.32216 414.032756571266
63.34227 398.985454123622
63.36238 430.97187764617
63.3825 448
63.40261 470.99738506721
63.42272 434.957893981376
63.44284 416.019172115213
63.46295 435.983349806389
63.48307 425.014158131848
63.50318 422.010706250585
63.52329 415.987287176575
63.54341 458.008169573512
63.56352 445.998656596984
63.58363 458.988149084721
63.60375 431.977515987983
63.62386 452.94823840676
63.64398 468.984207815757
63.66409 475.011676468666
63.6842 437
63.70432 447.011030639433
63.72443 431.937938469444
63.74454 414.112040866907
63.76466 508.907332555125
63.78477 485.045390878437
63.80489 488.992531561195
63.825 499
63.84511 516.008345815675
63.86523 528.011312135896
63.88534 528.983797889717
63.90545 512.056701057912
63.92557 503.963453902216
63.94568 531.018258498162
63.96579 479.012852387147
63.98591 493.003770451758
64.00602 488.022326824729
64.02614 515.943632066453
64.04625 458.000880414703
64.06636 502.029721294484
64.08648 423.045329626078
64.10659 458.966184932266
64.1267 493
64.14682 448.967900499155
64.16693 446.00691657883
64.18705 446.011755252963
64.20716 454.993215937028
64.22727 452.996173783009
64.24739 454.008309797132
64.2675 427
64.28761 425.993796198723
64.30773 409.014329410814
64.32784 435.002511239031
64.34796 409.028798411175
64.36807 422.969026903516
64.38818 424.023401020363
64.4083 399
64.42841 426.011788307334
64.44852 437.017636684031
64.46864 452.972895392825
64.48875 415.071963460495
64.50886 411.986880692038
64.52898 416.991542970935
64.54909 431.99035414619
64.56921 435.985527207592
64.58932 395.988994346513
64.60943 427.069499436448
64.62955 439.892062527614
64.64966 375.056972599559
64.66977 408.90239300428
64.68989 451.002542760457
64.71 409
64.73012 398.025308137355
64.75023 438.045041516455
64.77034 443.983443375668
64.79046 429.047201031137
64.81057 409.997930488738
64.83068 415.023841125528
64.8508 383
64.87091 429.005665430696
64.89102 395.979772549492
64.91114 416.061925199018
64.93125 425.042748054201
64.95137 405.988777013891
64.97148 427.007041335158
64.99159 399.998536150838
65.01171 427.999092355856
65.03182 389.974335661458
65.05193 405.054023841291
65.07205 434.032380007488
65.09216 429.032437427389
65.11228 410.019693378743
65.13239 405.986841052782
65.1525 435
65.17262 402.005985436818
65.19273 437.99443192842
65.21284 390.951303581106
65.23296 422.888059654519
65.25307 454.017489046523
65.27319 415.016429561648
65.2933 408
65.31341 412.000352079615
65.33353 414.01396462511
65.35364 426.00777556694
65.37375 417.039515177449
65.39387 404.009375160755
65.41398 412.971218596473
65.43409 431.014175547593
65.45421 385.000617209635
65.47432 431.023587149006
65.49444 409.957666429687
65.51455 417.048854723865
65.53466 431.982926082353
65.55478 423.035948522363
65.57489 401.977096345401
65.595 485
65.61512 445.935122495896
65.63523 408.992799233568
65.65535 416.994169413893
65.67546 414.936350745159
65.69557 462.981664147387
65.71569 429.01928065954
65.7358 430
65.75591 456.973884970817
65.77603 381.028673580667
65.79614 476.066574229894
65.81626 419.077020167343
65.83637 442.966371595506
65.85648 422.042072245368
65.8766 393
65.89671 410.009701040076
65.91682 423.015214371883
65.93694 435.994662513893
65.95705 416.06307493454
65.97716 410.941853566429
65.99728 448.992883589599
66.01739 424.009285744367
66.03751 434.011186360136
66.05762 440.979758733437
66.07773 416.0071993544
66.09785 443.018008031203
66.11796 428.98985020025
66.13807 445.032287855561
66.15819 401.001106751236
66.1783 438
66.19842 404.97655329722
66.21853 414.019423101036
66.23864 423.050742228382
66.25876 454.98467437593
66.27887 432.044131128979
66.29898 418.000434772416
66.3191 425
66.33921 429.997733872039
66.35933 425.011922432756
66.37944 433.96946175971
66.39955 404.023399315067
66.41967 425.956613413535
66.43978 436.010828201335
66.45989 416.007677871863
66.48001 415.00477718921
66.50012 421.995031925655
66.52023 401.957140914075
66.54035 389.052111518819
66.56046 423.978551924424
66.58058 408.007273223119
66.60069 418.998295930769
66.6208 402
66.64092 379.977175211184
66.66103 374.048053288363
66.68114 421.034544378419
66.70126 405.017152496282
66.72137 428.938710896145
66.74149 449.011794874638
66.7616 406
66.78171 424.004541417946
66.80183 405.967939080964
66.82194 407.051630060771
66.84205 430.025792110564
66.86217 403.99039224332
66.88228 439.985702323108
66.90239 415.015302544609
66.92251 402.998846135055
66.94262 408.018948447641
66.96274 418.948455726785
66.98285 376.978271717658
67.00296 409.932919576666
67.02308 423.985357826323
67.04319 452.981877722187
67.0633 463
67.08342 391.954641153561
67.10353 405.077796411345
67.12365 451.0351813628
67.14376 425.09662566403
67.16387 392.990679924567
67.18399 422.991416487311
67.2041 418
67.22421 435.009829060478
67.24433 438.976362894402
67.26444 418.991070250447
67.28456 433.962874289565
67.30467 442.997381503138
67.32478 451.971792656066
67.3449 483
67.36501 454.980940424748
67.38512 443.02844129513
67.40524 487.039948409462
67.42535 470.06915119801
67.44546 469.920263090729
67.46558 517.988903059867
67.48569 496.003228388387
67.50581 529.023757451365
67.52592 561.010348465667
67.54603 549.960475579242
67.56615 544.111047840534
67.58626 618.891884931309
67.60637 613.082981981572
67.62649 568.990854833077
67.6466 628
67.66672 607.991059246159
67.68683 626.004816989386
67.70694 603.967922502989
67.72706 588.104165727734
67.74717 540.945107399082
67.76728 624.984487864194
67.7874 560
67.80751 592.025952132743
67.82763 621.023762495887
67.84774 613.900484490958
67.86785 562.974214341758
67.88797 623.942228539289
67.90808 614.011916317361
67.92819 638.973059569871
67.94831 679.996640255885
67.96842 629.945992301511
67.98853 618.056786591004
68.00865 678.115288057385
68.02876 699.956147394476
68.04888 725.991019204409
68.06899 725.99008033926
68.0891 751
68.10922 702.966624066209
68.12933 710.037693950718
68.14944 719.967137097414
68.16956 688.049555124779
68.18967 674.032131874689
68.20979 656.991005465629
68.2299 680
68.25001 611.989288732312
68.27013 650.043489141581
68.29024 630.923584392053
68.31035 603.040410203703
68.33047 599.983987053725
68.35058 585.080279953275
68.3707 481
68.39081 515.024466096358
68.41092 523.976891717933
68.43104 507.039266417817
68.45115 537.966564290454
68.47126 485.063091545938
68.49138 487.012324288788
68.51149 456.002836307884
68.5316 474
68.55172 452.009243616917
68.57183 488.013323019871
68.59195 454.909678486603
68.61206 442.996938242101
68.63217 444.999375016034
68.65229 441.004574069815
68.6724 431
68.69251 421.987405939741
68.71263 389.97594215487
68.73274 410.107595386775
68.75286 459.98126778596
68.77297 440.00338395032
68.79308 459.003495877548
68.8132 426
68.83331 429.007774558948
68.85342 427.969109686452
68.87354 400.042922236166
68.89365 452.951570219768
68.91376 423.060995900961
68.93388 423.984084162044
68.95399 435.997221997917
68.97411 433.995863724478
68.99422 429.006652893096
69.01433 448.035286355948
69.03445 452.926925958216
69.05456 411.033612998775
69.07467 426.97120646576
69.09479 432.997139183851
69.1149 437
69.13502 413.986455975802
69.15513 419.019162050818
69.17524 423.9845453508
69.19536 412.999441039457
69.21547 422.994436249747
69.23558 421.988199142508
69.2557 435
69.27581 400.99311435148
69.29593 420.038364518044
69.31604 429.995860877434
69.33615 421.035560889093
69.35627 411.991996077703
69.37638 428.983356876792
69.39649 429.010568052244
69.41661 393.98174596368
69.43672 385.035920114728
69.45683 438.036469889432
69.47695 423.95736825179
69.49706 418.031211760689
69.51718 394.009853449955
69.53729 413.978506384369
69.5574 445
69.57752 403.966902147466
69.59763 419.097449156256
69.61774 469.940625687234
69.63786 384.100063785499
69.65797 409.92297016543
69.67809 434.00310684349
69.6982 412
69.71831 411.009644368672
69.73843 429.99546998686
69.75854 409.979258953603
69.77865 422.941345233442
69.79877 425.058082652
69.81888 377.005617099672
69.839 410
69.85911 393.995882757861
69.87922 406.00492579919
69.89934 398.000836089222
69.91945 414.04363193533
69.93956 416.032975847122
69.95968 397.999297382338
69.97979 427.975308947769
69.9999 452
70.02002 400.015560215281
70.04013 470.043464964458
70.06025 429.893961696113
70.08036 419.022428550141
70.10047 400.002888936148
70.12059 412.999578794143
70.1407 407
70.16081 440.000933765859
70.18093 415.999831432102
70.20104 442.009631334794
70.22116 408.085325258014
70.24127 393.965814028677
70.26138 424.997997015536
70.2815 395
70.30161 390.002036735284
70.32172 392.002367400846
70.34184 406.068569645113
70.36195 438.998627696555
70.38207 417.005776232527
70.40218 429.015120158292
70.42229 391.006562656284
70.44241 419.018843142705
70.46252 435.996610661353
70.48263 419.968154533175
70.50275 395.92217557444
70.52286 384.917575108105
70.54297 439.007925030478
70.56309 387.006778356129
70.5832 427
70.60332 409.987641176307
70.62343 425.029994973036
70.64354 429.983998222216
70.66366 414.041293873521
70.68377 404.975813520488
70.70388 425.011175596382
70.724 394
70.74411 416.000276231698
70.76423 384.962357070836
70.78434 396.080787279197
70.80445 427.028121660888
70.82457 390.020192700534
70.84468 405.997781036043
70.86479 388.999154552667
70.88491 414.007410463367
70.90502 412.007603845613
70.92513 430.003878088585
70.94525 403.894891500724
70.96536 396.866236669004
70.98548 481.992716725457
71.00559 414.022433078662
71.0257 430
71.04582 419.995196534527
71.06593 431.008125764175
71.08604 417.954076999829
71.10616 399.017777496264
71.12627 402.979059275952
71.14639 417.995152475036
71.1665 420
71.18661 413.993147017615
71.20673 409.036031210348
71.22684 444.014663429907
71.24695 407.147230324019
71.26707 372.975096979628
71.28718 411.992957745247
71.3073 399
71.32741 461.003484112836
71.34752 406.962757613103
71.36764 423.05763540247
71.38775 433.00136967398
71.40786 420.071415223089
71.42798 396.963919345579
71.44809 455.00220866712
71.4682 400
71.48832 453.035505835988
71.50843 439.979505640239
71.52855 443.980907915875
71.54866 422.018810963818
71.56877 428.999049042426
71.58889 418.002493312067
71.609 432
71.62911 455.001173800852
71.64923 438.974791581672
71.66934 434.004548053487
71.68946 434.014319164231
71.70957 425.996261474219
71.72968 436.993942260908
71.7498 432
71.76991 442.022000705909
71.79002 483.987984500075
71.81014 429.936029265028
71.83025 440.970781444578
71.85037 434.999508680481
71.87048 450.983210577961
71.89059 451.009851418697
71.91071 420.986267965152
71.93082 410.007231648393
71.95093 426.020293374959
71.97105 434.025647520624
71.99116 434.061106849056
72.01127 402.970835327856
72.03139 448.002933461347
72.0515 386
72.07162 411.082006848107
72.09173 478.994275254485
72.11184 425.955059309892
72.13196 447.997721226399
72.15207 418.008908100027
72.17218 451.965705785477
72.1923 464
72.21241 466.993028638726
72.23253 436.953531733672
72.25264 419.99531103086
72.27275 429.95159500158
72.29287 445.996411019077
72.31298 439.998979436097
72.33309 458.983863482106
72.35321 480.996105557739
72.37332 457.995847869111
72.39344 470.989249286012
72.41355 443.95898517444
72.43366 449.983275357064
72.45378 456.978199664504
72.47389 474.011986185848
72.494 433
72.51412 468.998700548589
72.53423 419.945254187913
72.55434 430.06236870335
72.57446 440.056962952471
72.59457 412.952252794274
72.61469 473.000422381392
72.6348 424
72.65491 485.009321655018
72.67503 448.993163199204
72.69514 481.982038729821
72.71525 427.062060729381
72.73537 452.967224309143
72.75548 448.996856757685
72.7756 466
72.79571 443.982324385198
72.81582 413.981886866232
72.83594 423.090556887093
72.85605 477.93114787052
72.87616 464.06693552373
72.89628 436.018916005716
72.91639 425.003669564926
72.9365 424
72.95662 436.993357601723
72.97673 432.056965880196
72.99685 487.01039290331
73.01696 445.031660208198
73.03707 465.00950629399
73.05719 424.010605049918
73.0773 442
73.09741 444.996917399753
73.11753 449.034641028551
73.13764 474.000846767439
73.15776 453.025439835207
73.17787 458.991289308704
73.19798 458.99257979124
73.2181 474
73.23821 474.000201591615
73.25832 478.001103965654
73.27844 477.008257080632
73.29855 476.058618376917
73.31867 453.968327738992
73.33878 500.98669882753
73.35889 473.008695843785
73.37901 477.993774550298
73.39912 461.031330094834
73.41923 525.041469054361
73.43935 493.890381200494
73.45946 481.960983569077
73.47957 505.001659467313
73.49969 479.011903347498
73.5198 467
73.53992 453.014555356056
73.56003 483.010113365078
73.58014 458.952268414154
73.60026 448.031100350458
73.62037 427.013813462467
73.64048 434.986540974059
73.6606 439
73.68071 428.000481669595
73.70083 436.998516970734
73.72094 432.029730608238
73.74105 462.952830948509
73.76117 456.02830838705
73.78128 440.01195340012
73.80139 433.99950622796
73.82151 429.989058189543
73.84162 402.993990769065
73.86174 431.09818530536
73.88185 468.009121425273
73.90196 439.079298256453
73.92208 426.967238137471
73.94219 468.002524316077
73.9623 415
73.98242 406.013033336416
74.00253 414.994156480409
74.02264 399.969069501809
74.04276 403.934432996425
74.06287 439.994477376264
74.08299 421.996743880966
74.1031 449
74.12321 410.986131175823
74.14333 409.99625353175
74.16344 395.985704015739
74.18355 407.937613480524
74.20367 430.982488152233
74.22378 430.005880011906
74.2439 429
74.26401 431.994128373033
74.28412 414.999272138725
74.30424 419.957709764793
74.32435 372.106413915405
74.34446 360.968682431608
74.36458 394.951687375227
74.38469 425.008956348758
74.40481 388.001316939508
74.42492 432.028434021746
74.44503 423.986360062073
74.46515 421.945260885509
74.48526 391.003374247052
74.50537 415.98356308523
74.52549 396.013517906592
74.5456 394
74.56571 431.002611693139
74.58583 404.970463482242
74.60594 419.075945927965
74.62606 445.0258910462
74.64617 405.042327539424
74.66628 404.993737414177
74.6864 398
74.70651 387.005499841499
74.72662 419.036489976779
74.74674 426.924583152556
74.76685 380.00455348292
74.78697 431.909915454371
74.80708 449.032403633053
74.82719 394.021810234995
74.84731 392.018360430428
74.86742 436.022109137052
74.88753 426.968723008466
74.90765 408.95169588935
74.92776 383.065647034806
74.94787 365.966165746192
74.96799 407.991550886315
74.9881 397
75.00822 436.05699335208
