3.00117 21310
3.02128 20541
3.0414 20164
3.06151 20138
3.08162 19113
3.10174 18792
3.12185 18107
3.14197 17686
3.16208 17366
3.18219 16385
3.20231 16414
3.22242 15633
3.24253 15122
3.26265 14922
3.28276 14326
3.30288 14002
3.32299 13619
3.3431 13226
3.36322 12975
3.38333 12105
3.40344 11986
3.42356 11430
3.44367 11076
3.46379 11067
3.4839 10339
3.50401 10064
3.52413 9639
3.54424 9581
3.56435 9194
3.58447 8587
3.60458 8519
3.62469 8152
3.64481 7952
3.66492 7632
3.68504 7279
3.70515 7078
3.72526 6746
3.74538 6466
3.76549 6249
3.7856 5950
3.80572 5856
3.82583 5607
3.84595 5305
3.86606 5279
3.88617 4940
3.90629 4787
3.9264 4440
3.94651 4409
3.96663 4327
3.98674 3767
4.00686 3861
4.02697 3723
4.04708 3406
4.0672 3603
4.08731 3143
4.10742 3169
4.12754 3051
4.14765 2801
4.16776 2931
4.18788 2538
4.20799 2486
4.22811 2537
4.24822 2334
4.26833 2439
4.28845 2107
4.30856 2174
4.32867 2085
4.34879 2090
4.3689 2019
4.38902 1902
4.40913 1923
4.42924 1835
4.44936 1843
4.46947 1813
4.48958 1651
4.5097 1717
4.52981 1680
4.54992 1637
4.57004 1611
4.59015 1480
4.61027 1453
4.63038 1549
4.65049 1493
4.67061 1404
4.69072 1345
4.71083 1405
4.73095 1340
4.75106 1351
4.77118 1355
4.79129 1311
4.8114 1279
4.83152 1329
4.85163 1241
4.87174 1121
4.89186 1267
4.91197 1140
4.93209 1217
4.9522 1144
4.97231 1131
4.99243 1086
5.01254 1083
5.03265 1125
5.05277 1083
5.07288 997
5.09299 1014
5.11311 996
5.13322 1047
5.15334 1009
5.17345 1022
5.19356 993
5.21368 998
5.23379 1012
5.2539 985
5.27402 926
5.29413 938
5.31425 880
5.33436 926
5.35447 934
5.37459 989
5.3947 893
5.41481 876
5.43493 934
5.45504 904
5.47516 855
5.49527 877
5.51538 838
5.5355 858
5.55561 869
5.57572 874
5.59584 831
5.61595 836
5.63606 853
5.65618 877
5.67629 800
5.69641 831
5.71652 883
5.73663 848
5.75675 851
5.77686 910
5.79697 800
5.81709 876
5.8372 853
5.85732 818
5.87743 813
5.89754 852
5.91766 806
5.93777 819
5.95788 790
5.978 834
5.99811 832
6.01823 860
6.03834 849
6.05845 901
6.07857 890
6.09868 865
6.11879 901
6.13891 845
6.15902 844
6.17913 866
6.19925 833
6.21936 848
6.23948 766
6.25959 775
6.2797 809
6.29982 728
6.31993 688
6.34004 711
6.36016 685
6.38027 625
6.40039 609
6.4205 617
6.44061 617
6.46073 572
6.48084 610
6.50095 588
6.52107 598
6.54118 555
6.56129 530
6.58141 538
6.60152 509
6.62164 518
6.64175 546
6.66186 515
6.68198 499
6.70209 526
6.7222 448
6.74232 511
6.76243 536
6.78255 506
6.80266 535
6.82277 490
6.84289 459
6.863 506
6.88311 507
6.90323 479
6.92334 481
6.94346 445
6.96357 484
6.98368 452
7.0038 464
7.02391 463
7.04402 461
7.06414 514
7.08425 472
7.10436 482
7.12448 431
7.14459 425
7.16471 468
7.18482 481
7.20493 505
7.22505 439
7.24516 443
7.26527 478
7.28539 451
7.3055 507
7.32562 441
7.34573 418
7.36584 466
7.38596 471
7.40607 415
7.42618 446
7.4463 492
7.46641 432
7.48653 475
7.50664 488
7.52675 426
7.54687 445
7.56698 452
7.58709 431
7.60721 398
7.62732 439
7.64743 438
7.66755 469
7.68766 454
7.70778 457
7.72789 444
7.748 425
7.76812 449
7.78823 423
7.80834 453
7.82846 462
7.84857 425
7.86869 437
7.8888 417
7.90891 470
7.92903 497
7.94914 445
7.96925 437
7.98937 427
8.00948 483
8.0296 498
8.04971 482
8.06982 529
8.08994 467
8.11005 499
8.13016 454
8.15028 487
8.17039 519
8.1905 547
8.21062 526
8.23073 560
8.25085 540
8.27096 529
8.29107 582
8.31119 560
8.3313 522
8.35141 628
8.37153 578
8.39164 592
8.41176 571
8.43187 597
8.45198 622
8.4721 623
8.49221 568
8.51232 604
8.53244 565
8.55255 585
8.57266 592
8.59278 608
8.61289 571
8.63301 602
8.65312 531
8.67323 592
8.69335 527
8.71346 530
8.73357 496
8.75369 555
8.7738 514
8.79392 579
8.81403 489
8.83414 522
8.85426 558
8.87437 552
8.89448 530
8.9146 489
8.93471 462
8.95483 462
8.97494 437
8.99505 465
9.01517 409
9.03528 468
9.05539 401
9.07551 451
9.09562 399
9.11573 413
9.13585 395
9.15596 365
9.17608 380
9.19619 372
9.2163 394
9.23642 358
9.25653 363
9.27664 375
9.29676 309
9.31687 347
9.33699 360
9.3571 348
9.37721 327
9.39733 376
9.41744 400
9.43755 388
9.45767 342
9.47778 366
9.4979 336
9.51801 356
9.53812 356
9.55824 350
9.57835 338
9.59846 352
9.61858 361
9.63869 383
9.6588 324
9.67892 373
9.69903 374
9.71915 365
9.73926 344
9.75937 367
9.77949 352
9.7996 333
9.81971 317
9.83983 353
9.85994 373
9.88006 384
9.90017 344
9.92028 385
9.9404 320
9.96051 345
9.98062 350
10.00074 304
10.02085 335
10.04097 330
10.06108 326
10.08119 337
10.10131 333
10.12142 366
10.14153 341
10.16165 319
10.18176 365
10.20187 338
10.22199 343
10.2421 342
10.26222 360
10.28233 366
10.30244 374
10.32256 348
10.34267 365
10.36278 358
10.3829 383
10.40301 392
10.42313 400
10.44324 355
10.46335 397
10.48347 396
10.50358 389
10.52369 395
10.54381 335
10.56392 343
10.58403 330
10.60415 330
10.62426 329
10.64438 334
10.66449 342
10.6846 337
10.70472 361
10.72483 303
10.74494 352
10.76506 337
10.78517 362
10.80529 357
10.8254 332
10.84551 315
10.86563 353
10.88574 363
10.90585 316
10.92597 343
10.94608 363
10.9662 386
10.98631 365
11.00642 333
11.02654 331
11.04665 354
11.06676 347
11.08688 358
11.10699 347
11.1271 375
11.14722 362
11.16733 317
11.18745 341
11.20756 352
11.22767 362
11.24779 366
11.2679 377
11.28801 317
11.30813 318
11.32824 345
11.34836 363
11.36847 295
11.38858 313
11.4087 358
11.42881 335
11.44892 376
11.46904 350
11.48915 341
11.50927 325
11.52938 362
11.54949 329
11.56961 361
11.58972 348
11.60983 331
11.62995 349
11.65006 379
11.67017 324
11.69029 336
11.7104 407
11.73052 371
11.75063 350
11.77074 338
11.79086 379
11.81097 346
11.83108 368
11.8512 386
11.87131 382
11.89143 341
11.91154 411
11.93165 359
11.95177 395
11.97188 366
11.99199 404
12.01211 400
12.03222 385
12.05234 378
12.07245 374
12.09256 417
12.11268 394
12.13279 419
12.1529 423
12.17302 423
12.19313 469
12.21324 471
12.23336 407
12.25347 477
12.27359 485
12.2937 509
12.31381 508
12.33393 497
12.35404 537
12.37415 564
12.39427 559
12.41438 560
12.4345 533
12.45461 549
12.47472 564
12.49484 524
12.51495 476
12.53506 499
12.55518 508
12.57529 432
12.5954 410
12.61552 379
12.63563 413
12.65575 389
12.67586 360
12.69597 333
12.71609 342
12.7362 398
12.75631 380
12.77643 360
12.79654 324
12.81666 324
12.83677 372
12.85688 325
12.877 330
12.89711 373
12.91722 318
12.93734 348
12.95745 328
12.97757 322
12.99768 337
13.01779 334
13.03791 327
13.05802 372
13.07813 344
13.09825 330
13.11836 321
13.13847 300
13.15859 347
13.1787 309
13.19882 370
13.21893 345
13.23904 317
13.25916 351
13.27927 351
13.29938 333
13.3195 343
13.33961 329
13.35973 348
13.37984 339
13.39995 338
13.42007 356
13.44018 332
13.46029 347
13.48041 356
13.50052 349
13.52064 355
13.54075 378
13.56086 347
13.58098 344
13.60109 339
13.6212 357
13.64132 351
13.66143 384
13.68154 347
13.70166 375
13.72177 344
13.74189 377
13.762 394
13.78211 396
13.80223 396
13.82234 412
13.84245 447
13.86257 400
13.88268 392
13.9028 349
13.92291 397
13.94302 387
13.96314 342
13.98325 352
14.00336 317
14.02348 402
14.04359 360
14.06371 280
14.08382 348
14.10393 333
14.12405 341
14.14416 355
14.16427 334
14.18439 330
14.2045 342
14.22461 321
14.24473 336
14.26484 322
14.28496 357
14.30507 328
14.32518 322
14.3453 353
14.36541 329
14.38552 365
14.40564 337
14.42575 318
14.44587 307
14.46598 333
14.48609 298
14.50621 327
14.52632 317
14.54643 326
14.56655 318
14.58666 325
14.60677 305
14.62689 312
14.647 304
14.66712 354
14.68723 327
14.70734 321
14.72746 369
14.74757 339
14.76768 331
14.7878 343
14.80791 310
14.82803 356
14.84814 336
14.86825 314
14.88837 339
14.90848 357
14.92859 329
14.94871 336
14.96882 367
14.98894 298
15.00905 345
15.02916 352
15.04928 318
15.06939 337
15.0895 341
15.10962 355
15.12973 342
15.14984 306
15.16996 350
15.19007 284
15.21019 320
15.2303 295
15.25041 362
15.27053 329
15.29064 327
15.31075 283
15.33087 338
15.35098 320
15.3711 309
15.39121 308
15.41132 284
15.43144 321
15.45155 327
15.47166 343
15.49178 295
15.51189 303
15.53201 330
15.55212 340
15.57223 313
15.59235 329
15.61246 301
15.63257 322
15.65269 320
15.6728 320
15.69291 348
15.71303 301
15.73314 332
15.75326 325
15.77337 337
15.79348 314
15.8136 339
15.83371 301
15.85382 344
15.87394 342
15.89405 309
15.91417 311
15.93428 309
15.95439 353
15.97451 293
15.99462 329
16.01473 329
16.03485 302
16.05496 353
16.07508 330
16.09519 352
16.1153 311
16.13542 318
16.15553 300
16.17564 335
16.19576 317
16.21587 313
16.23598 327
16.2561 333
16.27621 349
16.29633 331
16.31644 357
16.33655 358
16.35667 353
16.37678 344
16.39689 328
16.41701 337
16.43712 312
16.45724 319
16.47735 353
16.49746 321
16.51758 343
16.53769 317
16.5578 360
16.57792 325
16.59803 350
16.61814 384
16.63826 297
16.65837 329
16.67849 309
16.6986 302
16.71871 305
16.73883 307
16.75894 338
16.77905 302
16.79917 344
16.81928 327
16.8394 342
16.85951 309
16.87962 330
16.89974 350
16.91985 343
16.93996 329
16.96008 337
16.98019 308
17.00031 326
17.02042 324
17.04053 345
17.06065 316
17.08076 287
17.10087 339
17.12099 331
17.1411 334
17.16121 329
17.18133 328
17.20144 355
17.22156 329
17.24167 361
17.26178 319
17.2819 318
17.30201 338
17.32212 333
17.34224 354
17.36235 361
17.38247 343
17.40258 366
17.42269 387
17.44281 372
17.46292 321
17.48303 365
17.50315 359
17.52326 356
17.54338 410
17.56349 363
17.5836 367
17.60372 376
17.62383 371
17.64394 418
17.66406 386
17.68417 397
17.70428 374
17.7244 389
17.74451 381
17.76463 411
17.78474 410
17.80485 405
17.82497 369
17.84508 369
17.86519 357
17.88531 381
17.90542 337
17.92554 378
17.94565 339
17.96576 335
17.98588 339
18.00599 370
18.0261 373
18.04622 354
18.06633 389
18.08645 334
18.10656 354
18.12667 356
18.14679 392
18.1669 361
18.18701 348
18.20713 351
18.22724 367
18.24735 360
18.26747 353
18.28758 369
18.3077 360
18.32781 331
18.34792 355
18.36804 361
18.38815 351
18.40826 330
18.42838 395
18.44849 372
18.46861 405
18.48872 372
18.50883 391
18.52895 405
18.54906 377
18.56917 380
18.58929 420
18.6094 374
18.62951 395
18.64963 408
18.66974 405
18.68986 436
18.70997 435
18.73008 399
18.7502 425
18.77031 409
18.79042 386
18.81054 428
18.83065 380
18.85077 371
18.87088 353
18.89099 371
18.91111 346
18.93122 376
18.95133 344
18.97145 403
18.99156 351
19.01168 376
19.03179 379
19.0519 347
19.07202 389
19.09213 444
19.11224 382
19.13236 384
19.15247 430
19.17258 401
19.1927 495
19.21281 481
19.23293 436
19.25304 471
19.27315 515
19.29327 507
19.31338 451
19.33349 506
19.35361 485
19.37372 474
19.39384 531
19.41395 469
19.43406 509
19.45418 519
19.47429 550
19.4944 552
19.51452 537
19.53463 592
19.55475 614
19.57486 621
19.59497 714
19.61509 796
19.6352 753
19.65531 825
19.67543 858
19.69554 846
19.71565 848
19.73577 826
19.75588 857
19.776 839
19.79611 799
19.81622 857
19.83634 755
19.85645 769
19.87656 710
19.89668 688
19.91679 721
19.93691 582
19.95702 603
19.97713 584
19.99725 634
20.01736 594
20.03747 578
20.05759 606
20.0777 548
20.09782 549
20.11793 547
20.13804 537
20.15816 543
20.17827 541
20.19838 545
20.2185 545
20.23861 507
20.25872 521
20.27884 494
20.29895 520
20.31907 523
20.33918 489
20.35929 517
20.37941 510
20.39952 544
20.41963 512
20.43975 540
20.45986 559
20.47998 505
20.50009 499
20.5202 515
20.54032 544
20.56043 521
20.58054 575
20.60066 638
20.62077 662
20.64088 747
20.661 825
20.68111 966
20.70123 1100
20.72134 1230
20.74145 1489
20.76157 1664
20.78168 1865
20.80179 1824
20.82191 1923
20.84202 1776
20.86214 1508
20.88225 1280
20.90236 1208
20.92248 908
20.94259 828
20.9627 752
20.98282 699
21.00293 624
21.02305 661
21.04316 621
21.06327 550
21.08339 614
21.1035 509
21.12361 489
21.14373 505
21.16384 514
21.18395 509
21.20407 491
21.22418 457
21.2443 471
21.26441 488
21.28452 488
21.30464 460
21.32475 467
21.34486 436
21.36498 468
21.38509 474
21.40521 463
21.42532 486
21.44543 450
21.46555 450
21.48566 477
21.50577 450
21.52589 468
21.546 473
21.56612 443
21.58623 468
21.60634 457
21.62646 448
21.64657 503
21.66668 483
21.6868 518
21.70691 483
21.72702 448
21.74714 440
21.76725 455
21.78737 432
21.80748 506
21.82759 515
21.84771 465
21.86782 552
21.88793 553
21.90805 622
21.92816 617
21.94828 650
21.96839 732
21.9885 626
22.00862 693
22.02873 635
22.04884 581
22.06896 576
22.08907 498
22.10919 513
22.1293 415
22.14941 422
22.16953 442
22.18964 491
22.20975 434
22.22987 437
22.24998 463
22.27009 451
22.29021 465
22.31032 428
22.33044 422
22.35055 430
22.37066 430
22.39078 427
22.41089 413
22.431 431
22.45112 445
22.47123 434
22.49135 396
22.51146 449
22.53157 447
22.55169 435
22.5718 467
22.59191 455
22.61203 442
22.63214 430
22.65225 494
22.67237 437
22.69248 438
22.7126 419
22.73271 477
22.75282 471
22.77294 441
22.79305 438
22.81316 459
22.83328 487
22.85339 490
22.87351 551
22.89362 543
22.91373 488
22.93385 525
22.95396 527
22.97407 550
22.99419 515
23.0143 584
23.03442 506
23.05453 564
23.07464 512
23.09476 498
23.11487 497
23.13498 513
23.1551 466
23.17521 479
23.19532 474
23.21544 489
23.23555 480
23.25567 435
23.27578 448
23.29589 456
23.31601 437
23.33612 495
23.35623 534
23.37635 483
23.39646 512
23.41658 525
23.43669 555
23.4568 532
23.47692 587
23.49703 575
23.51714 541
23.53726 612
23.55737 599
23.57749 608
23.5976 553
23.61771 514
23.63783 544
23.65794 524
23.67805 497
23.69817 536
23.71828 514
23.73839 484
23.75851 459
23.77862 536
23.79874 502
23.81885 561
23.83896 447
23.85908 490
23.87919 520
23.8993 487
23.91942 522
23.93953 501
23.95965 556
23.97976 539
23.99987 524
24.01999 568
24.0401 548
24.06021 545
24.08033 587
24.10044 610
24.12056 607
24.14067 619
24.16078 604
24.1809 633
24.20101 635
24.22112 628
24.24124 573
24.26135 629
24.28146 543
24.30158 555
24.32169 509
24.34181 543
24.36192 518
24.38203 485
24.40215 507
24.42226 477
24.44237 523
24.46249 456
24.4826 445
24.50272 475
24.52283 472
24.54294 452
24.56306 480
24.58317 478
24.60328 484
24.6234 459
24.64351 450
24.66362 449
24.68374 451
24.70385 452
24.72397 523
24.74408 467
24.76419 441
24.78431 514
24.80442 500
24.82453 481
24.84465 566
24.86476 487
24.88488 535
24.90499 528
24.9251 605
24.94522 582
24.96533 553
24.98544 568
25.00556 508
25.02567 531
25.04579 536
25.0659 587
25.08601 548
25.10613 599
25.12624 573
25.14635 572
25.16647 566
25.18658 605
25.20669 585
25.22681 587
25.24692 619
25.26704 607
25.28715 646
25.30726 626
25.32738 600
25.34749 608
25.3676 592
25.38772 628
25.40783 590
25.42795 576
25.44806 636
25.46817 636
25.48829 637
25.5084 609
25.52851 554
25.54863 639
25.56874 636
25.58886 576
25.60897 566
25.62908 588
25.6492 565
25.66931 543
25.68942 503
25.70954 503
25.72965 535
25.74976 473
25.76988 494
25.78999 476
25.81011 515
25.83022 513
25.85033 482
25.87045 489
25.89056 495
25.91067 495
25.93079 483
25.9509 506
25.97102 508
25.99113 517
26.01124 507
26.03136 524
26.05147 524
26.07158 507
26.0917 563
26.11181 622
26.13193 540
26.15204 606
26.17215 564
26.19227 668
26.21238 647
26.23249 699
26.25261 758
26.27272 840
26.29283 888
26.31295 1035
26.33306 1092
26.35318 1273
26.37329 1446
26.3934 1813
26.41352 2095
26.43363 2567
26.45374 3103
26.47386 4007
26.49397 4625
26.51409 5619
26.5342 6270
26.55431 6770
26.57443 7050
26.59454 7026
26.61465 6238
26.63477 5479
26.65488 4577
26.67499 3585
26.69511 2676
26.71522 2051
26.73534 1537
26.75545 1247
26.77556 982
26.79568 897
26.81579 809
26.8359 789
26.85602 808
26.87613 764
26.89625 739
26.91636 760
26.93647 735
26.95659 721
26.9767 683
26.99681 694
27.01693 671
27.03704 656
27.05716 682
27.07727 631
27.09738 608
27.1175 582
27.13761 550
27.15772 590
27.17784 606
27.19795 592
27.21806 578
27.23818 610
27.25829 642
27.27841 632
27.29852 710
27.31863 713
27.33875 753
27.35886 720
27.37897 771
27.39909 794
27.4192 778
27.43932 811
27.45943 782
27.47954 754
27.49966 703
27.51977 739
27.53988 679
27.56 713
27.58011 721
27.60023 705
27.62034 740
27.64045 765
27.66057 871
27.68068 800
27.70079 879
27.72091 866
27.74102 882
27.76113 897
27.78125 863
27.80136 919
27.82148 970
27.84159 1007
27.8617 983
27.88182 927
27.90193 912
27.92204 843
27.94216 819
27.96227 761
27.98239 767
28.0025 697
28.02261 678
28.04273 670
28.06284 617
28.08295 589
28.10307 603
28.12318 617
28.1433 614
28.16341 575
28.18352 589
28.20364 558
28.22375 539
28.24386 541
28.26398 552
28.28409 542
28.3042 506
28.32432 487
28.34443 467
28.36455 472
28.38466 449
28.40477 465
28.42489 471
28.445 495
28.46511 460
28.48523 477
28.50534 457
28.52546 466
28.54557 465
28.56568 437
28.5858 447
28.60591 463
28.62602 450
28.64614 467
28.66625 422
28.68636 459
28.70648 434
28.72659 450
28.74671 447
28.76682 419
28.78693 420
28.80705 468
28.82716 462
28.84727 457
28.86739 408
28.8875 497
28.90762 478
28.92773 481
28.94784 447
28.96796 473
28.98807 496
29.00818 442
29.0283 527
29.04841 475
29.06853 525
29.08864 491
29.10875 515
29.12887 578
29.14898 600
29.16909 594
29.18921 640
29.20932 705
29.22943 796
29.24955 837
29.26966 951
29.28978 919
29.30989 960
29.33 1023
29.35012 1073
29.37023 1110
29.39034 1089
29.41046 964
29.43057 965
29.45069 899
29.4708 773
29.49091 690
29.51103 656
29.53114 591
29.55125 588
29.57137 576
29.59148 522
29.6116 562
29.63171 548
29.65182 536
29.67194 545
29.69205 566
29.71216 547
29.73228 568
29.75239 529
29.7725 549
29.79262 562
29.81273 525
29.83285 520
29.85296 506
29.87307 505
29.89319 547
29.9133 511
29.93341 518
29.95353 523
29.97364 531
29.99376 531
30.01387 540
30.03398 532
30.0541 523
30.07421 516
30.09432 529
30.11444 546
30.13455 488
30.15467 494
30.17478 512
30.19489 506
30.21501 474
30.23512 486
30.25523 524
30.27535 507
30.29546 537
30.31557 514
30.33569 526
30.3558 535
30.37592 507
30.39603 526
30.41614 522
30.43626 499
30.45637 485
30.47648 487
30.4966 476
30.51671 481
30.53683 461
30.55694 424
30.57705 458
30.59717 437
30.61728 484
30.63739 464
30.65751 469
30.67762 462
30.69773 476
30.71785 466
30.73796 479
30.75808 467
30.77819 448
30.7983 511
30.81842 491
30.83853 448
30.85864 484
30.87876 466
30.89887 454
30.91899 475
30.9391 461
30.95921 437
30.97933 420
30.99944 463
31.01955 407
31.03967 419
31.05978 410
31.0799 445
31.10001 463
31.12012 439
31.14024 438
31.16035 481
31.18046 470
31.20058 508
31.22069 451
31.2408 468
31.26092 455
31.28103 465
31.30115 460
31.32126 392
31.34137 446
31.36149 406
31.3816 409
31.40171 414
31.42183 438
31.44194 408
31.46206 444
31.48217 413
31.50228 424
31.5224 416
31.54251 381
31.56262 392
31.58274 394
31.60285 409
31.62297 379
31.64308 397
31.66319 410
31.68331 409
31.70342 392
31.72353 388
31.74365 382
31.76376 396
31.78387 418
31.80399 391
31.8241 432
31.84422 410
31.86433 406
31.88444 408
31.90456 426
31.92467 396
31.94478 409
31.9649 401
31.98501 409
32.00513 417
32.02524 424
32.04535 390
32.06547 433
32.08558 404
32.10569 384
32.12581 395
32.14592 425
32.16604 406
32.18615 383
32.20626 371
32.22638 414
32.24649 376
32.2666 406
32.28672 386
32.30683 372
32.32694 422
32.34706 383
32.36717 377
32.38729 383
32.4074 383
32.42751 388
32.44763 435
32.46774 380
32.48785 344
32.50797 383
32.52808 380
32.5482 405
32.56831 367
32.58842 390
32.60854 375
32.62865 355
32.64876 344
32.66888 358
32.68899 339
32.7091 369
32.72922 372
32.74933 358
32.76945 312
32.78956 352
32.80967 400
32.82979 375
32.8499 357
32.87001 389
32.89013 363
32.91024 407
32.93036 363
32.95047 396
32.97058 374
32.9907 391
33.01081 365
33.03092 409
33.05104 391
33.07115 374
33.09127 418
33.11138 402
33.13149 374
33.15161 382
33.17172 431
33.19183 359
33.21195 418
33.23206 415
33.25217 385
33.27229 354
33.2924 364
33.31252 369
33.33263 388
33.35274 393
33.37286 390
33.39297 385
33.41308 380
33.4332 405
33.45331 368
33.47343 359
33.49354 414
33.51365 360
33.53377 421
33.55388 418
33.57399 414
33.59411 399
33.61422 371
33.63434 380
33.65445 386
33.67456 430
33.69468 434
33.71479 415
33.7349 449
33.75502 427
33.77513 418
33.79524 451
33.81536 470
33.83547 462
33.85559 463
33.8757 441
33.89581 439
33.91593 441
33.93604 475
33.95615 486
33.97627 464
33.99638 463
34.0165 456
34.03661 516
34.05672 481
34.07684 513
34.09695 439
34.11706 469
34.13718 497
34.15729 491
34.17741 492
34.19752 470
34.21763 493
34.23775 540
34.25786 602
34.27797 551
34.29809 591
34.3182 616
34.33831 591
34.35843 635
34.37854 566
34.39866 620
34.41877 636
34.43888 655
34.459 673
34.47911 706
34.49922 684
34.51934 707
34.53945 693
34.55957 728
34.57968 688
34.59979 746
34.61991 739
34.64002 732
34.66013 675
34.68025 760
34.70036 750
34.72047 746
34.74059 752
34.7607 733
34.78082 809
34.80093 791
34.82104 772
34.84116 738
34.86127 718
34.88138 773
34.9015 760
34.92161 686
34.94173 797
34.96184 737
34.98195 739
35.00207 693
35.02218 648
35.04229 696
35.06241 668
35.08252 627
35.10264 634
35.12275 600
35.14286 597
35.16298 648
35.18309 601
35.2032 609
35.22332 571
35.24343 541
35.26354 607
35.28366 597
35.30377 558
35.32389 578
35.344 525
35.36411 595
35.38423 568
35.40434 522
35.42445 565
35.44457 565
35.46468 526
35.4848 552
35.50491 547
35.52502 496
35.54514 542
35.56525 518
35.58536 504
35.60548 503
35.62559 554
35.64571 486
35.66582 496
35.68593 515
35.70605 512
35.72616 465
35.74627 529
35.76639 499
35.7865 515
35.80661 447
35.82673 495
35.84684 517
35.86696 499
35.88707 531
35.90718 514
35.9273 521
35.94741 549
35.96752 558
35.98764 514
36.00775 542
36.02787 496
36.04798 474
36.06809 511
36.08821 485
36.10832 487
36.12843 489
36.14855 461
36.16866 470
36.18878 521
36.20889 482
36.229 499
36.24912 493
36.26923 541
36.28934 483
36.30946 634
36.32957 647
36.34968 689
36.3698 761
36.38991 773
36.41003 861
36.43014 881
36.45025 906
36.47037 958
36.49048 882
36.51059 880
36.53071 822
36.55082 852
36.57094 794
36.59105 647
36.61116 697
36.63128 585
36.65139 611
36.6715 555
36.69162 546
36.71173 528
36.73184 517
36.75196 513
36.77207 477
36.79219 533
36.8123 545
36.83241 512
36.85253 530
36.87264 527
36.89275 502
36.91287 503
36.93298 552
36.9531 466
36.97321 480
36.99332 508
37.01344 521
37.03355 475
37.05366 514
37.07378 495
37.09389 504
37.11401 486
37.13412 520
37.15423 533
37.17435 507
37.19446 514
37.21457 502
37.23469 516
37.2548 517
37.27491 563
37.29503 503
37.31514 536
37.33526 520
37.35537 516
37.37548 549
37.3956 554
37.41571 560
37.43582 509
37.45594 549
37.47605 528
37.49617 584
37.51628 599
37.53639 555
37.55651 560
37.57662 579
37.59673 550
37.61685 574
37.63696 579
37.65708 541
37.67719 484
37.6973 491
37.71742 519
37.73753 506
37.75764 529
37.77776 469
37.79787 432
37.81798 478
37.8381 486
37.85821 452
37.87833 414
37.89844 434
37.91855 442
37.93867 440
37.95878 438
37.97889 367
37.99901 475
38.01912 395
38.03924 423
38.05935 461
38.07946 422
38.09958 385
38.11969 399
38.1398 434
38.15992 413
38.18003 372
38.20015 382
38.22026 393
38.24037 386
38.26049 370
38.2806 398
38.30071 420
38.32083 423
38.34094 411
38.36105 358
38.38117 402
38.40128 375
38.4214 377
38.44151 395
38.46162 395
38.48174 367
38.50185 390
38.52196 360
38.54208 347
38.56219 404
38.58231 404
38.60242 368
38.62253 418
38.64265 381
38.66276 372
38.68287 395
38.70299 412
38.7231 413
38.74321 372
38.76333 400
38.78344 392
38.80356 425
38.82367 399
38.84378 358
38.8639 348
38.88401 401
38.90412 355
38.92424 379
38.94435 398
38.96447 425
38.98458 375
39.00469 438
39.02481 412
39.04492 410
39.06503 404
39.08515 395
39.10526 365
39.12538 418
39.14549 479
39.1656 439
39.18572 455
39.20583 514
39.22594 591
39.24606 589
39.26617 652
39.28628 730
39.3064 724
39.32651 780
39.34663 857
39.36674 831
39.38685 871
39.40697 875
39.42708 789
39.44719 746
39.46731 712
39.48742 656
39.50754 613
39.52765 584
39.54776 535
39.56788 488
39.58799 468
39.6081 475
39.62822 441
39.64833 433
39.66845 425
39.68856 453
39.70867 448
39.72879 445
39.7489 448
39.76901 433
39.78913 432
39.80924 423
39.82935 425
39.84947 467
39.86958 453
39.8897 418
39.90981 443
39.92992 451
39.95004 458
39.97015 439
39.99026 459
40.01038 444
40.03049 464
40.05061 486
40.07072 462
40.09083 499
40.11095 546
40.13106 526
40.15117 556
40.17129 572
40.1914 549
40.21152 591
40.23163 590
40.25174 599
40.27186 519
40.29197 528
40.31208 492
40.3322 520
40.35231 437
40.37242 444
40.39254 433
40.41265 417
40.43277 417
40.45288 360
40.47299 366
40.49311 382
40.51322 396
40.53333 406
40.55345 387
40.57356 429
40.59368 419
40.61379 411
40.6339 388
40.65402 400
40.67413 368
40.69424 402
40.71436 382
40.73447 435
40.75458 402
40.7747 384
40.79481 423
40.81493 420
40.83504 415
40.85515 374
40.87527 414
40.89538 407
40.91549 368
40.93561 429
40.95572 412
40.97584 370
40.99595 387
41.01606 405
41.03618 387
41.05629 398
41.0764 385
41.09652 402
41.11663 384
41.13675 388
41.15686 377
41.17697 410
41.19709 410
41.2172 417
41.23731 380
41.25743 396
41.27754 375
41.29765 376
41.31777 348
41.33788 391
41.358 437
41.37811 361
41.39822 372
41.41834 412
41.43845 374
41.45856 385
41.47868 437
41.49879 414
41.51891 417
41.53902 422
41.55913 408
41.57925 464
41.59936 431
41.61947 375
41.63959 404
41.6597 430
41.67982 432
41.69993 427
41.72004 445
41.74016 435
41.76027 450
41.78038 458
41.8005 448
41.82061 423
41.84072 453
41.86084 399
41.88095 406
41.90107 398
41.92118 406
41.94129 395
41.96141 400
41.98152 379
42.00163 405
42.02175 393
42.04186 401
42.06198 413
42.08209 387
42.1022 418
42.12232 443
42.14243 426
42.16254 492
42.18266 509
42.20277 505
42.22289 493
42.243 559
42.26311 567
42.28323 575
42.30334 634
42.32345 663
42.34357 666
42.36368 715
42.38379 698
42.40391 674
42.42402 649
42.44414 630
42.46425 613
42.48436 535
42.50448 497
42.52459 536
42.5447 516
42.56482 434
42.58493 459
42.60505 419
42.62516 411
42.64527 391
42.66539 426
42.6855 384
42.70561 380
42.72573 403
42.74584 383
42.76595 404
42.78607 383
42.80618 372
42.8263 385
42.84641 382
42.86652 394
42.88664 404
42.90675 401
42.92686 424
42.94698 399
42.96709 424
42.98721 417
43.00732 411
43.02743 466
43.04755 444
43.06766 426
43.08777 458
43.10789 428
43.128 438
43.14812 427
43.16823 461
43.18834 478
43.20846 397
43.22857 435
43.24868 407
43.2688 438
43.28891 417
43.30902 355
43.32914 385
43.34925 376
43.36937 384
43.38948 361
43.40959 344
43.42971 401
43.44982 395
43.46993 383
43.49005 364
43.51016 395
43.53028 355
43.55039 357
43.5705 356
43.59062 320
43.61073 374
43.63084 353
43.65096 335
43.67107 358
43.69119 315
43.7113 379
43.73141 376
43.75153 358
43.77164 417
43.79175 332
43.81187 338
43.83198 347
43.85209 383
43.87221 366
43.89232 344
43.91244 366
43.93255 384
43.95266 336
43.97278 354
43.99289 351
44.013 344
44.03312 363
44.05323 374
44.07335 373
44.09346 364
44.11357 367
44.13369 391
44.1538 364
44.17391 338
44.19403 333
44.21414 338
44.23426 352
44.25437 362
44.27448 386
44.2946 388
44.31471 405
44.33482 367
44.35494 345
44.37505 375
44.39516 377
44.41528 377
44.43539 383
44.45551 349
44.47562 366
44.49573 343
44.51585 373
44.53596 358
44.55607 370
44.57619 376
44.5963 368
44.61642 389
44.63653 413
44.65664 365
44.67676 401
44.69687 405
44.71698 375
44.7371 386
44.75721 362
44.77732 350
44.79744 392
44.81755 374
44.83767 386
44.85778 416
44.87789 358
44.89801 372
44.91812 383
44.93823 385
44.95835 400
44.97846 424
44.99858 390
45.01869 378
45.0388 432
45.05892 418
45.07903 387
45.09914 413
45.11926 394
45.13937 396
45.15949 403
45.1796 433
45.19971 431
45.21983 369
45.23994 420
45.26005 424
45.28017 399
45.30028 419
45.32039 391
45.34051 466
45.36062 411
45.38074 448
45.40085 406
45.42096 418
45.44108 427
45.46119 428
45.4813 403
45.50142 419
45.52153 491
45.54165 488
45.56176 469
45.58187 455
45.60199 470
45.6221 513
45.64221 553
45.66233 550
45.68244 551
45.70256 552
45.72267 536
45.74278 534
45.7629 498
45.78301 519
45.80312 492
45.82324 451
45.84335 456
45.86346 461
45.88358 436
45.90369 442
45.92381 417
45.94392 374
45.96403 367
45.98415 376
46.00426 382
46.02437 341
46.04449 374
46.0646 360
46.08472 349
46.10483 356
46.12494 334
46.14506 384
46.16517 356
46.18528 328
46.2054 358
46.22551 339
46.24563 329
46.26574 316
46.28585 325
46.30597 362
46.32608 354
46.34619 346
46.36631 347
46.38642 359
46.40653 336
46.42665 375
46.44676 352
46.46688 344
46.48699 339
46.5071 349
46.52722 332
46.54733 343
46.56744 351
46.58756 339
46.60767 373
46.62779 339
46.6479 336
46.66801 342
46.68813 350
46.70824 381
46.72835 339
46.74847 327
46.76858 350
46.78869 346
46.80881 353
46.82892 357
46.84904 339
46.86915 370
46.88926 392
46.90938 358
46.92949 360
46.9496 396
46.96972 342
46.98983 374
47.00995 383
47.03006 409
47.05017 397
47.07029 390
47.0904 400
47.11051 383
47.13063 388
47.15074 374
47.17086 375
47.19097 355
47.21108 396
47.2312 440
47.25131 381
47.27142 374
47.29154 372
47.31165 403
47.33176 412
47.35188 391
47.37199 413
47.39211 385
47.41222 448
47.43233 421
47.45245 467
47.47256 418
47.49267 439
47.51279 411
47.5329 382
47.55302 383
47.57313 402
47.59324 386
47.61336 412
47.63347 401
47.65358 373
47.6737 376
47.69381 399
47.71393 399
47.73404 345
47.75415 400
47.77427 360
47.79438 348
47.81449 405
47.83461 337
47.85472 363
47.87483 349
47.89495 411
47.91506 392
47.93518 379
47.95529 355
47.9754 394
47.99552 350
48.01563 398
48.03574 382
48.05586 339
48.07597 369
48.09609 380
48.1162 380
48.13631 371
48.15643 357
48.17654 407
48.19665 408
48.21677 422
48.23688 405
48.257 407
48.27711 408
48.29722 389
48.31734 418
48.33745 429
48.35756 399
48.37768 415
48.39779 419
48.4179 476
48.43802 410
48.45813 477
48.47825 430
48.49836 454
48.51847 408
48.53859 410
48.5587 422
48.57881 366
48.59893 445
48.61904 374
48.63916 380
48.65927 386
48.67938 365
48.6995 375
48.71961 356
48.73972 383
48.75984 382
48.77995 348
48.80006 350
48.82018 343
48.84029 337
48.86041 359
48.88052 338
48.90063 347
48.92075 353
48.94086 333
48.96097 348
48.98109 390
49.0012 348
49.02132 350
49.04143 346
49.06154 344
49.08166 341
49.10177 320
49.12188 366
49.142 317
49.16211 336
49.18223 359
49.20234 371
49.22245 350
49.24257 411
49.26268 325
49.28279 374
49.30291 351
49.32302 345
49.34313 316
49.36325 369
49.38336 359
49.40348 326
49.42359 407
49.4437 326
49.46382 339
49.48393 357
49.50404 332
49.52416 352
49.54427 356
49.56439 347
49.5845 386
49.60461 361
49.62473 396
49.64484 375
49.66495 397
49.68507 423
49.70518 409
49.7253 407
49.74541 443
49.76552 431
49.78564 477
49.80575 470
49.82586 499
49.84598 549
49.86609 549
49.8862 571
49.90632 629
49.92643 679
49.94655 769
49.96666 772
49.98677 883
50.00689 967
50.027 975
50.04711 1027
50.06723 1006
50.08734 985
50.10746 867
50.12757 815
50.14768 763
50.1678 760
50.18791 683
50.20802 686
50.22814 587
50.24825 534
50.26837 471
50.28848 466
50.30859 404
50.32871 406
50.34882 376
50.36893 390
50.38905 403
50.40916 401
50.42927 435
50.44939 393
50.4695 409
50.48962 436
50.50973 404
50.52984 424
50.54996 422
50.57007 405
50.59018 418
50.6103 401
50.63041 397
50.65053 391
50.67064 362
50.69075 385
50.71087 373
50.73098 357
50.75109 350
50.77121 344
50.79132 385
50.81143 368
50.83155 347
50.85166 347
50.87178 326
50.89189 346
50.912 368
50.93212 336
50.95223 364
50.97234 335
50.99246 337
51.01257 324
51.03269 370
51.0528 329
51.07291 338
51.09303 334
51.11314 358
51.13325 333
51.15337 343
51.17348 358
51.1936 354
51.21371 348
51.23382 326
51.25394 320
51.27405 323
51.29416 320
51.31428 326
51.33439 346
51.3545 296
51.37462 307
51.39473 336
51.41485 329
51.43496 340
51.45507 321
51.47519 310
51.4953 315
51.51541 263
51.53553 276
51.55564 310
51.57576 329
51.59587 345
51.61598 317
51.6361 331
51.65621 281
51.67632 349
51.69644 298
51.71655 327
51.73667 320
51.75678 333
51.77689 320
51.79701 336
51.81712 298
51.83723 322
51.85735 291
51.87746 295
51.89757 343
51.91769 325
51.9378 312
51.95792 323
51.97803 353
51.99814 337
52.01826 329
52.03837 320
52.05848 328
52.0786 315
52.09871 361
52.11883 327
52.13894 325
52.15905 343
52.17917 361
52.19928 317
52.21939 375
52.23951 318
52.25962 335
52.27974 371
52.29985 351
52.31996 341
52.34008 333
52.36019 346
52.3803 350
52.40042 306
52.42053 329
52.44064 348
52.46076 342
52.48087 319
52.50099 340
52.5211 334
52.54121 334
52.56133 347
52.58144 357
52.60155 351
52.62167 351
52.64178 337
52.6619 365
52.68201 335
52.70212 337
52.72224 389
52.74235 371
52.76246 357
52.78258 377
52.80269 368
52.8228 380
52.84292 360
52.86303 346
52.88315 373
52.90326 343
52.92337 337
52.94349 370
52.9636 374
52.98371 384
53.00383 356
53.02394 368
53.04406 363
53.06417 354
53.08428 353
53.1044 368
53.12451 371
53.14462 396
53.16474 353
53.18485 376
53.20497 383
53.22508 397
53.24519 353
53.26531 365
53.28542 366
53.30553 353
53.32565 360
53.34576 375
53.36587 384
53.38599 341
53.4061 378
53.42622 390
53.44633 398
53.46644 423
53.48656 367
53.50667 373
53.52678 370
53.5469 402
53.56701 388
53.58713 382
53.60724 383
53.62735 371
53.64747 360
53.66758 354
53.68769 367
53.70781 366
53.72792 382
53.74804 379
53.76815 377
53.78826 403
53.80838 378
53.82849 349
53.8486 409
53.86872 389
53.88883 395
53.90894 405
53.92906 382
53.94917 400
53.96929 347
53.9894 375
54.00951 384
54.02963 366
54.04974 387
54.06985 400
54.08997 367
54.11008 371
54.1302 371
54.15031 350
54.17042 376
54.19054 392
54.21065 397
54.23076 379
54.25088 424
54.27099 398
54.29111 344
54.31122 400
54.33133 368
54.35145 371
54.37156 386
54.39167 403
54.41179 380
54.4319 406
54.45201 430
54.47213 364
54.49224 382
54.51236 412
54.53247 419
54.55258 403
54.5727 410
54.59281 441
54.61292 436
54.63304 489
54.65315 491
54.67327 526
54.69338 489
54.71349 527
54.73361 541
54.75372 564
54.77383 597
54.79395 590
54.81406 563
54.83417 534
54.85429 530
54.8744 526
54.89452 497
54.91463 514
54.93474 494
54.95486 501
54.97497 472
54.99508 469
55.0152 459
55.03531 459
55.05543 451
55.07554 436
55.09565 411
55.11577 441
55.13588 448
55.15599 474
55.17611 457
55.19622 468
55.21634 483
55.23645 427
55.25656 463
55.27668 469
55.29679 461
55.3169 462
55.33702 415
55.35713 477
55.37724 437
55.39736 440
55.41747 388
55.43759 426
55.4577 382
55.47781 375
55.49793 387
55.51804 413
55.53815 406
55.55827 385
55.57838 386
55.5985 396
55.61861 349
55.63872 396
55.65884 359
55.67895 416
55.69906 375
55.71918 374
55.73929 398
55.75941 354
55.77952 407
55.79963 397
55.81975 362
55.83986 357
55.85997 335
55.88009 351
55.9002 385
55.92031 366
55.94043 351
55.96054 341
55.98066 369
56.00077 358
56.02088 349
56.041 344
56.06111 377
56.08122 345
56.10134 344
56.12145 364
56.14157 361
56.16168 352
56.18179 358
56.20191 310
56.22202 369
56.24213 351
56.26225 339
56.28236 347
56.30248 359
56.32259 374
56.3427 339
56.36282 380
56.38293 382
56.40304 340
56.42316 372
56.44327 386
56.46338 364
56.4835 354
56.50361 382
56.52373 345
56.54384 344
56.56395 397
56.58407 368
56.60418 373
56.62429 394
56.64441 384
56.66452 353
56.68464 323
56.70475 369
56.72486 338
56.74498 369
56.76509 361
56.7852 320
56.80532 347
56.82543 353
56.84554 405
56.86566 346
56.88577 355
56.90589 345
56.926 334
56.94611 348
56.96623 365
56.98634 379
57.00645 343
57.02657 359
57.04668 368
57.0668 348
57.08691 340
57.10702 369
57.12714 392
57.14725 360
57.16736 375
57.18748 420
57.20759 368
57.22771 351
57.24782 395
57.26793 381
57.28805 371
57.30816 395
57.32827 396
57.34839 392
57.3685 418
57.38861 416
57.40873 388
57.42884 447
57.44896 364
57.46907 367
57.48918 372
57.5093 373
57.52941 374
57.54952 354
57.56964 355
57.58975 393
57.60987 362
57.62998 353
57.65009 333
57.67021 304
57.69032 364
57.71043 360
57.73055 343
57.75066 321
57.77078 364
57.79089 352
57.811 339
57.83112 364
57.85123 335
57.87134 322
57.89146 366
57.91157 310
57.93168 365
57.9518 351
57.97191 331
57.99203 317
58.01214 373
58.03225 348
58.05237 344
58.07248 356
58.09259 362
58.11271 358
58.13282 303
58.15294 331
58.17305 348
58.19316 343
58.21328 347
58.23339 348
58.2535 361
58.27362 340
58.29373 325
58.31385 346
58.33396 351
58.35407 325
58.37419 340
58.3943 331
58.41441 348
58.43453 337
58.45464 336
58.47475 346
58.49487 378
58.51498 332
58.5351 385
58.55521 336
58.57532 337
58.59544 375
58.61555 344
58.63566 346
58.65578 372
58.67589 362
58.69601 355
58.71612 367
58.73623 330
58.75635 351
58.77646 357
58.79657 343
58.81669 352
58.8368 357
58.85691 348
58.87703 321
58.89714 385
58.91726 373
58.93737 381
58.95748 379
58.9776 359
58.99771 365
59.01782 390
59.03794 367
59.05805 382
59.07817 364
59.09828 322
59.11839 379
59.13851 391
59.15862 328
59.17873 361
59.19885 374
59.21896 343
59.23908 375
59.25919 366
59.2793 384
59.29942 382
59.31953 360
59.33964 364
59.35976 386
59.37987 367
59.39998 379
59.4201 360
59.44021 388
59.46033 406
59.48044 389
59.50055 368
59.52067 436
59.54078 394
59.56089 405
59.58101 422
59.60112 421
59.62124 447
59.64135 449
59.66146 491
59.68158 541
59.70169 520
59.7218 596
59.74192 642
59.76203 641
59.78215 640
59.80226 792
59.82237 756
59.84249 845
59.8626 805
59.88271 846
59.90283 714
59.92294 750
59.94305 721
59.96317 691
59.98328 678
60.0034 609
60.02351 640
60.04362 550
60.06374 560
60.08385 508
60.10396 493
60.12408 475
60.14419 493
60.16431 447
60.18442 432
60.20453 441
60.22465 402
60.24476 377
60.26487 433
60.28499 419
60.3051 442
60.32522 412
60.34533 438
60.36544 382
60.38556 401
60.40567 401
60.42578 413
60.4459 406
60.46601 359
60.48612 382
60.50624 416
60.52635 398
60.54647 381
60.56658 387
60.58669 383
60.60681 368
60.62692 406
60.64703 397
60.66715 396
60.68726 391
60.70738 381
60.72749 368
60.7476 383
60.76772 365
60.78783 327
60.80794 390
60.82806 390
60.84817 377
60.86828 406
60.8884 374
60.90851 378
60.92863 424
60.94874 369
60.96885 344
60.98897 388
61.00908 422
61.02919 369
61.04931 364
61.06942 373
61.08954 421
61.10965 438
61.12976 393
61.14988 381
61.16999 407
61.1901 428
61.21022 405
61.23033 406
61.25045 419
61.27056 454
61.29067 431
61.31079 461
61.3309 475
61.35101 468
61.37113 459
61.39124 477
61.41135 490
61.43147 461
61.45158 505
61.4717 479
61.49181 494
61.51192 476
61.53204 485
61.55215 493
61.57226 487
61.59238 462
61.61249 526
61.63261 521
61.65272 484
61.67283 518
61.69295 458
61.71306 483
61.73317 469
61.75329 492
61.7734 416
61.79352 461
61.81363 411
61.83374 454
61.85386 448
61.87397 412
61.89408 410
61.9142 416
61.93431 419
61.95442 352
61.97454 432
61.99465 406
62.01477 403
62.03488 373
62.05499 387
62.07511 368
62.09522 378
62.11533 367
62.13545 376
62.15556 332
62.17568 335
62.19579 375
62.2159 362
62.23602 364
62.25613 377
62.27624 349
62.29636 341
62.31647 363
62.33659 346
62.3567 342
62.37681 376
62.39693 351
62.41704 374
62.43715 321
62.45727 378
62.47738 378
62.49749 358
62.51761 320
62.53772 359
62.55784 360
62.57795 389
62.59806 343
62.61818 339
62.63829 360
62.6584 338
62.67852 339
62.69863 334
62.71875 347
62.73886 330
62.75897 314
62.77909 347
62.7992 332
62.81931 342
62.83943 338
62.85954 327
62.87965 330
62.89977 343
62.91988 349
62.94 345
62.96011 344
62.98022 360
63.00034 298
63.02045 330
63.04056 337
63.06068 321
63.08079 350
63.10091 321
63.12102 335
63.14113 336
63.16125 329
63.18136 332
63.20147 324
63.22159 289
63.2417 321
63.26182 330
63.28193 317
63.30204 356
63.32216 354
63.34227 326
63.36238 339
63.3825 319
63.40261 336
63.42272 315
63.44284 330
63.46295 354
63.48307 314
63.50318 333
63.52329 348
63.54341 321
63.56352 315
63.58363 348
63.60375 373
63.62386 304
63.64398 360
63.66409 372
63.6842 340
63.70432 348
63.72443 389
63.74454 383
63.76466 345
63.78477 384
63.80489 390
63.825 371
63.84511 398
63.86523 388
63.88534 377
63.90545 386
63.92557 404
63.94568 422
63.96579 377
63.98591 418
64.00602 379
64.02614 356
64.04625 402
64.06636 351
64.08648 375
64.10659 324
64.1267 398
64.14682 372
64.16693 344
64.18705 346
64.20716 343
64.22727 346
64.24739 311
64.2675 337
64.28761 364
64.30773 348
64.32784 361
64.34796 307
64.36807 322
64.38818 322
64.4083 335
64.42841 370
64.44852 332
64.46864 315
64.48875 341
64.50886 328
64.52898 369
64.54909 364
64.56921 349
64.58932 336
64.60943 382
64.62955 344
64.64966 349
64.66977 389
64.68989 378
64.71 324
64.73012 337
64.75023 359
64.77034 339
64.79046 313
64.81057 322
64.83068 338
64.8508 333
64.87091 333
64.89102 373
64.91114 349
64.93125 312
64.95137 318
64.97148 291
64.99159 355
65.01171 320
65.03182 330
65.05193 307
65.07205 315
65.09216 313
65.11228 350
65.13239 310
65.1525 349
65.17262 346
65.19273 327
65.21284 329
65.23296 342
65.25307 318
65.27319 330
65.2933 325
65.31341 349
65.33353 324
65.35364 324
65.37375 329
65.39387 347
65.41398 289
65.43409 316
65.45421 338
65.47432 327
65.49444 351
65.51455 340
65.53466 304
65.55478 370
65.57489 352
65.595 350
65.61512 332
65.63523 339
65.65535 332
65.67546 360
65.69557 366
65.71569 335
65.7358 325
65.75591 316
65.77603 338
65.79614 323
65.81626 340
65.83637 347
65.85648 315
65.8766 322
65.89671 322
65.91682 343
65.93694 355
65.95705 299
65.97716 344
65.99728 318
66.01739 358
66.03751 323
66.05762 326
66.07773 308
66.09785 335
66.11796 300
66.13807 336
66.15819 307
66.1783 339
66.19842 310
66.21853 329
66.23864 296
66.25876 291
66.27887 313
66.29898 324
66.3191 306
66.33921 331
66.35933 310
66.37944 327
66.39955 314
66.41967 317
66.43978 324
66.45989 338
66.48001 326
66.50012 321
66.52023 338
66.54035 294
66.56046 302
66.58058 330
66.60069 276
66.6208 303
66.64092 308
66.66103 292
66.68114 313
66.70126 312
66.72137 321
66.74149 342
66.7616 313
66.78171 325
66.80183 332
66.82194 321
66.84205 323
66.86217 331
66.88228 330
66.90239 303
66.92251 316
66.94262 302
66.96274 311
66.98285 324
67.00296 361
67.02308 319
67.04319 297
67.0633 354
67.08342 328
67.10353 327
67.12365 330
67.14376 310
67.16387 326
67.18399 323
67.2041 325
67.22421 298
67.24433 315
67.26444 363
67.28456 349
67.30467 343
67.32478 354
67.3449 329
67.36501 353
67.38512 404
67.40524 346
67.42535 358
67.44546 356
67.46558 424
67.48569 421
67.50581 432
67.52592 449
67.54603 471
67.56615 521
67.58626 541
67.60637 543
67.62649 585
67.6466 556
67.66672 569
67.68683 552
67.70694 536
67.72706 515
67.74717 504
67.76728 465
67.7874 516
67.80751 510
67.82763 485
67.84774 521
67.86785 527
67.88797 507
67.90808 507
67.92819 580
67.94831 573
67.96842 600
67.98853 628
68.00865 618
68.02876 667
68.04888 618
68.06899 678
68.0891 594
68.10922 646
68.12933 662
68.14944 587
68.16956 602
68.18967 626
68.20979 643
68.2299 608
68.25001 563
68.27013 545
68.29024 550
68.31035 506
68.33047 469
68.35058 445
68.3707 434
68.39081 427
68.41092 378
68.43104 407
68.45115 394
68.47126 380
68.49138 372
68.51149 322
68.5316 354
68.55172 353
68.57183 287
68.59195 324
68.61206 318
68.63217 328
68.65229 328
68.6724 301
68.69251 346
68.71263 321
68.73274 314
68.75286 337
68.77297 324
68.79308 329
68.8132 291
68.83331 319
68.85342 337
68.87354 322
68.89365 314
68.91376 313
68.93388 329
68.95399 301
68.97411 347
68.99422 342
69.01433 324
69.03445 332
69.05456 326
69.07467 324
69.09479 358
69.1149 331
69.13502 320
69.15513 340
69.17524 309
69.19536 318
69.21547 313
69.23558 334
69.2557 368
69.27581 332
69.29593 320
69.31604 351
69.33615 333
69.35627 362
69.37638 316
69.39649 343
69.41661 320
69.43672 330
69.45683 315
69.47695 324
69.49706 332
69.51718 357
69.53729 326
69.5574 319
69.57752 340
69.59763 311
69.61774 329
69.63786 347
69.65797 353
69.67809 331
69.6982 321
69.71831 364
69.73843 301
69.75854 350
69.77865 331
69.79877 317
69.81888 337
69.839 337
69.85911 339
69.87922 363
69.89934 322
69.91945 326
69.93956 310
69.95968 325
69.97979 320
69.9999 352
70.02002 342
70.04013 306
70.06025 347
70.08036 331
70.10047 323
70.12059 328
70.1407 329
70.16081 332
70.18093 327
70.20104 320
70.22116 295
70.24127 319
70.26138 301
70.2815 319
70.30161 313
70.32172 320
70.34184 309
70.36195 345
70.38207 318
70.40218 279
70.42229 324
70.44241 330
70.46252 295
70.48263 326
70.50275 302
70.52286 329
70.54297 320
70.56309 315
70.5832 323
70.60332 318
70.62343 341
70.64354 296
70.66366 306
70.68377 285
70.70388 349
70.724 327
70.74411 289
70.76423 298
70.78434 315
70.80445 294
70.82457 323
70.84468 313
70.86479 333
70.88491 322
70.90502 319
70.92513 345
70.94525 320
70.96536 305
70.98548 317
71.00559 323
71.0257 330
71.04582 297
71.06593 321
71.08604 345
71.10616 347
71.12627 327
71.14639 299
71.1665 323
71.18661 292
71.20673 321
71.22684 314
71.24695 334
71.26707 310
71.28718 325
71.3073 318
71.32741 324
71.34752 343
71.36764 325
71.38775 312
71.40786 308
71.42798 306
71.44809 339
71.4682 315
71.48832 350
71.50843 285
71.52855 309
71.54866 337
71.56877 347
71.58889 295
71.609 323
71.62911 300
71.64923 312
71.66934 328
71.68946 306
71.70957 315
71.72968 319
71.7498 340
71.76991 329
71.79002 305
71.81014 331
71.83025 328
71.85037 319
71.87048 330
71.89059 277
71.91071 302
71.93082 331
71.95093 323
71.97105 302
71.99116 326
72.01127 323
72.03139 332
72.0515 328
72.07162 336
72.09173 313
72.11184 341
72.13196 318
72.15207 324
72.17218 374
72.1923 336
72.21241 286
72.23253 329
72.25264 374
72.27275 329
72.29287 338
72.31298 340
72.33309 361
72.35321 322
72.37332 360
72.39344 344
72.41355 343
72.43366 345
72.45378 353
72.47389 349
72.494 371
72.51412 348
72.53423 342
72.55434 360
72.57446 359
72.59457 343
72.61469 348
72.6348 333
72.65491 367
72.67503 344
72.69514 334
72.71525 372
72.73537 369
72.75548 369
72.7756 381
72.79571 384
72.81582 348
72.83594 402
72.85605 316
72.87616 387
72.89628 332
72.91639 332
72.9365 396
72.95662 359
72.97673 357
72.99685 366
73.01696 356
73.03707 366
73.05719 381
73.0773 335
73.09741 347
73.11753 395
73.13764 381
73.15776 363
73.17787 358
73.19798 390
73.2181 353
73.23821 363
73.25832 377
73.27844 355
73.29855 412
73.31867 427
73.33878 414
73.35889 409
73.37901 422
73.39912 419
73.41923 397
73.43935 384
73.45946 366
73.47957 381
73.49969 397
73.5198 368
73.53992 387
73.56003 396
73.58014 361
73.60026 342
73.62037 346
73.64048 366
73.6606 337
73.68071 335
73.70083 348
73.72094 358
73.74105 319
73.76117 346
73.78128 313
73.80139 308
73.82151 309
73.84162 339
73.86174 321
73.88185 337
73.90196 303
73.92208 317
73.94219 350
73.9623 322
73.98242 308
74.00253 316
74.02264 362
74.04276 304
74.06287 311
74.08299 323
74.1031 310
74.12321 301
74.14333 304
74.16344 342
74.18355 328
74.20367 340
74.22378 338
74.2439 348
74.26401 337
74.28412 310
74.30424 329
74.32435 309
74.34446 339
74.36458 307
74.38469 304
74.40481 308
74.42492 288
74.44503 298
74.46515 304
74.48526 296
74.50537 314
74.52549 324
74.5456 328
74.56571 305
74.58583 301
74.60594 302
74.62606 294
74.64617 319
74.66628 330
74.6864 328
74.70651 308
74.72662 325
74.74674 307
74.76685 308
74.78697 314
74.80708 276
74.82719 323
74.84731 352
74.86742 290
74.88753 291
74.90765 304
74.92776 327
74.94787 324
74.96799 328
74.9881 314
75.00822 316
