3.00117 26265
3.02128 25522
3.0414 24501
3.06151 24263
3.08162 23449
3.10174 22552
3.12185 22314
3.14197 21550
3.16208 20969
3.18219 20510
3.20231 20076
3.22242 19611
3.24253 18762
3.26265 18641
3.28276 17717
3.30288 17160
3.32299 16588
3.3431 15728
3.36322 15730
3.38333 14870
3.40344 14604
3.42356 14332
3.44367 13393
3.46379 13727
3.4839 12878
3.50401 12430
3.52413 12053
3.54424 11674
3.56435 11334
3.58447 10698
3.60458 10449
3.62469 10094
3.64481 9814
3.66492 9742
3.68504 9062
3.70515 8854
3.72526 8561
3.74538 8332
3.76549 8019
3.7856 7476
3.80572 7195
3.82583 7148
3.84595 6856
3.86606 6800
3.88617 6229
3.90629 6046
3.9264 5970
3.94651 5668
3.96663 5483
3.98674 5081
4.00686 4889
4.02697 4906
4.04708 4519
4.0672 4513
4.08731 3978
4.10742 3944
4.12754 4055
4.14765 3766
4.16776 3722
4.18788 3376
4.20799 3336
4.22811 3196
4.24822 3027
4.26833 2966
4.28845 2757
4.30856 2780
4.32867 2698
4.34879 2526
4.3689 2492
4.38902 2298
4.40913 2338
4.42924 2352
4.44936 2286
4.46947 2291
4.48958 2162
4.5097 2148
4.52981 2182
4.54992 2080
4.57004 2148
4.59015 1918
4.61027 1947
4.63038 1967
4.65049 1896
4.67061 1890
4.69072 1781
4.71083 1765
4.73095 1789
4.75106 1710
4.77118 1643
4.79129 1588
4.8114 1631
4.83152 1547
4.85163 1641
4.87174 1537
4.89186 1496
4.91197 1457
4.93209 1443
4.9522 1465
4.97231 1417
4.99243 1458
5.01254 1334
5.03265 1319
5.05277 1459
5.07288 1319
5.09299 1326
5.11311 1320
5.13322 1234
5.15334 1337
5.17345 1200
5.19356 1255
5.21368 1226
5.23379 1137
5.2539 1240
5.27402 1168
5.29413 1113
5.31425 1166
5.33436 1156
5.35447 1168
5.37459 1128
5.3947 1074
5.41481 1093
5.43493 1061
5.45504 1043
5.47516 1034
5.49527 1014
5.51538 1026
5.5355 1061
5.55561 970
5.57572 1006
5.59584 1013
5.61595 1008
5.63606 981
5.65618 977
5.67629 1020
5.69641 960
5.71652 988
5.73663 962
5.75675 959
5.77686 876
5.79697 972
5.81709 968
5.8372 984
5.85732 939
5.87743 932
5.89754 888
5.91766 899
5.93777 883
5.95788 912
5.978 873
5.99811 931
6.01823 887
6.03834 917
6.05845 878
6.07857 837
6.09868 955
6.11879 877
6.13891 870
6.15902 877
6.17913 935
6.19925 936
6.21936 876
6.23948 837
6.25959 878
6.2797 874
6.29982 869
6.31993 871
6.34004 834
6.36016 840
6.38027 893
6.40039 869
6.4205 862
6.44061 848
6.46073 855
6.48084 878
6.50095 845
6.52107 867
6.54118 905
6.56129 878
6.58141 820
6.60152 790
6.62164 866
6.64175 886
6.66186 882
6.68198 840
6.70209 895
6.7222 876
6.74232 860
6.76243 863
6.78255 893
6.80266 821
6.82277 822
6.84289 859
6.863 872
6.88311 864
6.90323 848
6.92334 839
6.94346 857
6.96357 785
6.98368 851
7.0038 846
7.02391 795
7.04402 866
7.06414 873
7.08425 839
7.10436 841
7.12448 852
7.14459 905
7.16471 842
7.18482 871
7.20493 840
7.22505 858
7.24516 842
7.26527 861
7.28539 838
7.3055 892
7.32562 882
7.34573 810
7.36584 869
7.38596 843
7.40607 883
7.42618 871
7.4463 843
7.46641 784
7.48653 876
7.50664 846
7.52675 880
7.54687 844
7.56698 846
7.58709 830
7.60721 804
7.62732 821
7.64743 866
7.66755 839
7.68766 799
7.70778 869
7.72789 866
7.748 867
7.76812 841
7.78823 898
7.80834 829
7.82846 835
7.84857 874
7.86869 821
7.8888 839
7.90891 848
7.92903 875
7.94914 850
7.96925 876
7.98937 819
8.00948 833
8.0296 881
8.04971 865
8.06982 879
8.08994 830
8.11005 861
8.13016 840
8.15028 843
8.17039 848
8.1905 837
8.21062 826
8.23073 890
8.25085 809
8.27096 908
8.29107 865
8.31119 875
8.3313 852
8.35141 884
8.37153 868
8.39164 923
8.41176 912
8.43187 794
8.45198 837
8.4721 904
8.49221 871
8.51232 834
8.53244 862
8.55255 834
8.57266 910
8.59278 790
8.61289 796
8.63301 822
8.65312 920
8.67323 928
8.69335 867
8.71346 869
8.73357 876
8.75369 852
8.7738 862
8.79392 867
8.81403 887
8.83414 832
8.85426 897
8.87437 840
8.89448 873
8.9146 823
8.93471 871
8.95483 900
8.97494 895
8.99505 811
9.01517 862
9.03528 782
9.05539 844
9.07551 853
9.09562 829
9.11573 836
9.13585 823
9.15596 801
9.17608 852
9.19619 869
9.2163 842
9.23642 849
9.25653 834
9.27664 854
9.29676 872
9.31687 781
9.33699 876
9.3571 845
9.37721 918
9.39733 886
9.41744 830
9.43755 888
9.45767 817
9.47778 862
9.4979 863
9.51801 873
9.53812 850
9.55824 800
9.57835 906
9.59846 806
9.61858 855
9.63869 844
9.6588 850
9.67892 871
9.69903 889
9.71915 895
9.73926 836
9.75937 883
9.77949 841
9.7996 892
9.81971 913
9.83983 857
9.85994 865
9.88006 913
9.90017 836
9.92028 894
9.9404 873
9.96051 874
9.98062 864
10.00074 892
10.02085 823
10.04097 789
10.06108 838
10.08119 922
10.10131 836
10.12142 896
10.14153 922
10.16165 877
10.18176 841
10.20187 830
10.22199 842
10.2421 828
10.26222 849
10.28233 893
10.30244 835
10.32256 836
10.34267 871
10.36278 852
10.3829 883
10.40301 854
10.42313 869
10.44324 859
10.46335 895
10.48347 850
10.50358 886
10.52369 823
10.54381 827
10.56392 853
10.58403 848
10.60415 880
10.62426 854
10.64438 825
10.66449 861
10.6846 877
10.70472 854
10.72483 793
10.74494 911
10.76506 849
10.78517 830
10.80529 863
10.8254 833
10.84551 872
10.86563 899
10.88574 950
10.90585 879
10.92597 882
10.94608 858
10.9662 847
10.98631 895
11.00642 896
11.02654 863
11.04665 858
11.06676 912
11.08688 921
11.10699 913
11.1271 877
11.14722 883
11.16733 872
11.18745 899
11.20756 849
11.22767 957
11.24779 897
11.2679 897
11.28801 938
11.30813 885
11.32824 833
11.34836 870
11.36847 869
11.38858 978
11.4087 901
11.42881 885
11.44892 918
11.46904 891
11.48915 977
11.50927 911
11.52938 881
11.54949 926
11.56961 825
11.58972 862
11.60983 795
11.62995 846
11.65006 898
11.67017 878
11.69029 888
11.7104 907
11.73052 948
11.75063 924
11.77074 942
11.79086 895
11.81097 948
11.83108 982
11.8512 922
11.87131 859
11.89143 929
11.91154 909
11.93165 927
11.95177 922
11.97188 946
11.99199 952
12.01211 944
12.03222 981
12.05234 970
12.07245 951
12.09256 1016
12.11268 959
12.13279 946
12.1529 975
12.17302 1030
12.19313 964
12.21324 1033
12.23336 1077
12.25347 1078
12.27359 995
12.2937 1091
12.31381 1048
12.33393 1128
12.35404 1136
12.37415 1133
12.39427 1142
12.41438 1115
12.4345 1126
12.45461 1022
12.47472 1107
12.49484 988
12.51495 944
12.53506 967
12.55518 940
12.57529 912
12.5954 919
12.61552 956
12.63563 944
12.65575 944
12.67586 881
12.69597 846
12.71609 944
12.7362 915
12.75631 897
12.77643 917
12.79654 912
12.81666 917
12.83677 855
12.85688 856
12.877 921
12.89711 864
12.91722 872
12.93734 895
12.95745 852
12.97757 893
12.99768 862
13.01779 865
13.03791 843
13.05802 874
13.07813 805
13.09825 857
13.11836 904
13.13847 868
13.15859 836
13.1787 906
13.19882 878
13.21893 890
13.23904 830
13.25916 877
13.27927 873
13.29938 959
13.3195 875
13.33961 840
13.35973 858
13.37984 897
13.39995 851
13.42007 905
13.44018 839
13.46029 871
13.48041 863
13.50052 900
13.52064 824
13.54075 845
13.56086 861
13.58098 878
13.60109 902
13.6212 840
13.64132 849
13.66143 821
13.68154 874
13.70166 917
13.72177 873
13.74189 842
13.762 895
13.78211 884
13.80223 866
13.82234 845
13.84245 863
13.86257 876
13.88268 879
13.9028 840
13.92291 834
13.94302 802
13.96314 861
13.98325 864
14.00336 889
14.02348 940
14.04359 856
14.06371 833
14.08382 829
14.10393 838
14.12405 860
14.14416 810
14.16427 884
14.18439 904
14.2045 886
14.22461 846
14.24473 890
14.26484 892
14.28496 859
14.30507 873
14.32518 873
14.3453 889
14.36541 832
14.38552 817
14.40564 909
14.42575 852
14.44587 902
14.46598 860
14.48609 817
14.50621 911
14.52632 826
14.54643 855
14.56655 909
14.58666 893
14.60677 850
14.62689 863
14.647 864
14.66712 820
14.68723 894
14.70734 881
14.72746 846
14.74757 875
14.76768 878
14.7878 902
14.80791 861
14.82803 886
14.84814 841
14.86825 894
14.88837 866
14.90848 864
14.92859 915
14.94871 836
14.96882 864
14.98894 864
15.00905 862
15.02916 869
15.04928 845
15.06939 844
15.0895 877
15.10962 845
15.12973 866
15.14984 818
15.16996 880
15.19007 846
15.21019 875
15.2303 856
15.25041 874
15.27053 826
15.29064 825
15.31075 808
15.33087 862
15.35098 871
15.3711 832
15.39121 883
15.41132 844
15.43144 932
15.45155 888
15.47166 884
15.49178 867
15.51189 865
15.53201 894
15.55212 878
15.57223 862
15.59235 890
15.61246 894
15.63257 842
15.65269 833
15.6728 848
15.69291 857
15.71303 857
15.73314 873
15.75326 871
15.77337 867
15.79348 845
15.8136 857
15.83371 894
15.85382 855
15.87394 889
15.89405 847
15.91417 838
15.93428 874
15.95439 893
15.97451 869
15.99462 886
16.01473 856
16.03485 861
16.05496 900
16.07508 916
16.09519 881
16.1153 869
16.13542 846
16.15553 874
16.17564 850
16.19576 829
16.21587 855
16.23598 844
16.2561 821
16.27621 858
16.29633 884
16.31644 850
16.33655 838
16.35667 853
16.37678 859
16.39689 887
16.41701 803
16.43712 863
16.45724 856
16.47735 822
16.49746 932
16.51758 883
16.53769 820
16.5578 817
16.57792 830
16.59803 837
16.61814 849
16.63826 788
16.65837 817
16.67849 872
16.6986 897
16.71871 850
16.73883 860
16.75894 875
16.77905 902
16.79917 834
16.81928 866
16.8394 880
16.85951 904
16.87962 842
16.89974 879
16.91985 804
16.93996 818
16.96008 885
16.98019 895
17.00031 896
17.02042 846
17.04053 885
17.06065 849
17.08076 894
17.10087 873
17.12099 862
17.1411 859
17.16121 868
17.18133 789
17.20144 835
17.22156 854
17.24167 867
17.26178 885
17.2819 915
17.30201 844
17.32212 920
17.34224 842
17.36235 895
17.38247 854
17.40258 867
17.42269 819
17.44281 888
17.46292 858
17.48303 857
17.50315 914
17.52326 828
17.54338 840
17.56349 874
17.5836 817
17.60372 851
17.62383 902
17.64394 828
17.66406 901
17.68417 862
17.70428 894
17.7244 877
17.74451 864
17.76463 929
17.78474 863
17.80485 893
17.82497 888
17.84508 904
17.86519 938
17.88531 768
17.90542 867
17.92554 821
17.94565 871
17.96576 933
17.98588 909
18.00599 900
18.0261 812
18.04622 871
18.06633 922
18.08645 910
18.10656 893
18.12667 909
18.14679 869
18.1669 896
18.18701 869
18.20713 886
18.22724 890
18.24735 934
18.26747 881
18.28758 851
18.3077 870
18.32781 915
18.34792 861
18.36804 826
18.38815 864
18.40826 882
18.42838 897
18.44849 869
18.46861 880
18.48872 877
18.50883 885
18.52895 939
18.54906 888
18.56917 891
18.58929 886
18.6094 932
18.62951 815
18.64963 898
18.66974 852
18.68986 858
18.70997 899
18.73008 866
18.7502 908
18.77031 893
18.79042 882
18.81054 876
18.83065 867
18.85077 845
18.87088 894
18.89099 885
18.91111 900
18.93122 944
18.95133 874
18.97145 917
18.99156 848
19.01168 979
19.03179 958
19.0519 896
19.07202 882
19.09213 936
19.11224 876
19.13236 851
19.15247 875
19.17258 847
19.1927 896
19.21281 900
19.23293 882
19.25304 943
19.27315 972
19.29327 887
19.31338 927
19.33349 907
19.35361 874
19.37372 890
19.39384 864
19.41395 901
19.43406 859
19.45418 963
19.47429 922
19.4944 967
19.51452 889
19.53463 977
19.55475 923
19.57486 923
19.59497 930
19.61509 957
19.6352 1001
19.65531 991
19.67543 904
19.69554 972
19.71565 1042
19.73577 996
19.75588 992
19.776 1094
19.79611 1097
19.81622 1087
19.83634 1084
19.85645 1129
19.87656 1123
19.89668 1144
19.91679 1186
19.93691 1175
19.95702 1151
19.97713 1175
19.99725 1070
20.01736 1146
20.03747 1079
20.05759 1135
20.0777 1100
20.09782 1139
20.11793 1069
20.13804 1063
20.15816 1135
20.17827 1133
20.19838 1092
20.2185 1119
20.23861 1082
20.25872 1073
20.27884 1040
20.29895 1136
20.31907 1110
20.33918 1077
20.35929 1093
20.37941 1112
20.39952 1124
20.41963 1083
20.43975 1089
20.45986 1073
20.47998 1066
20.50009 1101
20.5202 1030
20.54032 1068
20.56043 1134
20.58054 977
20.60066 1077
20.62077 1032
20.64088 1128
20.661 1137
20.68111 1037
20.70123 1041
20.72134 1213
20.74145 1260
20.76157 1201
20.78168 1352
20.80179 1545
20.82191 1580
20.84202 1723
20.86214 1746
20.88225 1664
20.90236 1526
20.92248 1415
20.94259 1314
20.9627 1127
20.98282 1073
21.00293 1079
21.02305 1142
21.04316 1111
21.06327 1087
21.08339 1100
21.1035 1063
21.12361 1067
21.14373 1066
21.16384 1072
21.18395 1125
21.20407 1096
21.22418 1072
21.2443 1069
21.26441 1033
21.28452 1103
21.30464 1058
21.32475 1132
21.34486 1043
21.36498 1067
21.38509 1038
21.40521 1104
21.42532 1045
21.44543 1113
21.46555 1003
21.48566 1041
21.50577 1052
21.52589 1122
21.546 1012
21.56612 1022
21.58623 1029
21.60634 1048
21.62646 1078
21.64657 1038
21.66668 1088
21.6868 1016
21.70691 1072
21.72702 994
21.74714 1002
21.76725 1001
21.78737 1006
21.80748 958
21.82759 997
21.84771 994
21.86782 951
21.88793 1037
21.90805 1002
21.92816 1023
21.94828 1030
21.96839 981
21.9885 912
22.00862 981
22.02873 980
22.04884 932
22.06896 1028
22.08907 983
22.10919 1024
22.1293 1022
22.14941 1000
22.16953 1027
22.18964 1021
22.20975 988
22.22987 992
22.24998 1032
22.27009 967
22.29021 1025
22.31032 1007
22.33044 1057
22.35055 1045
22.37066 960
22.39078 933
22.41089 947
22.431 950
22.45112 1033
22.47123 1007
22.49135 987
22.51146 1045
22.53157 991
22.55169 978
22.5718 967
22.59191 1005
22.61203 939
22.63214 988
22.65225 962
22.67237 1010
22.69248 967
22.7126 998
22.73271 1016
22.75282 919
22.77294 929
22.79305 992
22.81316 1015
22.83328 940
22.85339 924
22.87351 942
22.89362 980
22.91373 1024
22.93385 1017
22.95396 995
22.97407 956
22.99419 971
23.0143 963
23.03442 968
23.05453 1027
23.07464 981
23.09476 1018
23.11487 971
23.13498 994
23.1551 951
23.17521 958
23.19532 1024
23.21544 1009
23.23555 936
23.25567 1005
23.27578 983
23.29589 947
23.31601 994
23.33612 981
23.35623 928
23.37635 934
23.39646 1000
23.41658 1036
23.43669 954
23.4568 918
23.47692 975
23.49703 959
23.51714 1027
23.53726 990
23.55737 1001
23.57749 977
23.5976 994
23.61771 1028
23.63783 1002
23.65794 1016
23.67805 965
23.69817 1019
23.71828 998
23.73839 993
23.75851 975
23.77862 996
23.79874 1027
23.81885 1056
23.83896 1039
23.85908 1021
23.87919 1079
23.8993 1045
23.91942 1076
23.93953 1060
23.95965 1047
23.97976 1055
23.99987 1050
24.01999 1156
24.0401 1136
24.06021 1129
24.08033 1194
24.10044 1217
24.12056 1203
24.14067 1259
24.16078 1246
24.1809 1242
24.20101 1226
24.22112 1220
24.24124 1244
24.26135 1170
24.28146 1097
24.30158 1121
24.32169 1089
24.34181 1166
24.36192 1129
24.38203 1088
24.40215 1057
24.42226 1076
24.44237 1074
24.46249 1073
24.4826 1007
24.50272 1063
24.52283 1079
24.54294 1077
24.56306 1100
24.58317 1060
24.60328 1092
24.6234 1075
24.64351 1024
24.66362 1104
24.68374 1090
24.70385 1047
24.72397 1156
24.74408 1129
24.76419 1172
24.78431 1065
24.80442 1109
24.82453 1151
24.84465 1206
24.86476 1178
24.88488 1141
24.90499 1149
24.9251 1151
24.94522 1121
24.96533 1112
24.98544 1106
25.00556 1099
25.02567 1096
25.04579 1058
25.0659 1081
25.08601 1058
25.10613 1010
25.12624 1109
25.14635 1112
25.16647 1017
25.18658 1059
25.20669 1054
25.22681 1079
25.24692 1046
25.26704 1084
25.28715 1048
25.30726 1053
25.32738 1027
25.34749 1037
25.3676 1041
25.38772 1103
25.40783 993
25.42795 968
25.44806 1018
25.46817 911
25.48829 1010
25.5084 1041
25.52851 1012
25.54863 1001
25.56874 981
25.58886 958
25.60897 1032
25.62908 1011
25.6492 975
25.66931 989
25.68942 914
25.70954 967
25.72965 971
25.74976 1007
25.76988 984
25.78999 985
25.81011 987
25.83022 971
25.85033 944
25.87045 998
25.89056 1029
25.91067 968
25.93079 949
25.9509 1023
25.97102 983
25.99113 1026
26.01124 1015
26.03136 997
26.05147 988
26.07158 1014
26.0917 983
26.11181 989
26.13193 1026
26.15204 1059
26.17215 1022
26.19227 981
26.21238 1004
26.23249 1070
26.25261 993
26.27272 1057
26.29283 1016
26.31295 1045
26.33306 1059
26.35318 1110
26.37329 1039
26.3934 1034
26.41352 1111
26.43363 1135
26.45374 1197
26.47386 1299
26.49397 1388
26.51409 1583
26.5342 2094
26.55431 2523
26.57443 3010
26.59454 3792
26.61465 4238
26.63477 4254
26.65488 3909
26.67499 3528
26.69511 2795
26.71522 2352
26.73534 1925
26.75545 1616
26.77556 1313
26.79568 1165
26.81579 1080
26.8359 1075
26.85602 1055
26.87613 1038
26.89625 1049
26.91636 983
26.93647 1040
26.95659 979
26.9767 976
26.99681 1070
27.01693 933
27.03704 999
27.05716 1003
27.07727 978
27.09738 963
27.1175 988
27.13761 1023
27.15772 967
27.17784 945
27.19795 963
27.21806 1024
27.23818 962
27.25829 1001
27.27841 956
27.29852 1005
27.31863 980
27.33875 989
27.35886 988
27.37897 994
27.39909 977
27.4192 977
27.43932 947
27.45943 965
27.47954 975
27.49966 917
27.51977 938
27.53988 941
27.56 953
27.58011 920
27.60023 988
27.62034 1020
27.64045 950
27.66057 1006
27.68068 976
27.70079 972
27.72091 997
27.74102 1017
27.76113 972
27.78125 916
27.80136 914
27.82148 939
27.84159 981
27.8617 948
27.88182 943
27.90193 1016
27.92204 935
27.94216 934
27.96227 921
27.98239 917
28.0025 934
28.02261 967
28.04273 941
28.06284 913
28.08295 972
28.10307 971
28.12318 957
28.1433 952
28.16341 916
28.18352 965
28.20364 993
28.22375 963
28.24386 884
28.26398 948
28.28409 945
28.3042 914
28.32432 938
28.34443 976
28.36455 909
28.38466 955
28.40477 948
28.42489 923
28.445 891
28.46511 886
28.48523 943
28.50534 992
28.52546 952
28.54557 990
28.56568 918
28.5858 933
28.60591 942
28.62602 914
28.64614 941
28.66625 931
28.68636 928
28.70648 955
28.72659 956
28.74671 958
28.76682 952
28.78693 903
28.80705 957
28.82716 966
28.84727 910
28.86739 971
28.8875 969
28.90762 965
28.92773 910
28.94784 980
28.96796 968
28.98807 903
29.00818 984
29.0283 918
29.04841 934
29.06853 916
29.08864 932
29.10875 974
29.12887 929
29.14898 953
29.16909 916
29.18921 902
29.20932 959
29.22943 902
29.24955 952
29.26966 981
29.28978 917
29.30989 958
29.33 944
29.35012 975
29.37023 904
29.39034 894
29.41046 939
29.43057 950
29.45069 957
29.4708 914
29.49091 944
29.51103 904
29.53114 940
29.55125 962
29.57137 959
29.59148 931
29.6116 949
29.63171 958
29.65182 929
29.67194 934
29.69205 884
29.71216 905
29.73228 930
29.75239 902
29.7725 997
29.79262 896
29.81273 883
29.83285 950
29.85296 889
29.87307 952
29.89319 985
29.9133 947
29.93341 1008
29.95353 948
29.97364 866
29.99376 943
30.01387 973
30.03398 937
30.0541 925
30.07421 1018
30.09432 912
30.11444 973
30.13455 1035
30.15467 986
30.17478 983
30.19489 977
30.21501 1010
30.23512 981
30.25523 1052
30.27535 1056
30.29546 1066
30.31557 1081
30.33569 1032
30.3558 1000
30.37592 1008
30.39603 1012
30.41614 1025
30.43626 1060
30.45637 1044
30.47648 982
30.4966 1005
30.51671 997
30.53683 952
30.55694 915
30.57705 982
30.59717 999
30.61728 1000
30.63739 950
30.65751 1031
30.67762 979
30.69773 978
30.71785 990
30.73796 971
30.75808 984
30.77819 939
30.7983 924
30.81842 990
30.83853 997
30.85864 914
30.87876 908
30.89887 918
30.91899 968
30.9391 937
30.95921 929
30.97933 920
30.99944 938
31.01955 964
31.03967 993
31.05978 978
31.0799 949
31.10001 972
31.12012 919
31.14024 951
31.16035 909
31.18046 914
31.20058 904
31.22069 976
31.2408 950
31.26092 926
31.28103 966
31.30115 922
31.32126 937
31.34137 910
31.36149 993
31.3816 959
31.40171 973
31.42183 917
31.44194 934
31.46206 891
31.48217 987
31.50228 955
31.5224 955
31.54251 924
31.56262 988
31.58274 908
31.60285 925
31.62297 909
31.64308 993
31.66319 935
31.68331 934
31.70342 944
31.72353 929
31.74365 961
31.76376 915
31.78387 974
31.80399 953
31.8241 942
31.84422 926
31.86433 950
31.88444 906
31.90456 925
31.92467 936
31.94478 967
31.9649 969
31.98501 992
32.00513 922
32.02524 997
32.04535 936
32.06547 992
32.08558 994
32.10569 951
32.12581 965
32.14592 987
32.16604 1009
32.18615 916
32.20626 996
32.22638 1007
32.24649 976
32.2666 987
32.28672 943
32.30683 905
32.32694 989
32.34706 1003
32.36717 959
32.38729 998
32.4074 993
32.42751 1025
32.44763 1038
32.46774 986
32.48785 1007
32.50797 976
32.52808 987
32.5482 1004
32.56831 1055
32.58842 1049
32.60854 993
32.62865 1052
32.64876 1053
32.66888 1029
32.68899 1037
32.7091 1063
32.72922 1068
32.74933 1099
32.76945 1154
32.78956 1125
32.80967 1131
32.82979 1109
32.8499 1148
32.87001 1173
32.89013 1166
32.91024 1188
32.93036 1221
32.95047 1295
32.97058 1309
32.9907 1404
33.01081 1392
33.03092 1362
33.05104 1507
33.07115 1577
33.09127 1549
33.11138 1613
33.13149 1642
33.15161 1673
33.17172 1635
33.19183 1530
33.21195 1608
33.23206 1532
33.25217 1435
33.27229 1497
33.2924 1422
33.31252 1387
33.33263 1320
33.35274 1276
33.37286 1254
33.39297 1244
33.41308 1190
33.4332 1189
33.45331 1176
33.47343 1120
33.49354 1204
33.51365 1108
33.53377 1163
33.55388 1142
33.57399 1074
33.59411 1138
33.61422 1079
33.63434 1051
33.65445 1102
33.67456 1038
33.69468 1025
33.71479 1034
33.7349 1085
33.75502 1015
33.77513 1011
33.79524 1045
33.81536 1031
33.83547 1025
33.85559 1071
33.8757 1004
33.89581 1001
33.91593 1012
33.93604 991
33.95615 938
33.97627 1026
33.99638 1012
34.0165 958
34.03661 983
34.05672 1010
34.07684 1019
34.09695 950
34.11706 986
34.13718 989
34.15729 998
34.17741 968
34.19752 992
34.21763 982
34.23775 929
34.25786 942
34.27797 988
34.29809 1009
34.3182 982
34.33831 1013
34.35843 1009
34.37854 1003
34.39866 986
34.41877 1034
34.43888 995
34.459 990
34.47911 920
34.49922 991
34.51934 1060
34.53945 947
34.55957 970
34.57968 961
34.59979 957
34.61991 1013
34.64002 1014
34.66013 1003
34.68025 1021
34.70036 1082
34.72047 1023
34.74059 1053
34.7607 1084
34.78082 1021
34.80093 1012
34.82104 1081
34.84116 1088
34.86127 1031
34.88138 1041
34.9015 1111
34.92161 1111
34.94173 1130
34.96184 1128
34.98195 1069
35.00207 1151
35.02218 1182
35.04229 1133
35.06241 1105
35.08252 1119
35.10264 1155
35.12275 1135
35.14286 1021
35.16298 1157
35.18309 1236
35.2032 1049
35.22332 1105
35.24343 1092
35.26354 1175
35.28366 1096
35.30377 1125
35.32389 1177
35.344 1208
35.36411 1204
35.38423 1232
35.40434 1252
35.42445 1319
35.44457 1363
35.46468 1422
35.4848 1462
35.50491 1497
35.52502 1492
35.54514 1617
35.56525 1717
35.58536 1889
35.60548 1867
35.62559 1940
35.64571 1975
35.66582 1969
35.68593 1909
35.70605 1936
35.72616 1910
35.74627 1804
35.76639 1829
35.7865 1775
35.80661 1637
35.82673 1626
35.84684 1551
35.86696 1538
35.88707 1409
35.90718 1477
35.9273 1430
35.94741 1330
35.96752 1315
35.98764 1320
36.00775 1266
36.02787 1220
36.04798 1226
36.06809 1178
36.08821 1159
36.10832 1152
36.12843 1111
36.14855 1087
36.16866 1094
36.18878 1068
36.20889 1101
36.229 1063
36.24912 1092
36.26923 1095
36.28934 1034
36.30946 1081
36.32957 1089
36.34968 1088
36.3698 1045
36.38991 1068
36.41003 1104
36.43014 1071
36.45025 1131
36.47037 1221
36.49048 1210
36.51059 1240
36.53071 1249
36.55082 1207
36.57094 1186
36.59105 1181
36.61116 1101
36.63128 1134
36.65139 1095
36.6715 1052
36.69162 1027
36.71173 1008
36.73184 1060
36.75196 1048
36.77207 1044
36.79219 1027
36.8123 1025
36.83241 1051
36.85253 1033
36.87264 1079
36.89275 1009
36.91287 996
36.93298 1012
36.9531 973
36.97321 1055
36.99332 1001
37.01344 1027
37.03355 1037
37.05366 1007
37.07378 1067
37.09389 1005
37.11401 989
37.13412 1002
37.15423 1004
37.17435 999
37.19446 1018
37.21457 1019
37.23469 995
37.2548 961
37.27491 1024
37.29503 983
37.31514 975
37.33526 974
37.35537 980
37.37548 973
37.3956 921
37.41571 989
37.43582 1008
37.45594 1008
37.47605 999
37.49617 1002
37.51628 956
37.53639 1002
37.55651 952
37.57662 1041
37.59673 933
37.61685 960
37.63696 965
37.65708 1026
37.67719 957
37.6973 946
37.71742 1018
37.73753 1014
37.75764 951
37.77776 1044
37.79787 947
37.81798 978
37.8381 985
37.85821 1003
37.87833 952
37.89844 980
37.91855 977
37.93867 949
37.95878 937
37.97889 974
37.99901 1011
38.01912 1016
38.03924 987
38.05935 963
38.07946 992
38.09958 983
38.11969 1003
38.1398 1000
38.15992 1010
38.18003 947
38.20015 984
38.22026 964
38.24037 1008
38.26049 1040
38.2806 963
38.30071 979
38.32083 1027
38.34094 1056
38.36105 1030
38.38117 1025
38.40128 1069
38.4214 1066
38.44151 1031
38.46162 998
38.48174 1069
38.50185 1022
38.52196 1001
38.54208 1066
38.56219 987
38.58231 1045
38.60242 1021
38.62253 990
38.64265 959
38.66276 1033
38.68287 1009
38.70299 1004
38.7231 1011
38.74321 959
38.76333 942
38.78344 957
38.80356 1012
38.82367 1041
38.84378 993
38.8639 998
38.88401 987
38.90412 980
38.92424 963
38.94435 929
38.96447 976
38.98458 1032
39.00469 978
39.02481 1029
39.04492 1014
39.06503 982
39.08515 939
39.10526 980
39.12538 981
39.14549 1020
39.1656 1013
39.18572 1067
39.20583 995
39.22594 1041
39.24606 974
39.26617 998
39.28628 984
39.3064 988
39.32651 1001
39.34663 1016
39.36674 1042
39.38685 1036
39.40697 1167
39.42708 1138
39.44719 1157
39.46731 1186
39.48742 1100
39.50754 1103
39.52765 1059
39.54776 1034
39.56788 1033
39.58799 968
39.6081 955
39.62822 977
39.64833 1039
39.66845 989
39.68856 920
39.70867 945
39.72879 933
39.7489 924
39.76901 902
39.78913 953
39.80924 941
39.82935 948
39.84947 963
39.86958 975
39.8897 927
39.90981 924
39.92992 958
39.95004 973
39.97015 1004
39.99026 952
40.01038 908
40.03049 947
40.05061 956
40.07072 998
40.09083 995
40.11095 926
40.13106 963
40.15117 940
40.17129 1012
40.1914 1009
40.21152 1014
40.23163 1068
40.25174 996
40.27186 1012
40.29197 1040
40.31208 1024
40.3322 1017
40.35231 985
40.37242 1019
40.39254 951
40.41265 971
40.43277 991
40.45288 958
40.47299 993
40.49311 1003
40.51322 977
40.53333 935
40.55345 997
40.57356 1006
40.59368 973
40.61379 974
40.6339 960
40.65402 997
40.67413 1000
40.69424 1080
40.71436 1067
40.73447 1032
40.75458 1119
40.7747 1126
40.79481 1093
40.81493 1100
40.83504 1138
40.85515 1155
40.87527 1180
40.89538 1219
40.91549 1125
40.93561 1115
40.95572 1106
40.97584 1159
40.99595 1104
41.01606 1084
41.03618 1055
41.05629 1080
41.0764 1082
41.09652 1025
41.11663 1090
41.13675 1017
41.15686 1020
41.17697 1026
41.19709 1033
41.2172 1031
41.23731 1004
41.25743 1049
41.27754 1040
41.29765 999
41.31777 921
41.33788 993
41.358 926
41.37811 983
41.39822 984
41.41834 975
41.43845 930
41.45856 942
41.47868 951
41.49879 1007
41.51891 1000
41.53902 963
41.55913 920
41.57925 903
41.59936 882
41.61947 953
41.63959 912
41.6597 967
41.67982 886
41.69993 918
41.72004 906
41.74016 913
41.76027 971
41.78038 887
41.8005 951
41.82061 957
41.84072 1003
41.86084 968
41.88095 956
41.90107 922
41.92118 941
41.94129 917
41.96141 957
41.98152 918
42.00163 935
42.02175 924
42.04186 971
42.06198 948
42.08209 952
42.1022 906
42.12232 923
42.14243 921
42.16254 951
42.18266 947
42.20277 918
42.22289 900
42.243 931
42.26311 954
42.28323 946
42.30334 949
42.32345 984
42.34357 1023
42.36368 1006
42.38379 1026
42.40391 1034
42.42402 1039
42.44414 1014
42.46425 1040
42.48436 987
42.50448 997
42.52459 1002
42.5447 943
42.56482 998
42.58493 970
42.60505 936
42.62516 939
42.64527 939
42.66539 926
42.6855 857
42.70561 966
42.72573 879
42.74584 928
42.76595 931
42.78607 899
42.80618 927
42.8263 916
42.84641 926
42.86652 888
42.88664 913
42.90675 902
42.92686 910
42.94698 978
42.96709 956
42.98721 956
43.00732 935
43.02743 974
43.04755 880
43.06766 874
43.08777 943
43.10789 932
43.128 932
43.14812 892
43.16823 992
43.18834 948
43.20846 928
43.22857 914
43.24868 928
43.2688 968
43.28891 936
43.30902 960
43.32914 1005
43.34925 979
43.36937 992
43.38948 950
43.40959 962
43.42971 984
43.44982 1007
43.46993 976
43.49005 941
43.51016 946
43.53028 944
43.55039 934
43.5705 931
43.59062 913
43.61073 968
43.63084 996
43.65096 956
43.67107 951
43.69119 947
43.7113 911
43.73141 849
43.75153 891
43.77164 942
43.79175 924
43.81187 912
43.83198 878
43.85209 879
43.87221 931
43.89232 885
43.91244 895
43.93255 937
43.95266 923
43.97278 883
43.99289 898
44.013 925
44.03312 966
44.05323 892
44.07335 926
44.09346 892
44.11357 916
44.13369 960
44.1538 938
44.17391 920
44.19403 880
44.21414 911
44.23426 872
44.25437 918
44.27448 925
44.2946 917
44.31471 911
44.33482 924
44.35494 940
44.37505 942
44.39516 925
44.41528 932
44.43539 909
44.45551 908
44.47562 932
44.49573 926
44.51585 941
44.53596 858
44.55607 889
44.57619 822
44.5963 920
44.61642 962
44.63653 888
44.65664 901
44.67676 877
44.69687 932
44.71698 909
44.7371 909
44.75721 869
44.77732 963
44.79744 946
44.81755 925
44.83767 902
44.85778 900
44.87789 916
44.89801 898
44.91812 956
44.93823 937
44.95835 929
44.97846 982
44.99858 930
45.01869 959
45.0388 944
45.05892 935
45.07903 920
45.09914 906
45.11926 908
45.13937 954
45.15949 906
45.1796 934
45.19971 931
45.21983 914
45.23994 931
45.26005 877
45.28017 882
45.30028 842
45.32039 1002
45.34051 930
45.36062 937
45.38074 967
45.40085 994
45.42096 894
45.44108 946
45.46119 911
45.4813 1000
45.50142 942
45.52153 954
45.54165 908
45.56176 909
45.58187 921
45.60199 889
45.6221 973
45.64221 966
45.66233 994
45.68244 979
45.70256 1005
45.72267 1042
45.74278 1028
45.7629 975
45.78301 1045
45.80312 951
45.82324 973
45.84335 916
45.86346 936
45.88358 1023
45.90369 915
45.92381 966
45.94392 959
45.96403 892
45.98415 938
46.00426 916
46.02437 920
46.04449 886
46.0646 893
46.08472 888
46.10483 930
46.12494 932
46.14506 900
46.16517 930
46.18528 897
46.2054 928
46.22551 942
46.24563 955
46.26574 894
46.28585 939
46.30597 899
46.32608 919
46.34619 896
46.36631 896
46.38642 942
46.40653 886
46.42665 922
46.44676 951
46.46688 900
46.48699 930
46.5071 889
46.52722 944
46.54733 947
46.56744 894
46.58756 938
46.60767 959
46.62779 936
46.6479 950
46.66801 936
46.68813 886
46.70824 918
46.72835 934
46.74847 842
46.76858 873
46.78869 913
46.80881 911
46.82892 877
46.84904 909
46.86915 863
46.88926 911
46.90938 873
46.92949 902
46.9496 917
46.96972 901
46.98983 910
47.00995 889
47.03006 924
47.05017 946
47.07029 974
47.0904 927
47.11051 1007
47.13063 922
47.15074 836
47.17086 913
47.19097 880
47.21108 889
47.2312 894
47.25131 917
47.27142 935
47.29154 901
47.31165 916
47.33176 905
47.35188 882
47.37199 925
47.39211 939
47.41222 959
47.43233 905
47.45245 869
47.47256 936
47.49267 881
47.51279 924
47.5329 913
47.55302 917
47.57313 891
47.59324 939
47.61336 936
47.63347 970
47.65358 908
47.6737 919
47.69381 931
47.71393 905
47.73404 925
47.75415 905
47.77427 906
47.79438 925
47.81449 863
47.83461 914
47.85472 924
47.87483 985
47.89495 941
47.91506 934
47.93518 926
47.95529 910
47.9754 928
47.99552 935
48.01563 957
48.03574 957
48.05586 939
48.07597 905
48.09609 911
48.1162 915
48.13631 900
48.15643 936
48.17654 875
48.19665 925
48.21677 950
48.23688 933
48.257 868
48.27711 928
48.29722 947
48.31734 889
48.33745 972
48.35756 920
48.37768 959
48.39779 935
48.4179 930
48.43802 932
48.45813 918
48.47825 923
48.49836 904
48.51847 937
48.53859 986
48.5587 855
48.57881 906
48.59893 954
48.61904 885
48.63916 990
48.65927 957
48.67938 941
48.6995 914
48.71961 908
48.73972 954
48.75984 938
48.77995 939
48.80006 894
48.82018 913
48.84029 914
48.86041 884
48.88052 877
48.90063 920
48.92075 954
48.94086 925
48.96097 978
48.98109 926
49.0012 919
49.02132 944
49.04143 955
49.06154 929
49.08166 959
49.10177 964
49.12188 973
49.142 937
49.16211 1020
49.18223 978
49.20234 1002
49.22245 952
49.24257 964
49.26268 1024
49.28279 1049
49.30291 1090
49.32302 1047
49.34313 1052
49.36325 1133
49.38336 1127
49.40348 1057
49.42359 1086
49.4437 1127
49.46382 1110
49.48393 1123
49.50404 1108
49.52416 1120
49.54427 1055
49.56439 1043
49.5845 1121
49.60461 1080
49.62473 1082
49.64484 1076
49.66495 1053
49.68507 1051
49.70518 1114
49.7253 1053
49.74541 1021
49.76552 1023
49.78564 998
49.80575 994
49.82586 1014
49.84598 1010
49.86609 1019
49.8862 972
49.90632 981
49.92643 997
49.94655 995
49.96666 1006
49.98677 1007
50.00689 1068
50.027 1177
50.04711 1201
50.06723 1277
50.08734 1236
50.10746 1214
50.12757 1183
50.14768 1259
50.1678 1164
50.18791 1146
50.20802 1009
50.22814 1123
50.24825 1085
50.26837 1087
50.28848 1012
50.30859 1016
50.32871 902
50.34882 928
50.36893 928
50.38905 936
50.40916 945
50.42927 933
50.44939 900
50.4695 933
50.48962 946
50.50973 944
50.52984 948
50.54996 938
50.57007 960
50.59018 906
50.6103 866
50.63041 881
50.65053 902
50.67064 900
50.69075 904
50.71087 883
50.73098 897
50.75109 906
50.77121 930
50.79132 892
50.81143 939
50.83155 896
50.85166 906
50.87178 910
50.89189 915
50.912 885
50.93212 905
50.95223 913
50.97234 981
50.99246 891
51.01257 907
51.03269 950
51.0528 915
51.07291 967
51.09303 903
51.11314 864
51.13325 894
51.15337 907
51.17348 856
51.1936 857
51.21371 862
51.23382 912
51.25394 891
51.27405 915
51.29416 891
51.31428 869
51.33439 952
51.3545 852
51.37462 906
51.39473 892
51.41485 889
51.43496 903
51.45507 905
51.47519 913
51.4953 897
51.51541 929
51.53553 854
51.55564 870
51.57576 875
51.59587 858
51.61598 916
51.6361 872
51.65621 956
51.67632 861
51.69644 892
51.71655 900
51.73667 872
51.75678 887
51.77689 838
51.79701 887
51.81712 877
51.83723 930
51.85735 884
51.87746 881
51.89757 880
51.91769 836
51.9378 917
51.95792 943
51.97803 880
51.99814 890
52.01826 932
52.03837 815
52.05848 895
52.0786 933
52.09871 877
52.11883 871
52.13894 873
52.15905 869
52.17917 915
52.19928 909
52.21939 998
52.23951 921
52.25962 904
52.27974 907
52.29985 851
52.31996 865
52.34008 909
52.36019 919
52.3803 884
52.40042 927
52.42053 931
52.44064 948
52.46076 838
52.48087 920
52.50099 931
52.5211 897
52.54121 904
52.56133 862
52.58144 908
52.60155 889
52.62167 878
52.64178 895
52.6619 849
52.68201 915
52.70212 888
52.72224 929
52.74235 924
52.76246 889
52.78258 879
52.80269 910
52.8228 864
52.84292 874
52.86303 933
52.88315 899
52.90326 899
52.92337 910
52.94349 919
52.9636 864
52.98371 950
53.00383 908
53.02394 892
53.04406 902
53.06417 868
53.08428 941
53.1044 920
53.12451 965
53.14462 953
53.16474 887
53.18485 937
53.20497 894
53.22508 867
53.24519 942
53.26531 963
53.28542 880
53.30553 974
53.32565 993
53.34576 975
53.36587 903
53.38599 911
53.4061 997
53.42622 929
53.44633 925
53.46644 939
53.48656 990
53.50667 909
53.52678 951
53.5469 949
53.56701 947
53.58713 968
53.60724 938
53.62735 958
53.64747 997
53.66758 1013
53.68769 1009
53.70781 953
53.72792 991
53.74804 1025
53.76815 995
53.78826 1022
53.80838 1015
53.82849 1098
53.8486 1062
53.86872 1091
53.88883 1185
53.90894 1098
53.92906 1103
53.94917 1266
53.96929 1186
53.9894 1197
54.00951 1200
54.02963 1221
54.04974 1227
54.06985 1278
54.08997 1174
54.11008 1162
54.1302 1206
54.15031 1251
54.17042 1175
54.19054 1267
54.21065 1148
54.23076 1219
54.25088 1126
54.27099 1150
54.29111 1162
54.31122 1132
54.33133 1130
54.35145 1138
54.37156 1077
54.39167 1115
54.41179 1127
54.4319 1086
54.45201 1073
54.47213 1055
54.49224 1076
54.51236 1017
54.53247 1027
54.55258 984
54.5727 977
54.59281 1050
54.61292 1024
54.63304 1053
54.65315 979
54.67327 977
54.69338 945
54.71349 1059
54.73361 988
54.75372 970
54.77383 1024
54.79395 1081
54.81406 1023
54.83417 1020
54.85429 1126
54.8744 1060
54.89452 1060
54.91463 995
54.93474 1009
54.95486 982
54.97497 965
54.99508 1051
55.0152 1001
55.03531 949
55.05543 1001
55.07554 950
55.09565 993
55.11577 991
55.13588 983
55.15599 947
55.17611 994
55.19622 977
55.21634 976
55.23645 1008
55.25656 910
55.27668 1043
55.29679 954
55.3169 1027
55.33702 948
55.35713 986
55.37724 939
55.39736 973
55.41747 953
55.43759 899
55.4577 918
55.47781 914
55.49793 931
55.51804 956
55.53815 955
55.55827 899
55.57838 921
55.5985 924
55.61861 903
55.63872 895
55.65884 886
55.67895 861
55.69906 945
55.71918 913
55.73929 968
55.75941 939
55.77952 896
55.79963 924
55.81975 959
55.83986 864
55.85997 957
55.88009 907
55.9002 909
55.92031 947
55.94043 894
55.96054 903
55.98066 952
56.00077 915
56.02088 921
56.041 910
56.06111 864
56.08122 929
56.10134 896
56.12145 968
56.14157 937
56.16168 956
56.18179 951
56.20191 910
56.22202 914
56.24213 934
56.26225 876
56.28236 931
56.30248 909
56.32259 859
56.3427 941
56.36282 946
56.38293 891
56.40304 933
56.42316 969
56.44327 888
56.46338 939
56.4835 902
56.50361 909
56.52373 896
56.54384 925
56.56395 915
56.58407 860
56.60418 922
56.62429 850
56.64441 941
56.66452 903
56.68464 922
56.70475 914
56.72486 888
56.74498 926
56.76509 915
56.7852 883
56.80532 963
56.82543 868
56.84554 909
56.86566 948
56.88577 917
56.90589 875
56.926 895
56.94611 918
56.96623 880
56.98634 954
57.00645 953
57.02657 897
57.04668 916
57.0668 938
57.08691 977
57.10702 919
57.12714 971
57.14725 963
57.16736 929
57.18748 979
57.20759 951
57.22771 941
57.24782 962
57.26793 990
57.28805 985
57.30816 1001
57.32827 977
57.34839 975
57.3685 990
57.38861 977
57.40873 944
57.42884 977
57.44896 1022
57.46907 982
57.48918 1001
57.5093 989
57.52941 993
57.54952 1007
57.56964 1026
57.58975 999
57.60987 987
57.62998 1002
57.65009 950
57.67021 952
57.69032 991
57.71043 938
57.73055 1032
57.75066 972
57.77078 960
57.79089 953
57.811 929
57.83112 947
57.85123 927
57.87134 954
57.89146 934
57.91157 946
57.93168 949
57.9518 929
57.97191 862
57.99203 911
58.01214 939
58.03225 945
58.05237 914
58.07248 862
58.09259 862
58.11271 880
58.13282 862
58.15294 893
58.17305 885
58.19316 902
58.21328 905
58.23339 855
58.2535 924
58.27362 846
58.29373 882
58.31385 931
58.33396 925
58.35407 874
58.37419 899
58.3943 874
58.41441 860
58.43453 860
58.45464 895
58.47475 848
58.49487 936
58.51498 913
58.5351 888
58.55521 869
58.57532 843
58.59544 876
58.61555 887
58.63566 857
58.65578 918
58.67589 905
58.69601 844
58.71612 883
58.73623 887
58.75635 827
58.77646 928
58.79657 894
58.81669 868
58.8368 878
58.85691 859
58.87703 876
58.89714 863
58.91726 889
58.93737 877
58.95748 903
58.9776 851
58.99771 896
59.01782 867
59.03794 860
59.05805 887
59.07817 890
59.09828 862
59.11839 942
59.13851 867
59.15862 882
59.17873 894
59.19885 849
59.21896 924
59.23908 791
59.25919 860
59.2793 884
59.29942 831
59.31953 868
59.33964 909
59.35976 878
59.37987 864
59.39998 903
59.4201 926
59.44021 835
59.46033 892
59.48044 929
59.50055 874
59.52067 897
59.54078 866
59.56089 870
59.58101 878
59.60112 859
59.62124 916
59.64135 890
59.66146 907
59.68158 913
59.70169 872
59.7218 897
59.74192 848
59.76203 932
59.78215 945
59.80226 949
59.82237 962
59.84249 1001
59.8626 1000
59.88271 1060
59.90283 1050
59.92294 1092
59.94305 1089
59.96317 1033
59.98328 970
60.0034 977
60.02351 992
60.04362 917
60.06374 1036
60.08385 962
60.10396 1000
60.12408 920
60.14419 916
60.16431 942
60.18442 875
60.20453 930
60.22465 893
60.24476 928
60.26487 932
60.28499 902
60.3051 875
60.32522 838
60.34533 921
60.36544 842
60.38556 905
60.40567 907
60.42578 876
60.4459 856
60.46601 868
60.48612 875
60.50624 863
60.52635 818
60.54647 865
60.56658 894
60.58669 879
60.60681 891
60.62692 862
60.64703 876
60.66715 881
60.68726 841
60.70738 840
60.72749 904
60.7476 919
60.76772 862
60.78783 864
60.80794 861
60.82806 857
60.84817 827
60.86828 873
60.8884 916
60.90851 816
60.92863 853
60.94874 873
60.96885 894
60.98897 867
61.00908 897
61.02919 847
61.04931 857
61.06942 877
61.08954 840
61.10965 882
61.12976 869
61.14988 899
61.16999 916
61.1901 895
61.21022 893
61.23033 903
61.25045 876
61.27056 900
61.29067 900
61.31079 871
61.3309 855
61.35101 882
61.37113 860
61.39124 851
61.41135 823
61.43147 903
61.45158 858
61.4717 898
61.49181 908
61.51192 920
61.53204 903
61.55215 922
61.57226 848
61.59238 851
61.61249 894
61.63261 926
61.65272 876
61.67283 947
61.69295 921
61.71306 962
61.73317 912
61.75329 928
61.7734 910
61.79352 908
61.81363 888
61.83374 890
61.85386 922
61.87397 918
61.89408 979
61.9142 908
61.93431 927
61.95442 907
61.97454 958
61.99465 916
62.01477 975
62.03488 964
62.05499 964
62.07511 1023
62.09522 1011
62.11533 1036
62.13545 980
62.15556 1058
62.17568 1018
62.19579 1032
62.2159 1110
62.23602 1048
62.25613 1070
62.27624 1120
62.29636 1032
62.31647 1026
62.33659 1090
62.3567 1088
62.37681 1118
62.39693 1135
62.41704 1115
62.43715 1152
62.45727 1096
62.47738 1033
62.49749 1066
62.51761 1072
62.53772 1091
62.55784 1086
62.57795 1097
62.59806 1068
62.61818 1071
62.63829 983
62.6584 1056
62.67852 1005
62.69863 993
62.71875 1000
62.73886 1010
62.75897 953
62.77909 1017
62.7992 1002
62.81931 1005
62.83943 966
62.85954 1087
62.87965 1032
62.89977 994
62.91988 960
62.94 992
62.96011 1017
62.98022 965
63.00034 990
63.02045 1018
63.04056 978
63.06068 1002
63.08079 978
63.10091 989
63.12102 983
63.14113 977
63.16125 1015
63.18136 951
63.20147 995
63.22159 942
63.2417 1000
63.26182 1013
63.28193 913
63.30204 965
63.32216 920
63.34227 968
63.36238 889
63.3825 932
63.40261 895
63.42272 922
63.44284 949
63.46295 933
63.48307 922
63.50318 966
63.52329 875
63.54341 949
63.56352 923
63.58363 963
63.60375 868
63.62386 923
63.64398 942
63.66409 952
63.6842 989
63.70432 922
63.72443 982
63.74454 948
63.76466 955
63.78477 953
63.80489 997
63.825 921
63.84511 1023
63.86523 978
63.88534 1007
63.90545 1011
63.92557 1010
63.94568 1052
63.96579 1030
63.98591 1071
64.00602 1061
64.02614 1101
64.04625 1045
64.06636 1067
64.08648 1059
64.10659 1037
64.1267 1086
64.14682 1015
64.16693 1049
64.18705 1022
64.20716 1048
64.22727 998
64.24739 1021
64.2675 984
64.28761 978
64.30773 959
64.32784 977
64.34796 959
64.36807 997
64.38818 990
64.4083 933
64.42841 918
64.44852 927
64.46864 872
64.48875 906
64.50886 958
64.52898 923
64.54909 869
64.56921 884
64.58932 903
64.60943 873
64.62955 925
64.64966 874
64.66977 905
64.68989 878
64.71 842
64.73012 872
64.75023 847
64.77034 890
64.79046 871
64.81057 895
64.83068 874
64.8508 825
64.87091 863
64.89102 798
64.91114 868
64.93125 858
64.95137 886
64.97148 869
64.99159 853
65.01171 846
65.03182 891
65.05193 857
65.07205 829
65.09216 849
65.11228 879
65.13239 839
65.1525 818
65.17262 872
65.19273 856
65.21284 863
65.23296 829
65.25307 806
65.27319 890
65.2933 836
65.31341 896
65.33353 877
65.35364 847
65.37375 936
65.39387 828
65.41398 826
65.43409 880
65.45421 833
65.47432 875
65.49444 821
65.51455 847
65.53466 844
65.55478 785
65.57489 858
65.595 818
65.61512 811
65.63523 826
65.65535 835
65.67546 841
65.69557 844
65.71569 848
65.7358 852
65.75591 835
65.77603 874
65.79614 887
65.81626 846
65.83637 812
65.85648 811
65.8766 860
65.89671 805
65.91682 842
65.93694 857
65.95705 828
65.97716 869
65.99728 830
66.01739 841
66.03751 845
66.05762 883
66.07773 851
66.09785 840
66.11796 809
66.13807 823
66.15819 887
66.1783 826
66.19842 831
66.21853 842
66.23864 878
66.25876 837
66.27887 907
66.29898 845
66.3191 880
66.33921 807
66.35933 776
66.37944 842
66.39955 847
66.41967 824
66.43978 827
66.45989 872
66.48001 810
66.50012 836
66.52023 872
66.54035 875
66.56046 801
66.58058 809
66.60069 835
66.6208 845
66.64092 819
66.66103 810
66.68114 810
66.70126 827
66.72137 834
66.74149 792
66.7616 829
66.78171 805
66.80183 838
66.82194 853
66.84205 818
66.86217 812
66.88228 804
66.90239 815
66.92251 778
66.94262 849
66.96274 843
66.98285 856
67.00296 817
67.02308 815
67.04319 825
67.0633 832
67.08342 862
67.10353 855
67.12365 786
67.14376 827
67.16387 842
67.18399 840
67.2041 827
67.22421 833
67.24433 845
67.26444 824
67.28456 814
67.30467 816
67.32478 856
67.3449 812
67.36501 821
67.38512 857
67.40524 871
67.42535 844
67.44546 847
67.46558 856
67.48569 867
67.50581 832
67.52592 864
67.54603 872
67.56615 850
67.58626 837
67.60637 913
67.62649 866
67.6466 913
67.66672 953
67.68683 922
67.70694 915
67.72706 887
67.74717 945
67.76728 864
67.7874 888
67.80751 869
67.82763 897
67.84774 876
67.86785 924
67.88797 927
67.90808 915
67.92819 902
67.94831 823
67.96842 863
67.98853 935
68.00865 885
68.02876 890
68.04888 910
68.06899 931
68.0891 995
68.10922 1041
68.12933 975
68.14944 941
68.16956 982
68.18967 926
68.20979 932
68.2299 944
68.25001 975
68.27013 980
68.29024 943
68.31035 952
68.33047 927
68.35058 861
68.3707 842
68.39081 883
68.41092 849
68.43104 847
68.45115 877
68.47126 875
68.49138 812
68.51149 821
68.5316 898
68.55172 830
68.57183 852
68.59195 820
68.61206 822
68.63217 801
68.65229 778
68.6724 836
68.69251 828
68.71263 812
68.73274 807
68.75286 813
68.77297 798
68.79308 838
68.8132 824
68.83331 818
68.85342 860
68.87354 824
68.89365 803
68.91376 799
68.93388 771
68.95399 812
68.97411 826
68.99422 799
69.01433 840
69.03445 812
69.05456 827
69.07467 818
69.09479 822
69.1149 849
69.13502 766
69.15513 771
69.17524 798
69.19536 814
69.21547 823
69.23558 802
69.2557 810
69.27581 812
69.29593 767
69.31604 836
69.33615 798
69.35627 838
69.37638 829
69.39649 827
69.41661 813
69.43672 810
69.45683 817
69.47695 844
69.49706 813
69.51718 833
69.53729 832
69.5574 795
69.57752 831
69.59763 821
69.61774 849
69.63786 833
69.65797 853
69.67809 823
69.6982 835
69.71831 823
69.73843 866
69.75854 860
69.77865 863
69.79877 819
69.81888 791
69.839 812
69.85911 834
69.87922 808
69.89934 799
69.91945 803
69.93956 778
69.95968 751
69.97979 845
69.9999 837
70.02002 823
70.04013 820
70.06025 825
70.08036 811
70.10047 778
70.12059 785
70.1407 835
70.16081 841
70.18093 769
70.20104 820
70.22116 796
70.24127 848
70.26138 791
70.2815 845
70.30161 834
70.32172 813
70.34184 829
70.36195 787
70.38207 867
70.40218 860
70.42229 840
70.44241 746
70.46252 820
70.48263 826
70.50275 771
70.52286 795
70.54297 855
70.56309 776
70.5832 804
70.60332 816
70.62343 803
70.64354 816
70.66366 846
70.68377 838
70.70388 810
70.724 808
70.74411 775
70.76423 827
70.78434 830
70.80445 836
70.82457 794
70.84468 825
70.86479 802
70.88491 790
70.90502 852
70.92513 803
70.94525 764
70.96536 852
70.98548 778
71.00559 807
71.0257 837
71.04582 835
71.06593 790
71.08604 832
71.10616 766
71.12627 767
71.14639 771
71.1665 834
71.18661 781
71.20673 794
71.22684 797
71.24695 804
71.26707 891
71.28718 772
71.3073 836
71.32741 828
71.34752 823
71.36764 790
71.38775 806
71.40786 835
71.42798 755
71.44809 800
71.4682 808
71.48832 825
71.50843 802
71.52855 815
71.54866 821
71.56877 832
71.58889 851
71.609 784
71.62911 782
71.64923 847
71.66934 818
71.68946 883
71.70957 792
71.72968 815
71.7498 868
71.76991 849
71.79002 851
71.81014 853
71.83025 874
71.85037 887
71.87048 839
71.89059 820
71.91071 858
71.93082 885
71.95093 817
71.97105 863
71.99116 849
72.01127 888
72.03139 828
72.0515 860
72.07162 909
72.09173 871
72.11184 851
72.13196 856
72.15207 820
72.17218 845
72.1923 842
72.21241 882
72.23253 859
72.25264 789
72.27275 838
72.29287 817
72.31298 860
72.33309 818
72.35321 791
72.37332 818
72.39344 843
72.41355 803
72.43366 794
72.45378 774
72.47389 778
72.494 796
72.51412 791
72.53423 802
72.55434 781
72.57446 824
72.59457 786
72.61469 801
72.6348 818
72.65491 828
72.67503 786
72.69514 840
72.71525 760
72.73537 807
72.75548 788
72.7756 793
72.79571 808
72.81582 806
72.83594 754
72.85605 731
72.87616 827
72.89628 838
72.91639 793
72.9365 795
72.95662 807
72.97673 800
72.99685 796
73.01696 806
73.03707 843
73.05719 763
73.0773 797
73.09741 752
73.11753 813
73.13764 775
73.15776 832
73.17787 781
73.19798 799
73.2181 827
73.23821 798
73.25832 769
73.27844 817
73.29855 801
73.31867 825
73.33878 798
73.35889 808
73.37901 840
73.39912 847
73.41923 823
73.43935 842
73.45946 809
73.47957 767
73.49969 810
73.5198 794
73.53992 798
73.56003 811
73.58014 829
73.60026 806
73.62037 809
73.64048 833
73.6606 862
73.68071 784
73.70083 841
73.72094 827
73.74105 777
73.76117 784
73.78128 787
73.80139 810
73.82151 790
73.84162 794
73.86174 806
73.88185 820
73.90196 756
73.92208 777
73.94219 817
73.9623 768
73.98242 776
74.00253 823
74.02264 771
74.04276 822
74.06287 799
74.08299 833
74.1031 774
74.12321 806
74.14333 823
74.16344 737
74.18355 781
74.20367 771
74.22378 771
74.2439 816
74.26401 829
74.28412 802
74.30424 847
74.32435 792
74.34446 794
74.36458 783
74.38469 765
74.40481 832
74.42492 756
74.44503 800
74.46515 763
74.48526 852
74.50537 763
74.52549 819
74.5456 812
74.56571 788
74.58583 755
74.60594 804
74.62606 790
74.64617 798
74.66628 818
74.6864 805
74.70651 788
74.72662 766
74.74674 793
74.76685 777
74.78697 797
74.80708 796
74.82719 788
74.84731 790
74.86742 834
74.88753 723
74.90765 803
74.92776 787
74.94787 799
74.96799 820
74.9881 826
75.00822 796
