3.00117 20921.6479017941
3.02128 20870.6238332942
3.0414 19911
3.06151 19566.8752917589
3.08162 19085.2881851025
3.10174 18402.2442543113
3.12185 18143.4683915725
3.14197 17302.8274550153
3.16208 17071.4053836266
3.18219 16319.3799290781
3.20231 15851.9030833935
3.22242 15590.3617018531
3.24253 14788.3589151339
3.26265 14738.5190186912
3.28276 14096.7341655113
3.30288 13433.2305165222
3.32299 13373.1841207933
3.3431 12775
3.36322 12777.6306113812
3.38333 11940.8715314613
3.40344 11600.7358185453
3.42356 11333.0690418374
3.44367 10721.5285876615
3.46379 10626.082934761
3.4839 10233
3.50401 9902.88579925201
3.52413 9653.43899803265
3.54424 9242.50725632124
3.56435 9076.90379540958
3.58447 8440.05333471401
3.60458 8010.01185696966
3.62469 8112.11424828022
3.64481 7576.81730423936
3.66492 7504.8793847197
3.68504 7156.18617835282
3.70515 6862.58154315713
3.72526 6667.76355869093
3.74538 6203.27183653979
3.76549 6132.06443364543
3.7856 5794
3.80572 5458.85400461929
3.82583 5380.67771164536
3.84595 5075.65353654701
3.86606 5041.48523448225
3.88617 4584.53566386366
3.90629 4476.00843754012
3.9264 4356
3.94651 4060.90202909321
3.96663 3990.92651511032
3.98674 3882.72031055498
4.00686 3751.21264353171
4.02697 3626.30001889538
4.04708 3427.06034617959
4.0672 3401
4.08731 3023.89092624029
4.10742 3052.06266789904
4.12754 2982.6890615267
4.14765 2846.13586598592
4.16776 2789.40886664131
4.18788 2493.17998705704
4.20799 2501.96649213948
4.22811 2479.93644233595
4.24822 2353.99969555348
4.26833 2388.78555369638
4.28845 2115.65152197128
4.30856 2194.75623756307
4.32867 2220.05617384346
4.34879 2176.01419576014
4.3689 2113
4.38902 1900.88138164816
4.40913 1927.13281348174
4.42924 1949.82102539967
4.44936 1817.11572701325
4.46947 1827.06730898136
4.48958 1719.0546687825
4.5097 1763
4.52981 1768.9576517067
4.54992 1652.9382375963
4.57004 1635.86988517954
4.59015 1520.18479467268
4.61027 1536.90103694401
4.63038 1565.05589990636
4.65049 1483.00157812197
4.67061 1516.96244017701
4.69072 1359.93613739167
4.71083 1425.08498550564
4.73095 1384.77815211797
4.75106 1318.04094365926
4.77118 1320.02255134567
4.79129 1265.02370408148
4.8114 1259
4.83152 1298.02556729783
4.85163 1285.92207844804
4.87174 1224.92828269706
4.89186 1206.08580603961
4.91197 1153.01052276147
4.93209 1197.97668422148
4.9522 1193
4.97231 1106.96121340953
4.99243 1056.94685505777
5.01254 1038.02688745018
5.03265 1069.949413705
5.05277 1046.10590049108
5.07288 983.99427671175
5.09299 1023.01065047416
5.11311 958.001068045423
5.13322 1033.04290018471
5.15334 986.824776617859
5.17345 920.933155821669
5.19356 922.992351283905
5.21368 920.988409251367
5.23379 935.007209192353
5.2539 895
5.27402 892.011868564384
5.29413 874.886211684664
5.31425 790.974822032353
5.33436 853.89332245799
5.35447 837.099309105649
5.37459 787.992616335098
5.3947 836
5.41481 767.954792395608
5.43493 733.075667115195
5.45504 800.974976198903
5.47516 715.106968375735
5.49527 737.94154694433
5.51538 743.018803001009
5.5355 748
5.55561 815.985887378248
5.57572 701.909118900986
5.59584 702.103796536043
5.61595 754.897650326957
5.63606 754.12183718031
5.65618 676.032511094156
5.67629 683.010599705448
5.69641 630.991557192159
5.71652 678.074054245516
5.73663 728.01522911323
5.75675 708.94397812598
5.77686 694.043437275672
5.79697 664.037099008166
5.81709 665.981510776248
5.8372 694
5.85732 630.993632885983
5.87743 691.076038769762
5.89754 669.839121055331
5.91766 587.077196083505
5.93777 605.933004546665
5.95788 633.999861702778
5.978 602
5.99811 565.010978026912
6.01823 632.088239036778
6.03834 641.944453911256
6.05845 621.944117420619
6.07857 651.052064722006
6.09868 571.035276811629
6.11879 607.976423717349
6.13891 614.98898511367
6.15902 601.020120645949
6.17913 620.939261423212
6.19925 547.958347101118
6.21936 589.970530386628
6.23948 557.015424773472
6.25959 577.994466648736
6.2797 552
6.29982 543.059536786498
6.31993 614.99070979211
6.34004 536.893335475878
6.36016 549.949021430377
6.38027 556.983193416243
6.40039 577.993395792746
6.4205 570
6.44061 525.966227876342
6.46073 484.058240491992
6.48084 583.165993803551
6.50095 597.084280339815
6.52107 551.065928084887
6.54118 528.993528383577
6.56129 533.017894542449
6.58141 493.014705793811
6.60152 578.052674275094
6.62164 552.877206063692
6.64175 499.90009533497
6.66186 478.998590461927
6.68198 493.980481455872
6.70209 517.981199971937
6.7222 542
6.74232 488.982622050093
6.76243 523.059695838041
6.78255 532.97341585762
6.80266 527.96491075837
6.82277 546.031040777479
6.84289 499.010494699489
6.863 510
6.88311 481.990812528931
6.90323 493.038536198639
6.92334 513.01627320998
6.94346 507.032792899194
6.96357 488.025669366298
6.98368 497.942109019817
7.0038 550
7.02391 468.98709626499
7.04402 520.043566230035
7.06414 508.941398799792
7.08425 483.091007102713
7.10436 459.941987091223
7.12448 529.939923500476
7.14459 540.015216858176
7.16471 498.984628368915
7.18482 478.971364927516
7.20493 453.011954145661
7.22505 497.126981871497
7.24516 527.975393188508
7.26527 516.065540704754
7.28539 469.006707003993
7.3055 496
7.32562 511.991437161633
7.34573 493.985965792213
7.36584 511.086369400876
7.38596 547.010881010884
7.40607 509.041593684021
7.42618 502.018093553979
7.4463 475
7.46641 510.023598430742
7.48653 540.009708639532
7.50664 522.931031165744
7.52675 481.110292671927
7.54687 452.000693594665
7.56698 472.978148293135
7.58709 473.012114762491
7.60721 450.003255281569
7.62732 499.075938611239
7.64743 548.977771080713
7.66755 496.942504492135
7.68766 521.9475023796
7.70778 510.04316899865
7.72789 469.005811598709
7.748 483
7.76812 488.03245970613
7.78823 525.984436692302
7.80834 478.96363099862
7.82846 490.048376041635
7.84857 441.993076629059
7.86869 495.988439092792
7.8888 464
7.90891 477.022920648962
7.92903 528.058625557701
7.94914 522.86965760271
7.96925 453.004646556975
7.98937 508.953250297711
8.00948 483.033007164167
8.0296 469
8.04971 449.002852147341
8.06982 482.034621329681
8.08994 493.980058702696
8.11005 471.938088129321
8.13016 463.960981371632
8.15028 487.008410218284
8.17039 445.021206842449
8.1905 449
8.21062 511.983707161811
8.23073 431.924028484695
8.25085 457.138086371777
8.27096 494.965281252867
8.29107 495.017640555797
8.31119 468.025407938531
8.3313 415
8.35141 441.032539658521
8.37153 503.03904950111
8.39164 486.935461590757
8.41176 466.01439599873
8.43187 482.925986985877
8.45198 516.041060782082
8.4721 442
8.49221 490.997291272957
8.51232 427.986732444613
8.53244 483.069864615557
8.55255 477.943835080008
8.57266 523.011514931951
8.59278 468.028640104704
8.61289 484.996619272605
8.63301 456.984401384016
8.65312 459.040547337573
8.67323 497.987168666899
8.69335 456.968523017542
8.71346 473.030929829009
8.73357 432.995651511219
8.75369 477.990816417993
8.7738 450
8.79392 460.030341715302
8.81403 487.022001252276
8.83414 473.905156180782
8.85426 419.054854355876
8.87437 429.960478731949
8.89448 435.030229881632
8.9146 402
8.93471 452.018103060327
8.95483 445.96279778027
8.97494 431.000697282309
8.99505 441.971510305824
9.01517 450.979483972461
9.03528 461.009401236203
9.05539 441.002910385048
9.07551 440.986455473576
9.09562 400.994716743079
9.11573 441.072713368815
9.13585 461.983295055406
9.15596 441.043278949591
9.17608 431.996120091845
9.19619 438.001451082469
9.2163 418
9.23642 412.061549397114
9.25653 494.02235021261
9.27664 428.857843880174
9.29676 403.0037589654
9.31687 406.979877884108
9.33699 426.990108419089
9.3571 438
9.37721 430.996113982068
9.39733 425.992936051328
9.41744 425.017438196795
9.43755 437.986120918741
9.45767 439.97938634279
9.47778 456.006857421972
9.4979 431
9.51801 441.007118300359
9.53812 440.985890564072
9.55824 418.95295171253
9.57835 407.016998952063
9.59846 421.989499315657
9.61858 423.977175906141
9.63869 450.006524501266
9.6588 402
9.67892 403.017520412983
9.69903 403.957990817383
9.71915 378.049618600262
9.73926 425.971708229621
9.75937 395.03896018595
9.77949 409.979078993473
9.7996 440
9.81971 401.981490912856
9.83983 393.022562362709
9.85994 413.019544598554
9.88006 404.042390769507
9.90017 387.00380791632
9.92028 406.959847757898
9.9404 431
9.96051 387.003765544359
9.98062 417.957975357826
10.00074 346.076121766887
10.02085 462.940991346456
10.04097 364.11837437921
10.06108 383.944041131634
10.08119 415.994910326061
10.10131 413.996470806927
10.12142 405.988210342951
10.14153 393.991763670487
10.16165 390.9725057034
10.18176 393.901580509982
10.20187 449.019230961603
10.22199 384.013578325874
10.2421 420
10.26222 412.974313460138
10.28233 407.043792301238
10.30244 438.973279597706
10.32256 385.081916355993
10.34267 389.952999653835
10.36278 416.988997725174
10.3829 410
10.40301 411.016655042947
10.42313 441.966649530265
10.44324 383.949266511293
10.46335 406.95208932156
10.48347 391.045405379249
10.50358 383.96669638116
10.52369 424.0023134175
10.54381 390.001649140688
10.56392 436.027428957786
10.58403 413.937569010559
10.60415 383.959622596772
10.62426 390.925037711595
10.64438 420.026387385306
10.66449 370.995685530876
10.6846 430
10.70472 400.994748320231
10.72483 437.030948659964
10.74494 409.898517260719
10.76506 386.933707688552
10.78517 442.974644179914
10.80529 409.017341237514
10.8254 402
10.84551 397.000442116518
10.86563 406.013399782405
10.88574 410.00430260676
10.90585 415.969515345982
10.92597 424.013830038916
10.94608 417.969255009581
10.9662 455
10.98631 374.96334533705
11.00642 368.055191067284
11.02654 441.099399059626
11.04665 442.082976243272
11.06676 409.025165632156
11.08688 410.012232341302
11.10699 389.997576748026
11.1271 416
11.14722 404.997207532082
11.16733 414.996395275912
11.18745 411.075759282302
11.20756 448.040643212439
11.22767 376.08046063022
11.24779 388.97076504237
11.2679 435
11.28801 393.986836092445
11.30813 406.034724501335
11.32824 425.05248392453
11.34836 439.059272863735
11.36847 383.049684623524
11.38858 387.990358725866
11.4087 390
11.42881 421.013519063258
11.44892 423.977806923433
11.46904 395.97412386716
11.48915 408.927398965466
11.50927 418.056395190326
11.52938 367.00371232295
11.54949 408.987349128137
11.56961 401.002037845307
11.58972 431.024183160775
11.60983 432.99190924924
11.62995 436.030876507171
11.65006 442.034181725897
11.67017 412.023453301642
11.69029 428.979673776042
11.7104 465
11.73052 438.944595547871
11.75063 399.02026108481
11.77074 433.973472162569
11.79086 387.986187448685
11.81097 447.958535847452
11.83108 421.018615617604
11.8512 437
11.87131 423.98599719239
11.89143 415.048844867111
11.91154 449.951007500603
11.93165 389.029707101077
11.95177 427.990206050436
11.97188 391.008008007836
11.99199 430.982871301895
12.01211 420.980269973387
12.03222 396.019177958955
12.05234 431.991353044005
12.07245 402.039049006505
12.09256 448.020815790286
12.11268 386.021848503196
12.13279 430.976575975282
12.1529 431
12.17302 396.976599356451
12.19313 388.999315030105
12.21324 385.984797496081
12.23336 387.94451337272
12.25347 418.011851934485
12.27359 385.002376581958
12.2937 426
12.31381 454.003838667192
12.33393 439.940379655721
12.35404 396.962149026771
12.37415 411.920621600999
12.39427 425.036802412583
12.41438 384.016921380617
12.4345 394
12.45461 385.010914085617
12.47472 428.014730158367
12.49484 401.939578946816
12.51495 383.069610080803
12.53506 347.04434436841
12.55518 354.967276392755
12.57529 397.978313458362
12.5954 431
12.61552 425.957572611906
12.63563 374.97271655573
12.65575 378.937687350426
12.67586 339.973064278347
12.69597 388.002780808152
12.71609 340.002777097732
12.7362 389
12.75631 376.002502972565
12.77643 396.96528542414
12.79654 357.061162210803
12.81666 432.984345123084
12.83677 366.053258939314
12.85688 394.979614777719
12.877 370
12.89711 355.999591439776
12.91722 366.02533584416
12.93734 377.930137412557
12.95745 322.041472421844
12.97757 359.928318915838
12.99768 380.998469288754
13.01779 372.008993506675
13.03791 366.012846845286
13.05802 388.965954026058
13.07813 331.008732189257
13.09825 398.095301222906
13.11836 369.089740956485
13.13847 354.980496760866
13.15859 379.987251895424
13.1787 388
13.19882 360.983795561394
13.21893 358.99225802398
13.23904 349.001981496332
13.25916 366.950265854261
13.27927 378.021064277116
13.29938 353.010305144074
13.3195 360
13.33961 340.984367267004
13.35973 324.024361180325
13.37984 359.040491585173
13.39995 352.034093451158
13.42007 349.988948429716
13.44018 351.018862225783
13.46029 336.985321589167
13.48041 385.001372151785
13.50052 338.965450529848
13.52064 348.050424000359
13.54075 363.013259827705
13.56086 357.039016117454
13.58098 339.995853953945
13.60109 358.995607241568
13.6212 355
13.64132 360.975067216815
13.66143 320.988887592095
13.68154 339.984266501851
13.70166 309.987643531908
13.72177 345.998172757617
13.74189 316.994902545032
13.762 370
13.78211 352.989463647237
13.80223 353.006036944212
13.82234 353.009886254544
13.84245 349.088804631071
13.86257 319.94179920299
13.88268 397.973904659809
13.9028 353
13.92291 344.996514124609
13.94302 340.033389029759
13.96314 379.955829941089
13.98325 315.048390300599
14.00336 348.985541419221
14.02348 313.015097922471
14.04359 355.963034302556
14.06371 406.999918672997
14.08382 368.965410466078
14.10393 354.975091469827
14.12405 331.976338405081
14.14416 334.016128419116
14.16427 328.950793593639
14.18439 375.000541126948
14.2045 331
14.22461 350.008044960081
14.24473 344.999677184666
14.26484 361.035481280497
14.28496 369.992484590043
14.30507 358.062721334014
14.32518 313.006462749517
14.3453 344
14.36541 338.990752376162
14.38552 328.000619218303
14.40564 335.008235629508
14.42575 333.998017806718
14.44587 334.015445506317
14.46598 317.010274166006
14.48609 315.002682440848
14.50621 316.014391582232
14.52632 356.012660709341
14.54643 330.947712188825
14.56655 321.056085920528
14.58666 339.061715096965
14.60677 294.965090886181
14.62689 371.982176459854
14.647 336
14.66712 331.015729832413
14.68723 354.051405996025
14.70734 377.974915941011
14.72746 342.039325962907
14.74757 345.010508365591
14.76768 325.999980652541
14.7878 341
14.80791 320.001319071316
14.82803 338.982951655477
14.84814 298.959692294984
14.86825 314.94935642562
14.88837 326.965958009943
14.90848 351.003627733901
14.92859 327.004015109959
14.94871 344.007395606484
14.96882 342.996553561126
14.98894 338.968103155141
15.00905 316.97381221703
15.02916 321.985706509795
15.04928 326.988246500545
15.06939 333.010670595474
15.0895 298
15.10962 319.031058357394
15.12973 336.002995501595
15.14984 331.999358720396
15.16996 333.019247060125
15.19007 318.999941045959
15.21019 340.983400668881
15.2303 354
15.25041 315.00143005108
15.27053 360.052456297523
15.29064 343.886887733084
15.31075 293.020920495255
15.33087 328.931608000748
15.35098 347.012831056324
15.3711 329
15.39121 337.981173635951
15.41132 287.019297528796
15.43144 359.046829334503
15.45155 310.110165745296
15.47166 321.915160353099
15.49178 347.015345470795
15.51189 308.011308221358
15.53201 328.024527142367
15.55212 360.984532120252
15.57223 315.965189334852
15.59235 330.04007217133
15.61246 323.039917755499
15.63257 309.993856667438
15.65269 322.998282624032
15.6728 309
15.69291 300.005577676841
15.71303 325.035966655701
15.73314 328.958729094552
15.75326 305.001978259773
15.77337 320.998600055225
15.79348 299.020496846849
15.8136 290
15.83371 291.021343043939
15.85382 349.016935019247
15.87394 318.945822661153
15.89405 316.017260847147
15.91417 308.962400199643
15.93428 347.998055912534
15.95439 324.992439715215
15.97451 373.00601760639
15.99462 331.957426119121
16.01473 326.027184668434
16.03485 335.955053389073
16.05496 310.981962131887
16.07508 342.997091040081
16.09519 306.017714050268
16.1153 305
16.13542 336.023473590786
16.15553 350.022507042051
16.17564 354.946334804879
16.19576 314.029604891138
16.21587 327.991273568029
16.23598 315.005378497571
16.2561 329
16.27621 340.002757492378
16.29633 344.006148003452
16.31644 337.944124000302
16.33655 296.087933121891
16.35667 293.943538902182
16.37678 340.981338424397
16.39689 323.012769687512
16.41701 323.014902122306
16.43712 355.001840341492
16.45724 328.961192033733
16.47735 330.00340182953
16.49746 320.025569554015
16.51758 313.000891663102
16.53769 328.97841896172
16.5578 360
16.57792 299.996549596497
16.59803 350.023803072498
16.61814 318.992623399702
16.63826 350.002516534345
16.65837 308.036288761273
16.67849 321.992895700381
16.6986 317
16.71871 316.997067161921
16.73883 311.017075634138
16.75894 337.040358362672
16.77905 342.991785357574
16.79917 349.992035918227
16.81928 344.021499195143
16.8394 325
16.85951 348.00441877281
16.87962 336.994261748493
16.89974 340.986511663617
16.91985 316.074212732211
16.93996 304.963580101304
16.96008 331.995676613747
16.98019 314.004261696163
17.00031 329.010390526171
17.02042 330.976068968658
17.04053 295.964522188718
17.06065 305.10292569721
17.08076 341.013737836687
17.10087 303.029971446835
17.12099 320.986569096483
17.1411 346
17.16121 376.988467471164
17.18133 310.920285078194
17.20144 310.072071222551
17.22156 341.003244054904
17.24167 320.995568511565
17.26178 345.995471852343
17.2819 329
17.30201 353.002265370692
17.32212 323.963884612326
17.34224 307.00540497367
17.36235 327.907554453347
17.38247 357.997965372185
17.40258 332.030219247524
17.42269 324.98950106917
17.44281 359.013363945808
17.46292 356.967510931786
17.48303 309.93527538273
17.50315 290.013127657405
17.52326 307.967786571546
17.54338 313.998189412397
17.56349 317.996737491874
17.5836 327
17.60372 332.994681245403
17.62383 336.055908774224
17.64394 379.993336863076
17.66406 329.088831135946
17.68417 330.947390867194
17.70428 358.00948132279
17.7244 323
17.74451 342.022497083147
17.76463 372.985003488388
17.78474 341.989487823096
17.80485 372.923083515503
17.82497 379.01124475317
17.84508 367.018579600547
17.86519 361.984460946582
17.88531 394.988842957051
17.90542 340.995368586801
17.92554 375.968607957757
17.94565 305.905611717103
17.96576 323.976665889263
17.98588 306.008732416287
18.00599 325.985408712121
18.0261 341
18.04622 332.002953650667
18.06633 340.98768401317
18.08645 320.992386338489
18.10656 338.971247731692
18.12667 333.028051965039
18.14679 321.995123780821
18.1669 340
18.18701 314.983614327963
18.20713 311.066164446353
18.22724 365.011565577264
18.24735 323.077954870311
18.26747 329.97813876816
18.28758 332.9973085781
18.3077 345
18.32781 358.99859467348
18.34792 337.970866501622
18.36804 324.029887609436
18.38815 343.039220932446
18.40826 304.023759256734
18.42838 319.008792754736
18.44849 293.991354008505
18.46861 347.011516896251
18.48872 323.979937944655
18.50883 337.041273588092
18.52895 355.006280296389
18.54906 344.033241102164
18.56917 332.006895921511
18.58929 335.994468782914
18.6094 338
18.62951 300.985772773435
18.64963 309.073725383995
18.66974 366.052071204416
18.68986 354.037941362163
18.70997 351.987967872097
18.73008 353.016138827518
18.7502 333
18.77031 352.006740209225
18.79042 345.984904791318
18.81054 335.998310152327
18.83065 333.050416696275
18.85077 313.97604780986
18.87088 352.984264787228
18.89099 338.003559007615
18.91111 345.995897201429
18.93122 334.027965871046
18.95133 388.032835448621
18.97145 361.919229975001
18.99156 349.017643128024
19.01168 342.988840908594
19.03179 357.006004732867
19.0519 330
19.07202 359.025368201128
19.09213 359.984673693756
19.11224 349.977208855025
19.13236 340.007563235698
19.15247 347.969038471713
19.17258 363.010184439122
19.1927 340
19.21281 366.016842456205
19.23293 380.986807735415
19.25304 361.978859848156
19.27315 378.887950080384
19.29327 423.975834265395
19.31338 406.028406381374
19.33349 397.990040216024
19.35361 418.99370854639
19.37372 392.012441273803
19.39384 430.997525945669
19.41395 404.069777740087
19.43406 483.905388197713
19.45418 471.017689659932
19.47429 488.980798312398
19.4944 515
19.51452 498.007086219152
19.53463 547.108098643418
19.55475 586.925366362036
19.57486 537.959250628047
19.59497 615.947308294062
19.61509 586.008554831172
19.6352 624
19.65531 664.010497392154
19.67543 675.01651611375
19.69554 683.989323474084
19.71565 677.952009289704
19.73577 711.981991590814
19.75588 706.980495758259
19.776 743
19.79611 718.001975536015
19.81622 751.005823395005
19.83634 732.028880798858
19.85645 771.00999740887
19.87656 733.98513524547
19.89668 787.975573961614
19.91679 759.015179525989
19.93691 757.002234789716
19.95702 746.97659180979
19.97713 720.972504080734
19.99725 721.048151493436
20.01736 740.004137073993
20.03747 726.989888431613
20.05759 733.022978841073
20.0777 644
20.09782 641.053592749676
20.11793 701.039588528571
20.13804 683.937675976295
20.15816 673.964649195987
20.17827 696.005339789041
20.19838 674.003229260531
20.2185 681
20.23861 627.989829060671
20.25872 661.050263189556
20.27884 675.924812168359
20.29895 634.943598945696
20.31907 706.940175375078
20.33918 686.029547075215
20.35929 680.001144177979
20.37941 682.01338588073
20.39952 722.020621442405
20.41963 712.974677930706
20.43975 696.930618271717
20.45986 685.905680194491
20.47998 764.957991452616
20.50009 758.998548648596
20.5202 796
20.54032 816.011650920223
20.56043 831.028499631863
20.58054 870.147348939985
20.60066 946.936459921795
20.62077 949.944290432325
20.64088 1070.81063214465
20.661 1260
20.68111 1398.13261355777
20.70123 1762.46108200644
20.72134 1967.40564732317
20.74145 2281.92112584795
20.76157 2721.52005223916
20.78168 2942.74032785447
20.80179 3227.92421002701
20.82191 3222.98513826233
20.84202 3186.84505107447
20.86214 2876.23163756621
20.88225 2454.77275384542
20.90236 1964.74262870278
20.92248 1708.25025092933
20.94259 1399.15714839849
20.9627 1148
20.98282 1033.88139591827
21.00293 906.878651642356
21.02305 855.777799471251
21.04316 741.116107470972
21.06327 750.986805550269
21.08339 710.03475889576
21.1035 664
21.12361 708.01236999551
21.14373 689.953257965947
21.16384 661.925216167173
21.18395 627.017465920769
21.20407 639.004552146324
21.22418 606.043408880351
21.2443 584
21.26441 610.002596873538
21.28452 585.972578373579
21.30464 566.952316775007
21.32475 548.968904259943
21.34486 578.98003607279
21.36498 561.016256664334
21.38509 562.99636139354
21.40521 559.992069643639
21.42532 546.0054289091
21.44543 569.031676784907
21.46555 574.991423099906
21.48566 564.044353870278
21.50577 529.067447382573
21.52589 492.006416338046
21.546 507
21.56612 537.024907386353
21.58623 547.988195957276
21.60634 513.875404470524
21.62646 465.974685434388
21.64657 522.941519912706
21.66668 518.013143204657
21.6868 510
21.70691 481.001772724982
21.72702 517.032020977129
21.74714 506.891532048072
21.76725 469.888435479639
21.78737 540.038557157774
21.80748 452.991873726185
21.82759 547.991736560034
21.84771 459.973490452543
21.86782 485.007843102325
21.88793 447.97840032559
21.90805 480.087885178259
21.92816 481.055482130543
21.94828 461.978037615198
21.96839 506.991351062129
21.9885 484
22.00862 490.033618765224
22.02873 518.993107734768
22.04884 476.891265352746
22.06896 444.9970028966
22.08907 471.949252520751
22.10919 492.996776290996
22.1293 482
22.14941 451.995039785738
22.16953 460.005658399821
22.18964 441.929637567027
22.20975 413.007763793759
22.22987 439.937279011069
22.24998 486.943381241434
22.27009 517.019221256185
22.29021 449.993487408772
22.31032 483.9922305135
22.33044 425.944459658184
22.35055 459.112185714326
22.37066 477.993475785647
22.39078 473.016473697878
22.41089 456.001492138784
22.431 461
22.45112 439.985040947205
22.47123 442.016008916754
22.49135 454.035236503786
22.51146 464.00294962447
22.53157 456.003505065384
22.55169 458.003573263941
22.5718 450
22.59191 475.002877845958
22.61203 463.004084093945
22.63214 476.978918426704
22.65225 456.946278113935
22.67237 498.019227942543
22.69248 436.03248027964
22.7126 453
22.73271 441.007320725722
22.75282 473.996001705711
22.77294 431.948592716621
22.79305 439.98646285154
22.81316 430.003552998351
22.83328 438.004400814171
22.85339 439.975369681424
22.87351 505.003576120215
22.89362 441.927848075663
22.91373 426.068808405728
22.93385 478.998199753713
22.95396 440.996691719437
22.97407 484.981838648983
22.99419 453.006951713152
23.0143 464
23.03442 426.010107057554
23.05453 472.00436165876
23.07464 429.979614298645
23.09476 462.978355508431
23.11487 436.022938460607
23.13498 456.96774069565
23.1551 472
23.17521 460.00100234709
23.19532 460.965462155938
23.21544 402.931750768205
23.23555 410.945401859936
23.25567 419.008040183221
23.27578 416.982411812837
23.29589 440.999709044233
23.31601 427.005017769781
23.33612 460.016086807379
23.35623 450.99568266793
23.37635 456.966295741914
23.39646 428.023403327629
23.41658 433.011141108772
23.43669 419.983782020998
23.4568 488
23.47692 474.949918023242
23.49703 425.95470383731
23.51714 419.007803464145
23.53726 421.994692123482
23.55737 420.017338531893
23.57749 414.988625774517
23.5976 450
23.61771 440.005859041862
23.63783 461.968334370264
23.65794 436.121189771375
23.67805 540.965151019653
23.69817 448.121223252209
23.71828 452.953579297494
23.73839 481.003258814972
23.75851 464.006311389928
23.77862 493.99490900819
23.79874 455.967398605774
23.81885 478.057392964415
23.83896 480.007925451597
23.85908 481.99531167769
23.87919 481.005906802023
23.8993 468
23.91942 498.05936811962
23.93953 541.973863680122
23.95965 488.957805917913
23.97976 521.949511351734
23.99987 511.027735124139
24.01999 506.998028883846
24.0401 516
24.06021 538.009069334609
24.08033 537.963152512262
24.10044 504.962993980171
24.12056 508.975945796135
24.14067 511.017454242539
24.16078 503.980340411419
24.1809 532
24.20101 501.996145012701
24.22112 515.987626796311
24.24124 481.994814662265
24.26135 504.032483253574
24.28146 460.021979524342
24.30158 488.988283736276
24.32169 463.013417494957
24.34181 473.023942366369
24.36192 524.017376487843
24.38203 496.931004656942
24.40215 464.97633581035
24.42226 479.933943714158
24.44237 509.982675496092
24.46249 501.00818349323
24.4826 488
24.50272 476.991585063442
24.52283 469.987480658339
24.54294 459.982079759155
24.56306 454.006970337464
24.58317 466.934272079277
24.60328 517.98094968133
24.6234 491
24.64351 460.000285867839
24.66362 482.019077019134
24.68374 484.995346898003
24.70385 480.039077618962
24.72397 466.983156460175
24.74408 495.981711508713
24.76419 488.010804938457
24.78431 475.002759605158
24.80442 496.023460096703
24.82453 498.958291495667
24.84465 457.935453877838
24.86476 462.952637473982
24.88488 484.988278459208
24.90499 489.994959052664
24.9251 502
24.94522 485.98325470665
24.96533 487.035423242222
24.98544 516.023868686656
25.00556 502.052892937969
25.02567 487.984485454945
25.04579 506.001588807067
25.0659 498
25.08601 541.990772308669
25.10613 483.999589407645
25.12624 548.076163494442
25.14635 528.051668068279
25.16647 541.960282027067
25.18658 545.034533749948
25.20669 515.982898003039
25.22681 575.994992396827
25.24692 496.948875515958
25.26704 513.053544822563
25.28715 523.053770886539
25.30726 550.00504597017
25.32738 517.029473938528
25.34749 515.990549872674
25.3676 534
25.38772 532.010647627218
25.40783 541.965138312408
25.42795 497.951592272271
25.44806 516.94784291125
25.46817 522.019986743391
25.48829 497.016170021519
25.5084 488
25.52851 539.997875174048
25.54863 495.99940214571
25.56874 548.060452656991
25.58886 536.002295610271
25.60897 556.998317458798
25.62908 534.009119256602
25.6492 552
25.66931 545.981802161567
25.68942 530.059655245841
25.70954 628.085520755913
25.72965 602.03978577092
25.74976 611.059981467191
25.76988 563.977111962581
25.78999 656.962306499062
25.81011 660.982582212845
25.83022 628.980433804523
25.85033 620.990651543151
25.87045 610.976874065402
25.89056 616.937703273764
25.91067 657.962744892878
25.93079 660.999491315317
25.9509 673
25.97102 690.021964221497
25.99113 699.96519850562
26.01124 675.051909268086
26.03136 738.929466755979
26.05147 726.022963933743
26.07158 749.941296504693
26.0917 803
26.11181 779.995104572102
26.13193 805.052605544259
26.15204 821.989550499958
26.17215 844.73885717626
26.19227 1005.79638683326
26.21238 1060.00531097821
26.23249 1082.942212566
26.25261 1233.0295231267
26.27272 1231.08977043851
26.29283 1448.33654790318
26.31295 1622.44920955976
26.33306 1862.41559062091
26.35318 2169.71617072963
26.37329 2455.82865030124
26.3934 2923
26.41352 3601.70328676195
26.43363 4391.46000841789
26.45374 5598.72099446383
26.47386 7034.06887016672
26.49397 8575.51401477689
26.51409 10450.9510296982
26.5342 12549
26.55431 13874.4506231703
26.57443 14532.7647008338
26.59454 14821.7756414225
26.61465 14218.49110834
26.63477 12869.591865779
26.65488 10814.2497071162
26.67499 8676.89148803406
26.69511 7059.09014579188
26.71522 5097.38352542221
26.73534 3982.21250147684
26.75545 3055.74824114972
26.77556 2299.05091126063
26.79568 1934.34208340393
26.81579 1598.09800817933
26.8359 1516
26.85602 1292.77362760248
26.87613 1143.87626164332
26.89625 1072.74964261975
26.91636 955.159644513703
26.93647 927.022577193168
26.95659 879.043419535477
26.9767 787
26.99681 777.001933678378
27.01693 761.947815358529
27.03704 712.888226258932
27.05716 678.978172094364
27.07727 696.05705889902
27.09738 628.01057903446
27.1175 680
27.13761 652.978147712827
27.15772 631.999407826496
27.17784 635.990733982394
27.19795 616.070959128567
27.21806 591.031854512212
27.23818 581.012483935985
27.25829 560.013328788595
27.27841 548.010324526773
27.29852 591.036666355824
27.31863 588.932336994152
27.33875 538.971070094235
27.35886 562.972261414158
27.37897 559.971947843264
27.39909 591.002650399754
27.4192 551
27.43932 553.991989531528
27.45943 529.990281485404
27.47954 530.930732902082
27.49966 473.049225739152
27.51977 505.911644546318
27.53988 552.972315143885
27.56 549
27.58011 504.996894947939
27.60023 530.014039291049
27.62034 503.930983174713
27.64045 488.983969542354
27.66057 511.950681805428
27.68068 526.027494151931
27.70079 476.015073037978
27.72091 483.009827918731
27.74102 493.002209448672
27.76113 500.033393499762
27.78125 516.950908397316
27.80136 481.99480786395
27.82148 505.026367226549
27.84159 446.0021826573
27.8617 494
27.88182 450.975990000367
27.90193 482.074587873307
27.92204 507.990344105891
27.94216 472.119668892496
27.96227 423.01373632204
27.98239 452.980307270822
28.0025 464
28.02261 437.00857087197
28.04273 495.075183697428
28.06284 496.922237318014
28.08295 459.004637906181
28.10307 473.037580598734
28.12318 420.014067231765
28.1433 448
28.16341 425.001628811717
28.18352 455.001526783263
28.20364 434.034814114863
28.22375 480.009740745439
28.24386 434.065639914469
28.26398 445.973913785064
28.28409 456.002964851642
28.3042 449
28.32432 471.024162095559
28.34443 478.979278128538
28.36455 452.943092450068
28.38466 447.975160668328
28.40477 467.973080529265
28.42489 475.00178426316
28.445 460
28.46511 431.992645697686
28.48523 437.026632636057
28.50534 456.030723526666
28.52546 457.038957144024
28.54557 429.027057596521
28.56568 438.962241356266
28.5858 476
28.60591 450.984722179147
28.62602 441.010656339569
28.64614 462.041675074872
28.66625 460.09288253894
28.68636 418.00697139552
28.70648 450.976245362723
28.72659 434.021855331261
28.74671 399.999478425956
28.76682 425.021101482919
28.78693 424.986745861687
28.80705 419.998291291676
28.82716 418.018482579828
28.84727 415.961424642839
28.86739 457.987230480762
28.8875 439
28.90762 392.014346201754
28.92773 444.025513738527
28.94784 422.013666507506
28.96796 452.041065694806
28.98807 397.994674069451
29.00818 447.009072174057
29.0283 373
29.04841 399.015898910459
29.06853 399.992188086153
29.08864 417.085812749507
29.10875 444.087726645019
29.12887 377.032900321982
29.14898 422.940277580752
29.16909 449.999529516393
29.18921 439.993670031863
29.20932 428.987026818115
29.22943 414.984877734728
29.24955 415.028965844759
29.26966 431.971341870513
29.28978 429.027268731562
29.30989 406.989887571999
29.33 449
29.35012 402.944046755705
29.37023 378.009147105438
29.39034 397.027638922307
29.41046 399.991595070346
29.43057 405.010262740461
29.45069 391.001797632704
29.4708 401
29.49091 407.007148578262
29.51103 421.994325709401
29.53114 398.953547796815
29.55125 399.92272300659
29.57137 436.980588759523
29.59148 413.04363336232
29.6116 385
29.63171 420.019340784462
29.65182 447.023853080226
29.67194 454.94055735012
29.69205 403.915863977351
29.71216 401.987309628152
29.73228 404.988550248642
29.75239 423.993257076541
29.7725 417
29.79262 395.018252297574
29.81273 422.961859012402
29.83285 355.916717946797
29.85296 389.879882612038
29.87307 425.997141087323
29.89319 402.015788508956
29.9133 379
29.93341 368.998237246481
29.95353 376.031557798943
29.97364 409.077766611322
29.99376 430.031105610393
30.01387 387.063798543839
30.03398 377.969643315299
30.0541 415
30.07421 392.998269710562
30.09432 421.027379713978
30.11444 427.996657351737
30.13455 417.081027326186
30.15467 383.999686243947
30.17478 406.998524761811
30.19489 392.989562742088
30.21501 439.005198783658
30.23512 400.961229503225
30.25523 394.015745704547
30.27535 409.051861465756
30.29546 420.031798724665
30.31557 392.011977882065
30.33569 402.003044025174
30.3558 383
30.37592 420.037839138792
30.39603 427.965972285909
30.41614 398.980173070943
30.43626 408.988769163208
30.45637 397.027751220202
30.47648 385.003234386827
30.4966 383
30.51671 377.010488783194
30.53683 404.988218531228
30.55694 356.900737526229
30.57705 352.872384479148
30.59717 414.972194412468
30.61728 387.023337679249
30.63739 396.989493854426
30.65751 408.000969075031
30.67762 389.950285882001
30.69773 338.986344058122
30.71785 378.12676860473
30.73796 395.053403998348
30.75808 358.003829616675
30.77819 384.993998745783
30.7983 367
30.81842 378.036235349521
30.83853 403.974128812548
30.85864 363.981400001504
30.87876 391.963082819377
30.89887 382.016387634967
30.91899 381.003814733698
30.9391 365
30.95921 375.013462073154
30.97933 399.004596498042
30.99944 377.939122441621
31.01955 354.038377079158
31.03967 348.991640636052
31.05978 364.974203925057
31.0799 397
31.10001 416.995753281315
31.12012 385.966598447957
31.14024 374.027697152269
31.16035 385.062159466556
31.18046 348.977982457348
31.20058 398.977950004755
31.22069 364.027137811873
31.2408 341
31.26092 382.020033478427
31.28103 376.003286457392
31.30115 394.017808208942
31.32126 372.084793326478
31.34137 334.024643336517
31.36149 350.977394956728
31.3816 379
31.40171 322.996001364997
31.42183 366.035215706553
31.44194 345.96473716104
31.46206 349.007330464739
31.48217 345.951490825379
31.50228 397.979692879387
31.5224 365
31.54251 335.009131981232
31.56262 378.022452012435
31.58274 366.974570390474
31.60285 373.959026430269
31.62297 389.976340430619
31.64308 395.016761613361
31.66319 357.02355262626
31.68331 339.019043662318
31.70342 399.020192517002
31.72353 371.969070330071
31.74365 379.006876682222
31.76376 357.069840682544
31.78387 336.982410518098
31.80399 361.000149937722
31.8241 343
31.84422 379.024282887371
31.86433 366.950297466485
31.88444 345.013537128535
31.90456 370.964372601772
31.92467 357.063531052658
31.94478 323.988554715616
31.9649 362
31.98501 336.991211531721
32.00513 353.048481098356
32.02524 378.021322665677
32.04535 373.038104448795
32.06547 362.99167770131
32.08558 366.027928982821
32.10569 323.006537279677
32.12581 345.00871504048
32.14592 347.014912916415
32.16604 371.001124424538
32.18615 354.008695984649
32.20626 375.005081319879
32.22638 350.005292706242
32.24649 367.000129129958
32.2666 344
32.28672 357.016551932186
32.30683 363.002966193703
32.32694 353.933011727403
32.34706 322.974443981193
32.36717 367.96337931447
32.38729 365.990920692431
32.4074 394
32.42751 339.991045299994
32.44763 370.029347562338
32.46774 350.944343978416
32.48785 345.949821000758
32.50797 378.953308193139
32.52808 393.004236584249
32.5482 378
32.56831 365.995962206104
32.58842 356.986679284591
32.60854 350.027272809967
32.62865 373.976602421291
32.64876 367.000953520235
32.66888 380.986677136954
32.68899 379.008491365765
32.7091 361
32.72922 378.03421216717
32.74933 407.008253017954
32.76945 387.933548997741
32.78956 375.983215888375
32.80967 393.983379663263
32.82979 390.005417769419
32.8499 398
32.87001 446.000507021901
32.89013 410.985676935888
32.91024 438.027282803835
32.93036 432.958935593441
32.95047 475.973729918408
32.97058 470.976934781807
32.9907 531
33.01081 537.980015102844
33.03092 500.013147426302
33.05104 560.106613848945
33.07115 565.081078064207
33.09127 525.04224895067
33.11138 517.995322992005
33.13149 519.004249574737
33.15161 507.999754395155
33.17172 508.980625334139
33.19183 469.946659335001
33.21195 445.93407012011
33.23206 426.974366761088
33.25217 447.032551230709
33.27229 398.006100739135
33.2924 420
33.31252 383.00810956867
33.33263 428.002815769431
33.35274 386.991877963353
33.37286 424.989551111988
33.39297 386.029936884467
33.41308 406.979358708829
33.4332 396
33.45331 369.999915239563
33.47343 382.991901086076
33.49354 363.001415205788
33.51365 385.971532171958
33.53377 373.024656609287
33.55388 367.002340671968
33.57399 363.002032047161
33.59411 370.013783753346
33.61422 395.99229579111
33.63434 366.988364827429
33.65445 379.958722454748
33.67456 340.017128529485
33.69468 373.966953545801
33.71479 378.005092035916
33.7349 374
33.75502 377.979209956568
33.77513 350.005563552436
33.79524 387.06622299595
33.81536 382.081018904942
33.83547 340.01705988763
33.85559 356.994455129609
33.8757 353
33.89581 377.012698480255
33.91593 389.000034071313
33.93604 374.936861336777
33.95615 350.967662460785
33.97627 387.971932614213
33.99638 375.015969583744
34.0165 369
34.03661 353.999760017482
34.05672 373.0254796482
34.07684 385.98804988307
34.09695 381.937188007646
34.11706 412.033971809567
34.13718 357.031247409143
34.15729 375.982809135857
34.17741 383.987125497593
34.19752 350.993975722417
34.21763 373.025763113807
34.23775 374.014703670455
34.25786 392.962363964483
34.27797 408.965319587637
34.29809 428.003437759108
34.3182 408
34.33831 436.012451542136
34.35843 448.027449208084
34.37854 462.965021917936
34.39866 424.039340405518
34.41877 450.909105532651
34.43888 499.996015486786
34.459 474
34.47911 498.010250972446
34.49922 493.985220144401
34.51934 487.011618532478
34.53945 490.050694987849
34.55957 465.980936408014
34.57968 512.96220005756
34.59979 518.004297866259
34.61991 503.984872113717
34.64002 481.019190210747
34.66013 531.051437564601
34.68025 536.019044685731
34.70036 553.992433369041
34.72047 541.011897773966
34.74059 536.012924114464
34.7607 507
34.78082 542.004169992048
34.80093 509.973220163773
34.82104 526.039450465474
34.84116 536.961294027056
34.86127 559.993811812722
34.88138 543.017769489658
34.9015 548
34.92161 568.985426474952
34.94173 514.98041536594
34.96184 556.086108938831
34.98195 570.980607858472
35.00207 559.098078461306
35.02218 482.011540059264
35.04229 529.987700699099
35.06241 506.993938036991
35.08252 530.024054182971
35.10264 514.879178658075
35.12275 454.983814896058
35.14286 500.911271298041
35.16298 507.016009800333
35.18309 505.982648367591
35.2032 549
35.22332 510.970397246651
35.24343 515.021993046318
35.26354 513.959696525618
35.28366 497.969530098542
35.30377 533.971479331098
35.32389 520.01270739873
35.344 507
35.36411 518.005498515376
35.38423 529.029373493799
35.40434 549.006486038841
35.42445 544.962301650554
35.44457 580.952341275607
35.46468 584.025663750743
35.4848 557
35.50491 585.015538079158
35.52502 621.067356687152
35.54514 680.972016153568
35.56525 624.005806440014
35.58536 677.971175961311
35.60548 621.063640441275
35.62559 612.976932704545
35.64571 658.996160250015
35.66582 617.999383581694
35.68593 648.970743219864
35.70605 576.889594184875
35.72616 582.006911250944
35.74627 545.055797410453
35.76639 533.995552157523
35.7865 544
35.80661 524.98500463759
35.82673 511.034465298922
35.84684 549.01985229527
35.86696 524.047406122526
35.88707 510.047017916925
35.90718 461.038819461149
35.9273 462
35.94741 503.997031299312
35.96752 456.965444435414
35.98764 477.127682369562
36.00775 520.082248320731
36.02787 443.050781857881
36.04798 475.963415693765
36.06809 476.006968623271
36.08821 475.008115923336
36.10832 499.017685135986
36.12843 509.021714326351
36.14855 525.005074119876
36.16866 516.003472045447
36.18878 527.986135237461
36.20889 537.994033355005
36.229 544
36.24912 557.100296672621
36.26923 689.068667268493
36.28934 647.974919707698
36.30946 707.87904876546
36.32957 745.905991819681
36.34968 838.920357117927
36.3698 890
36.38991 950.028432938148
36.41003 1018.15895563313
36.43014 1141.17924462131
36.45025 1177.96887961882
36.47037 1202.93267093955
36.49048 1234.02490798562
36.51059 1189.99189104727
36.53071 1211.94702781796
36.55082 1015.88782121184
36.57094 1022.9821261391
36.59105 910.583827353052
36.61116 781.092481634032
36.63128 777.046915472027
36.65139 670.048611216593
36.6715 620
36.69162 584.974990687784
36.71173 568.971109826565
36.73184 545.971200456457
36.75196 540.019100883934
36.77207 519.041723258154
36.79219 499.999279987106
36.8123 521
36.83241 519.973171747234
36.85253 453.980022694252
36.87264 478.969927372912
36.89275 429.994913925936
36.91287 486.953860569195
36.93298 465.020349909652
36.9531 483
36.97321 502.989573698376
36.99332 458.973062899509
37.01344 465.03066748593
37.03355 480.922556391509
37.05366 505.040183503999
37.07378 454.03070682281
37.09389 464.988297827331
37.11401 477.002854255014
37.13412 474.983597679719
37.15423 453.986803556838
37.17435 448.935043180835
37.19446 415.007011440368
37.21457 438.984366318729
37.23469 419.013031989602
37.2548 417
37.27491 454.008840380553
37.29503 451.003774403779
37.31514 459.980485619264
37.33526 435.022093259721
37.35537 440.008319354156
37.37548 421.008456712508
37.3956 439
37.41571 462.994269392217
37.43582 416.943763748353
37.45594 392.049248332829
37.47605 436.957061069788
37.49617 415.037318454379
37.51628 420.965458029363
37.53639 454.997006406911
37.55651 435.993193094371
37.57662 450.033652285321
37.59673 469.970697655084
37.61685 431.976415506436
37.63696 461.933431638146
37.65708 457.04918823165
37.67719 407.000247783983
37.6973 451
37.71742 456.014309683939
37.73753 476.981004590963
37.75764 430.922840011631
37.77776 432.928820677083
37.79787 458.034603278385
37.81798 414.996700417232
37.8381 462
37.85821 426.973224229456
37.87833 403.025062180242
37.89844 437.03356769184
37.91855 429.015646725994
37.93867 443.956480193963
37.95878 452.041172625418
37.97889 397.002190432115
37.99901 449.024780205173
38.01912 456.985062614997
38.03924 443.990491363636
38.05935 454.062869656029
38.07946 477.989047399229
38.09958 460.029354252008
38.11969 436.006685933757
38.1398 432
38.15992 444.040375494924
38.18003 473.946959669939
38.20015 397.908438545019
38.22026 437.85154792457
38.24037 479.027956732436
38.26049 433.007059663476
38.2806 464
38.30071 475.009158149412
38.32083 488.956531891954
38.34094 425.901967431428
38.36105 420.944579776053
38.38117 429.045693785606
38.40128 388.995588105625
38.4214 431
38.44151 416.001081747646
38.46162 446.017715399337
38.48174 434.967107044474
38.50185 420.07310852733
38.52196 399.941653979243
38.54208 450.995430902473
38.56219 412.005700538434
38.58231 446.012998824293
38.60242 424.946027610636
38.62253 389.029661778513
38.64265 440.049888881139
38.66276 407.091500420161
38.68287 401.925466141187
38.70299 456.003569570741
38.7231 407
38.74321 448.003751731919
38.76333 402.945975927836
38.78344 411.052916293357
38.80356 431.966942369724
38.82367 431.049676777695
38.84378 396.988340984239
38.8639 440
38.88401 410.988929776265
38.90412 409.98602058843
38.92424 385.000816677423
38.94435 415.924967875673
38.96447 425.997384032307
38.98458 427.004086016194
39.00469 427.989707278241
39.02481 473.029500635804
39.04492 497.952245905086
39.06503 423.978283008482
39.08515 477.108787779233
39.10526 470.044828546719
39.12538 472.966001929401
39.14549 516.986721354543
39.1656 519
39.18572 541.056600203311
39.20583 617.103692717219
39.22594 659.037884123887
39.24606 682.896878330815
39.26617 756.899705549522
39.28628 822.901058260741
39.3064 952
39.32651 1062.06874227845
39.34663 1185.03931271164
39.36674 1150.03936727253
39.38685 1218.01678145122
39.40697 1128.08762483604
39.42708 1164.91820319744
39.44719 1193.0374308247
39.46731 1041.92541543698
39.48742 938.913544088299
39.50754 851.855732624983
39.52765 786.803467074856
39.54776 690.1914313927
39.56788 618.041745235541
39.58799 591.016495433919
39.6081 536
39.62822 485.00086513927
39.64833 505.967312920123
39.66845 447.938903267682
39.68856 467.98738112415
39.70867 438.045796878728
39.72879 432.994365427738
39.7489 429
39.76901 387.00868989283
39.78913 443.020704073473
39.80924 414.015134915041
39.82935 468.917223087846
39.84947 447.062496589101
39.86958 420.012603470782
39.8897 416
39.90981 422.010358848561
39.92992 450.019179683706
39.95004 447.96012108629
39.97015 446.871607499757
39.99026 515.965409021321
40.01038 488.994530752997
40.03049 538.985333550419
40.05061 517.981918590146
40.07072 519.055770122732
40.09083 597.073624333821
40.11095 609.040676778974
40.13106 651.900975566147
40.15117 687.968439533796
40.17129 701.992152494758
40.1914 726
40.21152 743.991170837876
40.23163 726.008428819192
40.25174 744.978973912804
40.27186 690.140743883939
40.29197 641.026810118734
40.31208 632.031479749576
40.3322 580
40.35231 556.980099045261
40.37242 511.994350028504
40.39254 528.957861069634
40.41265 471.08007411333
40.43277 469.044340779864
40.45288 421.995824110907
40.47299 467.995209261854
40.49311 426.986285027046
40.51322 436.004781315433
40.53333 423.998902397014
40.55345 434.988106163109
40.57356 410.043731677422
40.59368 407.98819787165
40.61379 426.987340790523
40.6339 431
40.65402 379.009276481418
40.67413 429.002508404528
40.69424 386.009041632075
40.71436 446.932995799929
40.73447 432.00244017326
40.75458 463.976428153022
40.7747 444
40.79481 393.997287093991
40.81493 433.068605830488
40.83504 454.002826208508
40.85515 439.083233622176
40.87527 412.985639145494
40.89538 445.984377530724
40.91549 438.997170484914
40.93561 443.977842437008
40.95572 374.980460108137
40.97584 407.024571431227
40.99595 382.984648263873
41.01606 411.945949258715
41.03618 396.063240242645
41.05629 336.998860394838
41.0764 391
41.09652 387.993873168708
41.11663 400.018710413306
41.13675 401.994909009966
41.15686 399.014533604213
41.17697 383.038285697123
41.19709 371.98559442169
41.2172 417
41.23731 388.987646313462
41.25743 385.99202866282
41.27754 371.99027360611
41.29765 377.005182572992
41.31777 368.993621181351
41.33788 381.003080918727
41.358 366
41.37811 386.010575692151
41.39822 380.96087174255
41.41834 339.996057924069
41.43845 374.927754842988
41.45856 378.994736468593
41.47868 391.988721729121
41.49879 387.011921763919
41.51891 364.000296471237
41.53902 384.012584928576
41.55913 375.977177902648
41.57925 364.978904502393
41.59936 357.015236352333
41.61947 361.954970963669
41.63959 387.011543213739
41.6597 334
41.67982 366.044943090527
41.69993 398.048477284396
41.72004 413.937942617215
41.74016 367.000937743552
41.76027 404.990384986636
41.78038 364.03379787955
41.8005 370
41.82061 387.002770089559
41.84072 383.995393380509
41.86084 381.995937813963
41.88095 381.983175713348
41.90107 387.014973625387
41.92118 371.996552367821
41.94129 389.997478404569
41.96141 377.997171595656
41.98152 388.011680511416
42.00163 395.014493693221
42.02175 401.978596607848
42.04186 384.016337331592
42.06198 406.943763413072
42.08209 456.001002371362
42.1022 414
42.12232 431.03610090065
42.14243 479.115264774819
42.16254 552.03556425475
42.18266 529.991667057804
42.20277 569.971137598287
42.22289 567.983734452566
42.243 645
42.26311 705.039303529933
42.28323 789.061414753766
42.30334 801.087721546826
42.32345 879.863916718456
42.34357 880.039527462888
42.36368 862.999603116687
42.38379 875.993636203202
42.40391 866.980307103337
42.42402 815.965683567621
42.44414 797.941520168241
42.46425 749.885125362667
42.48436 697.175023579691
42.50448 597.059783122299
42.52459 578.014393520681
42.5447 532
42.56482 531.967696599843
42.58493 460.904130871913
42.60505 423.914343898027
42.62516 400.955977063406
42.64527 447.972948871556
42.66539 411.031980776477
42.6855 364
42.70561 370.997893218817
42.72573 361.0310909309
42.74584 389.956363937075
42.76595 337.012129522984
42.78607 383.964896697981
42.80618 355.034792619483
42.8263 352
42.84641 369.999290923671
42.86652 352.98837918568
42.88664 352.994413204628
42.90675 343.017415106015
42.92686 338.028058664459
42.94698 333.963724586317
42.96709 381.999958277584
42.98721 338.989250530698
43.00732 358.014444393777
43.02743 347.985706573107
43.04755 345.969707737009
43.06766 324.026944352161
43.08777 332.95896591254
43.10789 344.018175196549
43.128 289
43.14812 329.044224226251
43.16823 334.960047541802
43.18834 309.005042869265
43.20846 341.925748515881
43.22857 359.998615186084
43.24868 344.034696752035
43.2688 319
43.28891 365.017528023479
43.30902 354.951523553497
43.32914 318.037189900474
43.34925 378.886803486605
43.36937 375.044854512475
43.38948 348.018022378857
43.40959 335.008728811053
43.42971 316.99767123231
43.44982 334.033174135518
43.46993 365.022887591368
43.49005 350.890757088246
43.51016 311.996888157203
43.53028 345.977120624043
43.55039 332.016652632253
43.5705 318
43.59062 353.991611589728
43.61073 301.938025889545
43.63084 310.085269667385
43.65096 346.990345039583
43.67107 322.039748487596
43.69119 321.986757277805
43.7113 354
43.73141 336.977157779579
43.75153 306.035336312213
43.77164 363.05887775976
43.79175 348.039859948524
43.81187 353.988992565728
43.83198 347.016380584727
43.85209 339.991789449505
43.87221 360.996193417043
43.89232 325.972140626943
43.91244 336.089238035297
43.93255 363.907064590797
43.95266 302.988668537384
43.97278 368.970273616275
43.99289 337.01145142754
44.013 356
44.03312 358.996332745583
44.05323 347.95156552847
44.07335 312.988661659396
44.09346 325.035985114348
44.11357 289.988147463865
44.13369 342.980153576463
44.1538 345
44.17391 355.00308831786
44.19403 347.980073284644
44.21414 342.016380073703
44.23426 352.015094863435
44.25437 334.998441003399
44.27448 352.99378243426
44.2946 350
44.31471 367.981353975264
44.33482 297.974888497825
44.35494 334.073111085353
44.37505 336.019502621736
44.39516 335.999179166958
44.41528 329.014710152408
44.43539 324.987191748882
44.45551 355.996356137562
44.47562 313.970571363082
44.49573 326.053480704966
44.51585 353.008076518089
44.53596 339.019589528219
44.55607 341.995248482875
44.57619 343.993968755426
44.5963 355
44.61642 323.978805085439
44.63653 321.998546769042
44.65664 320.026253574881
44.67676 336.019618655537
44.69687 308.014707414573
44.71698 327.975048021608
44.7371 337
44.75721 327.994411781
44.77732 322.003384063318
44.79744 331.013258588151
44.81755 337.955782771261
44.83767 361.977549143484
44.85778 347.050558256273
44.87789 298.001811025395
44.89801 347.032450833978
44.91812 365.946819158785
44.93823 304.028976392172
44.95835 381.052968741942
44.97846 322.100467067768
44.99858 331.966340002112
45.01869 348.003460934413
45.0388 334
45.05892 350.012620388788
45.07903 339.95085949984
45.09914 305.974006491132
45.11926 328.896757923591
45.13937 370.999502970621
45.15949 347.997937383647
45.1796 377
45.19971 344.991388305619
45.21983 364.043730831577
45.23994 381.015994267876
45.26005 383.011195773316
45.28017 367.047776055392
45.30028 335.011303885829
45.32039 347.989889180132
45.34051 365.009976244436
45.36062 376.986516480992
45.38074 364.062008279958
45.40085 427.097937489953
45.42096 415.071025298733
45.44108 389.010607262803
45.46119 405.974517652611
45.4813 449
45.50142 405.003147390182
45.52153 468.088147596812
45.54165 486.008333843857
45.56176 507.906252306122
45.58187 551.991143547148
45.60199 546.976879052921
45.6221 633
45.64221 628.997647540893
45.66233 665.095502304315
45.68244 704.953623855947
45.70256 656.989252005561
45.72267 709.974627857079
45.74278 666.04577217941
45.7629 649
45.78301 607.968212131707
45.80312 561.007629744125
45.82324 586.94093885752
45.84335 523.006679717219
45.86346 560.080150000674
45.88358 451.050982267226
45.90369 478.999033096334
45.92381 426.98586640825
45.94392 425.953072520097
45.96403 351.987862256142
45.98415 411.087642038047
46.00426 383.079184592165
46.02437 369.003065193444
46.04449 361.008982867787
46.0646 351
46.08472 379.993787705091
46.10483 338.952883752325
46.12494 347.067222643267
46.14506 376.97972094445
46.16517 367.02219761496
46.18528 356.0136149916
46.2054 346
46.22551 353.990627461386
46.24563 320.990627503779
46.26574 342.016372351777
46.28585 316.102754735863
46.30597 298.957956882498
46.32608 347.975822580865
46.34619 331.014522282345
46.36631 327.014685563986
46.38642 363.007093405388
46.40653 332.939936000293
46.42665 321.069667136813
46.44676 349.04719025794
46.46688 300.993301669152
46.48699 357.988300164382
46.5071 326
46.52722 323.97738358303
46.54733 290.012688091177
46.56744 345.103741232988
46.58756 355.044056088085
46.60767 330.013159279329
46.62779 335.001366831648
46.6479 314
46.66801 308.017186294042
46.68813 354.014930488637
46.70824 316.90452628341
46.72835 299.95025918664
46.74847 333.971421543977
46.76858 321.033256417807
46.78869 299.993723307988
46.80881 332.007876623628
46.82892 316.975061120801
46.84904 312.048788794671
46.86915 348.05027479582
46.88926 330.101832790232
46.90938 286.99837045471
46.92949 324.985383066726
46.9496 326
46.96972 337.015094506157
46.98983 340.979697503116
47.00995 315.940614254631
47.03006 310.961904234167
47.05017 336.984509942156
47.07029 333.995773730802
47.0904 350
47.11051 328.999007753173
47.13063 353.033453440357
47.15074 355.986451345871
47.17086 337.085316857716
47.19097 295.006608102451
47.21108 308.026562196798
47.2312 268
47.25131 354.021290165008
47.27142 324.969284272833
47.29154 335.047478144623
47.31165 347.989330069438
47.33176 343.034174252366
47.35188 320.019378767479
47.37199 311.000471987076
47.39211 317.007090124584
47.41222 335.01587311943
47.43233 346.013303961797
47.45245 350.990937087818
47.47256 344.0006653327
47.49267 337.055102050755
47.51279 290.006838447604
47.5329 317
47.55302 324.991434225896
47.57313 314.994913766319
47.59324 324.038474609946
47.61336 344.968494990327
47.63347 346.025205891124
47.65358 320.023030282211
47.6737 310
47.69381 315.001173030024
47.71393 309.983735182318
47.73404 311.058288041913
47.75415 352.944357546812
47.77427 344.02993523781
47.79438 337.987156458677
47.81449 354.000827718995
47.83461 325.979004397751
47.85472 303.017457476393
47.87483 337.007696143073
47.89495 316.001546036876
47.91506 341.985416461947
47.93518 329.98808951273
47.95529 368.987226468906
47.9754 348
47.99552 293.991994042213
48.01563 323.02696142849
48.03574 320.027126033173
48.05586 348.989692041836
48.07597 324.033639973912
48.09609 329.98612781825
48.1162 348
48.13631 318.002216483666
48.15643 355.030328844754
48.17654 332.918249528538
48.19665 306.999484598356
48.21677 323.979854626564
48.23688 322.009102485214
48.257 311
48.27711 305.0107799811
48.29722 330.989270196223
48.31734 295.98874359762
48.33745 335.114209161557
48.35756 347.04991025042
48.37768 303.041543753442
48.39779 298.976099871118
48.4179 356
48.43802 318.978355170877
48.45813 338.037061606167
48.47825 339.963442280019
48.49836 325.009868640593
48.51847 337.9572404568
48.53859 363.996387802097
48.5587 347
48.57881 315.985734325497
48.59893 307.037941433435
48.61904 349.052119753247
48.63916 337.079677136629
48.65927 305.99253278533
48.67938 328.007204080882
48.6995 299
48.71961 337.010759680777
48.73972 320.976334426258
48.75984 308.979195143348
48.77995 302.971117606257
48.80006 333.922511697053
48.82018 358.999379591103
48.84029 343.007112546221
48.86041 331.987831467438
48.88052 312.019039316251
48.90063 352.012048759921
48.92075 326.983374184567
48.94086 351.9629911215
48.96097 347.011639140131
48.98109 350.995235289621
49.0012 350
49.02132 326.001610858595
49.04143 355.0451283612
49.06154 357.946822139776
49.08166 329.002317416477
49.10177 350.984113270041
49.12188 342.999291982406
49.142 360
49.16211 360.999760572761
49.18223 357.973835435982
49.20234 343.032973737891
49.22245 384.920692191685
49.24257 394.982706578871
49.26268 403.024084131543
49.28279 364.003782074713
49.30291 401.024133283219
49.32302 424.996476216351
49.34313 407.979934782998
49.36325 409.023418339577
49.38336 408.047930510978
49.40348 385.982113712184
49.42359 422.00298808835
49.4437 375
49.46382 400.04711801593
49.48393 423.976566985741
49.50404 383.934693131798
49.52416 387.922638932425
49.54427 424.003953131468
49.56439 390.010909264547
49.5845 406
49.60461 432.001214752439
49.62473 417.984830162794
49.64484 430.064429040608
49.66495 466.932185694225
49.68507 467.045918495191
49.70518 450.952286931663
49.7253 529
49.74541 498.998881886742
49.76552 542.023448180839
49.78564 548.109323510601
49.80575 657.254623302095
49.82586 705.982389411539
49.84598 713.967783326133
49.86609 786.948018499133
49.8862 901
49.90632 1001.09464571844
49.92643 1106.18503324975
49.94655 1228.2238964659
49.96666 1326.6478149059
49.98677 1518.89042843115
50.00689 1498.97687820672
50.027 1653
50.04711 1696.98852564567
50.06723 1650.9157786604
50.08734 1589.85619075113
50.10746 1507.169835288
50.12757 1415.16438786829
50.14768 1302.0885386659
50.1678 1227
50.18791 1115.96186246842
50.20802 1059.90425929929
50.22814 898.622263772016
50.24825 756.136323352379
50.26837 746.072079551113
50.28848 637.108137593725
50.30859 565.029875567036
50.32871 513.98998427772
50.34882 511.981728180085
50.36893 471.951437188865
50.38905 451.921868756446
50.40916 410.054531941722
50.42927 413.959083065235
50.44939 438.997714837051
50.4695 420
50.48962 393.971496913485
50.50973 381.037879512101
50.52984 409.950775675058
50.54996 351.031916450539
50.57007 387.965211810465
50.59018 372.013925516196
50.6103 373
50.63041 353.003234415958
50.65053 373.984149130527
50.67064 348.041318778423
50.69075 395.023821874746
50.71087 329.058826382176
50.73098 352.959251857286
50.75109 364.009664163783
50.77121 327.981017366354
50.79132 320.039950981305
50.81143 364.983053498457
50.83155 306.915088895042
50.85166 317.985821037016
50.87178 305.000182505776
50.89189 322.995746103963
50.912 310
50.93212 304.01039443785
50.95223 322.019787504398
50.97234 319.968990701667
50.99246 309.973972547303
51.01257 333.9920243396
51.03269 321.000630155714
51.0528 333
51.07291 312.995232752031
51.09303 321.008445537187
51.11314 320.015686839702
51.13325 321.092022437527
51.15337 276.983148495602
51.17348 336.960806307722
51.1936 328
51.21371 316.981761394791
51.23382 279.015225278935
51.25394 336.06502614909
51.27405 317.079469172294
51.29416 305.989921334411
51.31428 317.985535598295
51.33439 324.004584921073
51.3545 307
51.37462 313.01865618357
51.39473 335.029334364831
51.41485 339.959019834492
51.43496 316.021135009119
51.45507 322.98781545233
51.47519 319.006471544797
51.4953 308
51.51541 316.004178341516
51.53553 319.000728578527
51.55564 312.961406651918
51.57576 290.019289336575
51.59587 299.971076913904
51.61598 312.998863638724
51.6361 305
51.65621 300.999194070192
51.67632 300.000355977388
51.69644 308.042257523014
51.71655 326.018376727079
51.73667 305.996664321959
51.75678 335.971884946192
51.77689 335.014032781482
51.79701 310.003322903175
51.81712 331.992585191403
51.83723 295.971576992325
51.85735 306.014505420502
51.87746 298.990728394313
51.89757 319.973922775779
51.91769 320.005709176551
51.9378 306
51.95792 300.005562301987
51.97803 310.004774610336
51.99814 308.011069791123
52.01826 322.973360657523
52.03837 321.03018137368
52.05848 296.01331054445
52.0786 307
52.09871 331.997374555885
52.11883 303.970761775871
52.13894 306.011575016985
52.15905 309.964611326491
52.17917 331.97744381434
52.19928 333.005576769526
52.21939 322.011271846861
52.23951 294.991182338675
52.25962 300.027489721021
52.27974 323.988467112224
52.29985 300.995723798797
52.31996 320.992703035825
52.34008 304.003962385046
52.36019 321.992438924944
52.3803 313
52.40042 285.99608026935
52.42053 300.009972009683
52.44064 301.044096550695
52.46076 337.963518942917
52.48087 328.022110316878
52.50099 319.007997329899
52.5211 301
52.54121 309.998293234406
52.56133 293.991906285081
52.58144 313.068292321064
52.60155 333.037154869751
52.62167 295.042753051899
52.64178 296.978711870603
52.6619 322
52.68201 337.001345543744
52.70212 314.944414790508
52.72224 261.9915563289
52.74235 301.916369604058
52.76246 316.931295007815
52.78258 352.021812262076
52.80269 291.012216029771
52.8228 328
52.84292 343.991407343944
52.86303 331.997732792114
52.88315 337.991977903282
52.90326 326.007056944586
52.92337 330.009716471246
52.94349 314.003138443262
52.9636 322
52.98371 325.004173235649
53.00383 333.992098841032
53.02394 319.995392144301
53.04406 337.947568394833
53.06417 349.024190019227
53.08428 318.021204970256
53.1044 314
53.12451 315.013335860838
53.14462 347.998432273708
53.16474 324.012708862257
53.18485 361.955681283669
53.20497 340.044375315806
53.22508 335.97700045393
53.24519 362.996942256395
53.26531 346.992724304813
53.28542 342.992442753315
53.30553 338.026881318063
53.32565 366.011575740013
53.34576 346.025115876862
53.36587 365.931580596177
53.38599 393.014869950459
53.4061 350
53.42622 419.004248308012
53.44633 356.966536420438
53.46644 399.051573718369
53.48656 371.077533122812
53.50667 360.976087784643
53.52678 391.962511815711
53.5469 411
53.56701 373.987739490542
53.58713 376.015524188069
53.60724 376.98405064535
53.62735 382.894572911976
53.64747 421.044350353902
53.66758 350.021914694241
53.68769 390.986319287991
53.70781 376.996566890657
53.72792 409.053994895679
53.74804 436.939725573067
53.76815 385.993702658101
53.78826 427.973344572472
53.80838 394.027002834682
53.82849 402.989988794878
53.8486 415
53.86872 428.016347642146
53.88883 449.039838444448
53.90894 460.951707201074
53.92906 420.032449566306
53.94917 452.901842417672
53.96929 496.009420137915
53.9894 451
54.00951 497.002650301103
54.02963 440.917000067001
54.04974 418.966917211696
54.06985 402.979477377049
54.08997 427.984108812145
54.11008 412.023578984387
54.1302 408
54.15031 433.996516062991
54.17042 417.030663871065
54.19054 463.947855634995
54.21065 357.261200916536
54.23076 342.833119526258
54.25088 448.955550822583
54.27099 420.015527775816
54.29111 410.983155553933
54.31122 368.010525741529
54.33133 422.037042442282
54.35145 396.942262944637
54.37156 411.924581380903
54.39167 439.003616211556
54.41179 421.000477393196
54.4319 436
54.45201 409.989559761174
54.47213 420.057927042513
54.49224 451.983620350082
54.51236 419.017356444349
54.53247 444.966705500685
54.55258 459.95767533707
54.5727 507
54.59281 464.999508655873
54.61292 531.082376729505
54.63304 587.071107198499
54.65315 606.995112880919
54.67327 608.966977069363
54.69338 640.988662477233
54.71349 644.979899909189
54.73361 723.036252997507
54.75372 747.977056615465
54.77383 723.028781104783
54.79395 761.970434703438
54.81406 710.021250458827
54.83417 745.98975583581
54.85429 692.035028039218
54.8744 642
54.89452 614.988020405222
54.91463 616.011004702547
54.93474 617.983151846
54.95486 599.048303081545
54.97497 560.101682477936
54.99508 496.011996969018
55.0152 531
55.03531 517.98102600167
55.05543 499.041226711939
55.07554 536.96986155697
55.09565 477.081179395803
55.11577 499.94791383762
55.13588 516.987087972073
55.15599 544.976024158631
55.17611 570.978178592117
55.19622 504.00415003941
55.21634 569.042753276164
55.23645 520.900745298689
55.25656 535.922307576698
55.27668 552.02308112011
55.29679 503.022406442584
55.3169 495
55.33702 525.9846761973
55.35713 473.949274994982
55.37724 476.003208305596
55.39736 459.034322904662
55.41747 455.988816455644
55.43759 450.01978801874
55.4577 393
55.47781 392.007461664284
55.49793 392.966044299268
55.51804 365.995839185302
55.53815 386.967639792212
55.55827 382.002973579398
55.57838 398.969248794726
55.5985 418
55.61861 377.980544655549
55.63872 358.99321359337
55.65884 350.970932550197
55.67895 346.927522770856
55.69906 387.982141956698
55.71918 364.013549468655
55.73929 377.992315835661
55.75941 374.992452407246
55.77952 356.982329672939
55.79963 359.057155485064
55.81975 400.991706058181
55.83986 358.055412429917
55.85997 369.967251784389
55.88009 366.017871263583
55.9002 335
55.92031 384.011195297307
55.94043 368.992623077494
55.96054 374.941105263222
55.98066 330.980942659829
56.00077 377.999082834361
56.02088 321.041378341285
56.041 334
56.06111 350.998611619307
56.08122 337.98961486786
56.10134 333.987195999797
56.12145 331.954985604029
56.14157 359.982173997513
56.16168 349.014649592399
56.18179 343.002014148941
56.20191 339.000455547823
56.22202 343.000395469163
56.24213 338.99622309557
56.26225 337.986898525641
56.28236 327.024445349005
56.30248 335.95176720324
56.32259 385.003876214031
56.3427 332
56.36282 351.022253766334
56.38293 341.954474269153
56.40304 329.067033226201
56.42316 375.010910270817
56.44327 324.04042628544
56.46338 343.979560760284
56.4835 339
56.50361 346.012766638158
56.52373 368.996061024256
56.54384 343.957562912492
56.56395 340.990026902547
56.58407 332.045584895515
56.60418 306.983808340996
56.62429 346.994909913257
56.64441 325.999964352652
56.66452 357.020089334265
56.68464 341.934604019097
56.70475 315.970780134883
56.72486 315.002011248301
56.74498 305.017020165228
56.76509 303.981868226468
56.7852 349
56.80532 326.01669149502
56.82543 369.989423114972
56.84554 310.932554313441
56.86566 337.907650284553
56.88577 363.989312349091
56.90589 353.014871546952
56.926 324
56.94611 338.007465466437
56.96623 346.020140370872
56.98634 366.03001615821
57.00645 359.086223187284
57.02657 327.985545177472
57.04668 366.980488688341
57.0668 354
57.08691 356.995174841043
57.10702 342.012680398517
57.12714 380.055433595376
57.14725 380.025519069674
57.16736 361.087295066954
57.18748 312.017946440885
57.20759 340.972227882488
57.22771 390.014254454315
57.24782 382.955684051013
57.26793 343.012631162778
57.28805 385.042262819406
57.30816 360.050562144503
57.32827 354.012360147239
57.34839 340.999215268301
57.3685 356
57.38861 347.993854681495
57.40873 345.012690508082
57.42884 349.968858431947
57.44896 321.035104632133
57.46907 337.924760629984
57.48918 384.992229663552
57.5093 352
57.52941 336.001422703079
57.54952 345.006941870952
57.56964 352.034310823334
57.58975 366.032271920189
57.60987 332.037793639233
57.62998 327.999830963679
57.65009 320.005653844336
57.67021 315.003136879558
57.69032 329.013100478516
57.71043 322.947677477848
57.73055 291.032420087729
57.75066 340.927006606456
57.77078 339.016019834242
57.79089 333.996617740053
57.811 352
57.83112 369.989714997229
57.85123 335.94824149685
57.87134 319.998325919995
57.89146 325.984025733633
57.91157 333.984079320283
57.93168 344.993742716529
57.9518 339
57.97191 321.002439640909
57.99203 333.979357065416
58.01214 305.004432409494
58.03225 334.980614260928
58.05237 305.049822241994
58.07248 302.970455043111
58.09259 341.98733614266
58.11271 347.00026671108
58.13282 348.993456498463
58.15294 332.967598310067
58.17305 320.969511471873
58.19316 314.977444274015
58.21328 338.979173137737
58.23339 335.017423549112
58.2535 307
58.27362 359.013878460381
58.29373 317.930762960977
58.31385 316.106663528274
58.33396 359.998641423309
58.35407 324.032818184963
58.37419 327.005928092606
58.3943 303
58.41441 340.012072078128
58.43453 329.965940180958
58.45464 319.008110420049
58.47475 326.013556641521
58.49487 313.000381665611
58.51498 329.981732565943
58.5351 332
58.55521 313.999182420037
58.57532 328.010737348993
58.59544 319.953003200573
58.61555 298.015257315008
58.63566 303.999302608408
58.65578 301.983279372554
58.67589 328.996345881789
58.69601 315.997957379124
58.71612 330.012096137837
58.73623 334.014089342028
58.75635 341.965349848796
58.77646 310.050725117472
58.79657 306.983347589184
58.81669 322.990167527117
58.8368 340
58.85691 351.014502428334
58.87703 376.978473202748
58.89714 336.972639890384
58.91726 351.016976168433
58.93737 320.00460191631
58.95748 348.985471563732
58.9776 324
58.99771 302.008592564172
59.01782 347.042979485811
59.03794 353.93186818741
59.05805 311.034685725644
59.07817 332.959303540897
59.09828 347.984229442635
59.11839 364.997348183893
59.13851 357.996453160221
59.15862 353.99025670635
59.17873 341.997430830348
59.19885 361.094129539826
59.21896 387.029393726977
59.23908 349.014891182534
59.25919 370.986811483914
59.2793 367
59.29942 331.001903362503
59.31953 364.03081426435
59.33964 355.980690392601
59.35976 365.952251397704
59.37987 395.949846074158
59.39998 413.017291751267
59.4201 376
59.44021 376.000973677451
59.46033 385.064338949537
59.48044 439.029435533864
59.50055 422.971199361728
59.52067 464.975144783715
59.54078 449.997001472926
59.56089 487.980019943544
59.58101 501.996185025927
59.60112 500.026412533285
59.62124 548.07882497644
59.64135 574.091672966907
59.66146 624.913674055128
59.68158 666.932343734044
59.70169 754.962929898951
59.7218 805
59.74192 855.033302487652
59.76203 890.109095178352
59.78215 998.257353719679
59.80226 1054.98560958108
59.82237 1054.9437383398
59.84249 1109.99668947353
59.8626 1066
59.88271 1083.01852392225
59.90283 1075.86878516439
59.92294 964.920491731506
59.94305 994.987827306225
59.96317 935.103303023455
59.98328 882.066642104872
60.0034 814
60.02351 821.995074908432
60.04362 768.930594998997
60.06374 708.900360518744
60.08385 648.228603721134
60.10396 555.086275546216
60.12408 559.002288300968
60.14419 513.036519426648
60.16431 451.987575795676
60.18442 441.960542306148
60.20453 392.005226673397
60.22465 446.094696528742
60.24476 432.071275385273
60.26487 403.035568127438
60.28499 383.007911227942
60.3051 380
60.32522 395.981234796789
60.34533 348.946000332179
60.36544 358.099264130405
60.38556 403.00328941944
60.40567 364.038356275773
60.42578 371.988788336976
60.4459 360
60.46601 330.995630350041
60.48612 343.015476395193
60.50624 345.983108133109
60.52635 340.969275186194
60.54647 355.020794670951
60.56658 317.028257158468
60.58669 316.993313052763
60.60681 335.014230625595
60.62692 364.013081528808
60.64703 352.959219233402
60.66715 335.022822527532
60.68726 353.018522680796
60.70738 324.004954569701
60.72749 345.995965936496
60.7476 328
60.76772 337.026449084983
60.78783 362.016554102368
60.80794 346.918122178204
60.82806 313.980687797932
60.84817 350.978144239749
60.86828 338.993099258968
60.8884 373
60.90851 362.985638151214
60.92863 337.980633383316
60.94874 341.029658223604
60.96885 353.996826630194
60.98897 340.034437646189
61.00908 335.963159113304
61.02919 381.001105890058
61.04931 336.987585577443
61.06942 354.021105558888
61.08954 357.000078485255
61.10965 368.051533016993
61.12976 371.081084414544
61.14988 320.998670852762
61.16999 376.973569774324
61.1901 390
61.21022 386.001211280628
61.23033 384.980529010129
61.25045 363.962416016642
61.27056 362.984965573336
61.29067 367.009001259505
61.31079 366.985753251344
61.3309 402
61.35101 359.982450561269
61.37113 368.063925476556
61.39124 406.003986947154
61.41135 379.044080368669
61.43147 387.977711370318
61.45158 392.003024294026
61.4717 394
61.49181 410.999496540591
61.51192 388.97385690135
61.53204 379.02026997319
61.55215 405.909927523652
61.57226 425.034377941766
61.59238 394.00272868273
61.61249 413.00392400402
61.63261 378.994730300191
61.65272 404.023283113608
61.67283 405.99685927174
61.69295 415.044962986567
61.71306 427.014440103714
61.73317 391.091168954955
61.75329 342.001620774296
61.7734 375
61.79352 379.010248008718
61.81363 392.980396577979
61.83374 357.958261380924
61.85386 368.950376784731
61.87397 393.956468542683
61.89408 413.009546851908
61.9142 389
61.93431 403.001030128761
61.95442 383.982355724156
61.97454 387.041714698012
61.99465 398.059850967131
62.01477 371.9548174591
62.03488 444.95667957649
62.05499 422.026959710214
62.07511 397.014602790882
62.09522 446.008795354969
62.11533 409.961239077945
62.13545 416.013045576523
62.15556 411.978297791924
62.17568 436.986039453611
62.19579 432.003466940367
62.2159 432
62.23602 435.020490601833
62.25613 454.981800544722
62.27624 426.001960077732
62.29636 450.013536532645
62.31647 419.987878166984
62.33659 454.006990071844
62.3567 394
62.37681 420.015620676849
62.39693 412.941955062545
62.41704 386.044101608173
62.43715 441.908431634892
62.45727 441.007095215158
62.47738 440.023630529727
62.49749 399.012996887295
62.51761 404.010049171068
62.53772 414.99331101619
62.55784 389.929515106008
62.57795 366.003603845652
62.59806 385.965049304692
62.61818 388.005800978515
62.63829 378.009049758994
62.6584 358
62.67852 360.009691656283
62.69863 372.021548072704
62.71875 376.958819257918
62.73886 347.045749637138
62.75897 341.994337714666
62.77909 347.994647351577
62.7992 359
62.81931 349.989355272641
62.83943 334.009645285886
62.85954 348.985413711709
62.87965 325.010016071907
62.89977 348.96499959716
62.91988 354.002730540692
62.94 362
62.96011 387.999244419
62.98022 355.961617499816
63.00034 331.975873457674
63.02045 331.962516075456
63.04056 344.024142731087
63.06068 328.97543061123
63.08079 376.993943958349
63.10091 348.993412370183
63.12102 359.989961787732
63.14113 323.967831567187
63.16125 333.038598883239
63.18136 340.979428406564
63.20147 348.01792954777
63.22159 322.00951090587
63.2417 312
63.26182 299.028129220554
63.28193 352.039745910228
63.30204 321.868247302129
63.32216 288.901965900707
63.34227 374.957531860585
63.36238 335.024406703414
63.3825 354
63.40261 322.981328747806
63.42272 305.999686917347
63.44284 316.035545412964
63.46295 331.983332248697
63.48307 333.986323439932
63.50318 347.99542551727
63.52329 335.012181247729
63.54341 323.009153314
63.56352 359.02283277937
63.58363 345.938259081962
63.60375 313.011236252653
63.62386 349.930111988491
63.64398 353.025120116918
63.66409 340.980602669611
63.6842 401
63.70432 364.980590220636
63.72443 388.039045628665
63.74454 401.045363748772
63.76466 424.018927732581
63.78477 395.004389483028
63.80489 429.980601367712
63.825 456
63.84511 477.99267519187
63.86523 456.043276527121
63.88534 523.067967190006
63.90545 502.068525004577
63.92557 502.976222063595
63.94568 508.01816422028
63.96579 473.016309403407
63.98591 472.02059818069
64.00602 509.978260646353
64.02614 453.983704671505
64.04625 486.965623959798
64.06636 420.075956651884
64.08648 433.992149403143
64.10659 417.001184649273
64.1267 431
64.14682 398.978143874122
64.16693 407.03499888969
64.18705 412.925580691496
64.20716 363.070456043532
64.22727 355.002955825939
64.24739 343.008298468457
64.2675 337
64.28761 359.002872299072
64.30773 342.970338813018
64.32784 333.997595545468
64.34796 328.040046689307
64.36807 306.003270828949
64.38818 321.989336648575
64.4083 321
64.42841 327.994917899337
64.44852 310.003442441582
64.46864 325.980961517879
64.48875 290.061979734882
64.50886 294.967335836837
64.52898 307.986872772632
64.54909 310.012022858994
64.56921 285.00725812111
64.58932 324.007864795766
64.60943 297.988949733457
64.62955 320.024664742095
64.64966 301.046119081861
64.66977 302.952505306375
64.68989 341.990713548053
64.71 328
64.73012 307.002146833079
64.75023 321.002835044919
64.77034 308.992289276887
64.79046 319.979098683216
64.81057 314.034577693538
64.83068 287.016637546596
64.8508 299
64.87091 340.999371376717
64.89102 304.978080314583
64.91114 316.028928546169
64.93125 303.104138576983
64.95137 276.946195837875
64.97148 334.00970099886
64.99159 276.998348821085
65.01171 340.007072461848
65.03182 291.984625968248
65.05193 328.017712139777
65.07205 291.919531651211
65.09216 288.998529297588
65.11228 288.979505371934
65.13239 313.00557906893
65.1525 275
65.17262 297.033611354401
65.19273 311.990176786958
65.21284 303.020831652096
65.23296 324.992905068615
65.25307 310.005807802996
65.27319 318.004539850126
65.2933 293
65.31341 301.000219461257
65.33353 295.022115692522
65.35364 323.012828825357
65.37375 312.966932483754
65.39387 338.02202733624
65.41398 297.001965440393
65.43409 331.997796378936
65.45421 291.984766631781
65.47432 298.016124553958
65.49444 299.979591851637
65.51455 295.03932253456
65.53466 324.956620554017
65.55478 329.998284861488
65.57489 333.002321044699
65.595 330
65.61512 355.002766063555
65.63523 334.980247423062
65.65535 347.065496257348
65.67546 356.057772574645
65.69557 318.991488234704
65.71569 359.991135212917
65.7358 333
65.75591 328.012960227982
65.77603 359.013049252917
65.79614 339.949711162687
65.81626 328.995128293825
65.83637 318.075027003741
65.85648 276.95738185256
65.8766 357
65.89671 275.9863005841
65.91682 334.045760572911
65.93694 320.956849148634
65.95705 316.032549987497
65.97716 297.989568637096
65.99728 322.987229683659
66.01739 309.011696228193
66.03751 292.995639468237
66.05762 300.031454007138
66.07773 336.016979061505
66.09785 311.897016074545
66.11796 288.973372525342
66.13807 315.004230157048
66.15819 287.003862466322
66.1783 312
66.19842 322.013234447013
66.21853 339.004436656554
66.23864 325.973476336933
66.25876 320.013045970084
66.27887 306.030293723125
66.29898 299.972400283752
66.3191 339
66.33921 312.98938511777
66.35933 311.994402861294
66.37944 303.012487617563
66.39955 314.038068566566
66.41967 284.002947483443
66.43978 319.959253267453
66.45989 329.013334071198
66.48001 285.982277479177
66.50012 279.019299272498
66.52023 296.986675244088
66.54035 283.070268935988
66.56046 344.921326175504
66.58058 330.045614672066
66.60069 297.000002498093
66.6208 319
66.64092 317.008913182275
66.66103 330.981289330207
66.68114 308.027950412274
66.70126 351.962140495429
66.72137 327.049899936599
66.74149 313.001143411721
66.7616 308
66.78171 297.005973544083
66.80183 326.030490906912
66.82194 325.986286106712
66.84205 320.026815009202
66.86217 304.023647379005
66.88228 301.979982489383
66.90239 327.99638533041
66.92251 322.005422788114
66.94262 348.009156220351
66.96274 330.958525189088
66.98285 321.990690976571
67.00296 319.994320310582
67.02308 322.007614780155
67.04319 317.989158590248
67.0633 353
67.08342 333.972693370744
67.10353 323.009628158099
67.12365 336.019209953556
67.14376 329.038356571715
67.16387 320.963603891172
67.18399 362.988328641634
67.2041 367
67.22421 386.984723743409
67.24433 324.965635942631
67.26444 366.120099739997
67.28456 397.999395970376
67.30467 389.98515389954
67.32478 412.995260885857
67.3449 406
67.36501 455.022256410409
67.38512 470.996855378569
67.40524 480.085491264305
67.42535 532.957975049086
67.44546 525.946249820152
67.46558 593.942686474127
67.48569 620.986250344767
67.50581 655.00737736712
67.52592 664.041806813642
67.54603 725.040660458939
67.56615 716.011762219283
67.58626 755.907503025127
67.60637 796.922477082522
67.62649 856.975793984935
67.6466 862
67.66672 796.977716211418
67.68683 815.00059167968
67.70694 788.99323221041
67.72706 800.063002567329
67.74717 746.993867959204
67.76728 813.943586033326
67.7874 824
67.80751 831.99822102695
67.82763 814.980651773778
67.84774 825.068842738577
67.86785 853.0287011518
67.88797 825.978499714436
67.90808 888.938745730936
67.92819 933.968465721496
67.94831 1011.02528164808
67.96842 1017.98526792043
67.98853 1007.99909828669
68.00865 1025.0954426761
68.02876 1079.8756969702
68.04888 1108.03966978121
68.06899 1045.00380632451
68.0891 1109
68.10922 1096.87085834733
68.12933 962.006971342919
68.14944 1079.11580509715
68.16956 1026.08987621216
68.18967 1024.06328412804
68.20979 935.028756694591
68.2299 946
68.25001 949.972345854374
68.27013 862.901058198592
68.29024 816.844723322631
68.31035 713.175194054044
68.33047 701.976612409471
68.35058 691.058085481591
68.3707 606
68.39081 566.983073089371
68.41092 542.013935440786
68.43104 564.944370931262
68.45115 501.943496027705
68.47126 524.00790226315
68.49138 465.071824510795
68.51149 432.990172984531
68.5316 455
68.55172 377.963438975508
68.57183 396.010926279384
68.59195 371.973310856596
68.61206 376.048059770528
68.63217 334.009713812621
68.65229 361.996104059542
68.6724 340
68.69251 358.003671346059
68.71263 342.979442978333
68.73274 333.951778203769
68.75286 313.952708971723
68.77297 362.975683603947
68.79308 333.031440934468
68.8132 330
68.83331 331.992180719828
68.85342 316.009752608125
68.87354 346.037052769287
68.89365 341.023175227764
68.91376 337.016736672455
68.93388 323.010924442082
68.95399 319.000841047452
68.97411 314.996882135926
68.99422 306.990800136946
69.01433 310.042243737006
69.03445 343.01021225948
69.05456 315.058940094031
69.07467 303.008138356567
69.09479 306.986378354513
69.1149 343
69.13502 333.990205732165
69.15513 336.003853734485
69.17524 318.909253930614
69.19536 280.97002944114
69.21547 329.97209171906
69.23558 296.044294643506
69.2557 283
69.27581 308.00345157076
69.29593 294.984807518336
69.31604 302.031662651194
69.33615 322.924798298555
69.35627 340.034497421212
69.37638 302.000498253646
69.39649 341.984632953258
69.41661 331.983569354456
69.43672 307.999274371117
69.45683 324.017988529413
69.47695 318.963694788224
69.49706 302.038731630573
69.51718 289.994355212102
69.53729 311.986732127016
69.5574 330
69.57752 326.987830674642
69.59763 312.985471087402
69.61774 316.036331191701
69.63786 334.994904128932
69.65797 315.047232362867
69.67809 293.000956208803
69.6982 299
69.71831 288.010867829157
69.73843 324.999028543187
69.75854 288.966968915527
69.77865 307.960323234183
69.79877 298.030059207772
69.81888 298.962560576954
69.839 341
69.85911 299.985913072022
69.87922 305.006906806295
69.89934 296.983069126127
69.91945 302.045280798671
69.93956 318.996829517355
69.95968 304.018624768014
69.97979 292.003831046969
69.9999 293
70.02002 307.989675488248
70.04013 285.001331792512
70.06025 323.129590251118
70.08036 342.076317087748
70.10047 271.081876645382
70.12059 264.986793677885
70.1407 295
70.16081 306.007093859514
70.18093 316.982665338561
70.20104 296.004112787276
70.22116 319.975754454897
70.24127 304.040181068855
70.26138 282.018355839526
70.2815 280
70.30161 318.00579090716
70.32172 298.981747108893
70.34184 294.985655541425
70.36195 285.979624962781
70.38207 308.975521996025
70.40218 310.998733646361
70.42229 311.007704419687
70.44241 288.997381582231
70.46252 299.000595383298
70.48263 286.995222501459
70.50275 297.015672351029
70.52286 296.984280798139
70.54297 309.002932654046
70.56309 296.999954725476
70.5832 305
70.60332 284.002613627942
70.62343 303.995593971811
70.64354 280.99998631296
70.66366 297.035800665815
70.68377 255.009006592472
70.70388 302.940545916395
70.724 329
70.74411 297.984707450817
70.76423 288.016444438099
70.78434 305.015433149736
70.80445 293.066855976787
70.82457 287.927162395216
70.84468 348.003660111972
70.86479 286.019758788185
70.88491 295.001712786257
70.90502 283.016763205887
70.92513 326.033327574153
70.94525 308.929220643732
70.96536 303.949322938911
70.98548 335.992386803126
71.00559 313.014395023102
71.0257 298
71.04582 284.968642177605
71.06593 265.049220550419
71.08604 327.051611965312
71.10616 299.068741420411
71.12627 292.984591394608
71.14639 304.994456012028
71.1665 299
71.18661 264.006713162581
71.20673 319.064201041626
71.22684 320.970387526404
71.24695 306.055497385965
71.26707 278.036698714516
71.28718 275.969570119976
71.3073 315
71.32741 297.991594240708
71.34752 299.006531563323
71.36764 296.975328579309
71.38775 284.997271243246
71.40786 295.989891389813
71.42798 291.003302791217
71.44809 290.004876901788
71.4682 278
71.48832 296.013498253088
71.50843 304.030049187025
71.52855 326.997339749321
71.54866 303.03735783375
71.56877 303.98910285881
71.58889 309.994756504341
71.609 320
71.62911 312.000668298226
71.64923 320.998664181683
71.66934 305.968378921479
71.68946 298.008816311186
71.70957 300.97205916948
71.72968 321.001541268815
71.7498 302
71.76991 314.009016492306
71.79002 313.972972089711
71.81014 288.024937626446
71.83025 319.019886058095
71.85037 281.997829250093
71.87048 323.983210427279
71.89059 297.011826031731
71.91071 309.016518082473
71.93082 334.001905931649
71.95093 314.965684578457
71.97105 311.05265368976
71.99116 333.015342746404
72.01127 300.035022305442
72.03139 303.992822225136
72.0515 317
72.07162 336.01468179669
72.09173 339.989877234681
72.11184 317.916917103767
72.13196 293.928664963331
72.15207 357.972314070351
72.17218 318.037410872012
72.1923 319
72.21241 317.989278444542
72.23253 296.003665932933
72.25264 310.981863131301
72.27275 295.91577629984
72.29287 362.95607100708
72.31298 326.06091174056
72.33309 300.985329796201
72.35321 346.001520294008
72.37332 301.961306379425
72.39344 304.053109492468
72.41355 327.017889357912
72.43366 324.985275186325
72.45378 332.021745266724
72.47389 305.988488382336
72.494 363
72.51412 332.969398846098
72.53423 327.994072600267
72.55434 320.015161260697
72.57446 332.028851902744
72.59457 304.992058942417
72.61469 341.988607621214
72.6348 329
72.65491 320.005367446525
72.67503 332.990662149064
72.69514 316.004185952978
72.71525 334.990641134244
72.73537 320.007702968974
72.75548 340.965404766362
72.7756 365
72.79571 341.982153818911
72.81582 320.007462286635
72.83594 336.981947400313
72.85605 302.0620533665
72.87616 310.93829980481
72.89628 339.985313835374
72.91639 340.001473649013
72.9365 337
72.95662 318.987647081252
72.97673 326.042784317659
72.99685 363.074268153343
73.01696 354.127146190003
73.03707 289.989872710629
73.05719 363.96712176506
73.0773 373
73.09741 357.000827271903
73.11753 369.005282403033
73.13764 360.992182521792
73.15776 375.934457360574
73.17787 410.967172005134
73.19798 415.003764025909
73.2181 419
73.23821 430.991581064221
73.25832 412.029366025712
73.27844 475.061780980154
73.29855 464.987342440885
73.31867 494.987603149376
73.33878 474.011074709182
73.35889 482.001422092896
73.37901 463.996325499276
73.39912 470.999467355694
73.41923 455.978284959291
73.43935 454.019431180143
73.45946 453.050833658289
73.47957 419.01577036867
73.49969 436.99026334637
73.5198 441
73.53992 428.963580271661
73.56003 382.961306221983
73.58014 388.034916971656
73.60026 397.00459328813
73.62037 384.030464084272
73.64048 367.005984099399
73.6606 374
73.68071 368.977297348515
73.70083 308.959891088593
73.72094 326.048787713342
73.74105 323.072265651657
73.76117 301.970616144366
73.78128 347.975131586109
73.80139 339.004235478789
73.82151 340.994049696197
73.84162 317.993336689048
73.86174 327.999656642538
73.88185 314.995581601112
73.90196 324.009312903303
73.92208 305.009424042346
73.94219 310.998250023873
73.9623 306
73.98242 313.00880860262
74.00253 314.989768758665
74.02264 304.989098259694
74.04276 307.984595179891
74.06287 312.00670037358
74.08299 308.993394137934
74.1031 324
74.12321 284.982776038938
74.14333 289.069078499164
74.16344 344.05303590608
74.18355 322.133450712047
74.20367 281.996859792827
74.22378 311.98516997403
74.2439 307
74.26401 331.995768602547
74.28412 295.987595363986
74.30424 314.008985038955
74.32435 295.021187887564
74.34446 299.03063482778
74.36458 270.004646544161
74.38469 294.989081946903
74.40481 295.997463753798
74.42492 293.995495702801
74.44503 296.034672453745
74.46515 322.996668384462
74.48526 299.017645188093
74.50537 309.007567827053
74.52549 289.000343419665
74.5456 318
74.56571 325.986292997667
74.58583 291.996150954685
74.60594 321.046111267117
74.62606 318.024082820999
74.64617 314.98932259462
74.66628 318.016479639691
74.6864 295
74.70651 319.011301477182
74.72662 317.978953716031
74.74674 300.009741663299
74.76685 319.981385956501
74.78697 311.998345433159
74.80708 323.999984313571
74.82719 307.008006213787
74.84731 298.994698904871
74.86742 289.004682459745
74.88753 306.019266772524
74.90765 299.941607558745
74.92776 289.93456239254
74.94787 336.000006749344
74.96799 294.010160146696
74.9881 317
75.00822 314.984736377752
