3.00117 20363
3.02128 19393
3.0414 19379
3.06151 18342
3.08162 17683
3.10174 17790
3.12185 16963
3.14197 16967
3.16208 16235
3.18219 15570
3.20231 15491
3.22242 14703
3.24253 14334
3.26265 13855
3.28276 13370
3.30288 13010
3.32299 12523
3.3431 12266
3.36322 11977
3.38333 11276
3.40344 11290
3.42356 10790
3.44367 10156
3.46379 9808
3.4839 9403
3.50401 9485
3.52413 8887
3.54424 8617
3.56435 8248
3.58447 7933
3.60458 7906
3.62469 7308
3.64481 7430
3.66492 6669
3.68504 6668
3.70515 6603
3.72526 6205
3.74538 5968
3.76549 5471
3.7856 5416
3.80572 5274
3.82583 4941
3.84595 4828
3.86606 4483
3.88617 4301
3.90629 4272
3.9264 4024
3.94651 3988
3.96663 3609
3.98674 3470
4.00686 3337
4.02697 3269
4.04708 3199
4.0672 2931
4.08731 2865
4.10742 2735
4.12754 2500
4.14765 2396
4.16776 2311
4.18788 2291
4.20799 2259
4.22811 2140
4.24822 2065
4.26833 1983
4.28845 1828
4.30856 1903
4.32867 1871
4.34879 1792
4.3689 1719
4.38902 1642
4.40913 1668
4.42924 1610
4.44936 1429
4.46947 1493
4.48958 1503
4.5097 1467
4.52981 1417
4.54992 1270
4.57004 1275
4.59015 1242
4.61027 1288
4.63038 1298
4.65049 1178
4.67061 1208
4.69072 1088
4.71083 1157
4.73095 1189
4.75106 1123
4.77118 1056
4.79129 1009
4.8114 1067
4.83152 996
4.85163 916
4.87174 943
4.89186 838
4.91197 917
4.93209 1010
4.9522 793
4.97231 867
4.99243 839
5.01254 865
5.03265 820
5.05277 788
5.07288 799
5.09299 783
5.11311 764
5.13322 765
5.15334 668
5.17345 726
5.19356 691
5.21368 703
5.23379 674
5.2539 616
5.27402 659
5.29413 631
5.31425 612
5.33436 630
5.35447 542
5.37459 570
5.3947 583
5.41481 548
5.43493 550
5.45504 503
5.47516 517
5.49527 557
5.51538 462
5.5355 499
5.55561 489
5.57572 479
5.59584 478
5.61595 521
5.63606 486
5.65618 494
5.67629 465
5.69641 445
5.71652 438
5.73663 461
5.75675 418
5.77686 437
5.79697 467
5.81709 418
5.8372 411
5.85732 403
5.87743 397
5.89754 386
5.91766 422
5.93777 395
5.95788 382
5.978 436
5.99811 419
6.01823 412
6.03834 423
6.05845 389
6.07857 394
6.09868 405
6.11879 411
6.13891 412
6.15902 351
6.17913 401
6.19925 383
6.21936 401
6.23948 371
6.25959 397
6.2797 415
6.29982 367
6.31993 402
6.34004 402
6.36016 371
6.38027 395
6.40039 369
6.4205 381
6.44061 374
6.46073 376
6.48084 387
6.50095 377
6.52107 368
6.54118 350
6.56129 383
6.58141 339
6.60152 365
6.62164 365
6.64175 351
6.66186 349
6.68198 379
6.70209 357
6.7222 329
6.74232 327
6.76243 370
6.78255 338
6.80266 345
6.82277 335
6.84289 384
6.863 358
6.88311 370
6.90323 344
6.92334 318
6.94346 356
6.96357 322
6.98368 334
7.0038 374
7.02391 369
7.04402 344
7.06414 329
7.08425 336
7.10436 377
7.12448 326
7.14459 354
7.16471 379
7.18482 361
7.20493 362
7.22505 350
7.24516 358
7.26527 335
7.28539 337
7.3055 371
7.32562 383
7.34573 381
7.36584 349
7.38596 386
7.40607 399
7.42618 356
7.4463 362
7.46641 350
7.48653 333
7.50664 348
7.52675 387
7.54687 336
7.56698 375
7.58709 374
7.60721 382
7.62732 323
7.64743 346
7.66755 385
7.68766 344
7.70778 392
7.72789 338
7.748 357
7.76812 366
7.78823 327
7.80834 377
7.82846 394
7.84857 398
7.86869 421
7.8888 359
7.90891 363
7.92903 369
7.94914 376
7.96925 422
7.98937 399
8.00948 350
8.0296 396
8.04971 391
8.06982 340
8.08994 399
8.11005 374
8.13016 353
8.15028 381
8.17039 360
8.1905 410
8.21062 434
8.23073 392
8.25085 406
8.27096 408
8.29107 386
8.31119 420
8.3313 408
8.35141 429
8.37153 413
8.39164 426
8.41176 422
8.43187 446
8.45198 409
8.4721 422
8.49221 400
8.51232 419
8.53244 412
8.55255 459
8.57266 420
8.59278 439
8.61289 446
8.63301 478
8.65312 489
8.67323 534
8.69335 559
8.71346 532
8.73357 529
8.75369 552
8.7738 526
8.79392 469
8.81403 471
8.83414 436
8.85426 418
8.87437 422
8.89448 383
8.9146 420
8.93471 383
8.95483 347
8.97494 398
8.99505 381
9.01517 337
9.03528 373
9.05539 370
9.07551 363
9.09562 340
9.11573 340
9.13585 358
9.15596 408
9.17608 384
9.19619 382
9.2163 384
9.23642 346
9.25653 390
9.27664 369
9.29676 366
9.31687 339
9.33699 376
9.3571 368
9.37721 349
9.39733 394
9.41744 371
9.43755 352
9.45767 368
9.47778 372
9.4979 341
9.51801 360
9.53812 364
9.55824 367
9.57835 352
9.59846 383
9.61858 327
9.63869 319
9.6588 340
9.67892 326
9.69903 381
9.71915 313
9.73926 358
9.75937 334
9.77949 371
9.7996 360
9.81971 369
9.83983 348
9.85994 384
9.88006 350
9.90017 312
9.92028 322
9.9404 352
9.96051 385
9.98062 340
10.00074 346
10.02085 368
10.04097 366
10.06108 360
10.08119 364
10.10131 363
10.12142 372
10.14153 355
10.16165 339
10.18176 332
10.20187 341
10.22199 398
10.2421 376
10.26222 356
10.28233 299
10.30244 332
10.32256 369
10.34267 313
10.36278 334
10.3829 388
10.40301 349
10.42313 310
10.44324 359
10.46335 343
10.48347 331
10.50358 351
10.52369 349
10.54381 347
10.56392 311
10.58403 343
10.60415 330
10.62426 345
10.64438 372
10.66449 350
10.6846 340
10.70472 358
10.72483 318
10.74494 350
10.76506 333
10.78517 365
10.80529 373
10.8254 360
10.84551 376
10.86563 344
10.88574 312
10.90585 348
10.92597 379
10.94608 385
10.9662 385
10.98631 352
11.00642 380
11.02654 416
11.04665 363
11.06676 375
11.08688 348
11.10699 397
11.1271 357
11.14722 390
11.16733 336
11.18745 423
11.20756 402
11.22767 453
11.24779 401
11.2679 404
11.28801 363
11.30813 365
11.32824 394
11.34836 376
11.36847 404
11.38858 397
11.4087 381
11.42881 418
11.44892 399
11.46904 401
11.48915 439
11.50927 438
11.52938 411
11.54949 434
11.56961 444
11.58972 454
11.60983 409
11.62995 470
11.65006 496
11.67017 450
11.69029 480
11.7104 447
11.73052 484
11.75063 448
11.77074 518
11.79086 498
11.81097 494
11.83108 533
11.8512 499
11.87131 573
11.89143 612
11.91154 516
11.93165 573
11.95177 613
11.97188 633
11.99199 666
12.01211 713
12.03222 740
12.05234 732
12.07245 754
12.09256 694
12.11268 760
12.13279 879
12.1529 856
12.17302 879
12.19313 905
12.21324 854
12.23336 794
12.25347 850
12.27359 831
12.2937 832
12.31381 791
12.33393 759
12.35404 725
12.37415 708
12.39427 678
12.41438 638
12.4345 612
12.45461 580
12.47472 571
12.49484 501
12.51495 516
12.53506 497
12.55518 466
12.57529 465
12.5954 454
12.61552 452
12.63563 445
12.65575 417
12.67586 432
12.69597 407
12.71609 385
12.7362 373
12.75631 399
12.77643 416
12.79654 362
12.81666 330
12.83677 325
12.85688 359
12.877 342
12.89711 326
12.91722 388
12.93734 369
12.95745 351
12.97757 365
12.99768 368
13.01779 387
13.03791 362
13.05802 335
13.07813 378
13.09825 354
13.11836 388
13.13847 355
13.15859 358
13.1787 325
13.19882 341
13.21893 347
13.23904 318
13.25916 364
13.27927 331
13.29938 358
13.3195 300
13.33961 320
13.35973 324
13.37984 305
13.39995 346
13.42007 304
13.44018 358
13.46029 360
13.48041 406
13.50052 411
13.52064 412
13.54075 464
13.56086 437
13.58098 419
13.60109 382
13.6212 379
13.64132 383
13.66143 326
13.68154 333
13.70166 320
13.72177 303
13.74189 316
13.762 297
13.78211 302
13.80223 330
13.82234 311
13.84245 318
13.86257 304
13.88268 296
13.9028 306
13.92291 322
13.94302 299
13.96314 306
13.98325 277
14.00336 297
14.02348 301
14.04359 277
14.06371 302
14.08382 265
14.10393 322
14.12405 297
14.14416 304
14.16427 298
14.18439 265
14.2045 299
14.22461 297
14.24473 248
14.26484 281
14.28496 286
14.30507 302
14.32518 307
14.3453 304
14.36541 263
14.38552 297
14.40564 270
14.42575 274
14.44587 265
14.46598 323
14.48609 304
14.50621 295
14.52632 278
14.54643 320
14.56655 294
14.58666 284
14.60677 298
14.62689 317
14.647 300
14.66712 267
14.68723 310
14.70734 318
14.72746 293
14.74757 290
14.76768 309
14.7878 343
14.80791 351
14.82803 318
14.84814 351
14.86825 338
14.88837 369
14.90848 345
14.92859 326
14.94871 346
14.96882 357
14.98894 341
15.00905 371
15.02916 324
15.04928 303
15.06939 334
15.0895 335
15.10962 317
15.12973 311
15.14984 299
15.16996 304
15.19007 272
15.21019 280
15.2303 294
15.25041 292
15.27053 275
15.29064 296
15.31075 293
15.33087 280
15.35098 270
15.3711 284
15.39121 270
15.41132 288
15.43144 327
15.45155 268
15.47166 287
15.49178 319
15.51189 280
15.53201 293
15.55212 259
15.57223 320
15.59235 319
15.61246 276
15.63257 269
15.65269 282
15.6728 280
15.69291 278
15.71303 317
15.73314 269
15.75326 264
15.77337 327
15.79348 274
15.8136 288
15.83371 287
15.85382 304
15.87394 268
15.89405 251
15.91417 256
15.93428 280
15.95439 297
15.97451 294
15.99462 245
16.01473 297
16.03485 281
16.05496 280
16.07508 290
16.09519 277
16.1153 317
16.13542 263
16.15553 277
16.17564 290
16.19576 282
16.21587 280
16.23598 257
16.2561 296
16.27621 294
16.29633 297
16.31644 288
16.33655 277
16.35667 257
16.37678 276
16.39689 285
16.41701 266
16.43712 290
16.45724 258
16.47735 265
16.49746 286
16.51758 304
16.53769 272
16.5578 269
16.57792 278
16.59803 268
16.61814 264
16.63826 262
16.65837 279
16.67849 274
16.6986 260
16.71871 293
16.73883 289
16.75894 286
16.77905 290
16.79917 294
16.81928 295
16.8394 274
16.85951 311
16.87962 288
16.89974 278
16.91985 280
16.93996 282
16.96008 245
16.98019 291
17.00031 261
17.02042 322
17.04053 278
17.06065 299
17.08076 295
17.10087 277
17.12099 292
17.1411 276
17.16121 283
17.18133 281
17.20144 259
17.22156 270
17.24167 303
17.26178 290
17.2819 300
17.30201 290
17.32212 289
17.34224 295
17.36235 283
17.38247 296
17.40258 297
17.42269 252
17.44281 266
17.46292 292
17.48303 305
17.50315 282
17.52326 257
17.54338 304
17.56349 301
17.5836 297
17.60372 296
17.62383 301
17.64394 295
17.66406 293
17.68417 330
17.70428 270
17.7244 304
17.74451 290
17.76463 282
17.78474 263
17.80485 277
17.82497 334
17.84508 313
17.86519 290
17.88531 294
17.90542 301
17.92554 299
17.94565 331
17.96576 298
17.98588 312
18.00599 355
18.0261 347
18.04622 341
18.06633 339
18.08645 367
18.10656 406
18.12667 474
18.14679 427
18.1669 584
18.18701 587
18.20713 599
18.22724 521
18.24735 585
18.26747 482
18.28758 397
18.3077 402
18.32781 364
18.34792 374
18.36804 344
18.38815 304
18.40826 323
18.42838 313
18.44849 308
18.46861 285
18.48872 325
18.50883 307
18.52895 275
18.54906 297
18.56917 284
18.58929 302
18.6094 277
18.62951 283
18.64963 306
18.66974 319
18.68986 277
18.70997 315
18.73008 288
18.7502 312
18.77031 304
18.79042 307
18.81054 278
18.83065 299
18.85077 307
18.87088 286
18.89099 281
18.91111 316
18.93122 313
18.95133 312
18.97145 311
18.99156 308
19.01168 287
19.03179 311
19.0519 280
19.07202 310
19.09213 335
19.11224 321
19.13236 346
19.15247 359
19.17258 366
19.1927 365
19.21281 358
19.23293 394
19.25304 366
19.27315 346
19.29327 344
19.31338 346
19.33349 347
19.35361 353
19.37372 338
19.39384 366
19.41395 367
19.43406 348
19.45418 366
19.47429 377
19.4944 367
19.51452 386
19.53463 377
19.55475 375
19.57486 406
19.59497 422
19.61509 466
19.6352 468
19.65531 537
19.67543 537
19.69554 622
19.71565 650
19.73577 659
19.75588 747
19.776 756
19.79611 755
19.81622 776
19.83634 720
19.85645 749
19.87656 771
19.89668 766
19.91679 720
19.93691 693
19.95702 687
19.97713 703
19.99725 719
20.01736 702
20.03747 677
20.05759 686
20.0777 686
20.09782 659
20.11793 703
20.13804 764
20.15816 743
20.17827 767
20.19838 697
20.2185 759
20.23861 795
20.25872 694
20.27884 670
20.29895 671
20.31907 687
20.33918 660
20.35929 704
20.37941 701
20.39952 725
20.41963 718
20.43975 720
20.45986 701
20.47998 690
20.50009 749
20.5202 708
20.54032 741
20.56043 742
20.58054 772
20.60066 853
20.62077 991
20.64088 1069
20.661 1200
20.68111 1587
20.70123 1909
20.72134 2518
20.74145 2726
20.76157 2971
20.78168 2773
20.80179 2552
20.82191 2178
20.84202 1812
20.86214 1653
20.88225 1521
20.90236 1548
20.92248 1536
20.94259 1386
20.9627 1280
20.98282 1108
21.00293 973
21.02305 852
21.04316 778
21.06327 662
21.08339 649
21.1035 652
21.12361 612
21.14373 621
21.16384 587
21.18395 640
21.20407 617
21.22418 625
21.2443 610
21.26441 595
21.28452 591
21.30464 606
21.32475 553
21.34486 645
21.36498 569
21.38509 550
21.40521 575
21.42532 549
21.44543 564
21.46555 558
21.48566 579
21.50577 538
21.52589 537
21.546 523
21.56612 541
21.58623 567
21.60634 554
21.62646 508
21.64657 496
21.66668 510
21.6868 488
21.70691 479
21.72702 481
21.74714 510
21.76725 481
21.78737 483
21.80748 475
21.82759 538
21.84771 523
21.86782 485
21.88793 518
21.90805 516
21.92816 489
21.94828 486
21.96839 487
21.9885 493
22.00862 487
22.02873 494
22.04884 458
22.06896 476
22.08907 535
22.10919 505
22.1293 515
22.14941 523
22.16953 564
22.18964 613
22.20975 579
22.22987 581
22.24998 567
22.27009 607
22.29021 589
22.31032 600
22.33044 617
22.35055 536
22.37066 536
22.39078 568
22.41089 535
22.431 568
22.45112 574
22.47123 541
22.49135 562
22.51146 537
22.53157 495
22.55169 529
22.5718 505
22.59191 475
22.61203 480
22.63214 477
22.65225 490
22.67237 409
22.69248 467
22.7126 453
22.73271 426
22.75282 486
22.77294 472
22.79305 442
22.81316 463
22.83328 497
22.85339 447
22.87351 491
22.89362 517
22.91373 543
22.93385 553
22.95396 541
22.97407 543
22.99419 565
23.0143 563
23.03442 595
23.05453 614
23.07464 647
23.09476 695
23.11487 685
23.13498 694
23.1551 657
23.17521 654
23.19532 609
23.21544 634
23.23555 665
23.25567 601
23.27578 629
23.29589 633
23.31601 631
23.33612 615
23.35623 625
23.37635 575
23.39646 592
23.41658 598
23.43669 569
23.4568 588
23.47692 571
23.49703 561
23.51714 582
23.53726 521
23.55737 604
23.57749 640
23.5976 592
23.61771 611
23.63783 592
23.65794 511
23.67805 595
23.69817 624
23.71828 590
23.73839 565
23.75851 618
23.77862 576
23.79874 605
23.81885 626
23.83896 671
23.85908 636
23.87919 705
23.8993 649
23.91942 694
23.93953 631
23.95965 548
23.97976 556
23.99987 508
24.01999 533
24.0401 546
24.06021 496
24.08033 497
24.10044 501
24.12056 515
24.14067 547
24.16078 563
24.1809 523
24.20101 575
24.22112 568
24.24124 591
24.26135 582
24.28146 671
24.30158 608
24.32169 606
24.34181 618
24.36192 629
24.38203 628
24.40215 665
24.42226 621
24.44237 617
24.46249 617
24.4826 600
24.50272 613
24.52283 674
24.54294 722
24.56306 705
24.58317 686
24.60328 743
24.6234 794
24.64351 775
24.66362 802
24.68374 867
24.70385 854
24.72397 873
24.74408 839
24.76419 837
24.78431 947
24.80442 890
24.82453 903
24.84465 854
24.86476 867
24.88488 775
24.90499 759
24.9251 751
24.94522 677
24.96533 717
24.98544 703
25.00556 664
25.02567 685
25.04579 658
25.0659 688
25.08601 651
25.10613 694
25.12624 592
25.14635 641
25.16647 642
25.18658 592
25.20669 654
25.22681 611
25.24692 622
25.26704 618
25.28715 610
25.30726 604
25.32738 626
25.34749 647
25.3676 759
25.38772 794
25.40783 835
25.42795 914
25.44806 1008
25.46817 1046
25.48829 1085
25.5084 1070
25.52851 1079
25.54863 993
25.56874 1052
25.58886 849
25.60897 793
25.62908 728
25.6492 657
25.66931 572
25.68942 587
25.70954 565
25.72965 576
25.74976 578
25.76988 514
25.78999 552
25.81011 521
25.83022 552
25.85033 521
25.87045 522
25.89056 520
25.91067 522
25.93079 496
25.9509 563
25.97102 537
25.99113 546
26.01124 547
26.03136 598
26.05147 621
26.07158 618
26.0917 655
26.11181 649
26.13193 698
26.15204 781
26.17215 766
26.19227 783
26.21238 844
26.23249 938
26.25261 1097
26.27272 1080
26.29283 1181
26.31295 1357
26.33306 1496
26.35318 1707
26.37329 1980
26.3934 2332
26.41352 2958
26.43363 3796
26.45374 5000
26.47386 6685
26.49397 8824
26.51409 10801
26.5342 11493
26.55431 10858
26.57443 9446
26.59454 7790
26.61465 5942
26.63477 4530
26.65488 3027
26.67499 2078
26.69511 1573
26.71522 1316
26.73534 1192
26.75545 1167
26.77556 1043
26.79568 994
26.81579 1023
26.8359 1096
26.85602 1109
26.87613 1204
26.89625 1252
26.91636 1340
26.93647 1462
26.95659 1491
26.9767 1429
26.99681 1322
27.01693 1198
27.03704 1057
27.05716 1014
27.07727 949
27.09738 812
27.1175 825
27.13761 831
27.15772 805
27.17784 833
27.19795 816
27.21806 944
27.23818 1002
27.25829 1090
27.27841 1236
27.29852 1449
27.31863 1633
27.33875 1953
27.35886 2155
27.37897 2152
27.39909 2098
27.4192 1964
27.43932 1645
27.45943 1442
27.47954 1086
27.49966 922
27.51977 708
27.53988 605
27.56 571
27.58011 508
27.60023 518
27.62034 497
27.64045 518
27.66057 481
27.68068 426
27.70079 464
27.72091 467
27.74102 483
27.76113 499
27.78125 428
27.80136 461
27.82148 445
27.84159 412
27.8617 443
27.88182 451
27.90193 444
27.92204 419
27.94216 392
27.96227 420
27.98239 386
28.0025 390
28.02261 407
28.04273 392
28.06284 415
28.08295 410
28.10307 374
28.12318 412
28.1433 403
28.16341 384
28.18352 386
28.20364 414
28.22375 380
28.24386 376
28.26398 392
28.28409 399
28.3042 383
28.32432 402
28.34443 366
28.36455 380
28.38466 355
28.40477 308
28.42489 375
28.445 388
28.46511 363
28.48523 369
28.50534 366
28.52546 362
28.54557 365
28.56568 391
28.5858 387
28.60591 349
28.62602 393
28.64614 405
28.66625 359
28.68636 363
28.70648 348
28.72659 372
28.74671 341
28.76682 345
28.78693 362
28.80705 333
28.82716 367
28.84727 365
28.86739 356
28.8875 311
28.90762 366
28.92773 364
28.94784 370
28.96796 351
28.98807 359
29.00818 339
29.0283 368
29.04841 362
29.06853 363
29.08864 391
29.10875 365
29.12887 377
29.14898 384
29.16909 380
29.18921 381
29.20932 372
29.22943 375
29.24955 390
29.26966 450
29.28978 462
29.30989 473
29.33 482
29.35012 463
29.37023 517
29.39034 488
29.41046 520
29.43057 517
29.45069 483
29.4708 505
29.49091 526
29.51103 437
29.53114 487
29.55125 462
29.57137 490
29.59148 508
29.6116 455
29.63171 465
29.65182 465
29.67194 447
29.69205 487
29.71216 466
29.73228 487
29.75239 478
29.7725 480
29.79262 493
29.81273 513
29.83285 418
29.85296 554
29.87307 550
29.89319 506
29.9133 553
29.93341 518
29.95353 546
29.97364 518
29.99376 559
30.01387 566
30.03398 600
30.0541 596
30.07421 606
30.09432 561
30.11444 534
30.13455 542
30.15467 613
30.17478 466
30.19489 477
30.21501 456
30.23512 405
30.25523 417
30.27535 435
30.29546 427
30.31557 404
30.33569 397
30.3558 399
30.37592 378
30.39603 399
30.41614 396
30.43626 437
30.45637 367
30.47648 421
30.4966 434
30.51671 414
30.53683 464
30.55694 480
30.57705 568
30.59717 572
30.61728 598
30.63739 658
30.65751 624
30.67762 646
30.69773 710
30.71785 637
30.73796 643
30.75808 668
30.77819 562
30.7983 554
30.81842 551
30.83853 478
30.85864 462
30.87876 408
30.89887 454
30.91899 377
30.9391 359
30.95921 339
30.97933 323
30.99944 320
31.01955 344
31.03967 326
31.05978 360
31.0799 324
31.10001 317
31.12012 312
31.14024 334
31.16035 324
31.18046 365
31.20058 339
31.22069 332
31.2408 332
31.26092 315
31.28103 320
31.30115 337
31.32126 314
31.34137 316
31.36149 342
31.3816 316
31.40171 301
31.42183 324
31.44194 334
31.46206 338
31.48217 354
31.50228 325
31.5224 329
31.54251 316
31.56262 304
31.58274 338
31.60285 321
31.62297 319
31.64308 337
31.66319 352
31.68331 344
31.70342 342
31.72353 322
31.74365 314
31.76376 314
31.78387 326
31.80399 361
31.8241 282
31.84422 319
31.86433 353
31.88444 359
31.90456 320
31.92467 340
31.94478 319
31.9649 346
31.98501 385
32.00513 373
32.02524 405
32.04535 395
32.06547 429
32.08558 428
32.10569 383
32.12581 420
32.14592 405
32.16604 430
32.18615 424
32.20626 426
32.22638 425
32.24649 438
32.2666 465
32.28672 441
32.30683 421
32.32694 427
32.34706 436
32.36717 391
32.38729 424
32.4074 417
32.42751 394
32.44763 378
32.46774 329
32.48785 357
32.50797 342
32.52808 368
32.5482 369
32.56831 339
32.58842 331
32.60854 340
32.62865 342
32.64876 351
32.66888 313
32.68899 295
32.7091 325
32.72922 317
32.74933 317
32.76945 365
32.78956 296
32.80967 340
32.82979 353
32.8499 319
32.87001 335
32.89013 320
32.91024 352
32.93036 351
32.95047 381
32.97058 368
32.9907 400
33.01081 334
33.03092 383
33.05104 346
33.07115 372
33.09127 370
33.11138 370
33.13149 343
33.15161 416
33.17172 339
33.19183 342
33.21195 363
33.23206 343
33.25217 318
33.27229 338
33.2924 381
33.31252 339
33.33263 367
33.35274 332
33.37286 337
33.39297 294
33.41308 355
33.4332 317
33.45331 347
33.47343 328
33.49354 302
33.51365 334
33.53377 350
33.55388 358
33.57399 332
33.59411 339
33.61422 353
33.63434 335
33.65445 351
33.67456 364
33.69468 349
33.71479 338
33.7349 350
33.75502 347
33.77513 339
33.79524 342
33.81536 370
33.83547 334
33.85559 363
33.8757 377
33.89581 378
33.91593 406
33.93604 402
33.95615 383
33.97627 407
33.99638 442
34.0165 428
34.03661 447
34.05672 498
34.07684 500
34.09695 528
34.11706 513
34.13718 547
34.15729 530
34.17741 551
34.19752 541
34.21763 542
34.23775 520
34.25786 526
34.27797 486
34.29809 492
34.3182 523
34.33831 501
34.35843 461
34.37854 483
34.39866 482
34.41877 504
34.43888 504
34.459 482
34.47911 513
34.49922 483
34.51934 531
34.53945 551
34.55957 536
34.57968 476
34.59979 520
34.61991 512
34.64002 502
34.66013 514
34.68025 499
34.70036 602
34.72047 502
34.74059 551
34.7607 596
34.78082 611
34.80093 633
34.82104 646
34.84116 636
34.86127 649
34.88138 669
34.9015 641
34.92161 610
34.94173 625
34.96184 645
34.98195 645
35.00207 597
35.02218 671
35.04229 604
35.06241 590
35.08252 580
35.10264 620
35.12275 567
35.14286 605
35.16298 599
35.18309 583
35.2032 621
35.22332 636
35.24343 619
35.26354 651
35.28366 632
35.30377 635
35.32389 609
35.344 642
35.36411 684
35.38423 675
35.40434 660
35.42445 654
35.44457 630
35.46468 658
35.4848 598
35.50491 613
35.52502 571
35.54514 645
35.56525 605
35.58536 562
35.60548 541
35.62559 576
35.64571 523
35.66582 544
35.68593 553
35.70605 562
35.72616 571
35.74627 574
35.76639 558
35.7865 553
35.80661 598
35.82673 519
35.84684 580
35.86696 546
35.88707 542
35.90718 518
35.9273 542
35.94741 521
35.96752 537
35.98764 487
36.00775 479
36.02787 447
36.04798 475
36.06809 470
36.08821 433
36.10832 443
36.12843 399
36.14855 422
36.16866 512
36.18878 418
36.20889 466
36.229 488
36.24912 503
36.26923 506
36.28934 564
36.30946 579
36.32957 636
36.34968 700
36.3698 851
36.38991 1012
36.41003 1096
36.43014 1115
36.45025 1102
36.47037 992
36.49048 978
36.51059 825
36.53071 842
36.55082 749
36.57094 585
36.59105 522
36.61116 515
36.63128 497
36.65139 460
36.6715 477
36.69162 461
36.71173 444
36.73184 459
36.75196 519
36.77207 460
36.79219 435
36.8123 495
36.83241 512
36.85253 494
36.87264 502
36.89275 499
36.91287 496
36.93298 488
36.9531 536
36.97321 461
36.99332 452
37.01344 457
37.03355 499
37.05366 458
37.07378 485
37.09389 502
37.11401 424
37.13412 445
37.15423 428
37.17435 424
37.19446 474
37.21457 436
37.23469 459
37.2548 457
37.27491 497
37.29503 484
37.31514 475
37.33526 407
37.35537 425
37.37548 461
37.3956 467
37.41571 471
37.43582 468
37.45594 488
37.47605 494
37.49617 534
37.51628 467
37.53639 477
37.55651 527
37.57662 473
37.59673 465
37.61685 481
37.63696 474
37.65708 458
37.67719 479
37.6973 490
37.71742 444
37.73753 470
37.75764 468
37.77776 468
37.79787 463
37.81798 470
37.8381 436
37.85821 415
37.87833 436
37.89844 461
37.91855 449
37.93867 429
37.95878 451
37.97889 425
37.99901 471
38.01912 461
38.03924 500
38.05935 456
38.07946 471
38.09958 490
38.11969 513
38.1398 462
38.15992 491
38.18003 475
38.20015 528
38.22026 545
38.24037 550
38.26049 528
38.2806 535
38.30071 534
38.32083 522
38.34094 578
38.36105 585
38.38117 553
38.40128 560
38.4214 591
38.44151 591
38.46162 552
38.48174 564
38.50185 585
38.52196 526
38.54208 524
38.56219 553
38.58231 547
38.60242 484
38.62253 501
38.64265 445
38.66276 418
38.68287 456
38.70299 423
38.7231 420
38.74321 434
38.76333 426
38.78344 450
38.80356 466
38.82367 442
38.84378 405
38.8639 428
38.88401 419
38.90412 442
38.92424 442
38.94435 401
38.96447 443
38.98458 425
39.00469 452
39.02481 473
39.04492 481
39.06503 448
39.08515 434
39.10526 478
39.12538 475
39.14549 492
39.1656 495
39.18572 504
39.20583 562
39.22594 543
39.24606 635
39.26617 710
39.28628 703
39.3064 833
39.32651 931
39.34663 982
39.36674 975
39.38685 923
39.40697 814
39.42708 778
39.44719 690
39.46731 672
39.48742 588
39.50754 531
39.52765 467
39.54776 419
39.56788 377
39.58799 386
39.6081 390
39.62822 348
39.64833 317
39.66845 366
39.68856 341
39.70867 372
39.72879 374
39.7489 331
39.76901 411
39.78913 379
39.80924 404
39.82935 380
39.84947 383
39.86958 387
39.8897 357
39.90981 380
39.92992 398
39.95004 356
39.97015 352
39.99026 423
40.01038 408
40.03049 443
40.05061 446
40.07072 435
40.09083 466
40.11095 532
40.13106 595
40.15117 647
40.17129 680
40.1914 667
40.21152 643
40.23163 540
40.25174 555
40.27186 529
40.29197 481
40.31208 456
40.3322 467
40.35231 412
40.37242 376
40.39254 374
40.41265 379
40.43277 371
40.45288 386
40.47299 364
40.49311 357
40.51322 380
40.53333 333
40.55345 363
40.57356 398
40.59368 347
40.61379 356
40.6339 372
40.65402 353
40.67413 350
40.69424 373
40.71436 366
40.73447 364
40.75458 412
40.7747 362
40.79481 345
40.81493 359
40.83504 348
40.85515 388
40.87527 330
40.89538 386
40.91549 385
40.93561 374
40.95572 377
40.97584 357
40.99595 386
41.01606 370
41.03618 384
41.05629 341
41.0764 401
41.09652 368
41.11663 330
41.13675 378
41.15686 334
41.17697 377
41.19709 378
41.2172 369
41.23731 379
41.25743 329
41.27754 401
41.29765 400
41.31777 426
41.33788 364
41.358 349
41.37811 387
41.39822 383
41.41834 366
41.43845 411
41.45856 395
41.47868 408
41.49879 419
41.51891 470
41.53902 461
41.55913 489
41.57925 505
41.59936 514
41.61947 575
41.63959 556
41.6597 602
41.67982 699
41.69993 627
41.72004 602
41.74016 588
41.76027 543
41.78038 539
41.8005 512
41.82061 451
41.84072 471
41.86084 412
41.88095 395
41.90107 386
41.92118 348
41.94129 309
41.96141 344
41.98152 367
42.00163 395
42.02175 390
42.04186 335
42.06198 360
42.08209 385
42.1022 357
42.12232 370
42.14243 407
42.16254 371
42.18266 421
42.20277 444
42.22289 491
42.243 468
42.26311 529
42.28323 659
42.30334 664
42.32345 736
42.34357 780
42.36368 723
42.38379 614
42.40391 593
42.42402 600
42.44414 562
42.46425 513
42.48436 516
42.50448 460
42.52459 446
42.5447 396
42.56482 392
42.58493 418
42.60505 374
42.62516 375
42.64527 383
42.66539 392
42.6855 392
42.70561 381
42.72573 377
42.74584 373
42.76595 352
42.78607 316
42.80618 350
42.8263 308
42.84641 318
42.86652 325
42.88664 326
42.90675 313
42.92686 310
42.94698 334
42.96709 316
42.98721 313
43.00732 355
43.02743 310
43.04755 339
43.06766 332
43.08777 353
43.10789 284
43.128 343
43.14812 297
43.16823 271
43.18834 272
43.20846 319
43.22857 327
43.24868 298
43.2688 315
43.28891 297
43.30902 319
43.32914 324
43.34925 309
43.36937 314
43.38948 295
43.40959 313
43.42971 319
43.44982 303
43.46993 352
43.49005 316
43.51016 328
43.53028 300
43.55039 369
43.5705 350
43.59062 290
43.61073 307
43.63084 331
43.65096 318
43.67107 299
43.69119 282
43.7113 318
43.73141 343
43.75153 311
43.77164 293
43.79175 310
43.81187 323
43.83198 296
43.85209 294
43.87221 352
43.89232 360
43.91244 354
43.93255 339
43.95266 312
43.97278 344
43.99289 347
44.013 355
44.03312 355
44.05323 331
44.07335 357
44.09346 355
44.11357 333
44.13369 342
44.1538 351
44.17391 347
44.19403 338
44.21414 337
44.23426 302
44.25437 315
44.27448 289
44.2946 326
44.31471 302
44.33482 294
44.35494 322
44.37505 299
44.39516 333
44.41528 305
44.43539 318
44.45551 304
44.47562 312
44.49573 311
44.51585 312
44.53596 323
44.55607 314
44.57619 311
44.5963 324
44.61642 312
44.63653 283
44.65664 291
44.67676 342
44.69687 307
44.71698 325
44.7371 306
44.75721 342
44.77732 338
44.79744 312
44.81755 313
44.83767 328
44.85778 367
44.87789 337
44.89801 359
44.91812 338
44.93823 331
44.95835 332
44.97846 338
44.99858 366
45.01869 339
45.0388 352
45.05892 362
45.07903 370
45.09914 383
45.11926 382
45.13937 359
45.15949 385
45.1796 396
45.19971 355
45.21983 388
45.23994 371
45.26005 405
45.28017 419
45.30028 395
45.32039 404
45.34051 435
45.36062 427
45.38074 438
45.40085 480
45.42096 465
45.44108 457
45.46119 426
45.4813 458
45.50142 477
45.52153 488
45.54165 467
45.56176 478
45.58187 518
45.60199 536
45.6221 564
45.64221 621
45.66233 637
45.68244 681
45.70256 645
45.72267 602
45.74278 523
45.7629 539
45.78301 505
45.80312 452
45.82324 478
45.84335 456
45.86346 446
45.88358 416
45.90369 370
45.92381 400
45.94392 349
45.96403 402
45.98415 343
46.00426 344
46.02437 358
46.04449 366
46.0646 344
46.08472 337
46.10483 348
46.12494 358
46.14506 322
46.16517 350
46.18528 326
46.2054 312
46.22551 315
46.24563 326
46.26574 325
46.28585 306
46.30597 316
46.32608 293
46.34619 303
46.36631 320
46.38642 297
46.40653 305
46.42665 336
46.44676 292
46.46688 306
46.48699 310
46.5071 301
46.52722 299
46.54733 331
46.56744 359
46.58756 327
46.60767 354
46.62779 331
46.6479 304
46.66801 315
46.68813 312
46.70824 314
46.72835 323
46.74847 307
46.76858 350
46.78869 345
46.80881 335
46.82892 344
46.84904 359
46.86915 347
46.88926 336
46.90938 396
46.92949 390
46.9496 390
46.96972 367
46.98983 398
47.00995 392
47.03006 429
47.05017 399
47.07029 393
47.0904 376
47.11051 398
47.13063 349
47.15074 387
47.17086 356
47.19097 369
47.21108 337
47.2312 354
47.25131 358
47.27142 348
47.29154 324
47.31165 354
47.33176 349
47.35188 370
47.37199 388
47.39211 354
47.41222 352
47.43233 352
47.45245 338
47.47256 332
47.49267 344
47.51279 371
47.5329 347
47.55302 339
47.57313 315
47.59324 340
47.61336 345
47.63347 328
47.65358 308
47.6737 352
47.69381 356
47.71393 336
47.73404 332
47.75415 320
47.77427 335
47.79438 347
47.81449 315
47.83461 305
47.85472 339
47.87483 354
47.89495 340
47.91506 343
47.93518 333
47.95529 316
47.9754 321
47.99552 332
48.01563 316
48.03574 327
48.05586 292
48.07597 298
48.09609 314
48.1162 312
48.13631 286
48.15643 303
48.17654 301
48.19665 319
48.21677 267
48.23688 310
48.257 275
48.27711 285
48.29722 314
48.31734 296
48.33745 289
48.35756 298
48.37768 296
48.39779 304
48.4179 316
48.43802 316
48.45813 297
48.47825 262
48.49836 287
48.51847 325
48.53859 339
48.5587 306
48.57881 332
48.59893 351
48.61904 335
48.63916 346
48.65927 305
48.67938 328
48.6995 358
48.71961 347
48.73972 356
48.75984 390
48.77995 370
48.80006 356
48.82018 369
48.84029 353
48.86041 359
48.88052 393
48.90063 374
48.92075 378
48.94086 385
48.96097 348
48.98109 356
49.0012 355
49.02132 367
49.04143 330
49.06154 320
49.08166 339
49.10177 328
49.12188 309
49.142 327
49.16211 359
49.18223 319
49.20234 322
49.22245 358
49.24257 324
49.26268 351
49.28279 350
49.30291 342
49.32302 322
49.34313 313
49.36325 356
49.38336 339
49.40348 329
49.42359 340
49.4437 338
49.46382 299
49.48393 347
49.50404 345
49.52416 337
49.54427 320
49.56439 312
49.5845 364
49.60461 354
49.62473 362
49.64484 381
49.66495 344
49.68507 345
49.70518 369
49.7253 359
49.74541 364
49.76552 390
49.78564 400
49.80575 454
49.82586 510
49.84598 491
49.86609 455
49.8862 581
49.90632 625
49.92643 734
49.94655 806
49.96666 958
49.98677 1187
50.00689 1239
50.027 1374
50.04711 1322
50.06723 1100
50.08734 930
50.10746 905
50.12757 795
50.14768 812
50.1678 827
50.18791 719
50.20802 637
50.22814 540
50.24825 461
50.26837 444
50.28848 422
50.30859 442
50.32871 463
50.34882 469
50.36893 527
50.38905 556
50.40916 582
50.42927 588
50.44939 622
50.4695 617
50.48962 558
50.50973 594
50.52984 600
50.54996 555
50.57007 546
50.59018 558
50.6103 518
50.63041 518
50.65053 480
50.67064 503
50.69075 446
50.71087 415
50.73098 427
50.75109 427
50.77121 399
50.79132 420
50.81143 376
50.83155 400
50.85166 363
50.87178 346
50.89189 369
50.912 330
50.93212 349
50.95223 343
50.97234 306
50.99246 329
51.01257 308
51.03269 299
51.0528 315
51.07291 297
51.09303 310
51.11314 306
51.13325 320
51.15337 320
51.17348 273
51.1936 265
51.21371 292
51.23382 292
51.25394 288
51.27405 282
51.29416 359
51.31428 308
51.33439 284
51.3545 300
51.37462 276
51.39473 277
51.41485 281
51.43496 291
51.45507 292
51.47519 286
51.4953 283
51.51541 276
51.53553 270
51.55564 287
51.57576 307
51.59587 294
51.61598 287
51.6361 298
51.65621 278
51.67632 286
51.69644 301
51.71655 274
51.73667 277
51.75678 290
51.77689 278
51.79701 267
51.81712 271
51.83723 305
51.85735 269
51.87746 290
51.89757 280
51.91769 311
51.9378 266
51.95792 309
51.97803 325
51.99814 318
52.01826 299
52.03837 281
52.05848 297
52.0786 297
52.09871 295
52.11883 300
52.13894 313
52.15905 303
52.17917 298
52.19928 326
52.21939 300
52.23951 318
52.25962 289
52.27974 296
52.29985 284
52.31996 292
52.34008 301
52.36019 324
52.3803 320
52.40042 288
52.42053 294
52.44064 302
52.46076 309
52.48087 284
52.50099 301
52.5211 289
52.54121 279
52.56133 308
52.58144 362
52.60155 278
52.62167 319
52.64178 275
52.6619 302
52.68201 308
52.70212 326
52.72224 286
52.74235 284
52.76246 289
52.78258 288
52.80269 289
52.8228 281
52.84292 311
52.86303 304
52.88315 267
52.90326 294
52.92337 299
52.94349 298
52.9636 266
52.98371 328
53.00383 318
53.02394 284
53.04406 272
53.06417 304
53.08428 288
53.1044 308
53.12451 281
53.14462 279
53.16474 295
53.18485 302
53.20497 316
53.22508 285
53.24519 323
53.26531 309
53.28542 310
53.30553 321
53.32565 345
53.34576 315
53.36587 294
53.38599 303
53.4061 320
53.42622 312
53.44633 310
53.46644 295
53.48656 370
53.50667 336
53.52678 307
53.5469 339
53.56701 298
53.58713 316
53.60724 305
53.62735 337
53.64747 312
53.66758 325
53.68769 329
53.70781 337
53.72792 320
53.74804 338
53.76815 332
53.78826 343
53.80838 358
53.82849 361
53.8486 369
53.86872 348
53.88883 352
53.90894 340
53.92906 391
53.94917 357
53.96929 354
53.9894 379
54.00951 336
54.02963 365
54.04974 364
54.06985 374
54.08997 369
54.11008 394
54.1302 372
54.15031 400
54.17042 376
54.19054 395
54.21065 396
54.23076 406
54.25088 412
54.27099 367
54.29111 400
54.31122 392
54.33133 398
54.35145 400
54.37156 403
54.39167 407
54.41179 410
54.4319 416
54.45201 415
54.47213 410
54.49224 389
54.51236 426
54.53247 440
54.55258 419
54.5727 439
54.59281 463
54.61292 438
54.63304 483
54.65315 530
54.67327 566
54.69338 564
54.71349 596
54.73361 656
54.75372 707
54.77383 678
54.79395 629
54.81406 598
54.83417 549
54.85429 537
54.8744 580
54.89452 583
54.91463 519
54.93474 553
54.95486 520
54.97497 507
54.99508 434
55.0152 465
55.03531 471
55.05543 460
55.07554 438
55.09565 449
55.11577 460
55.13588 470
55.15599 482
55.17611 486
55.19622 551
55.21634 508
55.23645 493
55.25656 487
55.27668 444
55.29679 474
55.3169 435
55.33702 453
55.35713 460
55.37724 476
55.39736 425
55.41747 420
55.43759 428
55.4577 417
55.47781 370
55.49793 389
55.51804 387
55.53815 385
55.55827 386
55.57838 378
55.5985 344
55.61861 369
55.63872 382
55.65884 376
55.67895 385
55.69906 393
55.71918 382
55.73929 357
55.75941 322
55.77952 341
55.79963 348
55.81975 328
55.83986 341
55.85997 345
55.88009 361
55.9002 300
55.92031 343
55.94043 335
55.96054 330
55.98066 329
56.00077 339
56.02088 332
56.041 324
56.06111 311
56.08122 338
56.10134 310
56.12145 311
56.14157 340
56.16168 284
56.18179 354
56.20191 336
56.22202 317
56.24213 321
56.26225 327
56.28236 324
56.30248 354
56.32259 354
56.3427 358
56.36282 334
56.38293 348
56.40304 323
56.42316 321
56.44327 318
56.46338 314
56.4835 344
56.50361 329
56.52373 320
56.54384 333
56.56395 340
56.58407 360
56.60418 349
56.62429 377
56.64441 332
56.66452 331
56.68464 334
56.70475 346
56.72486 370
56.74498 355
56.76509 319
56.7852 345
56.80532 343
56.82543 367
56.84554 364
56.86566 326
56.88577 316
56.90589 296
56.926 314
56.94611 317
56.96623 326
56.98634 326
57.00645 323
57.02657 322
57.04668 300
57.0668 304
57.08691 348
57.10702 328
57.12714 314
57.14725 328
57.16736 334
57.18748 307
57.20759 313
57.22771 344
57.24782 310
57.26793 340
57.28805 355
57.30816 316
57.32827 311
57.34839 340
57.3685 309
57.38861 315
57.40873 331
57.42884 323
57.44896 335
57.46907 329
57.48918 299
57.5093 318
57.52941 334
57.54952 273
57.56964 312
57.58975 277
57.60987 283
57.62998 307
57.65009 284
57.67021 278
57.69032 321
57.71043 324
57.73055 330
57.75066 274
57.77078 311
57.79089 307
57.811 299
57.83112 326
57.85123 323
57.87134 310
57.89146 285
57.91157 274
57.93168 300
57.9518 347
57.97191 315
57.99203 310
58.01214 292
58.03225 316
58.05237 329
58.07248 301
58.09259 321
58.11271 291
58.13282 264
58.15294 298
58.17305 257
58.19316 312
58.21328 262
58.23339 239
58.2535 292
58.27362 252
58.29373 340
58.31385 293
58.33396 302
58.35407 326
58.37419 298
58.3943 351
58.41441 293
58.43453 326
58.45464 338
58.47475 330
58.49487 339
58.51498 334
58.5351 338
58.55521 310
58.57532 322
58.59544 336
58.61555 306
58.63566 308
58.65578 337
58.67589 316
58.69601 291
58.71612 310
58.73623 303
58.75635 290
58.77646 305
58.79657 303
58.81669 301
58.8368 276
58.85691 277
58.87703 288
58.89714 325
58.91726 294
58.93737 308
58.95748 312
58.9776 310
58.99771 291
59.01782 301
59.03794 279
59.05805 305
59.07817 307
59.09828 298
59.11839 269
59.13851 305
59.15862 307
59.17873 318
59.19885 298
59.21896 323
59.23908 300
59.25919 315
59.2793 331
59.29942 319
59.31953 316
59.33964 313
59.35976 314
59.37987 333
59.39998 313
59.4201 341
59.44021 322
59.46033 364
59.48044 353
59.50055 321
59.52067 355
59.54078 362
59.56089 393
59.58101 395
59.60112 380
59.62124 419
59.64135 442
59.66146 474
59.68158 508
59.70169 516
59.7218 588
59.74192 638
59.76203 674
59.78215 786
59.80226 871
59.82237 949
59.84249 945
59.8626 1031
59.88271 850
59.90283 737
59.92294 641
59.94305 635
59.96317 610
59.98328 660
60.0034 706
60.02351 643
60.04362 595
60.06374 513
60.08385 443
60.10396 415
60.12408 358
60.14419 368
60.16431 397
60.18442 362
60.20453 377
60.22465 370
60.24476 364
60.26487 358
60.28499 354
60.3051 340
60.32522 343
60.34533 324
60.36544 356
60.38556 344
60.40567 342
60.42578 309
60.4459 324
60.46601 350
60.48612 328
60.50624 335
60.52635 335
60.54647 369
60.56658 315
60.58669 331
60.60681 351
60.62692 314
60.64703 315
60.66715 287
60.68726 317
60.70738 295
60.72749 318
60.7476 324
60.76772 293
60.78783 302
60.80794 298
60.82806 296
60.84817 276
60.86828 329
60.8884 324
60.90851 303
60.92863 283
60.94874 329
60.96885 331
60.98897 340
61.00908 336
61.02919 287
61.04931 296
61.06942 325
61.08954 358
61.10965 357
61.12976 337
61.14988 356
61.16999 332
61.1901 350
61.21022 321
61.23033 351
61.25045 321
61.27056 316
61.29067 313
61.31079 327
61.3309 312
61.35101 315
61.37113 326
61.39124 356
61.41135 330
61.43147 361
61.45158 352
61.4717 334
61.49181 322
61.51192 325
61.53204 314
61.55215 338
61.57226 340
61.59238 312
61.61249 349
61.63261 341
61.65272 345
61.67283 368
61.69295 363
61.71306 308
61.73317 333
61.75329 354
61.7734 368
61.79352 348
61.81363 368
61.83374 349
61.85386 381
61.87397 349
61.89408 357
61.9142 376
61.93431 421
61.95442 401
61.97454 404
61.99465 392
62.01477 416
62.03488 427
62.05499 410
62.07511 444
62.09522 422
62.11533 406
62.13545 489
62.15556 496
62.17568 495
62.19579 525
62.2159 471
62.23602 497
62.25613 455
62.27624 461
62.29636 435
62.31647 454
62.33659 440
62.3567 442
62.37681 429
62.39693 423
62.41704 464
62.43715 419
62.45727 462
62.47738 426
62.49749 387
62.51761 411
62.53772 413
62.55784 402
62.57795 364
62.59806 363
62.61818 409
62.63829 401
62.6584 364
62.67852 337
62.69863 387
62.71875 368
62.73886 348
62.75897 359
62.77909 316
62.7992 372
62.81931 336
62.83943 329
62.85954 337
62.87965 354
62.89977 367
62.91988 341
62.94 352
62.96011 353
62.98022 363
63.00034 340
63.02045 318
63.04056 349
63.06068 337
63.08079 305
63.10091 341
63.12102 309
63.14113 333
63.16125 345
63.18136 326
63.20147 306
63.22159 354
63.2417 311
63.26182 317
63.28193 329
63.30204 315
63.32216 303
63.34227 310
63.36238 319
63.3825 328
63.40261 330
63.42272 333
63.44284 338
63.46295 315
63.48307 338
63.50318 358
63.52329 346
63.54341 358
63.56352 338
63.58363 331
63.60375 340
63.62386 360
63.64398 398
63.66409 347
63.6842 381
63.70432 415
63.72443 360
63.74454 415
63.76466 363
63.78477 413
63.80489 381
63.825 392
63.84511 472
63.86523 487
63.88534 462
63.90545 499
63.92557 475
63.94568 496
63.96579 477
63.98591 441
64.00602 397
64.02614 407
64.04625 414
64.06636 384
64.08648 433
64.10659 406
64.1267 355
64.14682 365
64.16693 347
64.18705 339
64.20716 337
64.22727 323
64.24739 350
64.2675 308
64.28761 290
64.30773 309
64.32784 315
64.34796 337
64.36807 297
64.38818 321
64.4083 294
64.42841 284
64.44852 304
64.46864 295
64.48875 313
64.50886 325
64.52898 297
64.54909 308
64.56921 309
64.58932 348
64.60943 310
64.62955 353
64.64966 280
64.66977 299
64.68989 295
64.71 300
64.73012 304
64.75023 319
64.77034 323
64.79046 299
64.81057 294
64.83068 320
64.8508 311
64.87091 301
64.89102 306
64.91114 322
64.93125 312
64.95137 315
64.97148 311
64.99159 308
65.01171 302
65.03182 325
65.05193 334
65.07205 327
65.09216 321
65.11228 362
65.13239 342
65.1525 347
65.17262 355
65.19273 312
65.21284 314
65.23296 327
65.25307 309
65.27319 310
65.2933 295
65.31341 294
65.33353 346
65.35364 310
65.37375 318
65.39387 309
65.41398 283
65.43409 296
65.45421 294
65.47432 305
65.49444 273
65.51455 310
65.53466 295
65.55478 272
65.57489 298
65.595 298
65.61512 293
65.63523 282
65.65535 330
65.67546 283
65.69557 308
65.71569 286
65.7358 285
65.75591 296
65.77603 289
65.79614 296
65.81626 286
65.83637 313
65.85648 284
65.8766 261
65.89671 297
65.91682 275
65.93694 305
65.95705 275
65.97716 289
65.99728 300
66.01739 273
66.03751 301
66.05762 324
66.07773 265
66.09785 289
66.11796 317
66.13807 317
66.15819 341
66.1783 318
66.19842 356
66.21853 324
66.23864 338
66.25876 327
66.27887 300
66.29898 306
66.3191 331
66.33921 331
66.35933 293
66.37944 328
66.39955 329
66.41967 345
66.43978 330
66.45989 312
66.48001 297
66.50012 287
66.52023 286
66.54035 297
66.56046 300
66.58058 289
66.60069 290
66.6208 286
66.64092 287
66.66103 259
66.68114 276
66.70126 309
66.72137 295
66.74149 284
66.7616 284
66.78171 302
66.80183 273
66.82194 296
66.84205 311
66.86217 301
66.88228 333
66.90239 306
66.92251 294
66.94262 304
66.96274 292
66.98285 258
67.00296 283
67.02308 291
67.04319 278
67.0633 316
67.08342 300
67.10353 298
67.12365 277
67.14376 334
67.16387 291
67.18399 295
67.2041 285
67.22421 287
67.24433 272
67.26444 292
67.28456 283
67.30467 339
67.32478 307
67.3449 328
67.36501 340
67.38512 337
67.40524 340
67.42535 350
67.44546 379
67.46558 393
67.48569 409
67.50581 439
67.52592 445
67.54603 501
67.56615 539
67.58626 607
67.60637 649
67.62649 710
67.6466 658
67.66672 645
67.68683 573
67.70694 515
67.72706 490
67.74717 473
67.76728 493
67.7874 527
67.80751 519
67.82763 547
67.84774 553
67.86785 557
67.88797 531
67.90808 530
67.92819 556
67.94831 627
67.96842 627
67.98853 728
68.00865 775
68.02876 788
68.04888 789
68.06899 724
68.0891 719
68.10922 637
68.12933 613
68.14944 660
68.16956 725
68.18967 764
68.20979 770
68.2299 734
68.25001 667
68.27013 621
68.29024 481
68.31035 466
68.33047 433
68.35058 437
68.3707 432
68.39081 460
68.41092 435
68.43104 409
68.45115 336
68.47126 335
68.49138 309
68.51149 313
68.5316 311
68.55172 326
68.57183 306
68.59195 298
68.61206 271
68.63217 263
68.65229 274
68.6724 330
68.69251 304
68.71263 311
68.73274 320
68.75286 314
68.77297 312
68.79308 283
68.8132 302
68.83331 284
68.85342 310
68.87354 291
68.89365 292
68.91376 297
68.93388 287
68.95399 268
68.97411 286
68.99422 291
69.01433 259
69.03445 252
69.05456 307
69.07467 295
69.09479 268
69.1149 269
69.13502 255
69.15513 259
69.17524 277
69.19536 274
69.21547 274
69.23558 250
69.2557 246
69.27581 268
69.29593 252
69.31604 280
69.33615 270
69.35627 271
69.37638 268
69.39649 279
69.41661 285
69.43672 281
69.45683 245
69.47695 265
69.49706 274
69.51718 230
69.53729 257
69.5574 270
69.57752 257
69.59763 306
69.61774 267
69.63786 284
69.65797 291
69.67809 278
69.6982 282
69.71831 277
69.73843 252
69.75854 237
69.77865 278
69.79877 286
69.81888 255
69.839 286
69.85911 263
69.87922 274
69.89934 272
69.91945 295
69.93956 292
69.95968 246
69.97979 271
69.9999 292
70.02002 263
70.04013 296
70.06025 277
70.08036 273
70.10047 261
70.12059 268
70.1407 271
70.16081 281
70.18093 306
70.20104 286
70.22116 270
70.24127 267
70.26138 292
70.2815 253
70.30161 288
70.32172 267
70.34184 287
70.36195 273
70.38207 249
70.40218 298
70.42229 283
70.44241 299
70.46252 278
70.48263 280
70.50275 275
70.52286 283
70.54297 266
70.56309 257
70.5832 281
70.60332 250
70.62343 252
70.64354 272
70.66366 297
70.68377 287
70.70388 287
70.724 260
70.74411 258
70.76423 272
70.78434 272
70.80445 268
70.82457 290
70.84468 260
70.86479 257
70.88491 295
70.90502 308
70.92513 287
70.94525 268
70.96536 288
70.98548 277
71.00559 237
71.0257 237
71.04582 242
71.06593 257
71.08604 299
71.10616 275
71.12627 298
71.14639 279
71.1665 248
71.18661 278
71.20673 286
71.22684 298
71.24695 285
71.26707 311
71.28718 307
71.3073 292
71.32741 287
71.34752 275
71.36764 304
71.38775 306
71.40786 318
71.42798 313
71.44809 296
71.4682 309
71.48832 318
71.50843 303
71.52855 324
71.54866 282
71.56877 314
71.58889 316
71.609 302
71.62911 300
71.64923 292
71.66934 292
71.68946 280
71.70957 286
71.72968 315
71.7498 302
71.76991 302
71.79002 300
71.81014 322
71.83025 309
71.85037 297
71.87048 280
71.89059 283
71.91071 302
71.93082 256
71.95093 318
71.97105 272
71.99116 284
72.01127 299
72.03139 298
72.0515 273
72.07162 306
72.09173 300
72.11184 329
72.13196 290
72.15207 281
72.17218 322
72.1923 277
72.21241 310
72.23253 311
72.25264 309
72.27275 307
72.29287 277
72.31298 296
72.33309 301
72.35321 349
72.37332 302
72.39344 317
72.41355 309
72.43366 322
72.45378 279
72.47389 305
72.494 287
72.51412 294
72.53423 331
72.55434 273
72.57446 299
72.59457 342
72.61469 282
72.6348 280
72.65491 311
72.67503 293
72.69514 285
72.71525 293
72.73537 284
72.75548 305
72.7756 323
72.79571 290
72.81582 296
72.83594 314
72.85605 263
72.87616 310
72.89628 320
72.91639 301
72.9365 303
72.95662 304
72.97673 269
72.99685 338
73.01696 315
73.03707 321
73.05719 350
73.0773 343
73.09741 332
73.11753 348
73.13764 301
73.15776 356
73.17787 335
73.19798 373
73.2181 370
73.23821 348
73.25832 379
73.27844 390
73.29855 385
73.31867 384
73.33878 437
73.35889 439
73.37901 440
73.39912 405
73.41923 371
73.43935 387
73.45946 388
73.47957 343
73.49969 363
73.5198 391
73.53992 382
73.56003 370
73.58014 369
73.60026 360
73.62037 348
73.64048 320
73.6606 347
73.68071 318
73.70083 300
73.72094 293
73.74105 306
73.76117 262
73.78128 306
73.80139 337
73.82151 317
73.84162 281
73.86174 314
73.88185 298
73.90196 314
73.92208 279
73.94219 272
73.9623 319
73.98242 273
74.00253 297
74.02264 284
74.04276 271
74.06287 283
74.08299 310
74.1031 312
74.12321 293
74.14333 302
74.16344 285
74.18355 275
74.20367 267
74.22378 296
74.2439 273
74.26401 302
74.28412 282
74.30424 270
74.32435 285
74.34446 265
74.36458 270
74.38469 235
74.40481 290
74.42492 264
74.44503 258
74.46515 291
74.48526 270
74.50537 295
74.52549 282
74.5456 269
74.56571 309
74.58583 275
74.60594 295
74.62606 292
74.64617 313
74.66628 288
74.6864 300
74.70651 301
74.72662 281
74.74674 288
74.76685 279
74.78697 273
74.80708 263
74.82719 286
74.84731 271
74.86742 340
74.88753 292
74.90765 306
74.92776 263
74.94787 273
74.96799 312
74.9881 253
75.00822 256
