3.00117 16518
3.02128 15575
3.0414 15530
3.06151 14996
3.08162 14597
3.10174 14225
3.12185 13697
3.14197 13119
3.16208 12896
3.18219 12530
3.20231 11985
3.22242 11632
3.24253 10989
3.26265 10808
3.28276 10312
3.30288 10199
3.32299 9730
3.3431 9583
3.36322 8962
3.38333 8545
3.40344 8679
3.42356 8095
3.44367 7895
3.46379 7719
3.4839 7235
3.50401 6910
3.52413 6695
3.54424 6502
3.56435 6273
3.58447 5880
3.60458 5720
3.62469 5425
3.64481 5358
3.66492 5112
3.68504 4684
3.70515 4715
3.72526 4292
3.74538 4361
3.76549 4281
3.7856 3923
3.80572 3826
3.82583 3554
3.84595 3520
3.86606 3436
3.88617 3060
3.90629 3026
3.9264 2831
3.94651 2711
3.96663 2752
3.98674 2447
4.00686 2488
4.02697 2307
4.04708 2189
4.0672 2213
4.08731 2000
4.10742 2018
4.12754 1961
4.14765 1892
4.16776 1902
4.18788 1577
4.20799 1732
4.22811 1765
4.24822 1627
4.26833 1644
4.28845 1499
4.30856 1351
4.32867 1456
4.34879 1383
4.3689 1385
4.38902 1239
4.40913 1319
4.42924 1254
4.44936 1167
4.46947 1279
4.48958 1209
4.5097 1030
4.52981 1168
4.54992 1052
4.57004 1040
4.59015 1041
4.61027 1009
4.63038 970
4.65049 965
4.67061 976
4.69072 882
4.71083 880
4.73095 925
4.75106 828
4.77118 802
4.79129 795
4.8114 850
4.83152 833
4.85163 747
4.87174 778
4.89186 707
4.91197 744
4.93209 727
4.9522 693
4.97231 715
4.99243 617
5.01254 633
5.03265 595
5.05277 598
5.07288 589
5.09299 563
5.11311 595
5.13322 560
5.15334 528
5.17345 581
5.19356 548
5.21368 514
5.23379 519
5.2539 586
5.27402 465
5.29413 426
5.31425 426
5.33436 464
5.35447 468
5.37459 419
5.3947 411
5.41481 420
5.43493 450
5.45504 466
5.47516 398
5.49527 438
5.51538 368
5.5355 371
5.55561 360
5.57572 366
5.59584 393
5.61595 364
5.63606 384
5.65618 331
5.67629 348
5.69641 343
5.71652 369
5.73663 338
5.75675 337
5.77686 331
5.79697 326
5.81709 343
5.8372 289
5.85732 279
5.87743 302
5.89754 322
5.91766 339
5.93777 292
5.95788 307
5.978 272
5.99811 312
6.01823 313
6.03834 327
6.05845 300
6.07857 285
6.09868 293
6.11879 304
6.13891 314
6.15902 287
6.17913 270
6.19925 289
6.21936 257
6.23948 289
6.25959 298
6.2797 290
6.29982 270
6.31993 283
6.34004 294
6.36016 269
6.38027 279
6.40039 283
6.4205 322
6.44061 265
6.46073 230
6.48084 269
6.50095 278
6.52107 297
6.54118 280
6.56129 254
6.58141 262
6.60152 291
6.62164 267
6.64175 290
6.66186 287
6.68198 271
6.70209 289
6.7222 256
6.74232 270
6.76243 234
6.78255 280
6.80266 272
6.82277 296
6.84289 260
6.863 265
6.88311 285
6.90323 279
6.92334 276
6.94346 244
6.96357 266
6.98368 250
7.0038 278
7.02391 285
7.04402 276
7.06414 261
7.08425 265
7.10436 226
7.12448 238
7.14459 274
7.16471 248
7.18482 230
7.20493 248
7.22505 256
7.24516 233
7.26527 262
7.28539 278
7.3055 267
7.32562 256
7.34573 279
7.36584 300
7.38596 283
7.40607 267
7.42618 250
7.4463 253
7.46641 246
7.48653 262
7.50664 218
7.52675 229
7.54687 268
7.56698 268
7.58709 255
7.60721 274
7.62732 262
7.64743 268
7.66755 224
7.68766 273
7.70778 283
7.72789 247
7.748 244
7.76812 244
7.78823 267
7.80834 265
7.82846 220
7.84857 274
7.86869 307
7.8888 299
7.90891 269
7.92903 265
7.94914 256
7.96925 262
7.98937 289
8.00948 270
8.0296 279
8.04971 264
8.06982 276
8.08994 251
8.11005 254
8.13016 265
8.15028 244
8.17039 277
8.1905 263
8.21062 302
8.23073 266
8.25085 250
8.27096 307
8.29107 278
8.31119 244
8.3313 284
8.35141 280
8.37153 277
8.39164 253
8.41176 225
8.43187 283
8.45198 279
8.4721 293
8.49221 237
8.51232 249
8.53244 288
8.55255 300
8.57266 255
8.59278 287
8.61289 262
8.63301 291
8.65312 291
8.67323 295
8.69335 329
8.71346 262
8.73357 293
8.75369 310
8.7738 279
8.79392 291
8.81403 301
8.83414 307
8.85426 295
8.87437 302
8.89448 308
8.9146 289
8.93471 284
8.95483 288
8.97494 262
8.99505 289
9.01517 264
9.03528 261
9.05539 272
9.07551 275
9.09562 291
9.11573 258
9.13585 284
9.15596 280
9.17608 249
9.19619 257
9.2163 294
9.23642 291
9.25653 288
9.27664 255
9.29676 259
9.31687 278
9.33699 279
9.3571 260
9.37721 265
9.39733 275
9.41744 287
9.43755 263
9.45767 286
9.47778 295
9.4979 261
9.51801 250
9.53812 242
9.55824 227
9.57835 272
9.59846 277
9.61858 307
9.63869 284
9.6588 260
9.67892 295
9.69903 259
9.71915 265
9.73926 233
9.75937 302
9.77949 264
9.7996 295
9.81971 261
9.83983 253
9.85994 257
9.88006 233
9.90017 295
9.92028 291
9.9404 257
9.96051 267
9.98062 277
10.00074 280
10.02085 282
10.04097 263
10.06108 263
10.08119 279
10.10131 235
10.12142 275
10.14153 251
10.16165 252
10.18176 238
10.20187 258
10.22199 304
10.2421 277
10.26222 300
10.28233 251
10.30244 276
10.32256 252
10.34267 278
10.36278 263
10.3829 279
10.40301 247
10.42313 275
10.44324 275
10.46335 300
10.48347 313
10.50358 288
10.52369 300
10.54381 275
10.56392 260
10.58403 269
10.60415 267
10.62426 282
10.64438 285
10.66449 293
10.6846 285
10.70472 269
10.72483 287
10.74494 311
10.76506 292
10.78517 276
10.80529 293
10.8254 276
10.84551 286
10.86563 283
10.88574 293
10.90585 303
10.92597 287
10.94608 267
10.9662 294
10.98631 304
11.00642 295
11.02654 285
11.04665 282
11.06676 265
11.08688 275
11.10699 308
11.1271 290
11.14722 293
11.16733 288
11.18745 314
11.20756 282
11.22767 273
11.24779 292
11.2679 306
11.28801 293
11.30813 289
11.32824 308
11.34836 279
11.36847 302
11.38858 303
11.4087 313
11.42881 280
11.44892 283
11.46904 326
11.48915 355
11.50927 296
11.52938 283
11.54949 319
11.56961 300
11.58972 309
11.60983 341
11.62995 314
11.65006 323
11.67017 289
11.69029 306
11.7104 321
11.73052 298
11.75063 323
11.77074 291
11.79086 334
11.81097 318
11.83108 305
11.8512 333
11.87131 297
11.89143 362
11.91154 320
11.93165 329
11.95177 346
11.97188 343
11.99199 350
12.01211 385
12.03222 301
12.05234 353
12.07245 379
12.09256 320
12.11268 341
12.13279 340
12.1529 314
12.17302 354
12.19313 307
12.21324 323
12.23336 315
12.25347 334
12.27359 319
12.2937 330
12.31381 334
12.33393 319
12.35404 327
12.37415 285
12.39427 314
12.41438 295
12.4345 292
12.45461 311
12.47472 275
12.49484 275
12.51495 251
12.53506 274
12.55518 275
12.57529 260
12.5954 285
12.61552 279
12.63563 275
12.65575 285
12.67586 290
12.69597 296
12.71609 288
12.7362 266
12.75631 263
12.77643 254
12.79654 249
12.81666 248
12.83677 282
12.85688 283
12.877 272
12.89711 275
12.91722 277
12.93734 297
12.95745 228
12.97757 229
12.99768 262
13.01779 257
13.03791 276
13.05802 271
13.07813 274
13.09825 277
13.11836 291
13.13847 259
13.15859 294
13.1787 260
13.19882 241
13.21893 272
13.23904 263
13.25916 284
13.27927 268
13.29938 274
13.3195 257
13.33961 245
13.35973 241
13.37984 256
13.39995 215
13.42007 270
13.44018 252
13.46029 261
13.48041 224
13.50052 254
13.52064 263
13.54075 280
13.56086 289
13.58098 289
13.60109 289
13.6212 300
13.64132 317
13.66143 268
13.68154 270
13.70166 296
13.72177 248
13.74189 283
13.762 289
13.78211 241
13.80223 263
13.82234 260
13.84245 270
13.86257 275
13.88268 287
13.9028 293
13.92291 247
13.94302 227
13.96314 225
13.98325 204
14.00336 276
14.02348 236
14.04359 237
14.06371 240
14.08382 209
14.10393 211
14.12405 216
14.14416 235
14.16427 249
14.18439 234
14.2045 195
14.22461 231
14.24473 224
14.26484 242
14.28496 247
14.30507 242
14.32518 256
14.3453 218
14.36541 217
14.38552 203
14.40564 231
14.42575 203
14.44587 218
14.46598 235
14.48609 223
14.50621 229
14.52632 211
14.54643 235
14.56655 227
14.58666 238
14.60677 206
14.62689 237
14.647 212
14.66712 218
14.68723 263
14.70734 263
14.72746 221
14.74757 199
14.76768 210
14.7878 183
14.80791 268
14.82803 234
14.84814 230
14.86825 242
14.88837 235
14.90848 252
14.92859 252
14.94871 264
14.96882 274
14.98894 240
15.00905 313
15.02916 283
15.04928 259
15.06939 242
15.0895 243
15.10962 249
15.12973 228
15.14984 232
15.16996 252
15.19007 256
15.21019 231
15.2303 241
15.25041 224
15.27053 233
15.29064 225
15.31075 216
15.33087 228
15.35098 205
15.3711 215
15.39121 207
15.41132 204
15.43144 228
15.45155 207
15.47166 221
15.49178 213
15.51189 188
15.53201 226
15.55212 228
15.57223 201
15.59235 228
15.61246 221
15.63257 196
15.65269 244
15.6728 199
15.69291 200
15.71303 246
15.73314 225
15.75326 212
15.77337 211
15.79348 211
15.8136 229
15.83371 225
15.85382 204
15.87394 222
15.89405 196
15.91417 228
15.93428 151
15.95439 243
15.97451 199
15.99462 218
16.01473 207
16.03485 209
16.05496 238
16.07508 202
16.09519 192
16.1153 226
16.13542 232
16.15553 202
16.17564 221
16.19576 195
16.21587 219
16.23598 220
16.2561 221
16.27621 207
16.29633 224
16.31644 233
16.33655 214
16.35667 201
16.37678 193
16.39689 200
16.41701 209
16.43712 184
16.45724 235
16.47735 206
16.49746 196
16.51758 216
16.53769 191
16.5578 201
16.57792 222
16.59803 203
16.61814 221
16.63826 242
16.65837 201
16.67849 188
16.6986 187
16.71871 204
16.73883 217
16.75894 208
16.77905 212
16.79917 215
16.81928 221
16.8394 223
16.85951 207
16.87962 198
16.89974 210
16.91985 199
16.93996 180
16.96008 215
16.98019 171
17.00031 219
17.02042 198
17.04053 203
17.06065 201
17.08076 206
17.10087 211
17.12099 208
17.1411 205
17.16121 213
17.18133 206
17.20144 201
17.22156 197
17.24167 222
17.26178 201
17.2819 185
17.30201 217
17.32212 204
17.34224 191
17.36235 212
17.38247 192
17.40258 210
17.42269 196
17.44281 223
17.46292 253
17.48303 198
17.50315 202
17.52326 199
17.54338 214
17.56349 201
17.5836 190
17.60372 217
17.62383 203
17.64394 201
17.66406 218
17.68417 230
17.70428 212
17.7244 194
17.74451 220
17.76463 183
17.78474 224
17.80485 191
17.82497 202
17.84508 203
17.86519 196
17.88531 213
17.90542 237
17.92554 189
17.94565 200
17.96576 228
17.98588 195
18.00599 208
18.0261 202
18.04622 193
18.06633 201
18.08645 209
18.10656 229
18.12667 234
18.14679 225
18.1669 220
18.18701 216
18.20713 200
18.22724 239
18.24735 243
18.26747 215
18.28758 207
18.3077 205
18.32781 200
18.34792 187
18.36804 211
18.38815 203
18.40826 194
18.42838 202
18.44849 210
18.46861 213
18.48872 225
18.50883 196
18.52895 203
18.54906 197
18.56917 203
18.58929 195
18.6094 200
18.62951 201
18.64963 191
18.66974 219
18.68986 207
18.70997 241
18.73008 210
18.7502 235
18.77031 198
18.79042 212
18.81054 229
18.83065 242
18.85077 242
18.87088 211
18.89099 236
18.91111 219
18.93122 245
18.95133 210
18.97145 201
18.99156 222
19.01168 239
19.03179 213
19.0519 211
19.07202 215
19.09213 227
19.11224 219
19.13236 253
19.15247 219
19.17258 256
19.1927 253
19.21281 238
19.23293 227
19.25304 252
19.27315 241
19.29327 225
19.31338 256
19.33349 229
19.35361 258
19.37372 236
19.39384 252
19.41395 270
19.43406 253
19.45418 233
19.47429 258
19.4944 259
19.51452 291
19.53463 294
19.55475 282
19.57486 269
19.59497 277
19.61509 304
19.6352 302
19.65531 358
19.67543 345
19.69554 357
19.71565 361
19.73577 374
19.75588 399
19.776 366
19.79611 421
19.81622 447
19.83634 422
19.85645 420
19.87656 435
19.89668 464
19.91679 443
19.93691 467
19.95702 440
19.97713 475
19.99725 506
20.01736 438
20.03747 446
20.05759 452
20.0777 437
20.09782 440
20.11793 405
20.13804 429
20.15816 407
20.17827 421
20.19838 408
20.2185 448
20.23861 417
20.25872 453
20.27884 426
20.29895 449
20.31907 414
20.33918 450
20.35929 429
20.37941 409
20.39952 436
20.41963 451
20.43975 445
20.45986 486
20.47998 506
20.50009 452
20.5202 461
20.54032 482
20.56043 492
20.58054 519
20.60066 575
20.62077 654
20.64088 777
20.661 924
20.68111 1170
20.70123 1436
20.72134 1942
20.74145 2476
20.76157 3223
20.78168 3801
20.80179 4295
20.82191 4553
20.84202 4114
20.86214 3511
20.88225 2818
20.90236 2214
20.92248 1569
20.94259 1264
20.9627 1015
20.98282 949
21.00293 872
21.02305 842
21.04316 801
21.06327 705
21.08339 613
21.1035 574
21.12361 480
21.14373 466
21.16384 454
21.18395 417
21.20407 376
21.22418 407
21.2443 369
21.26441 424
21.28452 405
21.30464 418
21.32475 381
21.34486 387
21.36498 412
21.38509 403
21.40521 361
21.42532 377
21.44543 374
21.46555 383
21.48566 376
21.50577 351
21.52589 330
21.546 360
21.56612 366
21.58623 343
21.60634 360
21.62646 363
21.64657 317
21.66668 352
21.6868 351
21.70691 343
21.72702 352
21.74714 356
21.76725 372
21.78737 334
21.80748 359
21.82759 368
21.84771 406
21.86782 449
21.88793 448
21.90805 536
21.92816 590
21.94828 540
21.96839 610
21.9885 573
22.00862 529
22.02873 468
22.04884 431
22.06896 375
22.08907 338
22.10919 357
22.1293 376
22.14941 343
22.16953 345
22.18964 356
22.20975 338
22.22987 407
22.24998 358
22.27009 388
22.29021 357
22.31032 344
22.33044 365
22.35055 369
22.37066 341
22.39078 362
22.41089 347
22.431 364
22.45112 364
22.47123 336
22.49135 350
22.51146 336
22.53157 344
22.55169 336
22.5718 338
22.59191 325
22.61203 341
22.63214 298
22.65225 272
22.67237 304
22.69248 311
22.7126 315
22.73271 300
22.75282 299
22.77294 295
22.79305 316
22.81316 333
22.83328 312
22.85339 357
22.87351 385
22.89362 360
22.91373 357
22.93385 343
22.95396 376
22.97407 382
22.99419 376
23.0143 348
23.03442 364
23.05453 384
23.07464 375
23.09476 422
23.11487 412
23.13498 397
23.1551 387
23.17521 408
23.19532 371
23.21544 410
23.23555 370
23.25567 406
23.27578 396
23.29589 367
23.31601 353
23.33612 379
23.35623 394
23.37635 359
23.39646 389
23.41658 365
23.43669 393
23.4568 426
23.47692 432
23.49703 481
23.51714 484
23.53726 504
23.55737 486
23.57749 457
23.5976 449
23.61771 405
23.63783 434
23.65794 444
23.67805 385
23.69817 391
23.71828 368
23.73839 360
23.75851 409
23.77862 398
23.79874 373
23.81885 435
23.83896 428
23.85908 455
23.87919 475
23.8993 483
23.91942 490
23.93953 528
23.95965 527
23.97976 511
23.99987 494
24.01999 500
24.0401 449
24.06021 445
24.08033 436
24.10044 434
24.12056 388
24.14067 409
24.16078 460
24.1809 413
24.20101 460
24.22112 459
24.24124 475
24.26135 499
24.28146 481
24.30158 415
24.32169 439
24.34181 405
24.36192 381
24.38203 394
24.40215 383
24.42226 354
24.44237 385
24.46249 378
24.4826 347
24.50272 411
24.52283 379
24.54294 429
24.56306 352
24.58317 401
24.60328 356
24.6234 371
24.64351 367
24.66362 393
24.68374 377
24.70385 364
24.72397 408
24.74408 369
24.76419 389
24.78431 409
24.80442 377
24.82453 381
24.84465 363
24.86476 369
24.88488 389
24.90499 405
24.9251 404
24.94522 361
24.96533 373
24.98544 379
25.00556 369
25.02567 387
25.04579 393
25.0659 364
25.08601 371
25.10613 370
25.12624 378
25.14635 427
25.16647 387
25.18658 417
25.20669 368
25.22681 402
25.24692 385
25.26704 415
25.28715 387
25.30726 430
25.32738 376
25.34749 436
25.3676 459
25.38772 451
25.40783 490
25.42795 542
25.44806 546
25.46817 592
25.48829 600
25.5084 661
25.52851 624
25.54863 660
25.56874 701
25.58886 641
25.60897 620
25.62908 588
25.6492 570
25.66931 535
25.68942 517
25.70954 504
25.72965 458
25.74976 474
25.76988 446
25.78999 458
25.81011 433
25.83022 464
25.85033 447
25.87045 447
25.89056 456
25.91067 450
25.93079 478
25.9509 419
25.97102 448
25.99113 475
26.01124 511
26.03136 486
26.05147 480
26.07158 583
26.0917 544
26.11181 592
26.13193 580
26.15204 651
26.17215 709
26.19227 724
26.21238 795
26.23249 819
26.25261 961
26.27272 957
26.29283 1079
26.31295 1192
26.33306 1415
26.35318 1535
26.37329 1904
26.3934 2201
26.41352 2811
26.43363 3572
26.45374 4677
26.47386 6236
26.49397 8387
26.51409 11029
26.5342 13589
26.55431 16255
26.57443 18004
26.59454 18690
26.61465 17926
26.63477 15516
26.65488 12272
26.67499 9116
26.69511 6527
26.71522 4418
26.73534 2838
26.75545 1923
26.77556 1438
26.79568 1286
26.81579 1168
26.8359 1036
26.85602 1000
26.87613 975
26.89625 924
26.91636 930
26.93647 909
26.95659 941
26.9767 989
26.99681 890
27.01693 948
27.03704 990
27.05716 893
27.07727 814
27.09738 744
27.1175 709
27.13761 692
27.15772 605
27.17784 646
27.19795 624
27.21806 605
27.23818 656
27.25829 658
27.27841 712
27.29852 763
27.31863 833
27.33875 877
27.35886 1025
27.37897 1179
27.39909 1205
27.4192 1294
27.43932 1218
27.45943 1242
27.47954 1079
27.49966 921
27.51977 882
27.53988 712
27.56 681
27.58011 614
27.60023 576
27.62034 567
27.64045 568
27.66057 653
27.68068 606
27.70079 745
27.72091 699
27.74102 718
27.76113 763
27.78125 698
27.80136 749
27.82148 763
27.84159 787
27.8617 819
27.88182 820
27.90193 813
27.92204 762
27.94216 680
27.96227 628
27.98239 617
28.0025 564
28.02261 497
28.04273 435
28.06284 431
28.08295 400
28.10307 435
28.12318 426
28.1433 420
28.16341 422
28.18352 416
28.20364 438
28.22375 421
28.24386 394
28.26398 372
28.28409 380
28.3042 337
28.32432 342
28.34443 370
28.36455 313
28.38466 294
28.40477 305
28.42489 296
28.445 274
28.46511 316
28.48523 287
28.50534 296
28.52546 286
28.54557 283
28.56568 270
28.5858 266
28.60591 268
28.62602 272
28.64614 291
28.66625 250
28.68636 290
28.70648 281
28.72659 274
28.74671 275
28.76682 230
28.78693 286
28.80705 283
28.82716 252
28.84727 257
28.86739 260
28.8875 247
28.90762 283
28.92773 267
28.94784 276
28.96796 294
28.98807 276
29.00818 308
29.0283 277
29.04841 266
29.06853 256
29.08864 273
29.10875 304
29.12887 263
29.14898 294
29.16909 274
29.18921 274
29.20932 288
29.22943 287
29.24955 290
29.26966 279
29.28978 294
29.30989 287
29.33 321
29.35012 310
29.37023 340
29.39034 367
29.41046 332
29.43057 301
29.45069 346
29.4708 335
29.49091 348
29.51103 337
29.53114 316
29.55125 311
29.57137 355
29.59148 324
29.6116 316
29.63171 351
29.65182 336
29.67194 377
29.69205 318
29.71216 358
29.73228 336
29.75239 378
29.7725 378
29.79262 398
29.81273 395
29.83285 389
29.85296 358
29.87307 339
29.89319 369
29.9133 391
29.93341 408
29.95353 342
29.97364 364
29.99376 376
30.01387 365
30.03398 367
30.0541 354
30.07421 373
30.09432 354
30.11444 399
30.13455 384
30.15467 399
30.17478 402
30.19489 355
30.21501 393
30.23512 383
30.25523 359
30.27535 388
30.29546 384
30.31557 397
30.33569 363
30.3558 421
30.37592 426
30.39603 392
30.41614 333
30.43626 405
30.45637 365
30.47648 365
30.4966 314
30.51671 335
30.53683 359
30.55694 351
30.57705 320
30.59717 321
30.61728 349
30.63739 363
30.65751 352
30.67762 399
30.69773 450
30.71785 444
30.73796 453
30.75808 414
30.77819 400
30.7983 433
30.81842 418
30.83853 363
30.85864 356
30.87876 366
30.89887 289
30.91899 306
30.9391 276
30.95921 291
30.97933 290
30.99944 270
31.01955 245
31.03967 277
31.05978 246
31.0799 268
31.10001 252
31.12012 235
31.14024 241
31.16035 271
31.18046 278
31.20058 251
31.22069 260
31.2408 260
31.26092 251
31.28103 310
31.30115 260
31.32126 277
31.34137 263
31.36149 251
31.3816 247
31.40171 239
31.42183 293
31.44194 244
31.46206 238
31.48217 233
31.50228 228
31.5224 248
31.54251 249
31.56262 264
31.58274 233
31.60285 233
31.62297 244
31.64308 221
31.66319 253
31.68331 221
31.70342 229
31.72353 237
31.74365 212
31.76376 259
31.78387 250
31.80399 239
31.8241 217
31.84422 222
31.86433 196
31.88444 201
31.90456 212
31.92467 236
31.94478 228
31.9649 224
31.98501 209
32.00513 256
32.02524 239
32.04535 247
32.06547 263
32.08558 264
32.10569 275
32.12581 305
32.14592 291
32.16604 258
32.18615 279
32.20626 282
32.22638 302
32.24649 298
32.2666 295
32.28672 273
32.30683 287
32.32694 267
32.34706 308
32.36717 274
32.38729 282
32.4074 282
32.42751 258
32.44763 260
32.46774 252
32.48785 241
32.50797 242
32.52808 248
32.5482 244
32.56831 280
32.58842 236
32.60854 219
32.62865 230
32.64876 225
32.66888 250
32.68899 239
32.7091 220
32.72922 218
32.74933 209
32.76945 238
32.78956 252
32.80967 227
32.82979 211
32.8499 239
32.87001 264
32.89013 236
32.91024 213
32.93036 219
32.95047 268
32.97058 251
32.9907 229
33.01081 218
33.03092 274
33.05104 226
33.07115 256
33.09127 236
33.11138 251
33.13149 236
33.15161 224
33.17172 220
33.19183 248
33.21195 225
33.23206 262
33.25217 228
33.27229 227
33.2924 245
33.31252 213
33.33263 258
33.35274 244
33.37286 222
33.39297 248
33.41308 238
33.4332 232
33.45331 227
33.47343 258
33.49354 216
33.51365 246
33.53377 238
33.55388 196
33.57399 227
33.59411 267
33.61422 241
33.63434 269
33.65445 241
33.67456 248
33.69468 251
33.71479 225
33.7349 259
33.75502 291
33.77513 252
33.79524 234
33.81536 262
33.83547 267
33.85559 261
33.8757 228
33.89581 254
33.91593 247
33.93604 271
33.95615 249
33.97627 253
33.99638 227
34.0165 252
34.03661 239
34.05672 268
34.07684 300
34.09695 303
34.11706 284
34.13718 321
34.15729 337
34.17741 352
34.19752 347
34.21763 356
34.23775 366
34.25786 334
34.27797 290
34.29809 312
34.3182 313
34.33831 302
34.35843 277
34.37854 309
34.39866 297
34.41877 284
34.43888 296
34.459 295
34.47911 328
34.49922 323
34.51934 308
34.53945 299
34.55957 321
34.57968 337
34.59979 326
34.61991 323
34.64002 322
34.66013 360
34.68025 360
34.70036 352
34.72047 331
34.74059 303
34.7607 375
34.78082 350
34.80093 369
34.82104 343
34.84116 377
34.86127 391
34.88138 369
34.9015 360
34.92161 397
34.94173 377
34.96184 375
34.98195 380
35.00207 399
35.02218 389
35.04229 375
35.06241 392
35.08252 387
35.10264 383
35.12275 396
35.14286 400
35.16298 393
35.18309 361
35.2032 377
35.22332 399
35.24343 385
35.26354 385
35.28366 410
35.30377 355
35.32389 402
35.344 360
35.36411 352
35.38423 383
35.40434 367
35.42445 324
35.44457 392
35.46468 377
35.4848 424
35.50491 384
35.52502 402
35.54514 379
35.56525 358
35.58536 398
35.60548 395
35.62559 354
35.64571 345
35.66582 317
35.68593 337
35.70605 319
35.72616 367
35.74627 336
35.76639 341
35.7865 296
35.80661 339
35.82673 329
35.84684 364
35.86696 343
35.88707 311
35.90718 325
35.9273 311
35.94741 312
35.96752 286
35.98764 332
36.00775 309
36.02787 316
36.04798 309
36.06809 351
36.08821 304
36.10832 329
36.12843 358
36.14855 344
36.16866 358
36.18878 372
36.20889 363
36.229 374
36.24912 435
36.26923 438
36.28934 459
36.30946 520
36.32957 513
36.34968 637
36.3698 680
36.38991 855
36.41003 985
36.43014 1173
36.45025 1329
36.47037 1435
36.49048 1458
36.51059 1440
36.53071 1311
36.55082 1132
36.57094 972
36.59105 928
36.61116 760
36.63128 647
36.65139 502
36.6715 421
36.69162 384
36.71173 359
36.73184 362
36.75196 349
36.77207 330
36.79219 332
36.8123 307
36.83241 365
36.85253 335
36.87264 388
36.89275 362
36.91287 347
36.93298 373
36.9531 396
36.97321 375
36.99332 387
37.01344 388
37.03355 380
37.05366 354
37.07378 353
37.09389 318
37.11401 297
37.13412 339
37.15423 308
37.17435 337
37.19446 321
37.21457 328
37.23469 286
37.2548 294
37.27491 269
37.29503 313
37.31514 305
37.33526 315
37.35537 321
37.37548 322
37.3956 284
37.41571 292
37.43582 312
37.45594 311
37.47605 326
37.49617 320
37.51628 278
37.53639 303
37.55651 307
37.57662 291
37.59673 303
37.61685 319
37.63696 310
37.65708 305
37.67719 292
37.6973 288
37.71742 276
37.73753 311
37.75764 276
37.77776 299
37.79787 290
37.81798 312
37.8381 280
37.85821 257
37.87833 257
37.89844 242
37.91855 287
37.93867 279
37.95878 273
37.97889 296
37.99901 292
38.01912 320
38.03924 263
38.05935 288
38.07946 302
38.09958 285
38.11969 257
38.1398 299
38.15992 305
38.18003 271
38.20015 276
38.22026 267
38.24037 307
38.26049 275
38.2806 259
38.30071 295
38.32083 279
38.34094 276
38.36105 287
38.38117 302
38.40128 336
38.4214 323
38.44151 339
38.46162 317
38.48174 366
38.50185 313
38.52196 334
38.54208 313
38.56219 334
38.58231 318
38.60242 306
38.62253 304
38.64265 309
38.66276 285
38.68287 269
38.70299 303
38.7231 291
38.74321 245
38.76333 289
38.78344 276
38.80356 272
38.82367 279
38.84378 274
38.8639 292
38.88401 277
38.90412 267
38.92424 287
38.94435 301
38.96447 258
38.98458 276
39.00469 288
39.02481 291
39.04492 294
39.06503 320
39.08515 311
39.10526 290
39.12538 322
39.14549 313
39.1656 363
39.18572 363
39.20583 392
39.22594 458
39.24606 494
39.26617 569
39.28628 663
39.3064 780
39.32651 930
39.34663 1129
39.36674 1203
39.38685 1295
39.40697 1284
39.42708 1307
39.44719 1248
39.46731 1083
39.48742 928
39.50754 822
39.52765 662
39.54776 642
39.56788 546
39.58799 434
39.6081 352
39.62822 332
39.64833 271
39.66845 273
39.68856 266
39.70867 260
39.72879 270
39.7489 270
39.76901 286
39.78913 250
39.80924 268
39.82935 243
39.84947 254
39.86958 247
39.8897 265
39.90981 276
39.92992 263
39.95004 240
39.97015 290
39.99026 275
40.01038 313
40.03049 290
40.05061 330
40.07072 337
40.09083 389
40.11095 425
40.13106 484
40.15117 533
40.17129 666
40.1914 706
40.21152 809
40.23163 775
40.25174 739
40.27186 657
40.29197 653
40.31208 553
40.3322 536
40.35231 459
40.37242 444
40.39254 354
40.41265 329
40.43277 308
40.45288 267
40.47299 293
40.49311 262
40.51322 238
40.53333 262
40.55345 292
40.57356 257
40.59368 271
40.61379 255
40.6339 266
40.65402 252
40.67413 253
40.69424 251
40.71436 249
40.73447 240
40.75458 255
40.7747 262
40.79481 232
40.81493 281
40.83504 274
40.85515 220
40.87527 234
40.89538 245
40.91549 245
40.93561 256
40.95572 239
40.97584 257
40.99595 259
41.01606 208
41.03618 271
41.05629 252
41.0764 267
41.09652 231
41.11663 256
41.13675 252
41.15686 242
41.17697 238
41.19709 248
41.2172 263
41.23731 234
41.25743 262
41.27754 267
41.29765 248
41.31777 225
41.33788 259
41.358 247
41.37811 244
41.39822 224
41.41834 228
41.43845 233
41.45856 225
41.47868 229
41.49879 287
41.51891 269
41.53902 268
41.55913 261
41.57925 306
41.59936 334
41.61947 309
41.63959 372
41.6597 330
41.67982 355
41.69993 410
41.72004 399
41.74016 420
41.76027 395
41.78038 372
41.8005 371
41.82061 370
41.84072 365
41.86084 290
41.88095 331
41.90107 302
41.92118 282
41.94129 287
41.96141 267
41.98152 289
42.00163 239
42.02175 242
42.04186 267
42.06198 273
42.08209 301
42.1022 276
42.12232 294
42.14243 313
42.16254 332
42.18266 335
42.20277 350
42.22289 394
42.243 443
42.26311 585
42.28323 568
42.30334 741
42.32345 755
42.34357 942
42.36368 969
42.38379 980
42.40391 985
42.42402 926
42.44414 866
42.46425 684
42.48436 676
42.50448 630
42.52459 573
42.5447 497
42.56482 427
42.58493 343
42.60505 332
42.62516 279
42.64527 276
42.66539 301
42.6855 284
42.70561 280
42.72573 290
42.74584 295
42.76595 255
42.78607 250
42.80618 265
42.8263 261
42.84641 254
42.86652 247
42.88664 239
42.90675 227
42.92686 255
42.94698 241
42.96709 217
42.98721 226
43.00732 237
43.02743 222
43.04755 217
43.06766 252
43.08777 228
43.10789 215
43.128 264
43.14812 233
43.16823 207
43.18834 220
43.20846 202
43.22857 212
43.24868 215
43.2688 213
43.28891 226
43.30902 228
43.32914 220
43.34925 227
43.36937 219
43.38948 210
43.40959 235
43.42971 235
43.44982 224
43.46993 226
43.49005 239
43.51016 208
43.53028 216
43.55039 209
43.5705 231
43.59062 220
43.61073 237
43.63084 238
43.65096 191
43.67107 228
43.69119 247
43.7113 209
43.73141 230
43.75153 214
43.77164 212
43.79175 183
43.81187 190
43.83198 231
43.85209 204
43.87221 207
43.89232 225
43.91244 208
43.93255 216
43.95266 215
43.97278 216
43.99289 215
44.013 210
44.03312 217
44.05323 225
44.07335 231
44.09346 227
44.11357 196
44.13369 216
44.1538 222
44.17391 222
44.19403 227
44.21414 226
44.23426 209
44.25437 205
44.27448 229
44.2946 212
44.31471 218
44.33482 217
44.35494 218
44.37505 193
44.39516 220
44.41528 206
44.43539 210
44.45551 256
44.47562 210
44.49573 197
44.51585 216
44.53596 206
44.55607 222
44.57619 197
44.5963 201
44.61642 223
44.63653 231
44.65664 225
44.67676 245
44.69687 224
44.71698 212
44.7371 211
44.75721 215
44.77732 232
44.79744 222
44.81755 209
44.83767 218
44.85778 214
44.87789 228
44.89801 208
44.91812 220
44.93823 238
44.95835 231
44.97846 218
44.99858 208
45.01869 209
45.0388 237
45.05892 225
45.07903 231
45.09914 234
45.11926 243
45.13937 236
45.15949 244
45.1796 218
45.19971 236
45.21983 214
45.23994 239
45.26005 269
45.28017 238
45.30028 256
45.32039 265
45.34051 229
45.36062 258
45.38074 263
45.40085 283
45.42096 293
45.44108 266
45.46119 282
45.4813 279
45.50142 358
45.52153 343
45.54165 379
45.56176 367
45.58187 428
45.60199 438
45.6221 475
45.64221 556
45.66233 638
45.68244 674
45.70256 680
45.72267 731
45.74278 735
45.7629 654
45.78301 676
45.80312 545
45.82324 526
45.84335 480
45.86346 475
45.88358 440
45.90369 358
45.92381 335
45.94392 278
45.96403 254
45.98415 253
46.00426 236
46.02437 206
46.04449 243
46.0646 263
46.08472 258
46.10483 240
46.12494 257
46.14506 269
46.16517 268
46.18528 230
46.2054 235
46.22551 239
46.24563 250
46.26574 218
46.28585 262
46.30597 220
46.32608 238
46.34619 224
46.36631 239
46.38642 208
46.40653 220
46.42665 208
46.44676 184
46.46688 239
46.48699 220
46.5071 196
46.52722 217
46.54733 215
46.56744 200
46.58756 203
46.60767 228
46.62779 203
46.6479 191
46.66801 185
46.68813 225
46.70824 221
46.72835 188
46.74847 228
46.76858 246
46.78869 208
46.80881 233
46.82892 230
46.84904 255
46.86915 219
46.88926 226
46.90938 206
46.92949 217
46.9496 225
46.96972 221
46.98983 232
47.00995 234
47.03006 259
47.05017 246
47.07029 241
47.0904 265
47.11051 280
47.13063 246
47.15074 235
47.17086 225
47.19097 252
47.21108 227
47.2312 249
47.25131 248
47.27142 258
47.29154 231
47.31165 241
47.33176 245
47.35188 219
47.37199 254
47.39211 255
47.41222 265
47.43233 258
47.45245 227
47.47256 242
47.49267 221
47.51279 244
47.5329 237
47.55302 220
47.57313 236
47.59324 194
47.61336 213
47.63347 241
47.65358 222
47.6737 172
47.69381 236
47.71393 225
47.73404 217
47.75415 230
47.77427 201
47.79438 222
47.81449 226
47.83461 207
47.85472 205
47.87483 226
47.89495 199
47.91506 192
47.93518 198
47.95529 221
47.9754 216
47.99552 204
48.01563 249
48.03574 218
48.05586 232
48.07597 198
48.09609 229
48.1162 233
48.13631 219
48.15643 207
48.17654 189
48.19665 203
48.21677 224
48.23688 223
48.257 217
48.27711 223
48.29722 202
48.31734 198
48.33745 218
48.35756 191
48.37768 203
48.39779 215
48.4179 193
48.43802 211
48.45813 204
48.47825 232
48.49836 193
48.51847 212
48.53859 196
48.5587 229
48.57881 225
48.59893 223
48.61904 205
48.63916 231
48.65927 251
48.67938 213
48.6995 199
48.71961 224
48.73972 210
48.75984 244
48.77995 236
48.80006 212
48.82018 248
48.84029 248
48.86041 221
48.88052 229
48.90063 281
48.92075 258
48.94086 246
48.96097 237
48.98109 247
49.0012 248
49.02132 242
49.04143 260
49.06154 265
49.08166 266
49.10177 260
49.12188 251
49.142 244
49.16211 290
49.18223 245
49.20234 227
49.22245 241
49.24257 251
49.26268 217
49.28279 222
49.30291 221
49.32302 213
49.34313 255
49.36325 250
49.38336 237
49.40348 229
49.42359 227
49.4437 235
49.46382 244
49.48393 245
49.50404 244
49.52416 261
49.54427 259
49.56439 264
49.5845 259
49.60461 244
49.62473 274
49.64484 284
49.66495 311
49.68507 304
49.70518 329
49.7253 329
49.74541 335
49.76552 356
49.78564 392
49.80575 423
49.82586 482
49.84598 527
49.86609 558
49.8862 580
49.90632 712
49.92643 820
49.94655 969
49.96666 1100
49.98677 1352
50.00689 1530
50.027 1738
50.04711 1878
50.06723 1966
50.08734 1956
50.10746 1770
50.12757 1644
50.14768 1375
50.1678 1313
50.18791 1168
50.20802 1116
50.22814 933
50.24825 814
50.26837 685
50.28848 523
50.30859 452
50.32871 402
50.34882 374
50.36893 337
50.38905 387
50.40916 402
50.42927 459
50.44939 415
50.4695 444
50.48962 435
50.50973 437
50.52984 428
50.54996 429
50.57007 433
50.59018 441
50.6103 375
50.63041 409
50.65053 373
50.67064 337
50.69075 350
50.71087 315
50.73098 286
50.75109 321
50.77121 276
50.79132 294
50.81143 250
50.83155 296
50.85166 264
50.87178 288
50.89189 245
50.912 272
50.93212 260
50.95223 225
50.97234 250
50.99246 240
51.01257 204
51.03269 234
51.0528 246
51.07291 236
51.09303 225
51.11314 218
51.13325 237
51.15337 227
51.17348 257
51.1936 253
51.21371 222
51.23382 258
51.25394 227
51.27405 260
51.29416 246
51.31428 234
51.33439 211
51.3545 217
51.37462 208
51.39473 227
51.41485 223
51.43496 202
51.45507 203
51.47519 235
51.4953 210
51.51541 208
51.53553 180
51.55564 195
51.57576 207
51.59587 168
51.61598 191
51.6361 194
51.65621 187
51.67632 203
51.69644 200
51.71655 198
51.73667 213
51.75678 211
51.77689 184
51.79701 175
51.81712 202
51.83723 205
51.85735 205
51.87746 186
51.89757 205
51.91769 209
51.9378 191
51.95792 212
51.97803 166
51.99814 213
52.01826 212
52.03837 234
52.05848 177
52.0786 198
52.09871 185
52.11883 183
52.13894 171
52.15905 213
52.17917 209
52.19928 197
52.21939 192
52.23951 177
52.25962 190
52.27974 193
52.29985 233
52.31996 179
52.34008 213
52.36019 215
52.3803 199
52.40042 182
52.42053 155
52.44064 208
52.46076 211
52.48087 188
52.50099 238
52.5211 225
52.54121 202
52.56133 226
52.58144 226
52.60155 219
52.62167 209
52.64178 193
52.6619 214
52.68201 223
52.70212 217
52.72224 215
52.74235 220
52.76246 248
52.78258 208
52.80269 210
52.8228 216
52.84292 226
52.86303 233
52.88315 209
52.90326 220
52.92337 209
52.94349 197
52.9636 210
52.98371 205
53.00383 196
53.02394 219
53.04406 182
53.06417 196
53.08428 207
53.1044 198
53.12451 233
53.14462 251
53.16474 217
53.18485 220
53.20497 198
53.22508 210
53.24519 216
53.26531 215
53.28542 225
53.30553 240
53.32565 194
53.34576 203
53.36587 244
53.38599 194
53.4061 223
53.42622 216
53.44633 233
53.46644 191
53.48656 216
53.50667 204
53.52678 206
53.5469 220
53.56701 219
53.58713 219
53.60724 207
53.62735 199
53.64747 219
53.66758 201
53.68769 215
53.70781 223
53.72792 229
53.74804 226
53.76815 229
53.78826 225
53.80838 249
53.82849 237
53.8486 219
53.86872 231
53.88883 265
53.90894 231
53.92906 248
53.94917 234
53.96929 246
53.9894 239
54.00951 264
54.02963 248
54.04974 242
54.06985 255
54.08997 233
54.11008 246
54.1302 251
54.15031 230
54.17042 238
54.19054 261
54.21065 231
54.23076 238
54.25088 262
54.27099 257
54.29111 270
54.31122 244
54.33133 258
54.35145 269
54.37156 257
54.39167 258
54.41179 267
54.4319 262
54.45201 238
54.47213 280
54.49224 266
54.51236 286
54.53247 273
54.55258 293
54.5727 312
54.59281 321
54.61292 322
54.63304 379
54.65315 403
54.67327 461
54.69338 482
54.71349 508
54.73361 574
54.75372 649
54.77383 689
54.79395 782
54.81406 718
54.83417 655
54.85429 629
54.8744 551
54.89452 506
54.91463 553
54.93474 507
54.95486 500
54.97497 454
54.99508 415
55.0152 362
55.03531 340
55.05543 330
55.07554 345
55.09565 323
55.11577 311
55.13588 331
55.15599 374
55.17611 394
55.19622 396
55.21634 431
55.23645 439
55.25656 460
55.27668 449
55.29679 392
55.3169 424
55.33702 355
55.35713 318
55.37724 328
55.39736 319
55.41747 354
55.43759 302
55.4577 323
55.47781 283
55.49793 290
55.51804 243
55.53815 246
55.55827 268
55.57838 223
55.5985 220
55.61861 239
55.63872 210
55.65884 205
55.67895 215
55.69906 203
55.71918 231
55.73929 231
55.75941 239
55.77952 206
55.79963 210
55.81975 241
55.83986 238
55.85997 230
55.88009 216
55.9002 189
55.92031 226
55.94043 215
55.96054 232
55.98066 180
56.00077 215
56.02088 209
56.041 199
56.06111 204
56.08122 221
56.10134 216
56.12145 206
56.14157 230
56.16168 226
56.18179 211
56.20191 212
56.22202 194
56.24213 209
56.26225 212
56.28236 192
56.30248 213
56.32259 173
56.3427 195
56.36282 203
56.38293 204
56.40304 177
56.42316 201
56.44327 187
56.46338 198
56.4835 202
56.50361 204
56.52373 223
56.54384 207
56.56395 209
56.58407 192
56.60418 204
56.62429 187
56.64441 215
56.66452 208
56.68464 209
56.70475 238
56.72486 217
56.74498 216
56.76509 219
56.7852 216
56.80532 200
56.82543 203
56.84554 195
56.86566 207
56.88577 208
56.90589 225
56.926 196
56.94611 211
56.96623 185
56.98634 210
57.00645 220
57.02657 210
57.04668 209
57.0668 216
57.08691 209
57.10702 239
57.12714 242
57.14725 241
57.16736 245
57.18748 218
57.20759 246
57.22771 234
57.24782 223
57.26793 219
57.28805 194
57.30816 228
57.32827 232
57.34839 212
57.3685 219
57.38861 221
57.40873 213
57.42884 195
57.44896 213
57.46907 219
57.48918 212
57.5093 213
57.52941 206
57.54952 238
57.56964 190
57.58975 225
57.60987 187
57.62998 183
57.65009 228
57.67021 194
57.69032 215
57.71043 229
57.73055 198
57.75066 220
57.77078 193
57.79089 182
57.811 174
57.83112 210
57.85123 197
57.87134 219
57.89146 211
57.91157 193
57.93168 203
57.9518 193
57.97191 194
57.99203 201
58.01214 202
58.03225 219
58.05237 187
58.07248 201
58.09259 185
58.11271 208
58.13282 215
58.15294 178
58.17305 188
58.19316 222
58.21328 189
58.23339 188
58.2535 225
58.27362 180
58.29373 216
58.31385 221
58.33396 198
58.35407 216
58.37419 219
58.3943 217
58.41441 229
58.43453 224
58.45464 216
58.47475 211
58.49487 211
58.51498 214
58.5351 222
58.55521 232
58.57532 219
58.59544 215
58.61555 234
58.63566 227
58.65578 211
58.67589 231
58.69601 194
58.71612 237
58.73623 231
58.75635 223
58.77646 198
58.79657 216
58.81669 197
58.8368 208
58.85691 224
58.87703 196
58.89714 206
58.91726 181
58.93737 196
58.95748 196
58.9776 197
58.99771 219
59.01782 193
59.03794 212
59.05805 208
59.07817 206
59.09828 205
59.11839 212
59.13851 198
59.15862 204
59.17873 204
59.19885 221
59.21896 218
59.23908 205
59.25919 211
59.2793 212
59.29942 206
59.31953 198
59.33964 215
59.35976 219
59.37987 216
59.39998 250
59.4201 211
59.44021 226
59.46033 246
59.48044 227
59.50055 257
59.52067 264
59.54078 282
59.56089 318
59.58101 298
59.60112 319
59.62124 299
59.64135 390
59.66146 407
59.68158 438
59.70169 444
59.7218 582
59.74192 618
59.76203 690
59.78215 826
59.80226 906
59.82237 1127
59.84249 1159
59.8626 1303
59.88271 1289
59.90283 1223
59.92294 1201
59.94305 1034
59.96317 896
59.98328 815
60.0034 813
60.02351 744
60.04362 743
60.06374 703
60.08385 637
60.10396 539
60.12408 420
60.14419 410
60.16431 316
60.18442 286
60.20453 304
60.22465 249
60.24476 241
60.26487 229
60.28499 241
60.3051 220
60.32522 238
60.34533 226
60.36544 240
60.38556 265
60.40567 210
60.42578 225
60.4459 199
60.46601 213
60.48612 219
60.50624 201
60.52635 206
60.54647 215
60.56658 222
60.58669 202
60.60681 210
60.62692 202
60.64703 215
60.66715 225
60.68726 203
60.70738 216
60.72749 221
60.7476 193
60.76772 194
60.78783 237
60.80794 223
60.82806 205
60.84817 197
60.86828 231
60.8884 221
60.90851 223
60.92863 211
60.94874 244
60.96885 237
60.98897 213
61.00908 201
61.02919 244
61.04931 223
61.06942 220
61.08954 256
61.10965 223
61.12976 221
61.14988 238
61.16999 235
61.1901 233
61.21022 226
61.23033 215
61.25045 213
61.27056 224
61.29067 209
61.31079 222
61.3309 206
61.35101 217
61.37113 251
61.39124 233
61.41135 213
61.43147 242
61.45158 219
61.4717 229
61.49181 215
61.51192 238
61.53204 224
61.55215 194
61.57226 189
61.59238 246
61.61249 220
61.63261 221
61.65272 202
61.67283 215
61.69295 235
61.71306 240
61.73317 246
61.75329 218
61.7734 189
61.79352 254
61.81363 238
61.83374 231
61.85386 228
61.87397 236
61.89408 253
61.9142 265
61.93431 259
61.95442 210
61.97454 230
61.99465 260
62.01477 279
62.03488 282
62.05499 297
62.07511 255
62.09522 270
62.11533 260
62.13545 278
62.15556 260
62.17568 275
62.19579 270
62.2159 257
62.23602 258
62.25613 291
62.27624 263
62.29636 258
62.31647 266
62.33659 271
62.3567 274
62.37681 248
62.39693 267
62.41704 252
62.43715 219
62.45727 242
62.47738 254
62.49749 236
62.51761 231
62.53772 249
62.55784 223
62.57795 215
62.59806 233
62.61818 213
62.63829 239
62.6584 240
62.67852 208
62.69863 216
62.71875 234
62.73886 215
62.75897 242
62.77909 219
62.7992 214
62.81931 196
62.83943 225
62.85954 212
62.87965 230
62.89977 232
62.91988 194
62.94 240
62.96011 258
62.98022 223
63.00034 209
63.02045 201
63.04056 209
63.06068 228
63.08079 245
63.10091 233
63.12102 206
63.14113 216
63.16125 231
63.18136 194
63.20147 209
63.22159 229
63.2417 218
63.26182 220
63.28193 228
63.30204 214
63.32216 216
63.34227 235
63.36238 216
63.3825 237
63.40261 220
63.42272 215
63.44284 227
63.46295 221
63.48307 227
63.50318 207
63.52329 241
63.54341 261
63.56352 239
63.58363 246
63.60375 224
63.62386 247
63.64398 234
63.66409 258
63.6842 280
63.70432 280
63.72443 267
63.74454 275
63.76466 263
63.78477 327
63.80489 295
63.825 312
63.84511 328
63.86523 369
63.88534 398
63.90545 355
63.92557 437
63.94568 448
63.96579 415
63.98591 381
64.00602 384
64.02614 367
64.04625 358
64.06636 339
64.08648 350
64.10659 306
64.1267 328
64.14682 314
64.16693 303
64.18705 273
64.20716 248
64.22727 246
64.24739 231
64.2675 230
64.28761 214
64.30773 194
64.32784 207
64.34796 211
64.36807 207
64.38818 186
64.4083 199
64.42841 213
64.44852 192
64.46864 203
64.48875 192
64.50886 205
64.52898 180
64.54909 209
64.56921 195
64.58932 191
64.60943 169
64.62955 200
64.64966 197
64.66977 195
64.68989 184
64.71 189
64.73012 181
64.75023 207
64.77034 188
64.79046 195
64.81057 196
64.83068 206
64.8508 200
64.87091 235
64.89102 198
64.91114 221
64.93125 187
64.95137 190
64.97148 181
64.99159 237
65.01171 191
65.03182 203
65.05193 202
65.07205 225
65.09216 213
65.11228 211
65.13239 244
65.1525 207
65.17262 233
65.19273 223
65.21284 231
65.23296 233
65.25307 223
65.27319 229
65.2933 215
65.31341 225
65.33353 223
65.35364 219
65.37375 216
65.39387 228
65.41398 228
65.43409 193
65.45421 210
65.47432 202
65.49444 222
65.51455 201
65.53466 178
65.55478 225
65.57489 196
65.595 220
65.61512 239
65.63523 225
65.65535 239
65.67546 232
65.69557 217
65.71569 209
65.7358 212
65.75591 204
65.77603 227
65.79614 207
65.81626 217
65.83637 223
65.85648 188
65.8766 221
65.89671 210
65.91682 206
65.93694 208
65.95705 209
65.97716 195
65.99728 192
66.01739 209
66.03751 192
66.05762 193
66.07773 211
66.09785 184
66.11796 201
66.13807 216
66.15819 214
66.1783 179
66.19842 199
66.21853 213
66.23864 200
66.25876 235
66.27887 230
66.29898 205
66.3191 227
66.33921 197
66.35933 201
66.37944 226
66.39955 178
66.41967 221
66.43978 200
66.45989 196
66.48001 187
66.50012 186
66.52023 191
66.54035 212
66.56046 198
66.58058 215
66.60069 199
66.6208 199
66.64092 200
66.66103 196
66.68114 191
66.70126 185
66.72137 221
66.74149 203
66.7616 176
66.78171 190
66.80183 202
66.82194 180
66.84205 226
66.86217 189
66.88228 219
66.90239 200
66.92251 197
66.94262 222
66.96274 219
66.98285 186
67.00296 193
67.02308 227
67.04319 204
67.0633 220
67.08342 226
67.10353 206
67.12365 230
67.14376 219
67.16387 196
67.18399 227
67.2041 188
67.22421 197
67.24433 219
67.26444 215
67.28456 241
67.30467 273
67.32478 262
67.3449 263
67.36501 268
67.38512 266
67.40524 280
67.42535 301
67.44546 311
67.46558 353
67.48569 380
67.50581 398
67.52592 474
67.54603 500
67.56615 576
67.58626 638
67.60637 690
67.62649 768
67.6466 829
67.66672 871
67.68683 790
67.70694 770
67.72706 704
67.74717 655
67.76728 579
67.7874 566
67.80751 600
67.82763 627
67.84774 708
67.86785 683
67.88797 710
67.90808 695
67.92819 653
67.94831 659
67.96842 774
67.98853 844
68.00865 885
68.02876 1007
68.04888 1052
68.06899 1149
68.0891 1060
68.10922 1066
68.12933 1021
68.14944 936
68.16956 927
68.18967 1002
68.20979 992
68.2299 1034
68.25001 1004
68.27013 929
68.29024 903
68.31035 807
68.33047 631
68.35058 536
68.3707 531
68.39081 526
68.41092 468
68.43104 489
68.45115 454
68.47126 392
68.49138 373
68.51149 322
68.5316 277
68.55172 256
68.57183 244
68.59195 188
68.61206 243
68.63217 243
68.65229 200
68.6724 216
68.69251 205
68.71263 209
68.73274 211
68.75286 241
68.77297 208
68.79308 210
68.8132 208
68.83331 192
68.85342 206
68.87354 193
68.89365 201
68.91376 211
68.93388 209
68.95399 187
68.97411 214
68.99422 176
69.01433 206
69.03445 198
69.05456 222
69.07467 192
69.09479 193
69.1149 215
69.13502 194
69.15513 219
69.17524 223
69.19536 191
69.21547 195
69.23558 202
69.2557 197
69.27581 200
69.29593 210
69.31604 188
69.33615 188
69.35627 185
69.37638 182
69.39649 179
69.41661 199
69.43672 217
69.45683 222
69.47695 216
69.49706 201
69.51718 163
69.53729 182
69.5574 167
69.57752 171
69.59763 181
69.61774 149
69.63786 188
69.65797 188
69.67809 185
69.6982 155
69.71831 195
69.73843 174
69.75854 176
69.77865 171
69.79877 180
69.81888 186
69.839 186
69.85911 199
69.87922 221
69.89934 175
69.91945 165
69.93956 184
69.95968 168
69.97979 199
69.9999 181
70.02002 164
70.04013 186
70.06025 161
70.08036 172
70.10047 189
70.12059 169
70.1407 188
70.16081 205
70.18093 176
70.20104 173
70.22116 177
70.24127 154
70.26138 170
70.2815 165
70.30161 179
70.32172 193
70.34184 168
70.36195 191
70.38207 171
70.40218 177
70.42229 176
70.44241 189
70.46252 176
70.48263 163
70.50275 201
70.52286 187
70.54297 180
70.56309 194
70.5832 177
70.60332 191
70.62343 183
70.64354 175
70.66366 198
70.68377 181
70.70388 200
70.724 186
70.74411 187
70.76423 189
70.78434 186
70.80445 165
70.82457 186
70.84468 182
70.86479 172
70.88491 164
70.90502 165
70.92513 165
70.94525 191
70.96536 179
70.98548 158
71.00559 166
71.0257 204
71.04582 171
71.06593 188
71.08604 186
71.10616 167
71.12627 167
71.14639 168
71.1665 163
71.18661 166
71.20673 187
71.22684 195
71.24695 178
71.26707 193
71.28718 161
71.3073 184
71.32741 169
71.34752 170
71.36764 192
71.38775 171
71.40786 187
71.42798 222
71.44809 155
71.4682 197
71.48832 214
71.50843 174
71.52855 184
71.54866 203
71.56877 188
71.58889 169
71.609 175
71.62911 191
71.64923 208
71.66934 192
71.68946 198
71.70957 212
71.72968 178
71.7498 170
71.76991 188
71.79002 190
71.81014 174
71.83025 157
71.85037 179
71.87048 184
71.89059 180
71.91071 189
71.93082 190
71.95093 195
71.97105 190
71.99116 176
72.01127 181
72.03139 179
72.0515 190
72.07162 192
72.09173 187
72.11184 177
72.13196 194
72.15207 194
72.17218 187
72.1923 194
72.21241 179
72.23253 184
72.25264 184
72.27275 202
72.29287 196
72.31298 188
72.33309 192
72.35321 157
72.37332 178
72.39344 170
72.41355 185
72.43366 188
72.45378 157
72.47389 206
72.494 168
72.51412 188
72.53423 169
72.55434 176
72.57446 169
72.59457 224
72.61469 173
72.6348 191
72.65491 175
72.67503 179
72.69514 183
72.71525 201
72.73537 199
72.75548 177
72.7756 170
72.79571 203
72.81582 183
72.83594 202
72.85605 179
72.87616 203
72.89628 217
72.91639 179
72.9365 206
72.95662 216
72.97673 200
72.99685 213
73.01696 213
73.03707 215
73.05719 219
73.0773 212
73.09741 216
73.11753 220
73.13764 231
73.15776 225
73.17787 255
73.19798 264
73.2181 247
73.23821 270
73.25832 277
73.27844 303
73.29855 370
73.31867 366
73.33878 380
73.35889 377
73.37901 408
73.39912 392
73.41923 381
73.43935 375
73.45946 340
73.47957 313
73.49969 311
73.5198 306
73.53992 307
73.56003 288
73.58014 306
73.60026 312
73.62037 293
73.64048 294
73.6606 267
73.68071 242
73.70083 245
73.72094 215
73.74105 221
73.76117 196
73.78128 206
73.80139 210
73.82151 232
73.84162 208
73.86174 189
73.88185 195
73.90196 211
73.92208 196
73.94219 188
73.9623 193
73.98242 161
74.00253 186
74.02264 199
74.04276 174
74.06287 198
74.08299 191
74.1031 198
74.12321 201
74.14333 198
74.16344 199
74.18355 185
74.20367 194
74.22378 167
74.2439 185
74.26401 188
74.28412 206
74.30424 186
74.32435 184
74.34446 217
74.36458 189
74.38469 184
74.40481 223
74.42492 202
74.44503 222
74.46515 203
74.48526 169
74.50537 199
74.52549 215
74.5456 212
74.56571 183
74.58583 178
74.60594 201
74.62606 217
74.64617 187
74.66628 195
74.6864 203
74.70651 185
74.72662 208
74.74674 204
74.76685 190
74.78697 199
74.80708 198
74.82719 171
74.84731 189
74.86742 211
74.88753 191
74.90765 218
74.92776 189
74.94787 199
74.96799 197
74.9881 180
75.00822 164
