3.00117 20110
3.02128 19064
3.0414 18967
3.06151 18004
3.08162 17650
3.10174 17192
3.12185 16677
3.14197 16483
3.16208 15766
3.18219 14957
3.20231 15127
3.22242 14623
3.24253 14363
3.26265 13794
3.28276 13050
3.30288 13013
3.32299 12290
3.3431 11984
3.36322 11568
3.38333 11014
3.40344 10837
3.42356 10524
3.44367 10240
3.46379 9606
3.4839 9246
3.50401 9012
3.52413 8901
3.54424 8540
3.56435 7910
3.58447 7852
3.60458 7583
3.62469 7090
3.64481 7094
3.66492 6672
3.68504 6366
3.70515 6218
3.72526 5813
3.74538 5831
3.76549 5466
3.7856 5032
3.80572 5158
3.82583 4764
3.84595 4624
3.86606 4160
3.88617 4168
3.90629 3944
3.9264 3894
3.94651 3690
3.96663 3325
3.98674 3305
4.00686 3302
4.02697 2981
4.04708 2974
4.0672 2708
4.08731 2629
4.10742 2617
4.12754 2350
4.14765 2340
4.16776 2134
4.18788 2095
4.20799 2151
4.22811 2018
4.24822 1941
4.26833 1828
4.28845 1724
4.30856 1705
4.32867 1727
4.34879 1663
4.3689 1494
4.38902 1408
4.40913 1453
4.42924 1448
4.44936 1348
4.46947 1371
4.48958 1307
4.5097 1333
4.52981 1297
4.54992 1187
4.57004 1171
4.59015 1018
4.61027 1174
4.63038 1115
4.65049 1085
4.67061 1047
4.69072 1028
4.71083 981
4.73095 896
4.75106 950
4.77118 985
4.79129 848
4.8114 920
4.83152 903
4.85163 849
4.87174 776
4.89186 841
4.91197 748
4.93209 731
4.9522 707
4.97231 697
4.99243 757
5.01254 717
5.03265 754
5.05277 650
5.07288 642
5.09299 602
5.11311 617
5.13322 651
5.15334 557
5.17345 597
5.19356 560
5.21368 602
5.23379 546
5.2539 499
5.27402 532
5.29413 511
5.31425 501
5.33436 516
5.35447 432
5.37459 496
5.3947 465
5.41481 468
5.43493 441
5.45504 375
5.47516 362
5.49527 396
5.51538 387
5.5355 404
5.55561 357
5.57572 405
5.59584 377
5.61595 321
5.63606 338
5.65618 343
5.67629 321
5.69641 324
5.71652 298
5.73663 344
5.75675 299
5.77686 282
5.79697 299
5.81709 270
5.8372 289
5.85732 251
5.87743 276
5.89754 289
5.91766 287
5.93777 252
5.95788 259
5.978 264
5.99811 269
6.01823 254
6.03834 229
6.05845 268
6.07857 269
6.09868 246
6.11879 239
6.13891 218
6.15902 247
6.17913 262
6.19925 246
6.21936 258
6.23948 221
6.25959 253
6.2797 224
6.29982 241
6.31993 272
6.34004 242
6.36016 225
6.38027 243
6.40039 225
6.4205 262
6.44061 219
6.46073 264
6.48084 212
6.50095 217
6.52107 216
6.54118 251
6.56129 226
6.58141 204
6.60152 203
6.62164 203
6.64175 207
6.66186 243
6.68198 231
6.70209 235
6.7222 202
6.74232 218
6.76243 200
6.78255 195
6.80266 199
6.82277 216
6.84289 214
6.863 204
6.88311 211
6.90323 178
6.92334 229
6.94346 215
6.96357 231
6.98368 223
7.0038 204
7.02391 208
7.04402 220
7.06414 220
7.08425 173
7.10436 209
7.12448 205
7.14459 217
7.16471 194
7.18482 255
7.20493 219
7.22505 205
7.24516 219
7.26527 224
7.28539 223
7.3055 216
7.32562 212
7.34573 220
7.36584 230
7.38596 226
7.40607 238
7.42618 223
7.4463 238
7.46641 186
7.48653 203
7.50664 208
7.52675 228
7.54687 229
7.56698 214
7.58709 222
7.60721 219
7.62732 223
7.64743 179
7.66755 202
7.68766 232
7.70778 216
7.72789 223
7.748 227
7.76812 222
7.78823 196
7.80834 182
7.82846 199
7.84857 226
7.86869 216
7.8888 190
7.90891 216
7.92903 189
7.94914 223
7.96925 225
7.98937 207
8.00948 260
8.0296 218
8.04971 216
8.06982 212
8.08994 211
8.11005 236
8.13016 238
8.15028 199
8.17039 195
8.1905 241
8.21062 198
8.23073 245
8.25085 237
8.27096 237
8.29107 232
8.31119 203
8.3313 258
8.35141 213
8.37153 207
8.39164 234
8.41176 217
8.43187 265
8.45198 202
8.4721 205
8.49221 201
8.51232 217
8.53244 228
8.55255 215
8.57266 219
8.59278 215
8.61289 216
8.63301 220
8.65312 228
8.67323 220
8.69335 238
8.71346 235
8.73357 237
8.75369 250
8.7738 229
8.79392 261
8.81403 251
8.83414 245
8.85426 244
8.87437 240
8.89448 243
8.9146 205
8.93471 230
8.95483 224
8.97494 227
8.99505 219
9.01517 198
9.03528 229
9.05539 217
9.07551 195
9.09562 213
9.11573 199
9.13585 233
9.15596 226
9.17608 226
9.19619 239
9.2163 229
9.23642 229
9.25653 230
9.27664 237
9.29676 192
9.31687 201
9.33699 257
9.3571 223
9.37721 218
9.39733 200
9.41744 222
9.43755 231
9.45767 212
9.47778 240
9.4979 263
9.51801 232
9.53812 216
9.55824 224
9.57835 234
9.59846 218
9.61858 213
9.63869 222
9.6588 229
9.67892 274
9.69903 265
9.71915 265
9.73926 226
9.75937 275
9.77949 263
9.7996 247
9.81971 234
9.83983 270
9.85994 276
9.88006 236
9.90017 254
9.92028 225
9.9404 228
9.96051 238
9.98062 217
10.00074 223
10.02085 219
10.04097 236
10.06108 226
10.08119 233
10.10131 226
10.12142 244
10.14153 229
10.16165 202
10.18176 240
10.20187 214
10.22199 240
10.2421 229
10.26222 252
10.28233 243
10.30244 218
10.32256 237
10.34267 243
10.36278 275
10.3829 257
10.40301 316
10.42313 313
10.44324 388
10.46335 392
10.48347 416
10.50358 397
10.52369 394
10.54381 347
10.56392 299
10.58403 323
10.60415 274
10.62426 261
10.64438 252
10.66449 249
10.6846 264
10.70472 260
10.72483 248
10.74494 239
10.76506 249
10.78517 235
10.80529 255
10.8254 244
10.84551 235
10.86563 247
10.88574 217
10.90585 207
10.92597 198
10.94608 233
10.9662 226
10.98631 204
11.00642 222
11.02654 246
11.04665 228
11.06676 246
11.08688 210
11.10699 203
11.1271 245
11.14722 229
11.16733 228
11.18745 242
11.20756 241
11.22767 197
11.24779 246
11.2679 199
11.28801 214
11.30813 240
11.32824 190
11.34836 227
11.36847 191
11.38858 224
11.4087 238
11.42881 221
11.44892 224
11.46904 219
11.48915 215
11.50927 242
11.52938 207
11.54949 224
11.56961 236
11.58972 208
11.60983 229
11.62995 207
11.65006 211
11.67017 221
11.69029 198
11.7104 233
11.73052 233
11.75063 243
11.77074 207
11.79086 238
11.81097 227
11.83108 223
11.8512 238
11.87131 244
11.89143 243
11.91154 187
11.93165 199
11.95177 255
11.97188 244
11.99199 217
12.01211 227
12.03222 222
12.05234 248
12.07245 240
12.09256 239
12.11268 232
12.13279 239
12.1529 250
12.17302 239
12.19313 215
12.21324 253
12.23336 209
12.25347 241
12.27359 222
12.2937 238
12.31381 221
12.33393 212
12.35404 212
12.37415 218
12.39427 241
12.41438 211
12.4345 254
12.45461 242
12.47472 243
12.49484 222
12.51495 236
12.53506 222
12.55518 201
12.57529 230
12.5954 181
12.61552 230
12.63563 204
12.65575 226
12.67586 226
12.69597 221
12.71609 220
12.7362 223
12.75631 220
12.77643 220
12.79654 196
12.81666 212
12.83677 221
12.85688 224
12.877 234
12.89711 243
12.91722 202
12.93734 183
12.95745 202
12.97757 224
12.99768 219
13.01779 207
13.03791 224
13.05802 230
13.07813 230
13.09825 283
13.11836 247
13.13847 256
13.15859 257
13.1787 244
13.19882 248
13.21893 222
13.23904 223
13.25916 213
13.27927 201
13.29938 178
13.3195 230
13.33961 235
13.35973 245
13.37984 234
13.39995 213
13.42007 225
13.44018 238
13.46029 241
13.48041 229
13.50052 197
13.52064 254
13.54075 264
13.56086 241
13.58098 253
13.60109 300
13.6212 303
13.64132 281
13.66143 294
13.68154 292
13.70166 264
13.72177 274
13.74189 245
13.762 263
13.78211 273
13.80223 289
13.82234 262
13.84245 304
13.86257 327
13.88268 310
13.9028 305
13.92291 306
13.94302 274
13.96314 264
13.98325 237
14.00336 254
14.02348 207
14.04359 236
14.06371 214
14.08382 186
14.10393 204
14.12405 199
14.14416 247
14.16427 185
14.18439 193
14.2045 223
14.22461 235
14.24473 222
14.26484 202
14.28496 199
14.30507 232
14.32518 170
14.3453 208
14.36541 216
14.38552 200
14.40564 204
14.42575 226
14.44587 218
14.46598 186
14.48609 205
14.50621 228
14.52632 170
14.54643 202
14.56655 191
14.58666 213
14.60677 209
14.62689 202
14.647 203
14.66712 186
14.68723 211
14.70734 198
14.72746 215
14.74757 208
14.76768 213
14.7878 178
14.80791 201
14.82803 207
14.84814 207
14.86825 213
14.88837 202
14.90848 248
14.92859 234
14.94871 245
14.96882 259
14.98894 273
15.00905 231
15.02916 264
15.04928 231
15.06939 246
15.0895 265
15.10962 240
15.12973 245
15.14984 235
15.16996 206
15.19007 218
15.21019 234
15.2303 204
15.25041 191
15.27053 202
15.29064 224
15.31075 199
15.33087 192
15.35098 210
15.3711 210
15.39121 216
15.41132 189
15.43144 195
15.45155 172
15.47166 187
15.49178 192
15.51189 187
15.53201 163
15.55212 175
15.57223 172
15.59235 209
15.61246 169
15.63257 186
15.65269 205
15.6728 204
15.69291 184
15.71303 192
15.73314 194
15.75326 228
15.77337 196
15.79348 222
15.8136 213
15.83371 199
15.85382 188
15.87394 208
15.89405 183
15.91417 189
15.93428 200
15.95439 185
15.97451 212
15.99462 197
16.01473 208
16.03485 204
16.05496 212
16.07508 211
16.09519 198
16.1153 188
16.13542 175
16.15553 178
16.17564 186
16.19576 190
16.21587 198
16.23598 189
16.2561 181
16.27621 183
16.29633 178
16.31644 177
16.33655 194
16.35667 168
16.37678 198
16.39689 182
16.41701 191
16.43712 162
16.45724 184
16.47735 179
16.49746 183
16.51758 208
16.53769 195
16.5578 202
16.57792 191
16.59803 194
16.61814 188
16.63826 162
16.65837 184
16.67849 177
16.6986 179
16.71871 175
16.73883 168
16.75894 185
16.77905 168
16.79917 190
16.81928 202
16.8394 203
16.85951 193
16.87962 199
16.89974 202
16.91985 188
16.93996 178
16.96008 204
16.98019 201
17.00031 189
17.02042 181
17.04053 196
17.06065 187
17.08076 192
17.10087 202
17.12099 201
17.1411 178
17.16121 184
17.18133 190
17.20144 189
17.22156 178
17.24167 180
17.26178 180
17.2819 206
17.30201 161
17.32212 229
17.34224 171
17.36235 188
17.38247 198
17.40258 188
17.42269 190
17.44281 231
17.46292 165
17.48303 196
17.50315 223
17.52326 201
17.54338 163
17.56349 179
17.5836 195
17.60372 198
17.62383 220
17.64394 224
17.66406 232
17.68417 228
17.70428 189
17.7244 231
17.74451 183
17.76463 194
17.78474 206
17.80485 215
17.82497 196
17.84508 193
17.86519 204
17.88531 195
17.90542 194
17.92554 205
17.94565 203
17.96576 218
17.98588 195
18.00599 228
18.0261 218
18.04622 225
18.06633 206
18.08645 187
18.10656 204
18.12667 204
18.14679 171
18.1669 207
18.18701 181
18.20713 208
18.22724 170
18.24735 190
18.26747 171
18.28758 185
18.3077 176
18.32781 182
18.34792 190
18.36804 189
18.38815 171
18.40826 186
18.42838 206
18.44849 204
18.46861 192
18.48872 185
18.50883 228
18.52895 207
18.54906 178
18.56917 211
18.58929 193
18.6094 218
18.62951 200
18.64963 193
18.66974 182
18.68986 200
18.70997 230
18.73008 214
18.7502 182
18.77031 202
18.79042 186
18.81054 210
18.83065 203
18.85077 186
18.87088 183
18.89099 206
18.91111 229
18.93122 178
18.95133 205
18.97145 234
18.99156 198
19.01168 196
19.03179 186
19.0519 190
19.07202 190
19.09213 188
19.11224 198
19.13236 183
19.15247 202
19.17258 212
19.1927 185
19.21281 200
19.23293 242
19.25304 223
19.27315 210
19.29327 221
19.31338 225
19.33349 197
19.35361 223
19.37372 234
19.39384 210
19.41395 175
19.43406 207
19.45418 206
19.47429 223
19.4944 205
19.51452 240
19.53463 254
19.55475 234
19.57486 232
19.59497 230
19.61509 263
19.6352 250
19.65531 247
19.67543 262
19.69554 247
19.71565 241
19.73577 237
19.75588 224
19.776 252
19.79611 245
19.81622 246
19.83634 225
19.85645 249
19.87656 233
19.89668 257
19.91679 245
19.93691 217
19.95702 236
19.97713 242
19.99725 235
20.01736 244
20.03747 231
20.05759 231
20.0777 259
20.09782 279
20.11793 240
20.13804 246
20.15816 264
20.17827 281
20.19838 291
20.2185 271
20.23861 284
20.25872 255
20.27884 268
20.29895 271
20.31907 292
20.33918 287
20.35929 291
20.37941 263
20.39952 307
20.41963 289
20.43975 313
20.45986 313
20.47998 323
20.50009 327
20.5202 370
20.54032 377
20.56043 375
20.58054 363
20.60066 389
20.62077 433
20.64088 400
20.661 497
20.68111 572
20.70123 692
20.72134 823
20.74145 1204
20.76157 1605
20.78168 2363
20.80179 3292
20.82191 4442
20.84202 5668
20.86214 5924
20.88225 5586
20.90236 4332
20.92248 3207
20.94259 2224
20.9627 1504
20.98282 1088
21.00293 957
21.02305 970
21.04316 921
21.06327 822
21.08339 715
21.1035 576
21.12361 520
21.14373 431
21.16384 404
21.18395 373
21.20407 359
21.22418 338
21.2443 280
21.26441 285
21.28452 301
21.30464 295
21.32475 290
21.34486 278
21.36498 273
21.38509 294
21.40521 253
21.42532 307
21.44543 272
21.46555 240
21.48566 236
21.50577 252
21.52589 231
21.546 269
21.56612 259
21.58623 277
21.60634 242
21.62646 260
21.64657 249
21.66668 295
21.6868 254
21.70691 240
21.72702 259
21.74714 272
21.76725 285
21.78737 262
21.80748 306
21.82759 283
21.84771 276
21.86782 329
21.88793 323
21.90805 454
21.92816 518
21.94828 583
21.96839 705
21.9885 799
22.00862 888
22.02873 843
22.04884 712
22.06896 681
22.08907 541
22.10919 412
22.1293 376
22.14941 363
22.16953 291
22.18964 364
22.20975 296
22.22987 302
22.24998 336
22.27009 332
22.29021 310
22.31032 339
22.33044 329
22.35055 324
22.37066 306
22.39078 295
22.41089 301
22.431 297
22.45112 290
22.47123 276
22.49135 286
22.51146 316
22.53157 286
22.55169 293
22.5718 284
22.59191 286
22.61203 275
22.63214 285
22.65225 307
22.67237 271
22.69248 229
22.7126 281
22.73271 283
22.75282 253
22.77294 251
22.79305 261
22.81316 262
22.83328 284
22.85339 321
22.87351 301
22.89362 300
22.91373 380
22.93385 350
22.95396 358
22.97407 335
22.99419 331
23.0143 323
23.03442 387
23.05453 342
23.07464 348
23.09476 348
23.11487 380
23.13498 396
23.1551 363
23.17521 381
23.19532 418
23.21544 386
23.23555 417
23.25567 360
23.27578 341
23.29589 360
23.31601 335
23.33612 338
23.35623 318
23.37635 358
23.39646 348
23.41658 318
23.43669 392
23.4568 405
23.47692 441
23.49703 493
23.51714 525
23.53726 562
23.55737 589
23.57749 620
23.5976 658
23.61771 649
23.63783 597
23.65794 520
23.67805 488
23.69817 412
23.71828 438
23.73839 346
23.75851 336
23.77862 369
23.79874 363
23.81885 407
23.83896 452
23.85908 440
23.87919 445
23.8993 443
23.91942 491
23.93953 519
23.95965 509
23.97976 575
23.99987 566
24.01999 551
24.0401 574
24.06021 463
24.08033 432
24.10044 403
24.12056 424
24.14067 418
24.16078 420
24.1809 452
24.20101 461
24.22112 465
24.24124 513
24.26135 539
24.28146 567
24.30158 537
24.32169 540
24.34181 582
24.36192 519
24.38203 462
24.40215 424
24.42226 392
24.44237 371
24.46249 330
24.4826 305
24.50272 310
24.52283 278
24.54294 301
24.56306 256
24.58317 285
24.60328 259
24.6234 301
24.64351 315
24.66362 270
24.68374 280
24.70385 323
24.72397 273
24.74408 297
24.76419 289
24.78431 265
24.80442 297
24.82453 287
24.84465 298
24.86476 275
24.88488 308
24.90499 274
24.9251 276
24.94522 281
24.96533 248
24.98544 231
25.00556 269
25.02567 259
25.04579 257
25.0659 256
25.08601 253
25.10613 260
25.12624 248
25.14635 292
25.16647 253
25.18658 270
25.20669 281
25.22681 244
25.24692 306
25.26704 255
25.28715 303
25.30726 311
25.32738 304
25.34749 341
25.3676 302
25.38772 346
25.40783 377
25.42795 412
25.44806 426
25.46817 454
25.48829 598
25.5084 606
25.52851 640
25.54863 642
25.56874 764
25.58886 719
25.60897 714
25.62908 684
25.6492 692
25.66931 679
25.68942 557
25.70954 581
25.72965 557
25.74976 485
25.76988 469
25.78999 426
25.81011 428
25.83022 445
25.85033 423
25.87045 448
25.89056 412
25.91067 432
25.93079 425
25.9509 430
25.97102 474
25.99113 445
26.01124 453
26.03136 469
26.05147 465
26.07158 483
26.0917 499
26.11181 553
26.13193 587
26.15204 641
26.17215 609
26.19227 725
26.21238 722
26.23249 758
26.25261 844
26.27272 864
26.29283 947
26.31295 997
26.33306 1121
26.35318 1214
26.37329 1408
26.3934 1539
26.41352 1867
26.43363 2225
26.45374 2652
26.47386 3212
26.49397 4064
26.51409 5614
26.5342 7612
26.55431 10567
26.57443 14942
26.59454 19974
26.61465 24813
26.63477 27019
26.65488 25088
26.67499 19114
26.69511 14946
26.71522 11817
26.73534 7800
26.75545 4139
26.77556 2590
26.79568 1766
26.81579 1543
26.8359 1451
26.85602 1290
26.87613 1268
26.89625 1172
26.91636 1084
26.93647 1016
26.95659 1020
26.9767 1053
26.99681 1003
27.01693 1045
27.03704 1053
27.05716 1093
27.07727 1059
27.09738 994
27.1175 876
27.13761 846
27.15772 802
27.17784 722
27.19795 677
27.21806 630
27.23818 592
27.25829 602
27.27841 628
27.29852 682
27.31863 713
27.33875 758
27.35886 847
27.37897 982
27.39909 1039
27.4192 1247
27.43932 1363
27.45943 1427
27.47954 1477
27.49966 1402
27.51977 1246
27.53988 1077
27.56 969
27.58011 820
27.60023 733
27.62034 733
27.64045 710
27.66057 774
27.68068 863
27.70079 916
27.72091 1066
27.74102 1126
27.76113 1259
27.78125 1293
27.80136 1265
27.82148 1290
27.84159 1323
27.8617 1290
27.88182 1321
27.90193 1390
27.92204 1441
27.94216 1403
27.96227 1471
27.98239 1428
28.0025 1439
28.02261 1232
28.04273 1013
28.06284 896
28.08295 722
28.10307 690
28.12318 593
28.1433 552
28.16341 541
28.18352 523
28.20364 520
28.22375 498
28.24386 536
28.26398 593
28.28409 562
28.3042 527
28.32432 541
28.34443 496
28.36455 473
28.38466 420
28.40477 430
28.42489 407
28.445 379
28.46511 339
28.48523 399
28.50534 352
28.52546 362
28.54557 340
28.56568 352
28.5858 349
28.60591 353
28.62602 288
28.64614 327
28.66625 289
28.68636 316
28.70648 274
28.72659 285
28.74671 264
28.76682 279
28.78693 266
28.80705 290
28.82716 257
28.84727 265
28.86739 232
28.8875 246
28.90762 249
28.92773 255
28.94784 255
28.96796 246
28.98807 294
29.00818 286
29.0283 285
29.04841 231
29.06853 264
29.08864 262
29.10875 272
29.12887 275
29.14898 240
29.16909 267
29.18921 259
29.20932 226
29.22943 230
29.24955 257
29.26966 263
29.28978 259
29.30989 276
29.33 277
29.35012 315
29.37023 326
29.39034 332
29.41046 333
29.43057 350
29.45069 322
29.4708 371
29.49091 309
29.51103 343
29.53114 360
29.55125 330
29.57137 317
29.59148 335
29.6116 286
29.63171 364
29.65182 372
29.67194 354
29.69205 357
29.71216 397
29.73228 383
29.75239 382
29.7725 408
29.79262 427
29.81273 426
29.83285 437
29.85296 381
29.87307 434
29.89319 364
29.9133 414
29.93341 400
29.95353 366
29.97364 317
29.99376 375
30.01387 380
30.03398 394
30.0541 389
30.07421 381
30.09432 398
30.11444 451
30.13455 424
30.15467 451
30.17478 474
30.19489 497
30.21501 510
30.23512 602
30.25523 531
30.27535 493
30.29546 555
30.31557 514
30.33569 502
30.3558 479
30.37592 469
30.39603 526
30.41614 454
30.43626 494
30.45637 488
30.47648 467
30.4966 448
30.51671 433
30.53683 441
30.55694 392
30.57705 346
30.59717 332
30.61728 334
30.63739 357
30.65751 345
30.67762 373
30.69773 391
30.71785 444
30.73796 420
30.75808 438
30.77819 435
30.7983 471
30.81842 474
30.83853 477
30.85864 429
30.87876 412
30.89887 370
30.91899 361
30.9391 299
30.95921 297
30.97933 259
30.99944 270
31.01955 245
31.03967 241
31.05978 240
31.0799 226
31.10001 241
31.12012 220
31.14024 237
31.16035 245
31.18046 213
31.20058 272
31.22069 292
31.2408 279
31.26092 274
31.28103 300
31.30115 290
31.32126 280
31.34137 305
31.36149 313
31.3816 324
31.40171 314
31.42183 348
31.44194 259
31.46206 297
31.48217 287
31.50228 243
31.5224 277
31.54251 245
31.56262 246
31.58274 243
31.60285 241
31.62297 238
31.64308 253
31.66319 263
31.68331 257
31.70342 238
31.72353 240
31.74365 247
31.76376 232
31.78387 248
31.80399 228
31.8241 237
31.84422 217
31.86433 246
31.88444 250
31.90456 212
31.92467 246
31.94478 209
31.9649 259
31.98501 206
32.00513 219
32.02524 210
32.04535 252
32.06547 275
32.08558 246
32.10569 252
32.12581 247
32.14592 269
32.16604 281
32.18615 283
32.20626 250
32.22638 262
32.24649 265
32.2666 257
32.28672 278
32.30683 285
32.32694 264
32.34706 278
32.36717 259
32.38729 286
32.4074 260
32.42751 287
32.44763 275
32.46774 287
32.48785 315
32.50797 275
32.52808 288
32.5482 272
32.56831 282
32.58842 252
32.60854 237
32.62865 248
32.64876 228
32.66888 237
32.68899 244
32.7091 240
32.72922 236
32.74933 253
32.76945 204
32.78956 242
32.80967 217
32.82979 222
32.8499 234
32.87001 246
32.89013 275
32.91024 249
32.93036 290
32.95047 273
32.97058 289
32.9907 269
33.01081 276
33.03092 276
33.05104 272
33.07115 252
33.09127 216
33.11138 261
33.13149 213
33.15161 202
33.17172 213
33.19183 191
33.21195 221
33.23206 250
33.25217 206
33.27229 211
33.2924 245
33.31252 224
33.33263 220
33.35274 214
33.37286 214
33.39297 209
33.41308 195
33.4332 203
33.45331 210
33.47343 208
33.49354 197
33.51365 210
33.53377 187
33.55388 219
33.57399 176
33.59411 176
33.61422 208
33.63434 192
33.65445 178
33.67456 203
33.69468 219
33.71479 195
33.7349 246
33.75502 247
33.77513 237
33.79524 258
33.81536 241
33.83547 254
33.85559 222
33.8757 257
33.89581 237
33.91593 245
33.93604 225
33.95615 208
33.97627 221
33.99638 178
34.0165 193
34.03661 250
34.05672 206
34.07684 216
34.09695 267
34.11706 237
34.13718 240
34.15729 262
34.17741 280
34.19752 262
34.21763 293
34.23775 257
34.25786 279
34.27797 298
34.29809 283
34.3182 313
34.33831 297
34.35843 305
34.37854 321
34.39866 333
34.41877 350
34.43888 306
34.459 320
34.47911 322
34.49922 319
34.51934 309
34.53945 317
34.55957 282
34.57968 299
34.59979 299
34.61991 306
34.64002 281
34.66013 290
34.68025 286
34.70036 286
34.72047 328
34.74059 319
34.7607 269
34.78082 288
34.80093 268
34.82104 322
34.84116 271
34.86127 321
34.88138 358
34.9015 309
34.92161 323
34.94173 333
34.96184 323
34.98195 320
35.00207 352
35.02218 350
35.04229 325
35.06241 379
35.08252 408
35.10264 374
35.12275 392
35.14286 389
35.16298 378
35.18309 324
35.2032 352
35.22332 361
35.24343 347
35.26354 400
35.28366 359
35.30377 375
35.32389 337
35.344 357
35.36411 326
35.38423 383
35.40434 366
35.42445 309
35.44457 352
35.46468 325
35.4848 342
35.50491 315
35.52502 310
35.54514 339
35.56525 352
35.58536 307
35.60548 298
35.62559 279
35.64571 284
35.66582 307
35.68593 296
35.70605 275
35.72616 240
35.74627 240
35.76639 239
35.7865 228
35.80661 250
35.82673 258
35.84684 243
35.86696 241
35.88707 252
35.90718 263
35.9273 239
35.94741 241
35.96752 269
35.98764 233
36.00775 248
36.02787 277
36.04798 244
36.06809 244
36.08821 300
36.10832 281
36.12843 262
36.14855 261
36.16866 298
36.18878 248
36.20889 277
36.229 269
36.24912 296
36.26923 320
36.28934 347
36.30946 367
36.32957 385
36.34968 404
36.3698 438
36.38991 544
36.41003 661
36.43014 781
36.45025 973
36.47037 1199
36.49048 1413
36.51059 1772
36.53071 1891
36.55082 1699
36.57094 1468
36.59105 1204
36.61116 1040
36.63128 969
36.65139 790
36.6715 606
36.69162 397
36.71173 357
36.73184 341
36.75196 318
36.77207 292
36.79219 337
36.8123 318
36.83241 330
36.85253 297
36.87264 300
36.89275 285
36.91287 285
36.93298 280
36.9531 284
36.97321 267
36.99332 264
37.01344 272
37.03355 290
37.05366 268
37.07378 303
37.09389 232
37.11401 261
37.13412 253
37.15423 237
37.17435 241
37.19446 223
37.21457 238
37.23469 198
37.2548 211
37.27491 225
37.29503 233
37.31514 288
37.33526 241
37.35537 209
37.37548 241
37.3956 256
37.41571 241
37.43582 230
37.45594 224
37.47605 258
37.49617 229
37.51628 250
37.53639 246
37.55651 249
37.57662 246
37.59673 244
37.61685 251
37.63696 270
37.65708 213
37.67719 266
37.6973 209
37.71742 255
37.73753 241
37.75764 215
37.77776 255
37.79787 218
37.81798 236
37.8381 215
37.85821 211
37.87833 216
37.89844 210
37.91855 208
37.93867 185
37.95878 208
37.97889 183
37.99901 208
38.01912 204
38.03924 176
38.05935 211
38.07946 196
38.09958 219
38.11969 185
38.1398 222
38.15992 227
38.18003 213
38.20015 204
38.22026 223
38.24037 242
38.26049 216
38.2806 232
38.30071 217
38.32083 233
38.34094 195
38.36105 223
38.38117 218
38.40128 274
38.4214 231
38.44151 228
38.46162 251
38.48174 254
38.50185 252
38.52196 261
38.54208 241
38.56219 263
38.58231 231
38.60242 228
38.62253 240
38.64265 248
38.66276 248
38.68287 222
38.70299 232
38.7231 220
38.74321 215
38.76333 217
38.78344 228
38.80356 237
38.82367 225
38.84378 213
38.8639 221
38.88401 226
38.90412 215
38.92424 230
38.94435 219
38.96447 243
38.98458 235
39.00469 225
39.02481 231
39.04492 245
39.06503 247
39.08515 240
39.10526 280
39.12538 283
39.14549 272
39.1656 313
39.18572 274
39.20583 317
39.22594 347
39.24606 345
39.26617 377
39.28628 422
39.3064 470
39.32651 595
39.34663 777
39.36674 890
39.38685 1094
39.40697 1303
39.42708 1453
39.44719 1667
39.46731 1533
39.48742 1316
39.50754 1084
39.52765 993
39.54776 944
39.56788 823
39.58799 678
39.6081 453
39.62822 378
39.64833 304
39.66845 277
39.68856 306
39.70867 290
39.72879 214
39.7489 263
39.76901 226
39.78913 185
39.80924 218
39.82935 221
39.84947 225
39.86958 224
39.8897 220
39.90981 236
39.92992 233
39.95004 219
39.97015 244
39.99026 224
40.01038 217
40.03049 277
40.05061 262
40.07072 272
40.09083 292
40.11095 326
40.13106 324
40.15117 366
40.17129 450
40.1914 535
40.21152 642
40.23163 757
40.25174 894
40.27186 900
40.29197 888
40.31208 756
40.3322 631
40.35231 575
40.37242 558
40.39254 536
40.41265 454
40.43277 358
40.45288 266
40.47299 265
40.49311 238
40.51322 249
40.53333 233
40.55345 224
40.57356 214
40.59368 208
40.61379 232
40.6339 214
40.65402 195
40.67413 216
40.69424 201
40.71436 243
40.73447 218
40.75458 215
40.7747 200
40.79481 225
40.81493 202
40.83504 252
40.85515 205
40.87527 225
40.89538 230
40.91549 211
40.93561 227
40.95572 200
40.97584 194
40.99595 216
41.01606 224
41.03618 196
41.05629 194
41.0764 207
41.09652 222
41.11663 216
41.13675 174
41.15686 199
41.17697 206
41.19709 220
41.2172 211
41.23731 205
41.25743 195
41.27754 227
41.29765 225
41.31777 198
41.33788 189
41.358 209
41.37811 210
41.39822 219
41.41834 218
41.43845 222
41.45856 210
41.47868 216
41.49879 239
41.51891 242
41.53902 218
41.55913 258
41.57925 242
41.59936 270
41.61947 265
41.63959 259
41.6597 302
41.67982 325
41.69993 328
41.72004 373
41.74016 390
41.76027 398
41.78038 409
41.8005 376
41.82061 357
41.84072 321
41.86084 337
41.88095 297
41.90107 281
41.92118 300
41.94129 277
41.96141 244
41.98152 221
42.00163 225
42.02175 240
42.04186 227
42.06198 254
42.08209 242
42.1022 238
42.12232 232
42.14243 277
42.16254 281
42.18266 276
42.20277 287
42.22289 309
42.243 368
42.26311 361
42.28323 422
42.30334 488
42.32345 559
42.34357 691
42.36368 853
42.38379 997
42.40391 1165
42.42402 1293
42.44414 1220
42.46425 1054
42.48436 890
42.50448 731
42.52459 761
42.5447 788
42.56482 680
42.58493 522
42.60505 394
42.62516 337
42.64527 306
42.66539 307
42.6855 300
42.70561 268
42.72573 326
42.74584 281
42.76595 266
42.78607 309
42.80618 282
42.8263 277
42.84641 268
42.86652 277
42.88664 248
42.90675 233
42.92686 261
42.94698 224
42.96709 225
42.98721 243
43.00732 231
43.02743 226
43.04755 223
43.06766 210
43.08777 222
43.10789 245
43.128 221
43.14812 218
43.16823 204
43.18834 184
43.20846 182
43.22857 179
43.24868 198
43.2688 213
43.28891 167
43.30902 189
43.32914 175
43.34925 191
43.36937 198
43.38948 195
43.40959 198
43.42971 207
43.44982 204
43.46993 211
43.49005 187
43.51016 218
43.53028 205
43.55039 205
43.5705 211
43.59062 191
43.61073 170
43.63084 201
43.65096 212
43.67107 202
43.69119 174
43.7113 216
43.73141 165
43.75153 202
43.77164 189
43.79175 171
43.81187 174
43.83198 185
43.85209 187
43.87221 179
43.89232 202
43.91244 187
43.93255 170
43.95266 205
43.97278 195
43.99289 195
44.013 196
44.03312 177
44.05323 192
44.07335 204
44.09346 183
44.11357 198
44.13369 186
44.1538 197
44.17391 188
44.19403 182
44.21414 190
44.23426 183
44.25437 190
44.27448 175
44.2946 187
44.31471 179
44.33482 176
44.35494 196
44.37505 199
44.39516 182
44.41528 183
44.43539 177
44.45551 190
44.47562 184
44.49573 193
44.51585 185
44.53596 207
44.55607 173
44.57619 176
44.5963 227
44.61642 202
44.63653 198
44.65664 176
44.67676 216
44.69687 214
44.71698 203
44.7371 201
44.75721 192
44.77732 220
44.79744 214
44.81755 199
44.83767 236
44.85778 236
44.87789 193
44.89801 202
44.91812 209
44.93823 193
44.95835 207
44.97846 199
44.99858 211
45.01869 203
45.0388 217
45.05892 211
45.07903 209
45.09914 195
45.11926 196
45.13937 214
45.15949 183
45.1796 206
45.19971 208
45.21983 193
45.23994 213
45.26005 212
45.28017 226
45.30028 203
45.32039 203
45.34051 212
45.36062 209
45.38074 194
45.40085 222
45.42096 239
45.44108 224
45.46119 252
45.4813 244
45.50142 243
45.52153 279
45.54165 304
45.56176 289
45.58187 327
45.60199 302
45.6221 364
45.64221 428
45.66233 440
45.68244 532
45.70256 633
45.72267 702
45.74278 831
45.7629 908
45.78301 916
45.80312 737
45.82324 636
45.84335 532
45.86346 557
45.88358 545
45.90369 514
45.92381 463
45.94392 334
45.96403 266
45.98415 272
46.00426 243
46.02437 252
46.04449 213
46.0646 252
46.08472 221
46.10483 238
46.12494 230
46.14506 207
46.16517 171
46.18528 212
46.2054 198
46.22551 222
46.24563 180
46.26574 198
46.28585 201
46.30597 179
46.32608 192
46.34619 190
46.36631 175
46.38642 159
46.40653 174
46.42665 183
46.44676 189
46.46688 165
46.48699 167
46.5071 165
46.52722 170
46.54733 159
46.56744 162
46.58756 160
46.60767 187
46.62779 191
46.6479 177
46.66801 157
46.68813 178
46.70824 195
46.72835 174
46.74847 174
46.76858 176
46.78869 181
46.80881 171
46.82892 166
46.84904 190
46.86915 183
46.88926 197
46.90938 178
46.92949 198
46.9496 199
46.96972 212
46.98983 218
47.00995 191
47.03006 192
47.05017 206
47.07029 199
47.0904 249
47.11051 212
47.13063 232
47.15074 213
47.17086 230
47.19097 198
47.21108 222
47.2312 215
47.25131 201
47.27142 189
47.29154 217
47.31165 188
47.33176 208
47.35188 183
47.37199 227
47.39211 214
47.41222 219
47.43233 204
47.45245 204
47.47256 224
47.49267 206
47.51279 182
47.5329 198
47.55302 225
47.57313 206
47.59324 201
47.61336 201
47.63347 190
47.65358 173
47.6737 162
47.69381 178
47.71393 172
47.73404 160
47.75415 177
47.77427 194
47.79438 172
47.81449 178
47.83461 161
47.85472 170
47.87483 181
47.89495 193
47.91506 170
47.93518 196
47.95529 168
47.9754 195
47.99552 191
48.01563 185
48.03574 186
48.05586 191
48.07597 196
48.09609 167
48.1162 210
48.13631 191
48.15643 177
48.17654 220
48.19665 192
48.21677 206
48.23688 211
48.257 200
48.27711 215
48.29722 196
48.31734 194
48.33745 231
48.35756 178
48.37768 218
48.39779 199
48.4179 211
48.43802 209
48.45813 194
48.47825 194
48.49836 200
48.51847 191
48.53859 179
48.5587 180
48.57881 184
48.59893 216
48.61904 198
48.63916 201
48.65927 203
48.67938 185
48.6995 192
48.71961 207
48.73972 218
48.75984 231
48.77995 219
48.80006 227
48.82018 238
48.84029 224
48.86041 207
48.88052 230
48.90063 228
48.92075 248
48.94086 240
48.96097 248
48.98109 232
49.0012 239
49.02132 245
49.04143 243
49.06154 223
49.08166 253
49.10177 261
49.12188 233
49.142 277
49.16211 250
49.18223 260
49.20234 282
49.22245 230
49.24257 247
49.26268 254
49.28279 212
49.30291 223
49.32302 230
49.34313 215
49.36325 198
49.38336 214
49.40348 196
49.42359 207
49.4437 207
49.46382 193
49.48393 197
49.50404 208
49.52416 222
49.54427 204
49.56439 231
49.5845 226
49.60461 238
49.62473 256
49.64484 263
49.66495 297
49.68507 282
49.70518 266
49.7253 290
49.74541 336
49.76552 364
49.78564 369
49.80575 380
49.82586 406
49.84598 433
49.86609 488
49.8862 510
49.90632 531
49.92643 631
49.94655 663
49.96666 720
49.98677 902
50.00689 1060
50.027 1377
50.04711 1675
50.06723 1955
50.08734 2385
50.10746 2482
50.12757 2503
50.14768 2085
50.1678 1680
50.18791 1392
50.20802 1361
50.22814 1306
50.24825 1304
50.26837 1199
50.28848 904
50.30859 663
50.32871 457
50.34882 382
50.36893 369
50.38905 349
50.40916 351
50.42927 362
50.44939 426
50.4695 376
50.48962 399
50.50973 403
50.52984 426
50.54996 418
50.57007 403
50.59018 412
50.6103 414
50.63041 394
50.65053 362
50.67064 346
50.69075 358
50.71087 342
50.73098 361
50.75109 314
50.77121 325
50.79132 307
50.81143 303
50.83155 259
50.85166 250
50.87178 239
50.89189 225
50.912 275
50.93212 231
50.95223 240
50.97234 229
50.99246 223
51.01257 231
51.03269 233
51.0528 194
51.07291 209
51.09303 239
51.11314 214
51.13325 244
51.15337 217
51.17348 234
51.1936 233
51.21371 222
51.23382 217
51.25394 222
51.27405 247
51.29416 230
51.31428 259
51.33439 229
51.3545 255
51.37462 216
51.39473 204
51.41485 229
51.43496 202
51.45507 214
51.47519 185
51.4953 219
51.51541 212
51.53553 200
51.55564 189
51.57576 175
51.59587 188
51.61598 165
51.6361 200
51.65621 160
51.67632 192
51.69644 180
51.71655 186
51.73667 163
51.75678 156
51.77689 177
51.79701 123
51.81712 160
51.83723 168
51.85735 176
51.87746 166
51.89757 175
51.91769 178
51.9378 156
51.95792 161
51.97803 179
51.99814 168
52.01826 181
52.03837 170
52.05848 163
52.0786 169
52.09871 169
52.11883 179
52.13894 175
52.15905 179
52.17917 157
52.19928 178
52.21939 176
52.23951 161
52.25962 174
52.27974 176
52.29985 167
52.31996 201
52.34008 172
52.36019 185
52.3803 157
52.40042 204
52.42053 176
52.44064 196
52.46076 208
52.48087 197
52.50099 177
52.5211 211
52.54121 191
52.56133 188
52.58144 196
52.60155 182
52.62167 170
52.64178 166
52.6619 181
52.68201 210
52.70212 197
52.72224 186
52.74235 185
52.76246 175
52.78258 155
52.80269 181
52.8228 178
52.84292 213
52.86303 246
52.88315 189
52.90326 202
52.92337 175
52.94349 203
52.9636 186
52.98371 225
53.00383 192
53.02394 220
53.04406 190
53.06417 165
53.08428 198
53.1044 194
53.12451 202
53.14462 205
53.16474 205
53.18485 220
53.20497 198
53.22508 193
53.24519 209
53.26531 196
53.28542 207
53.30553 190
53.32565 178
53.34576 187
53.36587 201
53.38599 173
53.4061 178
53.42622 193
53.44633 189
53.46644 198
53.48656 162
53.50667 195
53.52678 188
53.5469 169
53.56701 181
53.58713 168
53.60724 185
53.62735 173
53.64747 175
53.66758 191
53.68769 173
53.70781 178
53.72792 153
53.74804 211
53.76815 161
53.78826 172
53.80838 177
53.82849 193
53.8486 166
53.86872 198
53.88883 178
53.90894 210
53.92906 202
53.94917 198
53.96929 201
53.9894 195
54.00951 196
54.02963 188
54.04974 202
54.06985 189
54.08997 199
54.11008 199
54.1302 195
54.15031 204
54.17042 184
54.19054 187
54.21065 183
54.23076 186
54.25088 187
54.27099 194
54.29111 201
54.31122 181
54.33133 197
54.35145 204
54.37156 207
54.39167 201
54.41179 216
54.4319 188
54.45201 212
54.47213 218
54.49224 198
54.51236 207
54.53247 207
54.55258 219
54.5727 200
54.59281 217
54.61292 217
54.63304 254
54.65315 302
54.67327 294
54.69338 340
54.71349 379
54.73361 419
54.75372 489
54.77383 583
54.79395 660
54.81406 721
54.83417 854
54.85429 783
54.8744 745
54.89452 617
54.91463 521
54.93474 488
54.95486 488
54.97497 486
54.99508 449
55.0152 488
55.03531 415
55.05543 335
55.07554 305
55.09565 255
55.11577 266
55.13588 258
55.15599 255
55.17611 288
55.19622 299
55.21634 347
55.23645 345
55.25656 388
55.27668 419
55.29679 428
55.3169 408
55.33702 380
55.35713 331
55.37724 316
55.39736 334
55.41747 296
55.43759 318
55.4577 312
55.47781 279
55.49793 262
55.51804 228
55.53815 228
55.55827 207
55.57838 184
55.5985 222
55.61861 197
55.63872 193
55.65884 190
55.67895 181
55.69906 167
55.71918 169
55.73929 188
55.75941 194
55.77952 179
55.79963 154
55.81975 186
55.83986 168
55.85997 176
55.88009 169
55.9002 163
55.92031 178
55.94043 178
55.96054 189
55.98066 176
56.00077 172
56.02088 157
56.041 172
56.06111 175
56.08122 188
56.10134 157
56.12145 163
56.14157 153
56.16168 175
56.18179 189
56.20191 157
56.22202 176
56.24213 151
56.26225 151
56.28236 167
56.30248 169
56.32259 160
56.3427 179
56.36282 163
56.38293 166
56.40304 177
56.42316 157
56.44327 187
56.46338 184
56.4835 180
56.50361 161
56.52373 152
56.54384 187
56.56395 155
56.58407 160
56.60418 200
56.62429 177
56.64441 168
56.66452 153
56.68464 194
56.70475 184
56.72486 194
56.74498 205
56.76509 200
56.7852 171
56.80532 170
56.82543 157
56.84554 180
56.86566 163
56.88577 170
56.90589 171
56.926 172
56.94611 164
56.96623 167
56.98634 128
57.00645 173
57.02657 160
57.04668 157
57.0668 188
57.08691 152
57.10702 151
57.12714 210
57.14725 178
57.16736 183
57.18748 205
57.20759 200
57.22771 182
57.24782 184
57.26793 171
57.28805 157
57.30816 185
57.32827 187
57.34839 196
57.3685 177
57.38861 201
57.40873 187
57.42884 160
57.44896 172
57.46907 168
57.48918 155
57.5093 151
57.52941 160
57.54952 178
57.56964 158
57.58975 173
57.60987 176
57.62998 167
57.65009 172
57.67021 161
57.69032 170
57.71043 171
57.73055 165
57.75066 179
57.77078 160
57.79089 162
57.811 165
57.83112 177
57.85123 182
57.87134 176
57.89146 186
57.91157 158
57.93168 180
57.9518 176
57.97191 162
57.99203 171
58.01214 181
58.03225 158
58.05237 170
58.07248 158
58.09259 173
58.11271 185
58.13282 157
58.15294 157
58.17305 193
58.19316 162
58.21328 174
58.23339 164
58.2535 181
58.27362 166
58.29373 155
58.31385 158
58.33396 166
58.35407 181
58.37419 184
58.3943 185
58.41441 207
58.43453 220
58.45464 172
58.47475 188
58.49487 196
58.51498 188
58.5351 199
58.55521 185
58.57532 165
58.59544 205
58.61555 172
58.63566 205
58.65578 215
58.67589 185
58.69601 162
58.71612 200
58.73623 186
58.75635 169
58.77646 166
58.79657 189
58.81669 162
58.8368 179
58.85691 189
58.87703 180
58.89714 158
58.91726 181
58.93737 185
58.95748 182
58.9776 171
58.99771 168
59.01782 182
59.03794 152
59.05805 160
59.07817 167
59.09828 158
59.11839 150
59.13851 166
59.15862 174
59.17873 178
59.19885 199
59.21896 182
59.23908 171
59.25919 178
59.2793 180
59.29942 196
59.31953 166
59.33964 189
59.35976 182
59.37987 202
59.39998 184
59.4201 190
59.44021 207
59.46033 202
59.48044 214
59.50055 192
59.52067 205
59.54078 231
59.56089 241
59.58101 230
59.60112 262
59.62124 267
59.64135 270
59.66146 292
59.68158 323
59.70169 324
59.7218 361
59.74192 427
59.76203 490
59.78215 516
59.80226 685
59.82237 763
59.84249 950
59.8626 1092
59.88271 1301
59.90283 1409
59.92294 1523
59.94305 1429
59.96317 1232
59.98328 990
60.0034 805
60.02351 796
60.04362 809
60.06374 761
60.08385 824
60.10396 779
60.12408 620
60.14419 539
60.16431 393
60.18442 302
60.20453 285
60.22465 235
60.24476 219
60.26487 201
60.28499 204
60.3051 214
60.32522 226
60.34533 195
60.36544 202
60.38556 199
60.40567 210
60.42578 179
60.4459 185
60.46601 211
60.48612 164
60.50624 194
60.52635 172
60.54647 199
60.56658 166
60.58669 177
60.60681 176
60.62692 196
60.64703 175
60.66715 164
60.68726 193
60.70738 162
60.72749 195
60.7476 180
60.76772 188
60.78783 180
60.80794 188
60.82806 179
60.84817 161
60.86828 165
60.8884 186
60.90851 187
60.92863 154
60.94874 170
60.96885 190
60.98897 190
61.00908 191
61.02919 189
61.04931 186
61.06942 199
61.08954 172
61.10965 202
61.12976 197
61.14988 200
61.16999 211
61.1901 218
61.21022 187
61.23033 199
61.25045 192
61.27056 196
61.29067 191
61.31079 186
61.3309 197
61.35101 184
61.37113 180
61.39124 168
61.41135 191
61.43147 169
61.45158 173
61.4717 178
61.49181 195
61.51192 207
61.53204 188
61.55215 194
61.57226 172
61.59238 168
61.61249 199
61.63261 185
61.65272 154
61.67283 203
61.69295 175
61.71306 199
61.73317 187
61.75329 165
61.7734 161
61.79352 186
61.81363 185
61.83374 191
61.85386 172
61.87397 178
61.89408 203
61.9142 167
61.93431 183
61.95442 194
61.97454 176
61.99465 197
62.01477 175
62.03488 150
62.05499 167
62.07511 164
62.09522 171
62.11533 197
62.13545 184
62.15556 172
62.17568 173
62.19579 165
62.2159 170
62.23602 177
62.25613 178
62.27624 170
62.29636 149
62.31647 157
62.33659 168
62.3567 152
62.37681 165
62.39693 165
62.41704 163
62.43715 159
62.45727 145
62.47738 160
62.49749 163
62.51761 172
62.53772 174
62.55784 162
62.57795 152
62.59806 185
62.61818 168
62.63829 178
62.6584 183
62.67852 159
62.69863 162
62.71875 148
62.73886 170
62.75897 164
62.77909 173
62.7992 165
62.81931 184
62.83943 173
62.85954 174
62.87965 202
62.89977 162
62.91988 183
62.94 179
62.96011 199
62.98022 157
63.00034 209
63.02045 183
63.04056 154
63.06068 184
63.08079 173
63.10091 176
63.12102 185
63.14113 167
63.16125 196
63.18136 178
63.20147 190
63.22159 199
63.2417 204
63.26182 177
63.28193 191
63.30204 191
63.32216 179
63.34227 167
63.36238 167
63.3825 185
63.40261 183
63.42272 210
63.44284 191
63.46295 205
63.48307 190
63.50318 194
63.52329 172
63.54341 166
63.56352 203
63.58363 194
63.60375 193
63.62386 203
63.64398 207
63.66409 208
63.6842 220
63.70432 256
63.72443 228
63.74454 256
63.76466 233
63.78477 238
63.80489 286
63.825 262
63.84511 270
63.86523 262
63.88534 289
63.90545 305
63.92557 364
63.94568 346
63.96579 414
63.98591 400
64.00602 413
64.02614 369
64.04625 379
64.06636 313
64.08648 268
64.10659 275
64.1267 282
64.14682 282
64.16693 259
64.18705 295
64.20716 253
64.22727 231
64.24739 212
64.2675 198
64.28761 192
64.30773 163
64.32784 182
64.34796 169
64.36807 155
64.38818 160
64.4083 150
64.42841 145
64.44852 188
64.46864 152
64.48875 147
64.50886 187
64.52898 168
64.54909 177
64.56921 161
64.58932 172
64.60943 182
64.62955 177
64.64966 166
64.66977 177
64.68989 155
64.71 180
64.73012 184
64.75023 171
64.77034 142
64.79046 169
64.81057 158
64.83068 165
64.8508 158
64.87091 162
64.89102 165
64.91114 154
64.93125 162
64.95137 162
64.97148 157
64.99159 195
65.01171 171
65.03182 183
65.05193 185
65.07205 208
65.09216 166
65.11228 195
65.13239 170
65.1525 161
65.17262 185
65.19273 189
65.21284 169
65.23296 202
65.25307 172
65.27319 202
65.2933 204
65.31341 190
65.33353 182
65.35364 176
65.37375 176
65.39387 182
65.41398 175
65.43409 194
65.45421 185
65.47432 186
65.49444 185
65.51455 181
65.53466 184
65.55478 163
65.57489 174
65.595 152
65.61512 189
65.63523 177
65.65535 180
65.67546 192
65.69557 222
65.71569 211
65.7358 219
65.75591 196
65.77603 234
65.79614 205
65.81626 155
65.83637 175
65.85648 173
65.8766 167
65.89671 196
65.91682 183
65.93694 174
65.95705 187
65.97716 160
65.99728 180
66.01739 168
66.03751 158
66.05762 160
66.07773 147
66.09785 149
66.11796 163
66.13807 161
66.15819 163
66.1783 178
66.19842 175
66.21853 179
66.23864 172
66.25876 183
66.27887 179
66.29898 170
66.3191 182
66.33921 181
66.35933 169
66.37944 142
66.39955 151
66.41967 171
66.43978 186
66.45989 174
66.48001 186
66.50012 165
66.52023 157
66.54035 143
66.56046 159
66.58058 168
66.60069 158
66.6208 160
66.64092 165
66.66103 171
66.68114 151
66.70126 166
66.72137 140
66.74149 178
66.7616 137
66.78171 172
66.80183 144
66.82194 159
66.84205 169
66.86217 159
66.88228 156
66.90239 180
66.92251 157
66.94262 175
66.96274 157
66.98285 175
67.00296 172
67.02308 191
67.04319 191
67.0633 186
67.08342 184
67.10353 206
67.12365 160
67.14376 194
67.16387 162
67.18399 183
67.2041 185
67.22421 177
67.24433 204
67.26444 144
67.28456 188
67.30467 199
67.32478 211
67.3449 200
67.36501 193
67.38512 222
67.40524 238
67.42535 230
67.44546 239
67.46558 269
67.48569 275
67.50581 292
67.52592 350
67.54603 368
67.56615 412
67.58626 466
67.60637 540
67.62649 598
67.6466 658
67.66672 791
67.68683 832
67.70694 885
67.72706 852
67.74717 840
67.76728 621
67.7874 534
67.80751 538
67.82763 542
67.84774 608
67.86785 594
67.88797 667
67.90808 681
67.92819 660
67.94831 637
67.96842 645
67.98853 647
68.00865 761
68.02876 787
68.04888 920
68.06899 971
68.0891 1047
68.10922 1087
68.12933 1129
68.14944 1031
68.16956 1014
68.18967 840
68.20979 899
68.2299 896
68.25001 961
68.27013 1029
68.29024 1012
68.31035 981
68.33047 885
68.35058 760
68.3707 579
68.39081 479
68.41092 477
68.43104 454
68.45115 484
68.47126 457
68.49138 422
68.51149 381
68.5316 310
68.55172 280
68.57183 257
68.59195 229
68.61206 235
68.63217 217
68.65229 202
68.6724 189
68.69251 180
68.71263 184
68.73274 199
68.75286 164
68.77297 207
68.79308 189
68.8132 185
68.83331 186
68.85342 152
68.87354 160
68.89365 169
68.91376 150
68.93388 161
68.95399 181
68.97411 169
68.99422 165
69.01433 164
69.03445 162
69.05456 158
69.07467 148
69.09479 156
69.1149 152
69.13502 162
69.15513 167
69.17524 173
69.19536 165
69.21547 152
69.23558 164
69.2557 169
69.27581 141
69.29593 156
69.31604 164
69.33615 157
69.35627 192
69.37638 160
69.39649 156
69.41661 183
69.43672 167
69.45683 165
69.47695 171
69.49706 156
69.51718 151
69.53729 154
69.5574 165
69.57752 142
69.59763 152
69.61774 153
69.63786 150
69.65797 163
69.67809 149
69.6982 185
69.71831 175
69.73843 154
69.75854 173
69.77865 155
69.79877 170
69.81888 150
69.839 146
69.85911 172
69.87922 169
69.89934 155
69.91945 180
69.93956 151
69.95968 169
69.97979 170
69.9999 135
70.02002 170
70.04013 171
70.06025 161
70.08036 154
70.10047 153
70.12059 155
70.1407 161
70.16081 150
70.18093 157
70.20104 116
70.22116 137
70.24127 147
70.26138 148
70.2815 156
70.30161 134
70.32172 154
70.34184 150
70.36195 145
70.38207 136
70.40218 146
70.42229 147
70.44241 148
70.46252 132
70.48263 126
70.50275 128
70.52286 132
70.54297 135
70.56309 149
70.5832 149
70.60332 138
70.62343 126
70.64354 152
70.66366 153
70.68377 150
70.70388 168
70.724 164
70.74411 140
70.76423 142
70.78434 165
70.80445 162
70.82457 158
70.84468 139
70.86479 165
70.88491 131
70.90502 167
70.92513 126
70.94525 139
70.96536 161
70.98548 154
71.00559 151
71.0257 145
71.04582 144
71.06593 149
71.08604 125
71.10616 142
71.12627 156
71.14639 144
71.1665 132
71.18661 138
71.20673 169
71.22684 146
71.24695 146
71.26707 162
71.28718 151
71.3073 159
71.32741 164
71.34752 137
71.36764 135
71.38775 156
71.40786 140
71.42798 140
71.44809 150
71.4682 170
71.48832 160
71.50843 171
71.52855 148
71.54866 139
71.56877 131
71.58889 160
71.609 159
71.62911 178
71.64923 157
71.66934 147
71.68946 138
71.70957 140
71.72968 149
71.7498 152
71.76991 144
71.79002 129
71.81014 120
71.83025 133
71.85037 151
71.87048 138
71.89059 132
71.91071 137
71.93082 133
71.95093 135
71.97105 151
71.99116 158
72.01127 156
72.03139 151
72.0515 138
72.07162 144
72.09173 140
72.11184 134
72.13196 151
72.15207 131
72.17218 152
72.1923 139
72.21241 146
72.23253 119
72.25264 152
72.27275 139
72.29287 156
72.31298 142
72.33309 150
72.35321 143
72.37332 127
72.39344 136
72.41355 130
72.43366 146
72.45378 147
72.47389 153
72.494 145
72.51412 143
72.53423 141
72.55434 154
72.57446 128
72.59457 133
72.61469 141
72.6348 133
72.65491 146
72.67503 117
72.69514 153
72.71525 141
72.73537 126
72.75548 149
72.7756 145
72.79571 130
72.81582 128
72.83594 148
72.85605 158
72.87616 142
72.89628 142
72.91639 141
72.9365 135
72.95662 159
72.97673 176
72.99685 175
73.01696 136
73.03707 161
73.05719 160
73.0773 153
73.09741 155
73.11753 154
73.13764 165
73.15776 162
73.17787 157
73.19798 207
73.2181 225
73.23821 195
73.25832 206
73.27844 224
73.29855 225
73.31867 238
73.33878 256
73.35889 297
73.37901 345
73.39912 329
73.41923 348
73.43935 391
73.45946 354
73.47957 295
73.49969 295
73.5198 258
73.53992 233
73.56003 249
73.58014 241
73.60026 256
73.62037 255
73.64048 266
73.6606 251
73.68071 266
73.70083 209
73.72094 193
73.74105 177
73.76117 182
73.78128 172
73.80139 153
73.82151 179
73.84162 149
73.86174 151
73.88185 136
73.90196 168
73.92208 156
73.94219 147
73.9623 142
73.98242 172
74.00253 154
74.02264 161
74.04276 144
74.06287 145
74.08299 133
74.1031 143
74.12321 136
74.14333 136
74.16344 143
74.18355 157
74.20367 154
74.22378 141
74.2439 146
74.26401 135
74.28412 150
74.30424 141
74.32435 135
74.34446 164
74.36458 122
74.38469 147
74.40481 152
74.42492 137
74.44503 157
74.46515 146
74.48526 163
74.50537 157
74.52549 142
74.5456 157
74.56571 125
74.58583 145
74.60594 157
74.62606 159
74.64617 140
74.66628 156
74.6864 166
74.70651 157
74.72662 125
74.74674 167
74.76685 137
74.78697 161
74.80708 148
74.82719 139
74.84731 154
74.86742 140
74.88753 138
74.90765 159
74.92776 160
74.94787 177
74.96799 173
74.9881 147
75.00822 167
