3.00117 21730
3.02128 20886
3.0414 19984
3.06151 19979
3.08162 19259
3.10174 18817
3.12185 18234
3.14197 17646
3.16208 17396
3.18219 16749
3.20231 16136
3.22242 15744
3.24253 15261
3.26265 15203
3.28276 14371
3.30288 14152
3.32299 13599
3.3431 13054
3.36322 12886
3.38333 12360
3.40344 12194
3.42356 11461
3.44367 11065
3.46379 10988
3.4839 10579
3.50401 10249
3.52413 9888
3.54424 9294
3.56435 9371
3.58447 8728
3.60458 8548
3.62469 8207
3.64481 7839
3.66492 8042
3.68504 7340
3.70515 7281
3.72526 6853
3.74538 6470
3.76549 6467
3.7856 6059
3.80572 5881
3.82583 5621
3.84595 5490
3.86606 5450
3.88617 5104
3.90629 4941
3.9264 4614
3.94651 4579
3.96663 4469
3.98674 4255
4.00686 3997
4.02697 3672
4.04708 3608
4.0672 3766
4.08731 3590
4.10742 3350
4.12754 3207
4.14765 3124
4.16776 3080
4.18788 2922
4.20799 2788
4.22811 2596
4.24822 2554
4.26833 2586
4.28845 2560
4.30856 2338
4.32867 2296
4.34879 2114
4.3689 2332
4.38902 2158
4.40913 2144
4.42924 2047
4.44936 2029
4.46947 2028
4.48958 1966
4.5097 1934
4.52981 1940
4.54992 1898
4.57004 1861
4.59015 1785
4.61027 1725
4.63038 1721
4.65049 1582
4.67061 1719
4.69072 1687
4.71083 1594
4.73095 1516
4.75106 1482
4.77118 1488
4.79129 1604
4.8114 1467
4.83152 1371
4.85163 1445
4.87174 1438
4.89186 1378
4.91197 1257
4.93209 1332
4.9522 1281
4.97231 1276
4.99243 1229
5.01254 1223
5.03265 1249
5.05277 1185
5.07288 1177
5.09299 1228
5.11311 1107
5.13322 1186
5.15334 1091
5.17345 1098
5.19356 1083
5.21368 1120
5.23379 1139
5.2539 1106
5.27402 1055
5.29413 1061
5.31425 1001
5.33436 986
5.35447 957
5.37459 924
5.3947 988
5.41481 948
5.43493 1008
5.45504 943
5.47516 971
5.49527 947
5.51538 840
5.5355 853
5.55561 904
5.57572 921
5.59584 894
5.61595 961
5.63606 881
5.65618 821
5.67629 838
5.69641 795
5.71652 844
5.73663 851
5.75675 833
5.77686 757
5.79697 788
5.81709 919
5.8372 809
5.85732 829
5.87743 805
5.89754 759
5.91766 812
5.93777 761
5.95788 762
5.978 757
5.99811 728
6.01823 758
6.03834 754
6.05845 786
6.07857 729
6.09868 785
6.11879 702
6.13891 757
6.15902 740
6.17913 664
6.19925 748
6.21936 712
6.23948 777
6.25959 747
6.2797 770
6.29982 752
6.31993 734
6.34004 768
6.36016 709
6.38027 748
6.40039 741
6.4205 700
6.44061 748
6.46073 730
6.48084 769
6.50095 758
6.52107 699
6.54118 801
6.56129 741
6.58141 727
6.60152 738
6.62164 704
6.64175 698
6.66186 745
6.68198 735
6.70209 771
6.7222 740
6.74232 757
6.76243 732
6.78255 739
6.80266 745
6.82277 719
6.84289 723
6.863 759
6.88311 749
6.90323 713
6.92334 750
6.94346 753
6.96357 720
6.98368 718
7.0038 790
7.02391 754
7.04402 775
7.06414 739
7.08425 810
7.10436 727
7.12448 703
7.14459 764
7.16471 743
7.18482 737
7.20493 661
7.22505 729
7.24516 692
7.26527 678
7.28539 716
7.3055 667
7.32562 758
7.34573 673
7.36584 725
7.38596 715
7.40607 697
7.42618 677
7.4463 702
7.46641 690
7.48653 776
7.50664 682
7.52675 639
7.54687 711
7.56698 707
7.58709 664
7.60721 680
7.62732 740
7.64743 680
7.66755 630
7.68766 646
7.70778 629
7.72789 642
7.748 684
7.76812 673
7.78823 667
7.80834 647
7.82846 704
7.84857 691
7.86869 642
7.8888 652
7.90891 643
7.92903 629
7.94914 643
7.96925 637
7.98937 696
8.00948 675
8.0296 667
8.04971 633
8.06982 658
8.08994 684
8.11005 658
8.13016 623
8.15028 645
8.17039 628
8.1905 704
8.21062 634
8.23073 608
8.25085 634
8.27096 605
8.29107 636
8.31119 650
8.3313 657
8.35141 655
8.37153 691
8.39164 632
8.41176 618
8.43187 635
8.45198 637
8.4721 666
8.49221 605
8.51232 627
8.53244 650
8.55255 695
8.57266 685
8.59278 663
8.61289 700
8.63301 695
8.65312 680
8.67323 765
8.69335 722
8.71346 702
8.73357 793
8.75369 713
8.7738 759
8.79392 732
8.81403 759
8.83414 718
8.85426 695
8.87437 671
8.89448 697
8.9146 664
8.93471 647
8.95483 610
8.97494 566
8.99505 550
9.01517 583
9.03528 530
9.05539 604
9.07551 538
9.09562 531
9.11573 523
9.13585 557
9.15596 578
9.17608 564
9.19619 522
9.2163 490
9.23642 580
9.25653 509
9.27664 516
9.29676 522
9.31687 507
9.33699 511
9.3571 495
9.37721 483
9.39733 474
9.41744 479
9.43755 516
9.45767 484
9.47778 505
9.4979 491
9.51801 474
9.53812 501
9.55824 467
9.57835 513
9.59846 463
9.61858 494
9.63869 466
9.6588 505
9.67892 491
9.69903 475
9.71915 485
9.73926 483
9.75937 459
9.77949 471
9.7996 464
9.81971 481
9.83983 446
9.85994 457
9.88006 503
9.90017 468
9.92028 480
9.9404 503
9.96051 487
9.98062 482
10.00074 451
10.02085 520
10.04097 472
10.06108 425
10.08119 471
10.10131 456
10.12142 454
10.14153 385
10.16165 436
10.18176 476
10.20187 458
10.22199 404
10.2421 485
10.26222 457
10.28233 455
10.30244 409
10.32256 440
10.34267 448
10.36278 479
10.3829 429
10.40301 453
10.42313 489
10.44324 463
10.46335 477
10.48347 490
10.50358 411
10.52369 471
10.54381 440
10.56392 417
10.58403 430
10.60415 478
10.62426 453
10.64438 474
10.66449 436
10.6846 455
10.70472 411
10.72483 429
10.74494 439
10.76506 468
10.78517 438
10.80529 442
10.8254 475
10.84551 431
10.86563 434
10.88574 441
10.90585 403
10.92597 420
10.94608 460
10.9662 451
10.98631 429
11.00642 428
11.02654 462
11.04665 425
11.06676 446
11.08688 435
11.10699 490
11.1271 469
11.14722 434
11.16733 434
11.18745 420
11.20756 456
11.22767 460
11.24779 484
11.2679 419
11.28801 479
11.30813 434
11.32824 445
11.34836 459
11.36847 449
11.38858 474
11.4087 477
11.42881 453
11.44892 484
11.46904 453
11.48915 459
11.50927 486
11.52938 465
11.54949 495
11.56961 489
11.58972 469
11.60983 468
11.62995 470
11.65006 495
11.67017 464
11.69029 492
11.7104 485
11.73052 475
11.75063 458
11.77074 448
11.79086 462
11.81097 471
11.83108 488
11.8512 501
11.87131 484
11.89143 513
11.91154 473
11.93165 497
11.95177 465
11.97188 490
11.99199 471
12.01211 498
12.03222 545
12.05234 503
12.07245 494
12.09256 513
12.11268 535
12.13279 539
12.1529 548
12.17302 523
12.19313 537
12.21324 528
12.23336 517
12.25347 584
12.27359 552
12.2937 584
12.31381 567
12.33393 602
12.35404 586
12.37415 581
12.39427 542
12.41438 475
12.4345 497
12.45461 512
12.47472 483
12.49484 486
12.51495 468
12.53506 493
12.55518 461
12.57529 460
12.5954 502
12.61552 417
12.63563 469
12.65575 455
12.67586 437
12.69597 407
12.71609 453
12.7362 384
12.75631 438
12.77643 409
12.79654 424
12.81666 429
12.83677 451
12.85688 422
12.877 473
12.89711 412
12.91722 448
12.93734 422
12.95745 389
12.97757 401
12.99768 419
13.01779 419
13.03791 414
13.05802 384
13.07813 436
13.09825 426
13.11836 390
13.13847 466
13.15859 424
13.1787 413
13.19882 423
13.21893 398
13.23904 369
13.25916 385
13.27927 395
13.29938 393
13.3195 442
13.33961 411
13.35973 412
13.37984 392
13.39995 407
13.42007 420
13.44018 409
13.46029 366
13.48041 388
13.50052 409
13.52064 450
13.54075 376
13.56086 411
13.58098 406
13.60109 417
13.6212 405
13.64132 430
13.66143 435
13.68154 408
13.70166 467
13.72177 438
13.74189 412
13.762 387
13.78211 423
13.80223 469
13.82234 448
13.84245 430
13.86257 406
13.88268 435
13.9028 431
13.92291 466
13.94302 435
13.96314 365
13.98325 430
14.00336 418
14.02348 447
14.04359 394
14.06371 410
14.08382 403
14.10393 411
14.12405 386
14.14416 427
14.16427 357
14.18439 399
14.2045 395
14.22461 392
14.24473 427
14.26484 399
14.28496 438
14.30507 381
14.32518 429
14.3453 383
14.36541 420
14.38552 385
14.40564 369
14.42575 438
14.44587 366
14.46598 395
14.48609 373
14.50621 393
14.52632 397
14.54643 401
14.56655 432
14.58666 374
14.60677 406
14.62689 377
14.647 389
14.66712 398
14.68723 404
14.70734 407
14.72746 391
14.74757 421
14.76768 403
14.7878 380
14.80791 398
14.82803 370
14.84814 381
14.86825 382
14.88837 392
14.90848 387
14.92859 395
14.94871 446
14.96882 421
14.98894 386
15.00905 368
15.02916 409
15.04928 445
15.06939 391
15.0895 378
15.10962 407
15.12973 428
15.14984 391
15.16996 399
15.19007 422
15.21019 374
15.2303 360
15.25041 408
15.27053 429
15.29064 398
15.31075 383
15.33087 416
15.35098 400
15.3711 378
15.39121 394
15.41132 418
15.43144 376
15.45155 412
15.47166 404
15.49178 411
15.51189 402
15.53201 337
15.55212 420
15.57223 438
15.59235 413
15.61246 408
15.63257 395
15.65269 409
15.6728 386
15.69291 373
15.71303 400
15.73314 395
15.75326 396
15.77337 442
15.79348 413
15.8136 420
15.83371 421
15.85382 411
15.87394 377
15.89405 429
15.91417 383
15.93428 371
15.95439 416
15.97451 421
15.99462 376
16.01473 385
16.03485 356
16.05496 403
16.07508 378
16.09519 394
16.1153 387
16.13542 350
16.15553 395
16.17564 390
16.19576 376
16.21587 369
16.23598 410
16.2561 406
16.27621 387
16.29633 385
16.31644 372
16.33655 352
16.35667 400
16.37678 358
16.39689 350
16.41701 378
16.43712 393
16.45724 362
16.47735 383
16.49746 402
16.51758 386
16.53769 419
16.5578 351
16.57792 354
16.59803 394
16.61814 408
16.63826 380
16.65837 379
16.67849 421
16.6986 346
16.71871 432
16.73883 391
16.75894 391
16.77905 386
16.79917 414
16.81928 366
16.8394 383
16.85951 407
16.87962 372
16.89974 407
16.91985 384
16.93996 385
16.96008 383
16.98019 395
17.00031 394
17.02042 396
17.04053 449
17.06065 411
17.08076 410
17.10087 359
17.12099 394
17.1411 379
17.16121 413
17.18133 371
17.20144 409
17.22156 409
17.24167 395
17.26178 414
17.2819 421
17.30201 422
17.32212 396
17.34224 430
17.36235 407
17.38247 397
17.40258 373
17.42269 377
17.44281 416
17.46292 411
17.48303 407
17.50315 385
17.52326 433
17.54338 417
17.56349 402
17.5836 386
17.60372 415
17.62383 397
17.64394 432
17.66406 390
17.68417 445
17.70428 405
17.7244 427
17.74451 406
17.76463 384
17.78474 439
17.80485 379
17.82497 468
17.84508 415
17.86519 434
17.88531 455
17.90542 383
17.92554 443
17.94565 421
17.96576 450
17.98588 431
18.00599 397
18.0261 430
18.04622 409
18.06633 409
18.08645 404
18.10656 395
18.12667 420
18.14679 397
18.1669 392
18.18701 372
18.20713 439
18.22724 379
18.24735 411
18.26747 405
18.28758 426
18.3077 428
18.32781 414
18.34792 382
18.36804 377
18.38815 447
18.40826 415
18.42838 402
18.44849 403
18.46861 434
18.48872 413
18.50883 414
18.52895 435
18.54906 407
18.56917 442
18.58929 419
18.6094 404
18.62951 401
18.64963 401
18.66974 399
18.68986 390
18.70997 445
18.73008 424
18.7502 400
18.77031 421
18.79042 428
18.81054 430
18.83065 405
18.85077 432
18.87088 422
18.89099 420
18.91111 455
18.93122 433
18.95133 398
18.97145 432
18.99156 467
19.01168 425
19.03179 441
19.0519 429
19.07202 441
19.09213 427
19.11224 489
19.13236 453
19.15247 459
19.17258 492
19.1927 479
19.21281 536
19.23293 515
19.25304 485
19.27315 510
19.29327 500
19.31338 541
19.33349 504
19.35361 570
19.37372 566
19.39384 560
19.41395 538
19.43406 612
19.45418 649
19.47429 621
19.4944 706
19.51452 671
19.53463 735
19.55475 699
19.57486 771
19.59497 817
19.61509 830
19.6352 878
19.65531 920
19.67543 945
19.69554 924
19.71565 1017
19.73577 1054
19.75588 1035
19.776 1050
19.79611 1121
19.81622 1082
19.83634 1075
19.85645 1086
19.87656 1008
19.89668 983
19.91679 927
19.93691 1000
19.95702 968
19.97713 893
19.99725 861
20.01736 864
20.03747 854
20.05759 779
20.0777 896
20.09782 801
20.11793 777
20.13804 815
20.15816 819
20.17827 793
20.19838 797
20.2185 826
20.23861 816
20.25872 756
20.27884 830
20.29895 766
20.31907 778
20.33918 775
20.35929 766
20.37941 768
20.39952 749
20.41963 747
20.43975 763
20.45986 767
20.47998 783
20.50009 734
20.5202 819
20.54032 743
20.56043 810
20.58054 810
20.60066 754
20.62077 789
20.64088 840
20.661 861
20.68111 964
20.70123 1013
20.72134 1153
20.74145 1284
20.76157 1423
20.78168 1642
20.80179 1767
20.82191 1763
20.84202 1767
20.86214 1623
20.88225 1464
20.90236 1237
20.92248 1143
20.94259 990
20.9627 957
20.98282 939
21.00293 927
21.02305 834
21.04316 855
21.06327 813
21.08339 793
21.1035 729
21.12361 786
21.14373 764
21.16384 746
21.18395 749
21.20407 695
21.22418 754
21.2443 719
21.26441 751
21.28452 746
21.30464 685
21.32475 689
21.34486 698
21.36498 731
21.38509 688
21.40521 641
21.42532 671
21.44543 683
21.46555 678
21.48566 654
21.50577 678
21.52589 643
21.546 666
21.56612 626
21.58623 675
21.60634 604
21.62646 642
21.64657 630
21.66668 646
21.6868 661
21.70691 677
21.72702 647
21.74714 589
21.76725 619
21.78737 604
21.80748 618
21.82759 606
21.84771 639
21.86782 672
21.88793 667
21.90805 749
21.92816 724
21.94828 726
21.96839 768
21.9885 732
22.00862 758
22.02873 724
22.04884 706
22.06896 642
22.08907 671
22.10919 617
22.1293 583
22.14941 602
22.16953 620
22.18964 629
22.20975 594
22.22987 581
22.24998 588
22.27009 611
22.29021 603
22.31032 548
22.33044 597
22.35055 572
22.37066 609
22.39078 586
22.41089 599
22.431 567
22.45112 599
22.47123 549
22.49135 570
22.51146 576
22.53157 604
22.55169 570
22.5718 571
22.59191 608
22.61203 546
22.63214 622
22.65225 559
22.67237 592
22.69248 598
22.7126 583
22.73271 574
22.75282 594
22.77294 597
22.79305 613
22.81316 613
22.83328 626
22.85339 610
22.87351 622
22.89362 644
22.91373 581
22.93385 562
22.95396 580
22.97407 610
22.99419 634
23.0143 618
23.03442 642
23.05453 601
23.07464 619
23.09476 610
23.11487 615
23.13498 633
23.1551 571
23.17521 573
23.19532 595
23.21544 602
23.23555 575
23.25567 532
23.27578 574
23.29589 592
23.31601 577
23.33612 616
23.35623 598
23.37635 587
23.39646 620
23.41658 606
23.43669 666
23.4568 619
23.47692 654
23.49703 671
23.51714 697
23.53726 726
23.55737 672
23.57749 701
23.5976 694
23.61771 667
23.63783 639
23.65794 611
23.67805 608
23.69817 575
23.71828 598
23.73839 629
23.75851 624
23.77862 626
23.79874 611
23.81885 630
23.83896 622
23.85908 605
23.87919 611
23.8993 581
23.91942 611
23.93953 668
23.95965 643
23.97976 613
23.99987 644
24.01999 680
24.0401 669
24.06021 601
24.08033 612
24.10044 638
24.12056 610
24.14067 636
24.16078 669
24.1809 673
24.20101 688
24.22112 706
24.24124 634
24.26135 676
24.28146 721
24.30158 664
24.32169 689
24.34181 625
24.36192 654
24.38203 648
24.40215 629
24.42226 580
24.44237 566
24.46249 627
24.4826 651
24.50272 567
24.52283 596
24.54294 612
24.56306 619
24.58317 592
24.60328 645
24.6234 636
24.64351 621
24.66362 666
24.68374 605
24.70385 642
24.72397 657
24.74408 652
24.76419 674
24.78431 667
24.80442 663
24.82453 662
24.84465 649
24.86476 690
24.88488 657
24.90499 682
24.9251 673
24.94522 689
24.96533 652
24.98544 642
25.00556 621
25.02567 619
25.04579 643
25.0659 693
25.08601 686
25.10613 654
25.12624 624
25.14635 686
25.16647 712
25.18658 661
25.20669 668
25.22681 733
25.24692 692
25.26704 681
25.28715 701
25.30726 683
25.32738 715
25.34749 675
25.3676 631
25.38772 665
25.40783 693
25.42795 770
25.44806 711
25.46817 758
25.48829 728
25.5084 688
25.52851 741
25.54863 712
25.56874 675
25.58886 671
25.60897 727
25.62908 688
25.6492 659
25.66931 678
25.68942 648
25.70954 623
25.72965 693
25.74976 620
25.76988 603
25.78999 618
25.81011 606
25.83022 588
25.85033 595
25.87045 609
25.89056 602
25.91067 622
25.93079 610
25.9509 608
25.97102 633
25.99113 597
26.01124 583
26.03136 655
26.05147 667
26.07158 627
26.0917 646
26.11181 635
26.13193 674
26.15204 631
26.17215 740
26.19227 767
26.21238 746
26.23249 717
26.25261 770
26.27272 838
26.29283 809
26.31295 903
26.33306 864
26.35318 982
26.37329 1047
26.3934 1129
26.41352 1269
26.43363 1418
26.45374 1700
26.47386 2070
26.49397 2634
26.51409 3347
26.5342 4187
26.55431 4824
26.57443 5387
26.59454 5585
26.61465 5564
26.63477 4811
26.65488 3864
26.67499 3132
26.69511 2435
26.71522 1788
26.73534 1354
26.75545 1119
26.77556 980
26.79568 877
26.81579 917
26.8359 881
26.85602 878
26.87613 804
26.89625 843
26.91636 837
26.93647 808
26.95659 783
26.9767 818
26.99681 759
27.01693 810
27.03704 817
27.05716 808
27.07727 761
27.09738 710
27.1175 673
27.13761 722
27.15772 683
27.17784 686
27.19795 691
27.21806 712
27.23818 781
27.25829 732
27.27841 737
27.29852 816
27.31863 805
27.33875 806
27.35886 937
27.37897 884
27.39909 897
27.4192 865
27.43932 854
27.45943 845
27.47954 825
27.49966 837
27.51977 726
27.53988 769
27.56 687
27.58011 658
27.60023 705
27.62034 731
27.64045 805
27.66057 821
27.68068 839
27.70079 865
27.72091 880
27.74102 845
27.76113 865
27.78125 819
27.80136 914
27.82148 929
27.84159 887
27.8617 940
27.88182 913
27.90193 937
27.92204 900
27.94216 820
27.96227 778
27.98239 759
28.0025 741
28.02261 655
28.04273 701
28.06284 694
28.08295 629
28.10307 667
28.12318 588
28.1433 590
28.16341 586
28.18352 589
28.20364 627
28.22375 581
28.24386 607
28.26398 578
28.28409 606
28.3042 569
28.32432 578
28.34443 561
28.36455 582
28.38466 553
28.40477 527
28.42489 544
28.445 511
28.46511 496
28.48523 537
28.50534 527
28.52546 533
28.54557 586
28.56568 505
28.5858 522
28.60591 511
28.62602 517
28.64614 511
28.66625 508
28.68636 553
28.70648 548
28.72659 513
28.74671 433
28.76682 498
28.78693 486
28.80705 530
28.82716 532
28.84727 549
28.86739 496
28.8875 474
28.90762 471
28.92773 532
28.94784 501
28.96796 507
28.98807 568
29.00818 496
29.0283 577
29.04841 550
29.06853 520
29.08864 541
29.10875 480
29.12887 515
29.14898 512
29.16909 516
29.18921 549
29.20932 499
29.22943 545
29.24955 526
29.26966 489
29.28978 476
29.30989 513
29.33 565
29.35012 521
29.37023 550
29.39034 557
29.41046 533
29.43057 526
29.45069 512
29.4708 499
29.49091 512
29.51103 575
29.53114 507
29.55125 558
29.57137 558
29.59148 565
29.6116 531
29.63171 573
29.65182 539
29.67194 534
29.69205 551
29.71216 593
29.73228 585
29.75239 627
29.7725 536
29.79262 533
29.81273 621
29.83285 560
29.85296 573
29.87307 571
29.89319 536
29.9133 543
29.93341 528
29.95353 571
29.97364 485
29.99376 541
30.01387 516
30.03398 529
30.0541 503
30.07421 516
30.09432 603
30.11444 545
30.13455 553
30.15467 565
30.17478 531
30.19489 592
30.21501 523
30.23512 522
30.25523 543
30.27535 533
30.29546 538
30.31557 541
30.33569 563
30.3558 565
30.37592 521
30.39603 536
30.41614 531
30.43626 554
30.45637 584
30.47648 531
30.4966 565
30.51671 486
30.53683 521
30.55694 437
30.57705 485
30.59717 489
30.61728 444
30.63739 484
30.65751 526
30.67762 533
30.69773 512
30.71785 530
30.73796 524
30.75808 510
30.77819 538
30.7983 544
30.81842 490
30.83853 534
30.85864 490
30.87876 503
30.89887 501
30.91899 481
30.9391 472
30.95921 441
30.97933 522
30.99944 480
31.01955 495
31.03967 501
31.05978 539
31.0799 440
31.10001 530
31.12012 528
31.14024 523
31.16035 494
31.18046 534
31.20058 501
31.22069 527
31.2408 523
31.26092 503
31.28103 485
31.30115 488
31.32126 495
31.34137 481
31.36149 542
31.3816 500
31.40171 524
31.42183 489
31.44194 493
31.46206 551
31.48217 540
31.50228 608
31.5224 664
31.54251 723
31.56262 778
31.58274 947
31.60285 1007
31.62297 966
31.64308 1093
31.66319 1063
31.68331 973
31.70342 849
31.72353 789
31.74365 714
31.76376 638
31.78387 552
31.80399 525
31.8241 528
31.84422 517
31.86433 491
31.88444 495
31.90456 475
31.92467 498
31.94478 474
31.9649 439
31.98501 535
32.00513 426
32.02524 502
32.04535 456
32.06547 482
32.08558 473
32.10569 435
32.12581 472
32.14592 455
32.16604 455
32.18615 438
32.20626 485
32.22638 469
32.24649 469
32.2666 478
32.28672 430
32.30683 444
32.32694 499
32.34706 465
32.36717 468
32.38729 479
32.4074 443
32.42751 478
32.44763 441
32.46774 451
32.48785 425
32.50797 440
32.52808 472
32.5482 482
32.56831 448
32.58842 450
32.60854 444
32.62865 504
32.64876 462
32.66888 449
32.68899 475
32.7091 424
32.72922 430
32.74933 474
32.76945 445
32.78956 437
32.80967 425
32.82979 436
32.8499 474
32.87001 488
32.89013 445
32.91024 449
32.93036 466
32.95047 485
32.97058 436
32.9907 478
33.01081 461
33.03092 471
33.05104 452
33.07115 445
33.09127 481
33.11138 452
33.13149 451
33.15161 477
33.17172 445
33.19183 456
33.21195 430
33.23206 464
33.25217 445
33.27229 443
33.2924 468
33.31252 407
33.33263 450
33.35274 404
33.37286 467
33.39297 477
33.41308 465
33.4332 476
33.45331 456
33.47343 438
33.49354 442
33.51365 435
33.53377 461
33.55388 471
33.57399 493
33.59411 421
33.61422 451
33.63434 478
33.65445 445
33.67456 440
33.69468 444
33.71479 423
33.7349 477
33.75502 459
33.77513 459
33.79524 462
33.81536 476
33.83547 452
33.85559 437
33.8757 502
33.89581 526
33.91593 452
33.93604 472
33.95615 524
33.97627 488
33.99638 460
34.0165 481
34.03661 469
34.05672 521
34.07684 487
34.09695 545
34.11706 582
34.13718 590
34.15729 567
34.17741 578
34.19752 619
34.21763 614
34.23775 635
34.25786 571
34.27797 639
34.29809 614
34.3182 611
34.33831 610
34.35843 634
34.37854 661
34.39866 633
34.41877 649
34.43888 613
34.459 685
34.47911 655
34.49922 646
34.51934 629
34.53945 657
34.55957 646
34.57968 664
34.59979 672
34.61991 750
34.64002 673
34.66013 716
34.68025 633
34.70036 721
34.72047 751
34.74059 727
34.7607 732
34.78082 758
34.80093 768
34.82104 792
34.84116 789
34.86127 792
34.88138 756
34.9015 793
34.92161 770
34.94173 728
34.96184 767
34.98195 766
35.00207 751
35.02218 787
35.04229 734
35.06241 667
35.08252 713
35.10264 674
35.12275 668
35.14286 716
35.16298 657
35.18309 669
35.2032 627
35.22332 606
35.24343 645
35.26354 641
35.28366 610
35.30377 651
35.32389 648
35.344 676
35.36411 657
35.38423 666
35.40434 642
35.42445 671
35.44457 638
35.46468 601
35.4848 609
35.50491 608
35.52502 672
35.54514 623
35.56525 624
35.58536 628
35.60548 581
35.62559 613
35.64571 595
35.66582 596
35.68593 559
35.70605 603
35.72616 591
35.74627 581
35.76639 590
35.7865 584
35.80661 612
35.82673 618
35.84684 610
35.86696 623
35.88707 581
35.90718 612
35.9273 592
35.94741 632
35.96752 653
35.98764 555
36.00775 607
36.02787 627
36.04798 594
36.06809 612
36.08821 599
36.10832 607
36.12843 590
36.14855 592
36.16866 612
36.18878 612
36.20889 598
36.229 635
36.24912 599
36.26923 632
36.28934 601
36.30946 628
36.32957 692
36.34968 668
36.3698 665
36.38991 749
36.41003 787
36.43014 858
36.45025 971
36.47037 969
36.49048 944
36.51059 907
36.53071 867
36.55082 839
36.57094 773
36.59105 726
36.61116 735
36.63128 710
36.65139 671
36.6715 609
36.69162 621
36.71173 631
36.73184 650
36.75196 591
36.77207 635
36.79219 651
36.8123 646
36.83241 602
36.85253 655
36.87264 622
36.89275 667
36.91287 614
36.93298 662
36.9531 622
36.97321 585
36.99332 633
37.01344 569
37.03355 633
37.05366 554
37.07378 600
37.09389 615
37.11401 558
37.13412 581
37.15423 546
37.17435 547
37.19446 562
37.21457 574
37.23469 594
37.2548 551
37.27491 574
37.29503 568
37.31514 585
37.33526 541
37.35537 556
37.37548 524
37.3956 570
37.41571 538
37.43582 545
37.45594 548
37.47605 574
37.49617 563
37.51628 516
37.53639 575
37.55651 510
37.57662 546
37.59673 569
37.61685 556
37.63696 527
37.65708 527
37.67719 609
37.6973 590
37.71742 543
37.73753 570
37.75764 592
37.77776 629
37.79787 563
37.81798 549
37.8381 533
37.85821 566
37.87833 541
37.89844 531
37.91855 535
37.93867 483
37.95878 523
37.97889 503
37.99901 499
38.01912 570
38.03924 498
38.05935 510
38.07946 493
38.09958 528
38.11969 536
38.1398 539
38.15992 499
38.18003 507
38.20015 541
38.22026 517
38.24037 516
38.26049 501
38.2806 546
38.30071 579
38.32083 517
38.34094 522
38.36105 529
38.38117 534
38.40128 554
38.4214 558
38.44151 559
38.46162 537
38.48174 527
38.50185 517
38.52196 511
38.54208 509
38.56219 522
38.58231 514
38.60242 524
38.62253 503
38.64265 486
38.66276 511
38.68287 522
38.70299 478
38.7231 480
38.74321 526
38.76333 493
38.78344 511
38.80356 461
38.82367 478
38.84378 486
38.8639 478
38.88401 572
38.90412 458
38.92424 527
38.94435 490
38.96447 520
38.98458 559
39.00469 470
39.02481 446
39.04492 467
39.06503 475
39.08515 497
39.10526 509
39.12538 488
39.14549 502
39.1656 523
39.18572 491
39.20583 535
39.22594 506
39.24606 542
39.26617 569
39.28628 592
39.3064 605
39.32651 670
39.34663 676
39.36674 712
39.38685 701
39.40697 775
39.42708 763
39.44719 680
39.46731 681
39.48742 608
39.50754 654
39.52765 616
39.54776 559
39.56788 545
39.58799 532
39.6081 542
39.62822 475
39.64833 461
39.66845 495
39.68856 508
39.70867 482
39.72879 496
39.7489 486
39.76901 503
39.78913 460
39.80924 509
39.82935 508
39.84947 494
39.86958 493
39.8897 449
39.90981 529
39.92992 468
39.95004 526
39.97015 477
39.99026 487
40.01038 483
40.03049 506
40.05061 483
40.07072 512
40.09083 517
40.11095 545
40.13106 535
40.15117 569
40.17129 564
40.1914 635
40.21152 604
40.23163 616
40.25174 592
40.27186 543
40.29197 569
40.31208 536
40.3322 536
40.35231 566
40.37242 525
40.39254 495
40.41265 494
40.43277 471
40.45288 483
40.47299 508
40.49311 444
40.51322 444
40.53333 456
40.55345 468
40.57356 477
40.59368 432
40.61379 485
40.6339 483
40.65402 415
40.67413 470
40.69424 480
40.71436 506
40.73447 504
40.75458 468
40.7747 524
40.79481 488
40.81493 475
40.83504 480
40.85515 463
40.87527 465
40.89538 458
40.91549 480
40.93561 487
40.95572 464
40.97584 473
40.99595 462
41.01606 458
41.03618 458
41.05629 461
41.0764 492
41.09652 480
41.11663 458
41.13675 466
41.15686 437
41.17697 507
41.19709 469
41.2172 504
41.23731 444
41.25743 466
41.27754 482
41.29765 457
41.31777 484
41.33788 505
41.358 503
41.37811 473
41.39822 466
41.41834 490
41.43845 477
41.45856 493
41.47868 474
41.49879 480
41.51891 469
41.53902 471
41.55913 449
41.57925 489
41.59936 480
41.61947 472
41.63959 497
41.6597 521
41.67982 498
41.69993 518
41.72004 507
41.74016 522
41.76027 509
41.78038 522
41.8005 536
41.82061 479
41.84072 462
41.86084 495
41.88095 453
41.90107 474
41.92118 489
41.94129 465
41.96141 479
41.98152 451
42.00163 489
42.02175 460
42.04186 460
42.06198 457
42.08209 491
42.1022 427
42.12232 476
42.14243 429
42.16254 458
42.18266 496
42.20277 498
42.22289 473
42.243 520
42.26311 507
42.28323 543
42.30334 571
42.32345 590
42.34357 651
42.36368 658
42.38379 632
42.40391 650
42.42402 610
42.44414 620
42.46425 575
42.48436 528
42.50448 547
42.52459 539
42.5447 516
42.56482 515
42.58493 464
42.60505 496
42.62516 461
42.64527 477
42.66539 435
42.6855 400
42.70561 447
42.72573 478
42.74584 475
42.76595 442
42.78607 420
42.80618 429
42.8263 422
42.84641 424
42.86652 447
42.88664 446
42.90675 420
42.92686 419
42.94698 429
42.96709 401
42.98721 404
43.00732 453
43.02743 423
43.04755 413
43.06766 418
43.08777 399
43.10789 415
43.128 425
43.14812 420
43.16823 428
43.18834 409
43.20846 428
43.22857 416
43.24868 393
43.2688 427
43.28891 409
43.30902 407
43.32914 425
43.34925 381
43.36937 436
43.38948 424
43.40959 394
43.42971 428
43.44982 434
43.46993 434
43.49005 448
43.51016 454
43.53028 405
43.55039 435
43.5705 410
43.59062 397
43.61073 391
43.63084 385
43.65096 421
43.67107 350
43.69119 418
43.7113 380
43.73141 392
43.75153 382
43.77164 374
43.79175 398
43.81187 405
43.83198 407
43.85209 378
43.87221 384
43.89232 402
43.91244 420
43.93255 410
43.95266 399
43.97278 432
43.99289 408
44.013 382
44.03312 427
44.05323 378
44.07335 414
44.09346 407
44.11357 439
44.13369 410
44.1538 432
44.17391 423
44.19403 395
44.21414 440
44.23426 420
44.25437 413
44.27448 433
44.2946 418
44.31471 411
44.33482 425
44.35494 426
44.37505 435
44.39516 420
44.41528 426
44.43539 391
44.45551 417
44.47562 413
44.49573 427
44.51585 409
44.53596 440
44.55607 385
44.57619 394
44.5963 419
44.61642 413
44.63653 397
44.65664 407
44.67676 425
44.69687 432
44.71698 409
44.7371 441
44.75721 439
44.77732 412
44.79744 432
44.81755 439
44.83767 429
44.85778 462
44.87789 402
44.89801 436
44.91812 440
44.93823 435
44.95835 456
44.97846 419
44.99858 417
45.01869 471
45.0388 460
45.05892 454
45.07903 515
45.09914 439
45.11926 473
45.13937 464
45.15949 529
45.1796 530
45.19971 494
45.21983 575
45.23994 581
45.26005 610
45.28017 640
45.30028 652
45.32039 726
45.34051 766
45.36062 766
45.38074 704
45.40085 742
45.42096 707
45.44108 670
45.46119 705
45.4813 621
45.50142 621
45.52153 584
45.54165 575
45.56176 567
45.58187 539
45.60199 497
45.6221 552
45.64221 583
45.66233 532
45.68244 560
45.70256 575
45.72267 577
45.74278 549
45.7629 592
45.78301 515
45.80312 587
45.82324 483
45.84335 540
45.86346 513
45.88358 485
45.90369 425
45.92381 480
45.94392 442
45.96403 413
45.98415 423
46.00426 415
46.02437 417
46.04449 429
46.0646 457
46.08472 430
46.10483 443
46.12494 437
46.14506 420
46.16517 430
46.18528 450
46.2054 386
46.22551 393
46.24563 384
46.26574 411
46.28585 438
46.30597 429
46.32608 409
46.34619 387
46.36631 408
46.38642 388
46.40653 417
46.42665 361
46.44676 439
46.46688 432
46.48699 339
46.5071 389
46.52722 436
46.54733 406
46.56744 386
46.58756 393
46.60767 412
46.62779 402
46.6479 393
46.66801 404
46.68813 394
46.70824 409
46.72835 410
46.74847 420
46.76858 428
46.78869 438
46.80881 378
46.82892 425
46.84904 393
46.86915 414
46.88926 388
46.90938 408
46.92949 385
46.9496 409
46.96972 411
46.98983 407
47.00995 419
47.03006 414
47.05017 451
47.07029 392
47.0904 406
47.11051 418
47.13063 409
47.15074 420
47.17086 430
47.19097 408
47.21108 387
47.2312 406
47.25131 395
47.27142 416
47.29154 433
47.31165 395
47.33176 418
47.35188 388
47.37199 416
47.39211 396
47.41222 410
47.43233 409
47.45245 396
47.47256 354
47.49267 375
47.51279 399
47.5329 434
47.55302 430
47.57313 383
47.59324 388
47.61336 418
47.63347 436
47.65358 419
47.6737 417
47.69381 381
47.71393 391
47.73404 416
47.75415 416
47.77427 386
47.79438 402
47.81449 406
47.83461 366
47.85472 419
47.87483 434
47.89495 409
47.91506 419
47.93518 427
47.95529 380
47.9754 404
47.99552 388
48.01563 404
48.03574 381
48.05586 401
48.07597 377
48.09609 392
48.1162 390
48.13631 395
48.15643 386
48.17654 373
48.19665 385
48.21677 384
48.23688 360
48.257 401
48.27711 441
48.29722 396
48.31734 412
48.33745 387
48.35756 407
48.37768 388
48.39779 356
48.4179 365
48.43802 362
48.45813 391
48.47825 400
48.49836 370
48.51847 391
48.53859 396
48.5587 389
48.57881 382
48.59893 379
48.61904 392
48.63916 364
48.65927 380
48.67938 428
48.6995 442
48.71961 373
48.73972 381
48.75984 417
48.77995 383
48.80006 390
48.82018 397
48.84029 418
48.86041 353
48.88052 401
48.90063 397
48.92075 415
48.94086 392
48.96097 433
48.98109 391
49.0012 422
49.02132 386
49.04143 387
49.06154 405
49.08166 414
49.10177 430
49.12188 416
49.142 403
49.16211 360
49.18223 420
49.20234 380
49.22245 394
49.24257 400
49.26268 391
49.28279 377
49.30291 412
49.32302 379
49.34313 419
49.36325 401
49.38336 380
49.40348 414
49.42359 422
49.4437 355
49.46382 368
49.48393 381
49.50404 393
49.52416 381
49.54427 375
49.56439 379
49.5845 374
49.60461 438
49.62473 415
49.64484 406
49.66495 422
49.68507 474
49.70518 397
49.7253 420
49.74541 381
49.76552 451
49.78564 460
49.80575 471
49.82586 483
49.84598 447
49.86609 498
49.8862 493
49.90632 541
49.92643 502
49.94655 526
49.96666 644
49.98677 658
50.00689 715
50.027 768
50.04711 826
50.06723 844
50.08734 845
50.10746 745
50.12757 726
50.14768 705
50.1678 637
50.18791 616
50.20802 557
50.22814 551
50.24825 517
50.26837 488
50.28848 464
50.30859 478
50.32871 408
50.34882 417
50.36893 395
50.38905 414
50.40916 453
50.42927 438
50.44939 430
50.4695 406
50.48962 444
50.50973 408
50.52984 450
50.54996 458
50.57007 426
50.59018 447
50.6103 463
50.63041 456
50.65053 437
50.67064 426
50.69075 431
50.71087 405
50.73098 412
50.75109 383
50.77121 408
50.79132 410
50.81143 387
50.83155 409
50.85166 386
50.87178 420
50.89189 414
50.912 387
50.93212 386
50.95223 380
50.97234 410
50.99246 371
51.01257 348
51.03269 386
51.0528 397
51.07291 428
51.09303 404
51.11314 365
51.13325 379
51.15337 385
51.17348 396
51.1936 372
51.21371 405
51.23382 391
51.25394 414
51.27405 410
51.29416 358
51.31428 361
51.33439 347
51.3545 376
51.37462 361
51.39473 361
51.41485 415
51.43496 381
51.45507 360
51.47519 347
51.4953 374
51.51541 376
51.53553 420
51.55564 366
51.57576 342
51.59587 370
51.61598 352
51.6361 380
51.65621 339
51.67632 377
51.69644 361
51.71655 357
51.73667 344
51.75678 387
51.77689 363
51.79701 379
51.81712 362
51.83723 353
51.85735 364
51.87746 356
51.89757 354
51.91769 404
51.9378 329
51.95792 368
51.97803 375
51.99814 380
52.01826 358
52.03837 360
52.05848 387
52.0786 341
52.09871 365
52.11883 366
52.13894 370
52.15905 346
52.17917 399
52.19928 354
52.21939 361
52.23951 383
52.25962 382
52.27974 383
52.29985 370
52.31996 364
52.34008 399
52.36019 357
52.3803 395
52.40042 389
52.42053 426
52.44064 358
52.46076 392
52.48087 384
52.50099 407
52.5211 365
52.54121 403
52.56133 374
52.58144 383
52.60155 407
52.62167 380
52.64178 385
52.6619 413
52.68201 407
52.70212 430
52.72224 387
52.74235 376
52.76246 399
52.78258 380
52.80269 464
52.8228 386
52.84292 411
52.86303 420
52.88315 393
52.90326 410
52.92337 404
52.94349 380
52.9636 396
52.98371 418
53.00383 402
53.02394 434
53.04406 432
53.06417 443
53.08428 406
53.1044 424
53.12451 402
53.14462 432
53.16474 429
53.18485 455
53.20497 444
53.22508 483
53.24519 440
53.26531 420
53.28542 415
53.30553 437
53.32565 460
53.34576 409
53.36587 432
53.38599 445
53.4061 400
53.42622 449
53.44633 423
53.46644 432
53.48656 391
53.50667 400
53.52678 426
53.5469 417
53.56701 444
53.58713 418
53.60724 455
53.62735 431
53.64747 449
53.66758 424
53.68769 417
53.70781 458
53.72792 484
53.74804 475
53.76815 480
53.78826 435
53.80838 442
53.82849 423
53.8486 453
53.86872 474
53.88883 455
53.90894 445
53.92906 473
53.94917 450
53.96929 432
53.9894 421
54.00951 426
54.02963 454
54.04974 416
54.06985 462
54.08997 459
54.11008 434
54.1302 462
54.15031 462
54.17042 480
54.19054 481
54.21065 490
54.23076 451
54.25088 438
54.27099 448
54.29111 475
54.31122 458
54.33133 443
54.35145 455
54.37156 452
54.39167 483
54.41179 435
54.4319 473
54.45201 458
54.47213 447
54.49224 460
54.51236 437
54.53247 471
54.55258 472
54.5727 496
54.59281 489
54.61292 464
54.63304 504
54.65315 514
54.67327 544
54.69338 501
54.71349 504
54.73361 565
54.75372 572
54.77383 644
54.79395 593
54.81406 586
54.83417 586
54.85429 561
54.8744 530
54.89452 576
54.91463 507
54.93474 504
54.95486 485
54.97497 510
54.99508 540
55.0152 517
55.03531 443
55.05543 502
55.07554 484
55.09565 504
55.11577 509
55.13588 466
55.15599 493
55.17611 467
55.19622 468
55.21634 520
55.23645 493
55.25656 471
55.27668 436
55.29679 535
55.3169 514
55.33702 499
55.35713 458
55.37724 460
55.39736 490
55.41747 447
55.43759 429
55.4577 448
55.47781 471
55.49793 443
55.51804 449
55.53815 407
55.55827 403
55.57838 423
55.5985 432
55.61861 445
55.63872 415
55.65884 455
55.67895 437
55.69906 447
55.71918 395
55.73929 440
55.75941 427
55.77952 455
55.79963 436
55.81975 418
55.83986 396
55.85997 436
55.88009 377
55.9002 416
55.92031 442
55.94043 422
55.96054 393
55.98066 439
56.00077 396
56.02088 432
56.041 394
56.06111 404
56.08122 425
56.10134 406
56.12145 416
56.14157 412
56.16168 467
56.18179 462
56.20191 432
56.22202 414
56.24213 431
56.26225 438
56.28236 471
56.30248 467
56.32259 478
56.3427 506
56.36282 483
56.38293 517
56.40304 457
56.42316 464
56.44327 451
56.46338 443
56.4835 428
56.50361 441
56.52373 455
56.54384 470
56.56395 458
56.58407 416
56.60418 400
56.62429 398
56.64441 414
56.66452 445
56.68464 414
56.70475 401
56.72486 408
56.74498 421
56.76509 399
56.7852 428
56.80532 401
56.82543 435
56.84554 387
56.86566 364
56.88577 407
56.90589 388
56.926 387
56.94611 397
56.96623 370
56.98634 384
57.00645 411
57.02657 389
57.04668 399
57.0668 388
57.08691 368
57.10702 427
57.12714 423
57.14725 394
57.16736 406
57.18748 356
57.20759 405
57.22771 407
57.24782 423
57.26793 378
57.28805 419
57.30816 383
57.32827 417
57.34839 423
57.3685 394
57.38861 405
57.40873 377
57.42884 417
57.44896 389
57.46907 399
57.48918 374
57.5093 387
57.52941 376
57.54952 372
57.56964 395
57.58975 404
57.60987 412
57.62998 391
57.65009 387
57.67021 362
57.69032 386
57.71043 367
57.73055 371
57.75066 424
57.77078 350
57.79089 368
57.811 387
57.83112 390
57.85123 405
57.87134 381
57.89146 381
57.91157 373
57.93168 363
57.9518 388
57.97191 395
57.99203 396
58.01214 371
58.03225 365
58.05237 413
58.07248 358
58.09259 386
58.11271 366
58.13282 361
58.15294 394
58.17305 368
58.19316 380
58.21328 399
58.23339 370
58.2535 380
58.27362 374
58.29373 389
58.31385 370
58.33396 380
58.35407 393
58.37419 372
58.3943 376
58.41441 401
58.43453 334
58.45464 375
58.47475 372
58.49487 424
58.51498 388
58.5351 395
58.55521 354
58.57532 384
58.59544 355
58.61555 420
58.63566 370
58.65578 362
58.67589 416
58.69601 384
58.71612 382
58.73623 403
58.75635 392
58.77646 380
58.79657 397
58.81669 391
58.8368 386
58.85691 382
58.87703 394
58.89714 375
58.91726 401
58.93737 395
58.95748 404
58.9776 404
58.99771 372
59.01782 443
59.03794 373
59.05805 382
59.07817 367
59.09828 381
59.11839 395
59.13851 393
59.15862 394
59.17873 410
59.19885 351
59.21896 395
59.23908 404
59.25919 398
59.2793 406
59.29942 381
59.31953 399
59.33964 384
59.35976 363
59.37987 387
59.39998 402
59.4201 393
59.44021 397
59.46033 385
59.48044 449
59.50055 371
59.52067 418
59.54078 383
59.56089 385
59.58101 366
59.60112 416
59.62124 362
59.64135 426
59.66146 419
59.68158 434
59.70169 438
59.7218 464
59.74192 472
59.76203 485
59.78215 561
59.80226 591
59.82237 662
59.84249 701
59.8626 726
59.88271 747
59.90283 681
59.92294 627
59.94305 612
59.96317 567
59.98328 529
60.0034 560
60.02351 603
60.04362 548
60.06374 563
60.08385 489
60.10396 509
60.12408 426
60.14419 425
60.16431 416
60.18442 436
60.20453 433
60.22465 401
60.24476 421
60.26487 435
60.28499 429
60.3051 446
60.32522 439
60.34533 419
60.36544 406
60.38556 431
60.40567 405
60.42578 383
60.4459 391
60.46601 395
60.48612 394
60.50624 396
60.52635 433
60.54647 414
60.56658 434
60.58669 405
60.60681 403
60.62692 388
60.64703 407
60.66715 409
60.68726 377
60.70738 406
60.72749 389
60.7476 383
60.76772 416
60.78783 439
60.80794 409
60.82806 408
60.84817 376
60.86828 411
60.8884 429
60.90851 378
60.92863 413
60.94874 411
60.96885 414
60.98897 414
61.00908 405
61.02919 427
61.04931 415
61.06942 427
61.08954 443
61.10965 437
61.12976 394
61.14988 423
61.16999 440
61.1901 398
61.21022 452
61.23033 439
61.25045 481
61.27056 436
61.29067 460
61.31079 479
61.3309 456
61.35101 466
61.37113 487
61.39124 448
61.41135 474
61.43147 483
61.45158 468
61.4717 450
61.49181 510
61.51192 499
61.53204 484
61.55215 479
61.57226 496
61.59238 474
61.61249 496
61.63261 520
61.65272 468
61.67283 484
61.69295 478
61.71306 497
61.73317 496
61.75329 479
61.7734 464
61.79352 517
61.81363 486
61.83374 513
61.85386 444
61.87397 485
61.89408 480
61.9142 505
61.93431 479
61.95442 476
61.97454 482
61.99465 487
62.01477 454
62.03488 473
62.05499 490
62.07511 471
62.09522 505
62.11533 476
62.13545 486
62.15556 459
62.17568 472
62.19579 475
62.2159 479
62.23602 459
62.25613 486
62.27624 457
62.29636 457
62.31647 482
62.33659 433
62.3567 394
62.37681 433
62.39693 450
62.41704 429
62.43715 450
62.45727 451
62.47738 401
62.49749 420
62.51761 403
62.53772 410
62.55784 437
62.57795 414
62.59806 408
62.61818 381
62.63829 379
62.6584 400
62.67852 386
62.69863 362
62.71875 381
62.73886 382
62.75897 382
62.77909 387
62.7992 373
62.81931 369
62.83943 376
62.85954 394
62.87965 449
62.89977 390
62.91988 386
62.94 363
62.96011 367
62.98022 362
63.00034 383
63.02045 355
63.04056 376
63.06068 353
63.08079 390
63.10091 389
63.12102 377
63.14113 380
63.16125 381
63.18136 358
63.20147 417
63.22159 366
63.2417 383
63.26182 391
63.28193 350
63.30204 386
63.32216 368
63.34227 362
63.36238 378
63.3825 350
63.40261 371
63.42272 388
63.44284 343
63.46295 382
63.48307 382
63.50318 382
63.52329 380
63.54341 417
63.56352 379
63.58363 383
63.60375 426
63.62386 365
63.64398 366
63.66409 381
63.6842 385
63.70432 379
63.72443 363
63.74454 389
63.76466 384
63.78477 389
63.80489 415
63.825 422
63.84511 392
63.86523 395
63.88534 416
63.90545 444
63.92557 371
63.94568 432
63.96579 402
63.98591 410
64.00602 439
64.02614 393
64.04625 410
64.06636 416
64.08648 384
64.10659 381
64.1267 398
64.14682 395
64.16693 400
64.18705 371
64.20716 359
64.22727 343
64.24739 355
64.2675 344
64.28761 401
64.30773 346
64.32784 353
64.34796 347
64.36807 359
64.38818 366
64.4083 379
64.42841 338
64.44852 355
64.46864 352
64.48875 359
64.50886 358
64.52898 354
64.54909 343
64.56921 328
64.58932 333
64.60943 327
64.62955 351
64.64966 349
64.66977 347
64.68989 363
64.71 362
64.73012 388
64.75023 348
64.77034 346
64.79046 340
64.81057 342
64.83068 344
64.8508 332
64.87091 375
64.89102 355
64.91114 331
64.93125 328
64.95137 360
64.97148 328
64.99159 311
65.01171 369
65.03182 344
65.05193 367
65.07205 351
65.09216 344
65.11228 355
65.13239 354
65.1525 353
65.17262 362
65.19273 317
65.21284 363
65.23296 377
65.25307 360
65.27319 354
65.2933 358
65.31341 352
65.33353 382
65.35364 339
65.37375 343
65.39387 324
65.41398 363
65.43409 357
65.45421 364
65.47432 353
65.49444 371
65.51455 351
65.53466 352
65.55478 308
65.57489 350
65.595 334
65.61512 319
65.63523 380
65.65535 339
65.67546 342
65.69557 328
65.71569 356
65.7358 374
65.75591 343
65.77603 346
65.79614 343
65.81626 373
65.83637 368
65.85648 335
65.8766 337
65.89671 338
65.91682 358
65.93694 308
65.95705 329
65.97716 355
65.99728 331
66.01739 355
66.03751 342
66.05762 361
66.07773 335
66.09785 354
66.11796 387
66.13807 364
66.15819 364
66.1783 328
66.19842 342
66.21853 349
66.23864 330
66.25876 367
66.27887 346
66.29898 354
66.3191 375
66.33921 309
66.35933 330
66.37944 348
66.39955 324
66.41967 324
66.43978 362
66.45989 337
66.48001 357
66.50012 332
66.52023 340
66.54035 348
66.56046 320
66.58058 342
66.60069 341
66.6208 343
66.64092 336
66.66103 338
66.68114 331
66.70126 322
66.72137 347
66.74149 324
66.7616 352
66.78171 350
66.80183 324
66.82194 346
66.84205 316
66.86217 333
66.88228 340
66.90239 315
66.92251 332
66.94262 334
66.96274 356
66.98285 363
67.00296 327
67.02308 353
67.04319 357
67.0633 357
67.08342 325
67.10353 364
67.12365 350
67.14376 345
67.16387 336
67.18399 309
67.2041 327
67.22421 343
67.24433 354
67.26444 324
67.28456 342
67.30467 379
67.32478 322
67.3449 342
67.36501 376
67.38512 347
67.40524 358
67.42535 357
67.44546 322
67.46558 397
67.48569 376
67.50581 374
67.52592 407
67.54603 402
67.56615 429
67.58626 480
67.60637 468
67.62649 486
67.6466 501
67.66672 521
67.68683 472
67.70694 455
67.72706 450
67.74717 476
67.76728 438
67.7874 423
67.80751 446
67.82763 473
67.84774 461
67.86785 442
67.88797 459
67.90808 454
67.92819 510
67.94831 449
67.96842 496
67.98853 466
68.00865 488
68.02876 549
68.04888 563
68.06899 580
68.0891 579
68.10922 544
68.12933 515
68.14944 573
68.16956 528
68.18967 536
68.20979 532
68.2299 559
68.25001 540
68.27013 514
68.29024 517
68.31035 479
68.33047 460
68.35058 441
68.3707 431
68.39081 414
68.41092 421
68.43104 407
68.45115 394
68.47126 381
68.49138 383
68.51149 364
68.5316 370
68.55172 353
68.57183 361
68.59195 350
68.61206 375
68.63217 337
68.65229 357
68.6724 325
68.69251 357
68.71263 332
68.73274 345
68.75286 389
68.77297 354
68.79308 367
68.8132 353
68.83331 344
68.85342 355
68.87354 337
68.89365 360
68.91376 362
68.93388 328
68.95399 374
68.97411 361
68.99422 349
69.01433 316
69.03445 352
69.05456 391
69.07467 353
69.09479 348
69.1149 347
69.13502 331
69.15513 356
69.17524 304
69.19536 320
69.21547 343
69.23558 358
69.2557 347
69.27581 368
69.29593 330
69.31604 348
69.33615 366
69.35627 369
69.37638 355
69.39649 350
69.41661 326
69.43672 367
69.45683 358
69.47695 350
69.49706 330
69.51718 351
69.53729 359
69.5574 351
69.57752 313
69.59763 359
69.61774 363
69.63786 345
69.65797 325
69.67809 352
69.6982 316
69.71831 345
69.73843 345
69.75854 334
69.77865 318
69.79877 320
69.81888 362
69.839 366
69.85911 338
69.87922 332
69.89934 329
69.91945 309
69.93956 345
69.95968 327
69.97979 340
69.9999 352
70.02002 309
70.04013 314
70.06025 371
70.08036 303
70.10047 333
70.12059 332
70.1407 332
70.16081 313
70.18093 353
70.20104 338
70.22116 335
70.24127 318
70.26138 290
70.2815 361
70.30161 326
70.32172 293
70.34184 334
70.36195 298
70.38207 356
70.40218 319
70.42229 340
70.44241 320
70.46252 326
70.48263 351
70.50275 324
70.52286 315
70.54297 325
70.56309 316
70.5832 345
70.60332 306
70.62343 302
70.64354 323
70.66366 306
70.68377 306
70.70388 302
70.724 323
70.74411 342
70.76423 339
70.78434 345
70.80445 349
70.82457 316
70.84468 354
70.86479 321
70.88491 324
70.90502 350
70.92513 353
70.94525 317
70.96536 333
70.98548 322
71.00559 317
71.0257 310
71.04582 346
71.06593 289
71.08604 343
71.10616 341
71.12627 344
71.14639 326
71.1665 332
71.18661 342
71.20673 332
71.22684 330
71.24695 355
71.26707 335
71.28718 345
71.3073 323
71.32741 343
71.34752 317
71.36764 348
71.38775 323
71.40786 329
71.42798 347
71.44809 331
71.4682 365
71.48832 328
71.50843 336
71.52855 338
71.54866 327
71.56877 317
71.58889 313
71.609 330
71.62911 325
71.64923 359
71.66934 330
71.68946 313
71.70957 357
71.72968 313
71.7498 343
71.76991 349
71.79002 360
71.81014 338
71.83025 343
71.85037 346
71.87048 340
71.89059 323
71.91071 346
71.93082 317
71.95093 324
71.97105 358
71.99116 334
72.01127 345
72.03139 342
72.0515 334
72.07162 304
72.09173 345
72.11184 339
72.13196 369
72.15207 333
72.17218 315
72.1923 353
72.21241 358
72.23253 325
72.25264 350
72.27275 381
72.29287 361
72.31298 347
72.33309 349
72.35321 346
72.37332 351
72.39344 352
72.41355 356
72.43366 369
72.45378 331
72.47389 360
72.494 355
72.51412 355
72.53423 391
72.55434 321
72.57446 342
72.59457 341
72.61469 383
72.6348 337
72.65491 331
72.67503 344
72.69514 368
72.71525 335
72.73537 358
72.75548 373
72.7756 339
72.79571 376
72.81582 365
72.83594 380
72.85605 347
72.87616 333
72.89628 331
72.91639 359
72.9365 362
72.95662 388
72.97673 325
72.99685 370
73.01696 389
73.03707 363
73.05719 387
73.0773 352
73.09741 353
73.11753 365
73.13764 358
73.15776 369
73.17787 379
73.19798 350
73.2181 375
73.23821 383
73.25832 376
73.27844 398
73.29855 387
73.31867 349
73.33878 374
73.35889 401
73.37901 364
73.39912 406
73.41923 403
73.43935 390
73.45946 345
73.47957 362
73.49969 378
73.5198 412
73.53992 359
73.56003 381
73.58014 345
73.60026 374
73.62037 351
73.64048 357
73.6606 382
73.68071 383
73.70083 340
73.72094 362
73.74105 334
73.76117 359
73.78128 354
73.80139 351
73.82151 370
73.84162 312
73.86174 344
73.88185 363
73.90196 346
73.92208 319
73.94219 326
73.9623 321
73.98242 355
74.00253 328
74.02264 321
74.04276 324
74.06287 331
74.08299 315
74.1031 310
74.12321 320
74.14333 338
74.16344 347
74.18355 314
74.20367 315
74.22378 324
74.2439 339
74.26401 330
74.28412 327
74.30424 328
74.32435 323
74.34446 326
74.36458 307
74.38469 326
74.40481 313
74.42492 332
74.44503 299
74.46515 319
74.48526 322
74.50537 321
74.52549 345
74.5456 343
74.56571 329
74.58583 314
74.60594 326
74.62606 333
74.64617 335
74.66628 323
74.6864 309
74.70651 339
74.72662 338
74.74674 371
74.76685 327
74.78697 303
74.80708 359
74.82719 339
74.84731 339
74.86742 321
74.88753 314
74.90765 337
74.92776 332
74.94787 336
74.96799 349
74.9881 368
75.00822 365
