3.00117 20670
3.02128 20134
3.0414 19713
3.06151 18898
3.08162 18694
3.10174 17704
3.12185 17647
3.14197 17013
3.16208 15908
3.18219 16361
3.20231 15267
3.22242 15168
3.24253 14864
3.26265 14049
3.28276 13772
3.30288 13301
3.32299 13033
3.3431 12468
3.36322 12140
3.38333 11789
3.40344 11226
3.42356 10773
3.44367 10618
3.46379 9904
3.4839 9981
3.50401 9335
3.52413 8968
3.54424 8772
3.56435 8265
3.58447 8267
3.60458 7793
3.62469 7843
3.64481 7569
3.66492 6801
3.68504 6807
3.70515 6648
3.72526 6118
3.74538 5940
3.76549 5492
3.7856 5637
3.80572 5070
3.82583 5079
3.84595 4969
3.86606 4501
3.88617 4457
3.90629 4129
3.9264 4039
3.94651 3931
3.96663 3502
3.98674 3632
4.00686 3363
4.02697 3102
4.04708 3241
4.0672 2875
4.08731 2855
4.10742 2803
4.12754 2496
4.14765 2621
4.16776 2292
4.18788 2254
4.20799 2204
4.22811 2101
4.24822 2209
4.26833 1802
4.28845 1831
4.30856 1815
4.32867 1775
4.34879 1849
4.3689 1515
4.38902 1507
4.40913 1595
4.42924 1578
4.44936 1559
4.46947 1382
4.48958 1448
4.5097 1386
4.52981 1294
4.54992 1376
4.57004 1215
4.59015 1204
4.61027 1075
4.63038 1191
4.65049 1220
4.67061 1098
4.69072 1011
4.71083 1060
4.73095 1034
4.75106 1065
4.77118 943
4.79129 938
4.8114 938
4.83152 952
4.85163 922
4.87174 859
4.89186 829
4.91197 909
4.93209 813
4.9522 818
4.97231 805
4.99243 732
5.01254 759
5.03265 784
5.05277 704
5.07288 675
5.09299 690
5.11311 719
5.13322 626
5.15334 691
5.17345 601
5.19356 609
5.21368 636
5.23379 584
5.2539 567
5.27402 528
5.29413 549
5.31425 528
5.33436 528
5.35447 483
5.37459 478
5.3947 471
5.41481 500
5.43493 467
5.45504 462
5.47516 420
5.49527 400
5.51538 430
5.5355 449
5.55561 410
5.57572 427
5.59584 403
5.61595 392
5.63606 391
5.65618 352
5.67629 383
5.69641 347
5.71652 333
5.73663 374
5.75675 308
5.77686 349
5.79697 362
5.81709 312
5.8372 363
5.85732 274
5.87743 345
5.89754 343
5.91766 345
5.93777 327
5.95788 305
5.978 277
5.99811 295
6.01823 307
6.03834 284
6.05845 297
6.07857 272
6.09868 264
6.11879 302
6.13891 312
6.15902 296
6.17913 295
6.19925 253
6.21936 282
6.23948 327
6.25959 257
6.2797 271
6.29982 275
6.31993 240
6.34004 252
6.36016 271
6.38027 228
6.40039 298
6.4205 247
6.44061 238
6.46073 264
6.48084 247
6.50095 238
6.52107 258
6.54118 266
6.56129 256
6.58141 276
6.60152 261
6.62164 227
6.64175 249
6.66186 248
6.68198 244
6.70209 210
6.7222 234
6.74232 249
6.76243 285
6.78255 234
6.80266 257
6.82277 266
6.84289 250
6.863 272
6.88311 233
6.90323 233
6.92334 262
6.94346 242
6.96357 243
6.98368 319
7.0038 231
7.02391 259
7.04402 242
7.06414 269
7.08425 260
7.10436 229
7.12448 247
7.14459 256
7.16471 245
7.18482 228
7.20493 258
7.22505 267
7.24516 255
7.26527 263
7.28539 235
7.3055 264
7.32562 249
7.34573 274
7.36584 259
7.38596 235
7.40607 275
7.42618 254
7.4463 274
7.46641 227
7.48653 257
7.50664 276
7.52675 254
7.54687 249
7.56698 263
7.58709 284
7.60721 245
7.62732 264
7.64743 253
7.66755 241
7.68766 249
7.70778 267
7.72789 260
7.748 261
7.76812 291
7.78823 266
7.80834 261
7.82846 279
7.84857 264
7.86869 270
7.8888 281
7.90891 274
7.92903 287
7.94914 265
7.96925 266
7.98937 254
8.00948 278
8.0296 249
8.04971 272
8.06982 245
8.08994 299
8.11005 281
8.13016 289
8.15028 275
8.17039 277
8.1905 267
8.21062 277
8.23073 280
8.25085 273
8.27096 271
8.29107 280
8.31119 302
8.3313 269
8.35141 280
8.37153 290
8.39164 259
8.41176 315
8.43187 263
8.45198 266
8.4721 289
8.49221 324
8.51232 287
8.53244 291
8.55255 298
8.57266 279
8.59278 304
8.61289 307
8.63301 310
8.65312 321
8.67323 345
8.69335 340
8.71346 321
8.73357 342
8.75369 290
8.7738 322
8.79392 307
8.81403 368
8.83414 340
8.85426 301
8.87437 338
8.89448 303
8.9146 313
8.93471 285
8.95483 305
8.97494 314
8.99505 264
9.01517 271
9.03528 276
9.05539 264
9.07551 279
9.09562 267
9.11573 258
9.13585 258
9.15596 267
9.17608 283
9.19619 265
9.2163 232
9.23642 281
9.25653 262
9.27664 272
9.29676 274
9.31687 265
9.33699 223
9.3571 241
9.37721 256
9.39733 240
9.41744 249
9.43755 278
9.45767 259
9.47778 244
9.4979 235
9.51801 223
9.53812 295
9.55824 224
9.57835 256
9.59846 229
9.61858 264
9.63869 254
9.6588 226
9.67892 247
9.69903 259
9.71915 247
9.73926 250
9.75937 271
9.77949 244
9.7996 246
9.81971 229
9.83983 239
9.85994 243
9.88006 228
9.90017 220
9.92028 264
9.9404 262
9.96051 268
9.98062 231
10.00074 253
10.02085 252
10.04097 210
10.06108 285
10.08119 267
10.10131 254
10.12142 245
10.14153 227
10.16165 262
10.18176 256
10.20187 264
10.22199 247
10.2421 245
10.26222 269
10.28233 205
10.30244 238
10.32256 246
10.34267 225
10.36278 277
10.3829 259
10.40301 257
10.42313 236
10.44324 271
10.46335 214
10.48347 241
10.50358 239
10.52369 239
10.54381 235
10.56392 245
10.58403 246
10.60415 244
10.62426 262
10.64438 228
10.66449 247
10.6846 253
10.70472 231
10.72483 224
10.74494 275
10.76506 250
10.78517 224
10.80529 246
10.8254 235
10.84551 246
10.86563 246
10.88574 231
10.90585 226
10.92597 260
10.94608 240
10.9662 266
10.98631 229
11.00642 233
11.02654 240
11.04665 254
11.06676 244
11.08688 229
11.10699 208
11.1271 247
11.14722 243
11.16733 273
11.18745 243
11.20756 252
11.22767 217
11.24779 255
11.2679 225
11.28801 240
11.30813 241
11.32824 233
11.34836 246
11.36847 235
11.38858 208
11.4087 253
11.42881 266
11.44892 247
11.46904 237
11.48915 238
11.50927 229
11.52938 256
11.54949 254
11.56961 268
11.58972 278
11.60983 258
11.62995 253
11.65006 263
11.67017 241
11.69029 221
11.7104 234
11.73052 243
11.75063 248
11.77074 261
11.79086 239
11.81097 248
11.83108 244
11.8512 202
11.87131 226
11.89143 258
11.91154 230
11.93165 255
11.95177 232
11.97188 233
11.99199 249
12.01211 254
12.03222 261
12.05234 257
12.07245 229
12.09256 258
12.11268 228
12.13279 284
12.1529 272
12.17302 268
12.19313 292
12.21324 268
12.23336 274
12.25347 249
12.27359 275
12.2937 241
12.31381 232
12.33393 242
12.35404 234
12.37415 251
12.39427 242
12.41438 259
12.4345 230
12.45461 260
12.47472 255
12.49484 226
12.51495 237
12.53506 246
12.55518 252
12.57529 239
12.5954 253
12.61552 225
12.63563 241
12.65575 261
12.67586 205
12.69597 226
12.71609 211
12.7362 265
12.75631 226
12.77643 259
12.79654 229
12.81666 215
12.83677 213
12.85688 230
12.877 223
12.89711 235
12.91722 218
12.93734 207
12.95745 211
12.97757 243
12.99768 218
13.01779 234
13.03791 249
13.05802 228
13.07813 217
13.09825 187
13.11836 195
13.13847 216
13.15859 227
13.1787 221
13.19882 223
13.21893 214
13.23904 212
13.25916 225
13.27927 219
13.29938 259
13.3195 215
13.33961 194
13.35973 211
13.37984 233
13.39995 231
13.42007 212
13.44018 205
13.46029 213
13.48041 205
13.50052 216
13.52064 228
13.54075 219
13.56086 239
13.58098 216
13.60109 222
13.6212 222
13.64132 227
13.66143 214
13.68154 238
13.70166 219
13.72177 197
13.74189 274
13.762 216
13.78211 219
13.80223 240
13.82234 238
13.84245 252
13.86257 228
13.88268 231
13.9028 213
13.92291 233
13.94302 211
13.96314 225
13.98325 198
14.00336 229
14.02348 228
14.04359 205
14.06371 228
14.08382 182
14.10393 199
14.12405 227
14.14416 190
14.16427 199
14.18439 222
14.2045 229
14.22461 200
14.24473 222
14.26484 229
14.28496 211
14.30507 211
14.32518 204
14.3453 180
14.36541 216
14.38552 206
14.40564 203
14.42575 241
14.44587 218
14.46598 212
14.48609 204
14.50621 214
14.52632 201
14.54643 200
14.56655 193
14.58666 199
14.60677 212
14.62689 213
14.647 185
14.66712 234
14.68723 201
14.70734 203
14.72746 207
14.74757 191
14.76768 226
14.7878 185
14.80791 231
14.82803 175
14.84814 218
14.86825 231
14.88837 235
14.90848 228
14.92859 197
14.94871 216
14.96882 232
14.98894 214
15.00905 231
15.02916 192
15.04928 199
15.06939 218
15.0895 218
15.10962 198
15.12973 187
15.14984 200
15.16996 189
15.19007 195
15.21019 185
15.2303 169
15.25041 213
15.27053 197
15.29064 211
15.31075 181
15.33087 204
15.35098 180
15.3711 205
15.39121 218
15.41132 202
15.43144 197
15.45155 197
15.47166 200
15.49178 204
15.51189 235
15.53201 170
15.55212 207
15.57223 210
15.59235 205
15.61246 207
15.63257 200
15.65269 197
15.6728 189
15.69291 218
15.71303 202
15.73314 193
15.75326 192
15.77337 193
15.79348 176
15.8136 200
15.83371 195
15.85382 187
15.87394 183
15.89405 187
15.91417 182
15.93428 177
15.95439 182
15.97451 187
15.99462 185
16.01473 207
16.03485 193
16.05496 192
16.07508 179
16.09519 208
16.1153 173
16.13542 183
16.15553 194
16.17564 172
16.19576 181
16.21587 192
16.23598 197
16.2561 186
16.27621 186
16.29633 181
16.31644 187
16.33655 168
16.35667 184
16.37678 198
16.39689 214
16.41701 206
16.43712 210
16.45724 204
16.47735 178
16.49746 208
16.51758 200
16.53769 182
16.5578 200
16.57792 203
16.59803 168
16.61814 191
16.63826 204
16.65837 196
16.67849 204
16.6986 179
16.71871 192
16.73883 187
16.75894 197
16.77905 172
16.79917 210
16.81928 168
16.8394 209
16.85951 202
16.87962 180
16.89974 140
16.91985 161
16.93996 178
16.96008 209
16.98019 201
17.00031 212
17.02042 181
17.04053 185
17.06065 188
17.08076 180
17.10087 195
17.12099 182
17.1411 186
17.16121 228
17.18133 198
17.20144 180
17.22156 232
17.24167 199
17.26178 196
17.2819 207
17.30201 196
17.32212 173
17.34224 181
17.36235 202
17.38247 215
17.40258 194
17.42269 192
17.44281 202
17.46292 202
17.48303 209
17.50315 192
17.52326 217
17.54338 213
17.56349 184
17.5836 233
17.60372 222
17.62383 193
17.64394 216
17.66406 229
17.68417 211
17.70428 219
17.7244 196
17.74451 229
17.76463 197
17.78474 213
17.80485 237
17.82497 206
17.84508 219
17.86519 227
17.88531 200
17.90542 198
17.92554 202
17.94565 227
17.96576 187
17.98588 201
18.00599 203
18.0261 194
18.04622 200
18.06633 179
18.08645 196
18.10656 201
18.12667 199
18.14679 213
18.1669 202
18.18701 188
18.20713 192
18.22724 212
18.24735 194
18.26747 189
18.28758 200
18.3077 186
18.32781 186
18.34792 206
18.36804 177
18.38815 206
18.40826 197
18.42838 197
18.44849 216
18.46861 171
18.48872 169
18.50883 198
18.52895 206
18.54906 228
18.56917 200
18.58929 205
18.6094 168
18.62951 201
18.64963 189
18.66974 203
18.68986 202
18.70997 210
18.73008 207
18.7502 202
18.77031 171
18.79042 177
18.81054 203
18.83065 208
18.85077 196
18.87088 194
18.89099 197
18.91111 190
18.93122 197
18.95133 203
18.97145 208
18.99156 207
19.01168 155
19.03179 192
19.0519 219
19.07202 193
19.09213 221
19.11224 209
19.13236 196
19.15247 197
19.17258 200
19.1927 206
19.21281 182
19.23293 204
19.25304 226
19.27315 188
19.29327 199
19.31338 199
19.33349 178
19.35361 229
19.37372 218
19.39384 227
19.41395 234
19.43406 219
19.45418 238
19.47429 252
19.4944 252
19.51452 277
19.53463 261
19.55475 297
19.57486 306
19.59497 370
19.61509 402
19.6352 384
19.65531 420
19.67543 460
19.69554 469
19.71565 448
19.73577 487
19.75588 495
19.776 493
19.79611 500
19.81622 426
19.83634 433
19.85645 452
19.87656 436
19.89668 376
19.91679 415
19.93691 360
19.95702 442
19.97713 402
19.99725 359
20.01736 345
20.03747 316
20.05759 343
20.0777 340
20.09782 390
20.11793 332
20.13804 350
20.15816 350
20.17827 357
20.19838 351
20.2185 370
20.23861 362
20.25872 343
20.27884 370
20.29895 374
20.31907 403
20.33918 380
20.35929 387
20.37941 374
20.39952 391
20.41963 388
20.43975 437
20.45986 454
20.47998 423
20.50009 452
20.5202 534
20.54032 505
20.56043 525
20.58054 593
20.60066 669
20.62077 735
20.64088 913
20.661 1164
20.68111 1423
20.70123 1930
20.72134 2472
20.74145 3371
20.76157 4258
20.78168 5192
20.80179 6178
20.82191 6548
20.84202 6317
20.86214 5549
20.88225 4422
20.90236 3130
20.92248 2138
20.94259 1428
20.9627 956
20.98282 697
21.00293 535
21.02305 561
21.04316 515
21.06327 496
21.08339 435
21.1035 428
21.12361 428
21.14373 403
21.16384 377
21.18395 382
21.20407 347
21.22418 386
21.2443 332
21.26441 353
21.28452 329
21.30464 308
21.32475 344
21.34486 309
21.36498 364
21.38509 275
21.40521 304
21.42532 335
21.44543 320
21.46555 307
21.48566 293
21.50577 319
21.52589 300
21.546 312
21.56612 291
21.58623 312
21.60634 273
21.62646 306
21.64657 275
21.66668 272
21.6868 272
21.70691 302
21.72702 274
21.74714 274
21.76725 302
21.78737 260
21.80748 295
21.82759 289
21.84771 292
21.86782 296
21.88793 287
21.90805 292
21.92816 293
21.94828 328
21.96839 353
21.9885 372
22.00862 364
22.02873 317
22.04884 352
22.06896 316
22.08907 314
22.10919 276
22.1293 252
22.14941 301
22.16953 260
22.18964 272
22.20975 251
22.22987 248
22.24998 275
22.27009 270
22.29021 282
22.31032 288
22.33044 256
22.35055 287
22.37066 275
22.39078 232
22.41089 268
22.431 282
22.45112 301
22.47123 255
22.49135 265
22.51146 280
22.53157 270
22.55169 261
22.5718 271
22.59191 255
22.61203 255
22.63214 257
22.65225 268
22.67237 273
22.69248 260
22.7126 245
22.73271 289
22.75282 292
22.77294 261
22.79305 288
22.81316 279
22.83328 274
22.85339 267
22.87351 270
22.89362 281
22.91373 268
22.93385 288
22.95396 267
22.97407 304
22.99419 319
23.0143 268
23.03442 243
23.05453 289
23.07464 264
23.09476 240
23.11487 241
23.13498 249
23.1551 272
23.17521 272
23.19532 283
23.21544 258
23.23555 251
23.25567 238
23.27578 223
23.29589 258
23.31601 272
23.33612 277
23.35623 271
23.37635 239
23.39646 277
23.41658 253
23.43669 250
23.4568 298
23.47692 320
23.49703 312
23.51714 286
23.53726 295
23.55737 267
23.57749 291
23.5976 282
23.61771 288
23.63783 287
23.65794 284
23.67805 265
23.69817 246
23.71828 274
23.73839 273
23.75851 287
23.77862 277
23.79874 287
23.81885 275
23.83896 292
23.85908 304
23.87919 293
23.8993 325
23.91942 345
23.93953 340
23.95965 301
23.97976 322
23.99987 283
24.01999 323
24.0401 335
24.06021 348
24.08033 295
24.10044 313
24.12056 330
24.14067 311
24.16078 354
24.1809 326
24.20101 342
24.22112 315
24.24124 339
24.26135 326
24.28146 345
24.30158 334
24.32169 315
24.34181 313
24.36192 291
24.38203 316
24.40215 241
24.42226 282
24.44237 272
24.46249 260
24.4826 301
24.50272 261
24.52283 262
24.54294 241
24.56306 261
24.58317 282
24.60328 275
24.6234 285
24.64351 299
24.66362 253
24.68374 298
24.70385 285
24.72397 256
24.74408 259
24.76419 301
24.78431 315
24.80442 288
24.82453 284
24.84465 284
24.86476 276
24.88488 289
24.90499 240
24.9251 266
24.94522 291
24.96533 284
24.98544 301
25.00556 277
25.02567 275
25.04579 264
25.0659 289
25.08601 293
25.10613 283
25.12624 293
25.14635 278
25.16647 286
25.18658 318
25.20669 320
25.22681 326
25.24692 336
25.26704 372
25.28715 342
25.30726 335
25.32738 342
25.34749 345
25.3676 328
25.38772 319
25.40783 341
25.42795 336
25.44806 332
25.46817 313
25.48829 348
25.5084 321
25.52851 372
25.54863 349
25.56874 350
25.58886 340
25.60897 349
25.62908 372
25.6492 386
25.66931 426
25.68942 460
25.70954 452
25.72965 441
25.74976 472
25.76988 488
25.78999 462
25.81011 440
25.83022 516
25.85033 518
25.87045 524
25.89056 491
25.91067 490
25.93079 494
25.9509 500
25.97102 543
25.99113 542
26.01124 600
26.03136 587
26.05147 609
26.07158 670
26.0917 696
26.11181 662
26.13193 746
26.15204 816
26.17215 877
26.19227 853
26.21238 1005
26.23249 1055
26.25261 1126
26.27272 1219
26.29283 1390
26.31295 1557
26.33306 1807
26.35318 2019
26.37329 2312
26.3934 3036
26.41352 3913
26.43363 5079
26.45374 6806
26.47386 9032
26.49397 12140
26.51409 15784
26.5342 20063
26.55431 24656
26.57443 28046
26.59454 29867
26.61465 29089
26.63477 26177
26.65488 21508
26.67499 16330
26.69511 11835
26.71522 8277
26.73534 5147
26.75545 3313
26.77556 2297
26.79568 1856
26.81579 1622
26.8359 1501
26.85602 1318
26.87613 1248
26.89625 1096
26.91636 969
26.93647 910
26.95659 744
26.9767 769
26.99681 710
27.01693 646
27.03704 605
27.05716 583
27.07727 541
27.09738 521
27.1175 492
27.13761 489
27.15772 504
27.17784 472
27.19795 452
27.21806 479
27.23818 459
27.25829 438
27.27841 470
27.29852 463
27.31863 431
27.33875 418
27.35886 428
27.37897 455
27.39909 438
27.4192 420
27.43932 440
27.45943 442
27.47954 411
27.49966 412
27.51977 431
27.53988 407
27.56 378
27.58011 401
27.60023 375
27.62034 433
27.64045 419
27.66057 412
27.68068 416
27.70079 420
27.72091 431
27.74102 485
27.76113 426
27.78125 455
27.80136 460
27.82148 483
27.84159 488
27.8617 512
27.88182 509
27.90193 518
27.92204 493
27.94216 497
27.96227 410
27.98239 420
28.0025 422
28.02261 426
28.04273 380
28.06284 326
28.08295 385
28.10307 397
28.12318 365
28.1433 339
28.16341 410
28.18352 351
28.20364 304
28.22375 371
28.24386 354
28.26398 323
28.28409 305
28.3042 312
28.32432 317
28.34443 339
28.36455 296
28.38466 334
28.40477 293
28.42489 323
28.445 285
28.46511 275
28.48523 291
28.50534 264
28.52546 274
28.54557 282
28.56568 289
28.5858 271
28.60591 296
28.62602 273
28.64614 250
28.66625 288
28.68636 288
28.70648 254
28.72659 277
28.74671 274
28.76682 288
28.78693 284
28.80705 270
28.82716 325
28.84727 292
28.86739 277
28.8875 275
28.90762 299
28.92773 260
28.94784 285
28.96796 257
28.98807 316
29.00818 318
29.0283 277
29.04841 298
29.06853 260
29.08864 307
29.10875 266
29.12887 281
29.14898 286
29.16909 245
29.18921 272
29.20932 282
29.22943 270
29.24955 257
29.26966 294
29.28978 279
29.30989 281
29.33 269
29.35012 251
29.37023 270
29.39034 250
29.41046 290
29.43057 265
29.45069 277
29.4708 258
29.49091 259
29.51103 240
29.53114 253
29.55125 278
29.57137 276
29.59148 257
29.6116 276
29.63171 280
29.65182 264
29.67194 258
29.69205 256
29.71216 283
29.73228 282
29.75239 315
29.7725 249
29.79262 264
29.81273 269
29.83285 288
29.85296 296
29.87307 297
29.89319 267
29.9133 282
29.93341 273
29.95353 275
29.97364 284
29.99376 272
30.01387 245
30.03398 242
30.0541 258
30.07421 280
30.09432 265
30.11444 268
30.13455 249
30.15467 256
30.17478 277
30.19489 256
30.21501 272
30.23512 271
30.25523 238
30.27535 284
30.29546 263
30.31557 260
30.33569 276
30.3558 253
30.37592 244
30.39603 266
30.41614 248
30.43626 304
30.45637 274
30.47648 280
30.4966 267
30.51671 271
30.53683 251
30.55694 271
30.57705 245
30.59717 246
30.61728 239
30.63739 267
30.65751 239
30.67762 234
30.69773 238
30.71785 273
30.73796 232
30.75808 231
30.77819 222
30.7983 241
30.81842 245
30.83853 204
30.85864 225
30.87876 232
30.89887 230
30.91899 243
30.9391 217
30.95921 243
30.97933 233
30.99944 243
31.01955 229
31.03967 259
31.05978 236
31.0799 241
31.10001 232
31.12012 247
31.14024 230
31.16035 256
31.18046 231
31.20058 271
31.22069 259
31.2408 254
31.26092 258
31.28103 251
31.30115 272
31.32126 257
31.34137 246
31.36149 225
31.3816 231
31.40171 264
31.42183 231
31.44194 224
31.46206 260
31.48217 223
31.50228 219
31.5224 217
31.54251 197
31.56262 222
31.58274 208
31.60285 228
31.62297 198
31.64308 206
31.66319 254
31.68331 206
31.70342 214
31.72353 235
31.74365 209
31.76376 208
31.78387 238
31.80399 236
31.8241 217
31.84422 199
31.86433 211
31.88444 240
31.90456 241
31.92467 256
31.94478 224
31.9649 217
31.98501 223
32.00513 199
32.02524 222
32.04535 229
32.06547 236
32.08558 216
32.10569 195
32.12581 182
32.14592 201
32.16604 205
32.18615 240
32.20626 216
32.22638 218
32.24649 225
32.2666 227
32.28672 184
32.30683 231
32.32694 217
32.34706 188
32.36717 195
32.38729 213
32.4074 201
32.42751 201
32.44763 185
32.46774 171
32.48785 179
32.50797 177
32.52808 195
32.5482 203
32.56831 204
32.58842 191
32.60854 176
32.62865 175
32.64876 185
32.66888 172
32.68899 201
32.7091 208
32.72922 199
32.74933 190
32.76945 181
32.78956 208
32.80967 214
32.82979 238
32.8499 228
32.87001 213
32.89013 211
32.91024 239
32.93036 219
32.95047 217
32.97058 253
32.9907 237
33.01081 236
33.03092 233
33.05104 243
33.07115 220
33.09127 231
33.11138 233
33.13149 213
33.15161 221
33.17172 222
33.19183 200
33.21195 242
33.23206 210
33.25217 212
33.27229 201
33.2924 230
33.31252 186
33.33263 202
33.35274 237
33.37286 196
33.39297 226
33.41308 204
33.4332 197
33.45331 195
33.47343 210
33.49354 223
33.51365 195
33.53377 197
33.55388 215
33.57399 196
33.59411 184
33.61422 207
33.63434 206
33.65445 174
33.67456 170
33.69468 207
33.71479 181
33.7349 187
33.75502 207
33.77513 188
33.79524 195
33.81536 187
33.83547 195
33.85559 169
33.8757 195
33.89581 216
33.91593 234
33.93604 208
33.95615 179
33.97627 188
33.99638 189
34.0165 213
34.03661 193
34.05672 215
34.07684 191
34.09695 194
34.11706 174
34.13718 198
34.15729 209
34.17741 231
34.19752 221
34.21763 201
34.23775 196
34.25786 234
34.27797 214
34.29809 206
34.3182 232
34.33831 239
34.35843 251
34.37854 285
34.39866 259
34.41877 282
34.43888 294
34.459 312
34.47911 321
34.49922 339
34.51934 308
34.53945 289
34.55957 311
34.57968 327
34.59979 336
34.61991 290
34.64002 343
34.66013 350
34.68025 337
34.70036 336
34.72047 323
34.74059 375
34.7607 391
34.78082 374
34.80093 395
34.82104 403
34.84116 420
34.86127 414
34.88138 400
34.9015 402
34.92161 376
34.94173 372
34.96184 357
34.98195 384
35.00207 372
35.02218 335
35.04229 348
35.06241 314
35.08252 311
35.10264 314
35.12275 289
35.14286 276
35.16298 271
35.18309 271
35.2032 277
35.22332 264
35.24343 243
35.26354 237
35.28366 227
35.30377 260
35.32389 254
35.344 262
35.36411 234
35.38423 261
35.40434 273
35.42445 269
35.44457 271
35.46468 274
35.4848 257
35.50491 267
35.52502 285
35.54514 253
35.56525 295
35.58536 257
35.60548 271
35.62559 246
35.64571 287
35.66582 227
35.68593 265
35.70605 228
35.72616 247
35.74627 236
35.76639 275
35.7865 248
35.80661 247
35.82673 238
35.84684 250
35.86696 254
35.88707 244
35.90718 270
35.9273 269
35.94741 232
35.96752 244
35.98764 267
36.00775 235
36.02787 267
36.04798 247
36.06809 277
36.08821 270
36.10832 281
36.12843 276
36.14855 302
36.16866 334
36.18878 344
36.20889 364
36.229 351
36.24912 387
36.26923 426
36.28934 480
36.30946 571
36.32957 648
36.34968 788
36.3698 903
36.38991 1143
36.41003 1287
36.43014 1588
36.45025 1756
36.47037 2018
36.49048 2020
36.51059 2010
36.53071 1841
36.55082 1606
36.57094 1376
36.59105 1215
36.61116 1091
36.63128 840
36.65139 656
36.6715 496
36.69162 383
36.71173 313
36.73184 360
36.75196 325
36.77207 320
36.79219 293
36.8123 245
36.83241 260
36.85253 242
36.87264 263
36.89275 257
36.91287 268
36.93298 275
36.9531 259
36.97321 257
36.99332 247
37.01344 251
37.03355 252
37.05366 217
37.07378 245
37.09389 234
37.11401 241
37.13412 199
37.15423 230
37.17435 244
37.19446 248
37.21457 220
37.23469 232
37.2548 224
37.27491 239
37.29503 253
37.31514 273
37.33526 243
37.35537 236
37.37548 254
37.3956 251
37.41571 262
37.43582 245
37.45594 242
37.47605 287
37.49617 262
37.51628 245
37.53639 242
37.55651 229
37.57662 268
37.59673 278
37.61685 246
37.63696 253
37.65708 241
37.67719 232
37.6973 256
37.71742 243
37.73753 263
37.75764 225
37.77776 245
37.79787 224
37.81798 205
37.8381 281
37.85821 268
37.87833 213
37.89844 204
37.91855 231
37.93867 195
37.95878 221
37.97889 223
37.99901 215
38.01912 219
38.03924 241
38.05935 226
38.07946 236
38.09958 217
38.11969 233
38.1398 231
38.15992 220
38.18003 221
38.20015 224
38.22026 200
38.24037 226
38.26049 238
38.2806 222
38.30071 199
38.32083 213
38.34094 201
38.36105 218
38.38117 236
38.40128 231
38.4214 230
38.44151 220
38.46162 224
38.48174 205
38.50185 242
38.52196 209
38.54208 219
38.56219 203
38.58231 222
38.60242 198
38.62253 176
38.64265 217
38.66276 228
38.68287 210
38.70299 218
38.7231 231
38.74321 217
38.76333 220
38.78344 213
38.80356 232
38.82367 229
38.84378 229
38.8639 222
38.88401 238
38.90412 206
38.92424 230
38.94435 215
38.96447 210
38.98458 228
39.00469 249
39.02481 260
39.04492 270
39.06503 264
39.08515 271
39.10526 264
39.12538 300
39.14549 293
39.1656 347
39.18572 391
39.20583 429
39.22594 518
39.24606 603
39.26617 699
39.28628 814
39.3064 989
39.32651 1156
39.34663 1410
39.36674 1572
39.38685 1754
39.40697 1850
39.42708 1939
39.44719 1770
39.46731 1603
39.48742 1331
39.50754 1095
39.52765 1048
39.54776 866
39.56788 691
39.58799 556
39.6081 395
39.62822 345
39.64833 318
39.66845 281
39.68856 284
39.70867 299
39.72879 285
39.7489 247
39.76901 271
39.78913 261
39.80924 282
39.82935 264
39.84947 254
39.86958 238
39.8897 255
39.90981 287
39.92992 277
39.95004 288
39.97015 333
39.99026 307
40.01038 314
40.03049 347
40.05061 358
40.07072 415
40.09083 504
40.11095 546
40.13106 598
40.15117 698
40.17129 831
40.1914 885
40.21152 965
40.23163 1022
40.25174 1065
40.27186 918
40.29197 809
40.31208 725
40.3322 640
40.35231 588
40.37242 469
40.39254 455
40.41265 396
40.43277 302
40.45288 304
40.47299 289
40.49311 237
40.51322 268
40.53333 240
40.55345 210
40.57356 231
40.59368 237
40.61379 231
40.6339 219
40.65402 230
40.67413 229
40.69424 237
40.71436 232
40.73447 203
40.75458 248
40.7747 204
40.79481 262
40.81493 244
40.83504 229
40.85515 214
40.87527 243
40.89538 197
40.91549 224
40.93561 218
40.95572 229
40.97584 240
40.99595 236
41.01606 200
41.03618 220
41.05629 202
41.0764 196
41.09652 210
41.11663 221
41.13675 240
41.15686 276
41.17697 191
41.19709 224
41.2172 218
41.23731 212
41.25743 228
41.27754 213
41.29765 219
41.31777 224
41.33788 211
41.358 207
41.37811 212
41.39822 216
41.41834 192
41.43845 217
41.45856 201
41.47868 188
41.49879 223
41.51891 215
41.53902 220
41.55913 225
41.57925 226
41.59936 255
41.61947 196
41.63959 216
41.6597 208
41.67982 222
41.69993 228
41.72004 232
41.74016 255
41.76027 220
41.78038 242
41.8005 223
41.82061 231
41.84072 259
41.86084 224
41.88095 245
41.90107 247
41.92118 235
41.94129 238
41.96141 258
41.98152 277
42.00163 254
42.02175 262
42.04186 238
42.06198 267
42.08209 265
42.1022 290
42.12232 307
42.14243 329
42.16254 382
42.18266 379
42.20277 459
42.22289 501
42.243 611
42.26311 654
42.28323 787
42.30334 905
42.32345 1055
42.34357 1280
42.36368 1271
42.38379 1406
42.40391 1358
42.42402 1261
42.44414 1189
42.46425 1060
42.48436 900
42.50448 842
42.52459 732
42.5447 601
42.56482 509
42.58493 387
42.60505 355
42.62516 329
42.64527 276
42.66539 246
42.6855 256
42.70561 240
42.72573 239
42.74584 239
42.76595 204
42.78607 243
42.80618 233
42.8263 197
42.84641 195
42.86652 195
42.88664 215
42.90675 210
42.92686 198
42.94698 203
42.96709 207
42.98721 186
43.00732 210
43.02743 199
43.04755 212
43.06766 195
43.08777 192
43.10789 203
43.128 206
43.14812 221
43.16823 213
43.18834 209
43.20846 197
43.22857 197
43.24868 172
43.2688 178
43.28891 209
43.30902 192
43.32914 202
43.34925 205
43.36937 204
43.38948 209
43.40959 202
43.42971 203
43.44982 177
43.46993 218
43.49005 199
43.51016 175
43.53028 180
43.55039 173
43.5705 175
43.59062 180
43.61073 202
43.63084 182
43.65096 179
43.67107 182
43.69119 185
43.7113 204
43.73141 171
43.75153 183
43.77164 194
43.79175 177
43.81187 166
43.83198 160
43.85209 175
43.87221 177
43.89232 189
43.91244 180
43.93255 186
43.95266 177
43.97278 189
43.99289 179
44.013 198
44.03312 171
44.05323 177
44.07335 173
44.09346 187
44.11357 185
44.13369 182
44.1538 169
44.17391 174
44.19403 185
44.21414 192
44.23426 189
44.25437 188
44.27448 169
44.2946 166
44.31471 183
44.33482 195
44.35494 172
44.37505 196
44.39516 175
44.41528 194
44.43539 192
44.45551 203
44.47562 179
44.49573 181
44.51585 179
44.53596 192
44.55607 201
44.57619 180
44.5963 217
44.61642 170
44.63653 199
44.65664 178
44.67676 190
44.69687 179
44.71698 194
44.7371 173
44.75721 184
44.77732 171
44.79744 201
44.81755 180
44.83767 216
44.85778 211
44.87789 185
44.89801 222
44.91812 212
44.93823 186
44.95835 199
44.97846 206
44.99858 191
45.01869 202
45.0388 192
45.05892 229
45.07903 193
45.09914 221
45.11926 208
45.13937 191
45.15949 225
45.1796 206
45.19971 220
45.21983 227
45.23994 235
45.26005 230
45.28017 225
45.30028 217
45.32039 224
45.34051 242
45.36062 235
45.38074 257
45.40085 233
45.42096 239
45.44108 257
45.46119 268
45.4813 294
45.50142 326
45.52153 324
45.54165 329
45.56176 387
45.58187 439
45.60199 533
45.6221 581
45.64221 658
45.66233 751
45.68244 809
45.70256 933
45.72267 901
45.74278 964
45.7629 925
45.78301 834
45.80312 742
45.82324 678
45.84335 604
45.86346 571
45.88358 502
45.90369 445
45.92381 385
45.94392 320
45.96403 259
45.98415 252
46.00426 222
46.02437 257
46.04449 221
46.0646 218
46.08472 207
46.10483 208
46.12494 178
46.14506 177
46.16517 177
46.18528 174
46.2054 197
46.22551 209
46.24563 191
46.26574 202
46.28585 179
46.30597 182
46.32608 194
46.34619 175
46.36631 194
46.38642 171
46.40653 197
46.42665 173
46.44676 187
46.46688 191
46.48699 162
46.5071 185
46.52722 208
46.54733 179
46.56744 196
46.58756 174
46.60767 181
46.62779 165
46.6479 173
46.66801 157
46.68813 140
46.70824 163
46.72835 204
46.74847 176
46.76858 190
46.78869 168
46.80881 183
46.82892 187
46.84904 162
46.86915 172
46.88926 174
46.90938 178
46.92949 149
46.9496 177
46.96972 178
46.98983 174
47.00995 185
47.03006 168
47.05017 172
47.07029 147
47.0904 171
47.11051 165
47.13063 177
47.15074 165
47.17086 152
47.19097 150
47.21108 186
47.2312 169
47.25131 177
47.27142 155
47.29154 152
47.31165 171
47.33176 151
47.35188 167
47.37199 196
47.39211 153
47.41222 156
47.43233 166
47.45245 153
47.47256 191
47.49267 175
47.51279 168
47.5329 170
47.55302 183
47.57313 159
47.59324 179
47.61336 167
47.63347 168
47.65358 164
47.6737 170
47.69381 182
47.71393 179
47.73404 169
47.75415 181
47.77427 189
47.79438 176
47.81449 187
47.83461 154
47.85472 160
47.87483 178
47.89495 192
47.91506 172
47.93518 178
47.95529 181
47.9754 199
47.99552 205
48.01563 167
48.03574 196
48.05586 173
48.07597 164
48.09609 199
48.1162 165
48.13631 155
48.15643 162
48.17654 168
48.19665 175
48.21677 167
48.23688 169
48.257 167
48.27711 151
48.29722 161
48.31734 187
48.33745 173
48.35756 187
48.37768 183
48.39779 189
48.4179 157
48.43802 168
48.45813 170
48.47825 187
48.49836 163
48.51847 184
48.53859 178
48.5587 162
48.57881 176
48.59893 160
48.61904 204
48.63916 158
48.65927 191
48.67938 173
48.6995 188
48.71961 173
48.73972 171
48.75984 182
48.77995 187
48.80006 166
48.82018 178
48.84029 197
48.86041 197
48.88052 172
48.90063 181
48.92075 168
48.94086 177
48.96097 179
48.98109 206
49.0012 207
49.02132 198
49.04143 179
49.06154 189
49.08166 220
49.10177 190
49.12188 161
49.142 202
49.16211 207
49.18223 175
49.20234 205
49.22245 185
49.24257 199
49.26268 197
49.28279 195
49.30291 209
49.32302 192
49.34313 209
49.36325 211
49.38336 205
49.40348 209
49.42359 219
49.4437 245
49.46382 224
49.48393 226
49.50404 245
49.52416 234
49.54427 202
49.56439 215
49.5845 259
49.60461 239
49.62473 285
49.64484 263
49.66495 263
49.68507 298
49.70518 308
49.7253 327
49.74541 343
49.76552 376
49.78564 416
49.80575 485
49.82586 527
49.84598 643
49.86609 653
49.8862 806
49.90632 915
49.92643 1114
49.94655 1381
49.96666 1523
49.98677 1866
50.00689 2135
50.027 2601
50.04711 2834
50.06723 2766
50.08734 2885
50.10746 2650
50.12757 2412
50.14768 2031
50.1678 1800
50.18791 1676
50.20802 1608
50.22814 1343
50.24825 1210
50.26837 954
50.28848 748
50.30859 552
50.32871 452
50.34882 378
50.36893 358
50.38905 345
50.40916 284
50.42927 278
50.44939 298
50.4695 278
50.48962 310
50.50973 307
50.52984 267
50.54996 296
50.57007 277
50.59018 259
50.6103 262
50.63041 249
50.65053 250
50.67064 212
50.69075 227
50.71087 246
50.73098 227
50.75109 190
50.77121 201
50.79132 189
50.81143 181
50.83155 207
50.85166 211
50.87178 211
50.89189 193
50.912 172
50.93212 178
50.95223 215
50.97234 197
50.99246 159
51.01257 180
51.03269 183
51.0528 193
51.07291 172
51.09303 200
51.11314 194
51.13325 181
51.15337 194
51.17348 186
51.1936 195
51.21371 157
51.23382 198
51.25394 189
51.27405 181
51.29416 186
51.31428 174
51.33439 181
51.3545 177
51.37462 166
51.39473 163
51.41485 171
51.43496 176
51.45507 174
51.47519 173
51.4953 160
51.51541 171
51.53553 174
51.55564 158
51.57576 145
51.59587 160
51.61598 171
51.6361 149
51.65621 151
51.67632 176
51.69644 148
51.71655 163
51.73667 163
51.75678 155
51.77689 168
51.79701 154
51.81712 163
51.83723 173
51.85735 177
51.87746 154
51.89757 162
51.91769 174
51.9378 159
51.95792 148
51.97803 166
51.99814 162
52.01826 141
52.03837 193
52.05848 177
52.0786 166
52.09871 172
52.11883 140
52.13894 165
52.15905 155
52.17917 139
52.19928 171
52.21939 150
52.23951 177
52.25962 168
52.27974 140
52.29985 180
52.31996 156
52.34008 162
52.36019 157
52.3803 178
52.40042 160
52.42053 157
52.44064 153
52.46076 161
52.48087 168
52.50099 178
52.5211 158
52.54121 164
52.56133 142
52.58144 169
52.60155 167
52.62167 174
52.64178 185
52.6619 177
52.68201 151
52.70212 157
52.72224 163
52.74235 173
52.76246 166
52.78258 165
52.80269 177
52.8228 174
52.84292 157
52.86303 184
52.88315 166
52.90326 180
52.92337 165
52.94349 183
52.9636 155
52.98371 191
53.00383 144
53.02394 175
53.04406 158
53.06417 165
53.08428 205
53.1044 176
53.12451 185
53.14462 175
53.16474 183
53.18485 171
53.20497 183
53.22508 174
53.24519 174
53.26531 163
53.28542 199
53.30553 180
53.32565 202
53.34576 168
53.36587 172
53.38599 176
53.4061 179
53.42622 192
53.44633 172
53.46644 180
53.48656 179
53.50667 181
53.52678 180
53.5469 206
53.56701 184
53.58713 198
53.60724 200
53.62735 199
53.64747 199
53.66758 195
53.68769 202
53.70781 204
53.72792 193
53.74804 199
53.76815 187
53.78826 211
53.80838 203
53.82849 189
53.8486 174
53.86872 175
53.88883 209
53.90894 204
53.92906 220
53.94917 190
53.96929 215
53.9894 210
54.00951 167
54.02963 215
54.04974 221
54.06985 237
54.08997 218
54.11008 165
54.1302 200
54.15031 226
54.17042 219
54.19054 226
54.21065 199
54.23076 199
54.25088 233
54.27099 221
54.29111 231
54.31122 215
54.33133 232
54.35145 199
54.37156 231
54.39167 222
54.41179 228
54.4319 233
54.45201 255
54.47213 231
54.49224 274
54.51236 262
54.53247 275
54.55258 293
54.5727 297
54.59281 347
54.61292 381
54.63304 435
54.65315 463
54.67327 518
54.69338 574
54.71349 691
54.73361 786
54.75372 805
54.77383 956
54.79395 952
54.81406 905
54.83417 926
54.85429 805
54.8744 826
54.89452 678
54.91463 640
54.93474 637
54.95486 602
54.97497 555
54.99508 551
55.0152 436
55.03531 408
55.05543 377
55.07554 355
55.09565 368
55.11577 368
55.13588 385
55.15599 408
55.17611 421
55.19622 476
55.21634 515
55.23645 548
55.25656 573
55.27668 503
55.29679 501
55.3169 450
55.33702 420
55.35713 375
55.37724 401
55.39736 367
55.41747 338
55.43759 339
55.4577 334
55.47781 309
55.49793 270
55.51804 275
55.53815 241
55.55827 225
55.57838 223
55.5985 232
55.61861 222
55.63872 187
55.65884 216
55.67895 198
55.69906 218
55.71918 208
55.73929 183
55.75941 192
55.77952 168
55.79963 187
55.81975 183
55.83986 169
55.85997 217
55.88009 213
55.9002 208
55.92031 210
55.94043 192
55.96054 184
55.98066 202
56.00077 201
56.02088 190
56.041 193
56.06111 183
56.08122 199
56.10134 191
56.12145 189
56.14157 162
56.16168 185
56.18179 182
56.20191 194
56.22202 198
56.24213 185
56.26225 160
56.28236 175
56.30248 186
56.32259 151
56.3427 182
56.36282 182
56.38293 177
56.40304 168
56.42316 208
56.44327 181
56.46338 168
56.4835 166
56.50361 166
56.52373 168
56.54384 182
56.56395 155
56.58407 163
56.60418 187
56.62429 191
56.64441 192
56.66452 166
56.68464 195
56.70475 182
56.72486 187
56.74498 174
56.76509 180
56.7852 166
56.80532 186
56.82543 175
56.84554 189
56.86566 199
56.88577 163
56.90589 167
56.926 161
56.94611 160
56.96623 171
56.98634 180
57.00645 200
57.02657 192
57.04668 179
57.0668 190
57.08691 203
57.10702 195
57.12714 227
57.14725 231
57.16736 205
57.18748 186
57.20759 212
57.22771 201
57.24782 195
57.26793 189
57.28805 217
57.30816 183
57.32827 182
57.34839 182
57.3685 182
57.38861 185
57.40873 156
57.42884 195
57.44896 184
57.46907 188
57.48918 198
57.5093 188
57.52941 150
57.54952 173
57.56964 180
57.58975 174
57.60987 173
57.62998 165
57.65009 183
57.67021 181
57.69032 165
57.71043 172
57.73055 185
57.75066 187
57.77078 179
57.79089 169
57.811 169
57.83112 180
57.85123 180
57.87134 161
57.89146 174
57.91157 144
57.93168 149
57.9518 156
57.97191 162
57.99203 168
58.01214 181
58.03225 173
58.05237 160
58.07248 170
58.09259 170
58.11271 171
58.13282 167
58.15294 148
58.17305 188
58.19316 172
58.21328 159
58.23339 173
58.2535 182
58.27362 196
58.29373 174
58.31385 187
58.33396 174
58.35407 182
58.37419 168
58.3943 164
58.41441 201
58.43453 183
58.45464 194
58.47475 154
58.49487 146
58.51498 163
58.5351 154
58.55521 167
58.57532 170
58.59544 172
58.61555 168
58.63566 186
58.65578 159
58.67589 148
58.69601 162
58.71612 202
58.73623 165
58.75635 181
58.77646 180
58.79657 188
58.81669 164
58.8368 164
58.85691 181
58.87703 184
58.89714 182
58.91726 178
58.93737 193
58.95748 178
58.9776 188
58.99771 170
59.01782 197
59.03794 183
59.05805 188
59.07817 175
59.09828 193
59.11839 177
59.13851 206
59.15862 190
59.17873 168
59.19885 191
59.21896 174
59.23908 192
59.25919 185
59.2793 216
59.29942 230
59.31953 208
59.33964 214
59.35976 229
59.37987 229
59.39998 221
59.4201 212
59.44021 244
59.46033 281
59.48044 249
59.50055 294
59.52067 275
59.54078 313
59.56089 271
59.58101 356
59.60112 381
59.62124 392
59.64135 483
59.66146 515
59.68158 535
59.70169 641
59.7218 740
59.74192 877
59.76203 1009
59.78215 1155
59.80226 1306
59.82237 1523
59.84249 1602
59.8626 1750
59.88271 1826
59.90283 1673
59.92294 1606
59.94305 1434
59.96317 1262
59.98328 1177
60.0034 1097
60.02351 1110
60.04362 1020
60.06374 929
60.08385 824
60.10396 695
60.12408 624
60.14419 480
60.16431 362
60.18442 348
60.20453 296
60.22465 281
60.24476 256
60.26487 235
60.28499 216
60.3051 215
60.32522 218
60.34533 190
60.36544 205
60.38556 202
60.40567 213
60.42578 200
60.4459 202
60.46601 193
60.48612 204
60.50624 219
60.52635 173
60.54647 202
60.56658 205
60.58669 202
60.60681 195
60.62692 200
60.64703 195
60.66715 178
60.68726 204
60.70738 180
60.72749 187
60.7476 189
60.76772 188
60.78783 178
60.80794 184
60.82806 165
60.84817 178
60.86828 170
60.8884 176
60.90851 177
60.92863 178
60.94874 190
60.96885 180
60.98897 191
61.00908 180
61.02919 181
61.04931 168
61.06942 189
61.08954 161
61.10965 168
61.12976 189
61.14988 171
61.16999 189
61.1901 171
61.21022 183
61.23033 168
61.25045 201
61.27056 174
61.29067 210
61.31079 204
61.3309 208
61.35101 176
61.37113 205
61.39124 222
61.41135 196
61.43147 221
61.45158 207
61.4717 236
61.49181 248
61.51192 213
61.53204 249
61.55215 245
61.57226 253
61.59238 248
61.61249 224
61.63261 202
61.65272 245
61.67283 238
61.69295 242
61.71306 208
61.73317 232
61.75329 233
61.7734 214
61.79352 217
61.81363 225
61.83374 219
61.85386 181
61.87397 194
61.89408 189
61.9142 182
61.93431 216
61.95442 194
61.97454 187
61.99465 190
62.01477 192
62.03488 182
62.05499 206
62.07511 184
62.09522 174
62.11533 192
62.13545 192
62.15556 217
62.17568 184
62.19579 215
62.2159 204
62.23602 189
62.25613 167
62.27624 177
62.29636 186
62.31647 204
62.33659 161
62.3567 163
62.37681 196
62.39693 168
62.41704 182
62.43715 185
62.45727 196
62.47738 190
62.49749 172
62.51761 175
62.53772 181
62.55784 143
62.57795 159
62.59806 170
62.61818 165
62.63829 151
62.6584 173
62.67852 177
62.69863 161
62.71875 147
62.73886 159
62.75897 145
62.77909 152
62.7992 178
62.81931 177
62.83943 170
62.85954 167
62.87965 145
62.89977 136
62.91988 147
62.94 157
62.96011 161
62.98022 163
63.00034 169
63.02045 180
63.04056 176
63.06068 155
63.08079 172
63.10091 156
63.12102 132
63.14113 173
63.16125 138
63.18136 135
63.20147 177
63.22159 144
63.2417 182
63.26182 174
63.28193 154
63.30204 150
63.32216 159
63.34227 153
63.36238 176
63.3825 169
63.40261 175
63.42272 169
63.44284 154
63.46295 174
63.48307 160
63.50318 189
63.52329 166
63.54341 182
63.56352 171
63.58363 192
63.60375 191
63.62386 196
63.64398 195
63.66409 188
63.6842 196
63.70432 220
63.72443 223
63.74454 202
63.76466 246
63.78477 268
63.80489 264
63.825 302
63.84511 308
63.86523 350
63.88534 371
63.90545 387
63.92557 406
63.94568 424
63.96579 443
63.98591 415
64.00602 397
64.02614 398
64.04625 333
64.06636 336
64.08648 314
64.10659 311
64.1267 313
64.14682 297
64.16693 288
64.18705 257
64.20716 242
64.22727 214
64.24739 188
64.2675 177
64.28761 156
64.30773 184
64.32784 180
64.34796 169
64.36807 164
64.38818 166
64.4083 163
64.42841 169
64.44852 181
64.46864 168
64.48875 165
64.50886 153
64.52898 137
64.54909 147
64.56921 175
64.58932 159
64.60943 142
64.62955 176
64.64966 165
64.66977 147
64.68989 143
64.71 139
64.73012 152
64.75023 161
64.77034 164
64.79046 157
64.81057 153
64.83068 148
64.8508 182
64.87091 132
64.89102 148
64.91114 137
64.93125 140
64.95137 143
64.97148 147
64.99159 158
65.01171 157
65.03182 175
65.05193 156
65.07205 153
65.09216 156
65.11228 146
65.13239 164
65.1525 178
65.17262 155
65.19273 128
65.21284 177
65.23296 157
65.25307 168
65.27319 156
65.2933 159
65.31341 145
65.33353 148
65.35364 167
65.37375 175
65.39387 170
65.41398 166
65.43409 188
65.45421 164
65.47432 184
65.49444 182
65.51455 166
65.53466 165
65.55478 213
65.57489 177
65.595 199
65.61512 186
65.63523 214
65.65535 219
65.67546 247
65.69557 217
65.71569 228
65.7358 207
65.75591 224
65.77603 190
65.79614 207
65.81626 207
65.83637 175
65.85648 173
65.8766 222
65.89671 176
65.91682 185
65.93694 182
65.95705 196
65.97716 162
65.99728 167
66.01739 146
66.03751 153
66.05762 171
66.07773 165
66.09785 182
66.11796 182
66.13807 158
66.15819 141
66.1783 161
66.19842 186
66.21853 159
66.23864 124
66.25876 151
66.27887 147
66.29898 157
66.3191 151
66.33921 145
66.35933 129
66.37944 132
66.39955 157
66.41967 177
66.43978 153
66.45989 140
66.48001 164
66.50012 149
66.52023 168
66.54035 159
66.56046 161
66.58058 160
66.60069 175
66.6208 160
66.64092 183
66.66103 161
66.68114 154
66.70126 145
66.72137 155
66.74149 171
66.7616 154
66.78171 167
66.80183 155
66.82194 158
66.84205 166
66.86217 186
66.88228 158
66.90239 172
66.92251 196
66.94262 160
66.96274 158
66.98285 183
67.00296 206
67.02308 175
67.04319 180
67.0633 190
67.08342 176
67.10353 170
67.12365 198
67.14376 184
67.16387 180
67.18399 205
67.2041 195
67.22421 241
67.24433 220
67.26444 210
67.28456 221
67.30467 228
67.32478 280
67.3449 259
67.36501 273
67.38512 270
67.40524 329
67.42535 364
67.44546 426
67.46558 428
67.48569 481
67.50581 536
67.52592 576
67.54603 689
67.56615 780
67.58626 893
67.60637 913
67.62649 991
67.6466 1051
67.66672 1013
67.68683 1043
67.70694 1064
67.72706 977
67.74717 909
67.76728 822
67.7874 854
67.80751 834
67.82763 861
67.84774 953
67.86785 945
67.88797 961
67.90808 947
67.92819 1015
67.94831 1056
67.96842 1087
67.98853 1107
68.00865 1290
68.02876 1390
68.04888 1434
68.06899 1511
68.0891 1472
68.10922 1482
68.12933 1390
68.14944 1327
68.16956 1364
68.18967 1282
68.20979 1343
68.2299 1341
68.25001 1343
68.27013 1274
68.29024 1127
68.31035 1010
68.33047 858
68.35058 778
68.3707 704
68.39081 605
68.41092 587
68.43104 568
68.45115 498
68.47126 474
68.49138 428
68.51149 365
68.5316 276
68.55172 282
68.57183 237
68.59195 235
68.61206 240
68.63217 212
68.65229 193
68.6724 201
68.69251 197
68.71263 183
68.73274 193
68.75286 177
68.77297 189
68.79308 185
68.8132 183
68.83331 182
68.85342 190
68.87354 182
68.89365 154
68.91376 174
68.93388 163
68.95399 167
68.97411 193
68.99422 172
69.01433 154
69.03445 171
69.05456 161
69.07467 173
69.09479 167
69.1149 154
69.13502 145
69.15513 175
69.17524 180
69.19536 177
69.21547 176
69.23558 177
69.2557 180
69.27581 158
69.29593 147
69.31604 152
69.33615 180
69.35627 174
69.37638 183
69.39649 164
69.41661 175
69.43672 171
69.45683 164
69.47695 167
69.49706 192
69.51718 172
69.53729 167
69.5574 159
69.57752 164
69.59763 174
69.61774 163
69.63786 171
69.65797 154
69.67809 163
69.6982 162
69.71831 154
69.73843 162
69.75854 148
69.77865 150
69.79877 173
69.81888 159
69.839 169
69.85911 147
69.87922 162
69.89934 168
69.91945 155
69.93956 155
69.95968 170
69.97979 168
69.9999 146
70.02002 164
70.04013 154
70.06025 156
70.08036 143
70.10047 169
70.12059 155
70.1407 152
70.16081 161
70.18093 151
70.20104 139
70.22116 148
70.24127 150
70.26138 149
70.2815 159
70.30161 157
70.32172 163
70.34184 146
70.36195 145
70.38207 149
70.40218 145
70.42229 133
70.44241 148
70.46252 150
70.48263 126
70.50275 159
70.52286 148
70.54297 160
70.56309 146
70.5832 155
70.60332 152
70.62343 142
70.64354 152
70.66366 137
70.68377 141
70.70388 133
70.724 169
70.74411 145
70.76423 129
70.78434 142
70.80445 145
70.82457 137
70.84468 168
70.86479 145
70.88491 140
70.90502 155
70.92513 155
70.94525 156
70.96536 148
70.98548 157
71.00559 158
71.0257 137
71.04582 129
71.06593 117
71.08604 141
71.10616 142
71.12627 139
71.14639 134
71.1665 163
71.18661 121
71.20673 125
71.22684 142
71.24695 138
71.26707 135
71.28718 130
71.3073 147
71.32741 158
71.34752 160
71.36764 137
71.38775 124
71.40786 142
71.42798 148
71.44809 135
71.4682 134
71.48832 130
71.50843 139
71.52855 146
71.54866 148
71.56877 138
71.58889 133
71.609 140
71.62911 139
71.64923 135
71.66934 128
71.68946 142
71.70957 161
71.72968 127
71.7498 111
71.76991 142
71.79002 119
71.81014 127
71.83025 133
71.85037 149
71.87048 165
71.89059 160
71.91071 159
71.93082 137
71.95093 118
71.97105 137
71.99116 116
72.01127 141
72.03139 126
72.0515 156
72.07162 138
72.09173 143
72.11184 141
72.13196 149
72.15207 157
72.17218 134
72.1923 146
72.21241 137
72.23253 150
72.25264 145
72.27275 165
72.29287 140
72.31298 152
72.33309 152
72.35321 152
72.37332 152
72.39344 160
72.41355 134
72.43366 149
72.45378 152
72.47389 182
72.494 164
72.51412 178
72.53423 143
72.55434 184
72.57446 153
72.59457 150
72.61469 166
72.6348 138
72.65491 171
72.67503 136
72.69514 171
72.71525 178
72.73537 153
72.75548 200
72.7756 187
72.79571 180
72.81582 166
72.83594 197
72.85605 145
72.87616 166
72.89628 181
72.91639 163
72.9365 176
72.95662 166
72.97673 160
72.99685 183
73.01696 192
73.03707 162
73.05719 181
73.0773 205
73.09741 190
73.11753 193
73.13764 208
73.15776 222
73.17787 197
73.19798 250
73.2181 278
73.23821 270
73.25832 315
73.27844 314
73.29855 348
73.31867 390
73.33878 425
73.35889 437
73.37901 460
73.39912 451
73.41923 432
73.43935 405
73.45946 385
73.47957 371
73.49969 329
73.5198 319
73.53992 311
73.56003 344
73.58014 303
73.60026 281
73.62037 284
73.64048 261
73.6606 256
73.68071 200
73.70083 234
73.72094 174
73.74105 175
73.76117 171
73.78128 161
73.80139 159
73.82151 169
73.84162 139
73.86174 170
73.88185 141
73.90196 159
73.92208 166
73.94219 149
73.9623 150
73.98242 143
74.00253 162
74.02264 148
74.04276 171
74.06287 161
74.08299 140
74.1031 163
74.12321 161
74.14333 169
74.16344 139
74.18355 145
74.20367 153
74.22378 138
74.2439 150
74.26401 113
74.28412 117
74.30424 127
74.32435 146
74.34446 140
74.36458 160
74.38469 137
74.40481 142
74.42492 140
74.44503 144
74.46515 136
74.48526 145
74.50537 127
74.52549 150
74.5456 151
74.56571 148
74.58583 142
74.60594 138
74.62606 134
74.64617 157
74.66628 156
74.6864 167
74.70651 148
74.72662 136
74.74674 154
74.76685 158
74.78697 141
74.80708 150
74.82719 155
74.84731 148
74.86742 157
74.88753 150
74.90765 138
74.92776 141
74.94787 155
74.96799 140
74.9881 139
75.00822 146
