3.00117 20189
3.02128 20261
3.0414 19276
3.06151 18768
3.08162 18227
3.10174 17527
3.12185 17403
3.14197 16544
3.16208 16331
3.18219 16008
3.20231 15368
3.22242 14998
3.24253 14397
3.26265 13958
3.28276 13597
3.30288 13063
3.32299 13002
3.3431 12255
3.36322 11951
3.38333 11799
3.40344 10872
3.42356 10989
3.44367 10359
3.46379 10372
3.4839 9818
3.50401 9394
3.52413 9328
3.54424 8638
3.56435 8487
3.58447 8218
3.60458 7832
3.62469 7581
3.64481 7088
3.66492 7152
3.68504 6600
3.70515 6517
3.72526 6295
3.74538 5807
3.76549 5863
3.7856 5562
3.80572 5281
3.82583 5110
3.84595 4611
3.86606 4817
3.88617 4508
3.90629 4334
3.9264 4024
3.94651 3803
3.96663 3869
3.98674 3579
4.00686 3418
4.02697 3505
4.04708 3139
4.0672 3184
4.08731 2901
4.10742 2731
4.12754 2712
4.14765 2502
4.16776 2413
4.18788 2425
4.20799 2246
4.22811 2179
4.24822 2065
4.26833 2017
4.28845 2142
4.30856 1850
4.32867 1919
4.34879 1789
4.3689 1843
4.38902 1790
4.40913 1553
4.42924 1726
4.44936 1584
4.46947 1590
4.48958 1572
4.5097 1464
4.52981 1443
4.54992 1505
4.57004 1420
4.59015 1461
4.61027 1253
4.63038 1339
4.65049 1248
4.67061 1241
4.69072 1225
4.71083 1163
4.73095 1162
4.75106 1146
4.77118 1119
4.79129 1075
4.8114 1035
4.83152 1077
4.85163 992
4.87174 975
4.89186 1018
4.91197 916
4.93209 929
4.9522 973
4.97231 915
4.99243 918
5.01254 860
5.03265 968
5.05277 894
5.07288 798
5.09299 808
5.11311 808
5.13322 780
5.15334 778
5.17345 812
5.19356 758
5.21368 742
5.23379 696
5.2539 758
5.27402 697
5.29413 741
5.31425 675
5.33436 682
5.35447 604
5.37459 643
5.3947 632
5.41481 593
5.43493 613
5.45504 602
5.47516 575
5.49527 591
5.51538 564
5.5355 566
5.55561 510
5.57572 532
5.59584 554
5.61595 491
5.63606 516
5.65618 531
5.67629 489
5.69641 482
5.71652 513
5.73663 430
5.75675 476
5.77686 504
5.79697 472
5.81709 459
5.8372 468
5.85732 519
5.87743 464
5.89754 411
5.91766 466
5.93777 439
5.95788 470
5.978 389
5.99811 416
6.01823 405
6.03834 425
6.05845 402
6.07857 418
6.09868 431
6.11879 401
6.13891 397
6.15902 449
6.17913 428
6.19925 420
6.21936 425
6.23948 397
6.25959 435
6.2797 406
6.29982 387
6.31993 370
6.34004 398
6.36016 407
6.38027 399
6.40039 421
6.4205 423
6.44061 402
6.46073 361
6.48084 404
6.50095 383
6.52107 355
6.54118 390
6.56129 388
6.58141 363
6.60152 386
6.62164 362
6.64175 383
6.66186 404
6.68198 386
6.70209 396
6.7222 335
6.74232 375
6.76243 416
6.78255 352
6.80266 361
6.82277 351
6.84289 339
6.863 376
6.88311 366
6.90323 384
6.92334 329
6.94346 393
6.96357 356
6.98368 399
7.0038 343
7.02391 346
7.04402 404
7.06414 367
7.08425 378
7.10436 366
7.12448 402
7.14459 375
7.16471 401
7.18482 394
7.20493 359
7.22505 359
7.24516 383
7.26527 361
7.28539 373
7.3055 372
7.32562 373
7.34573 346
7.36584 345
7.38596 354
7.40607 387
7.42618 343
7.4463 372
7.46641 368
7.48653 355
7.50664 386
7.52675 362
7.54687 391
7.56698 349
7.58709 359
7.60721 338
7.62732 374
7.64743 377
7.66755 315
7.68766 340
7.70778 370
7.72789 349
7.748 366
7.76812 327
7.78823 347
7.80834 345
7.82846 388
7.84857 376
7.86869 345
7.8888 354
7.90891 403
7.92903 355
7.94914 377
7.96925 356
7.98937 331
8.00948 353
8.0296 357
8.04971 361
8.06982 364
8.08994 414
8.11005 324
8.13016 365
8.15028 346
8.17039 373
8.1905 378
8.21062 402
8.23073 375
8.25085 356
8.27096 341
8.29107 361
8.31119 390
8.3313 383
8.35141 365
8.37153 345
8.39164 349
8.41176 317
8.43187 358
8.45198 349
8.4721 376
8.49221 334
8.51232 380
8.53244 394
8.55255 404
8.57266 359
8.59278 349
8.61289 383
8.63301 374
8.65312 391
8.67323 390
8.69335 384
8.71346 424
8.73357 363
8.75369 354
8.7738 378
8.79392 373
8.81403 361
8.83414 375
8.85426 362
8.87437 398
8.89448 374
8.9146 358
8.93471 361
8.95483 388
8.97494 331
8.99505 387
9.01517 351
9.03528 342
9.05539 332
9.07551 343
9.09562 392
9.11573 358
9.13585 360
9.15596 364
9.17608 386
9.19619 389
9.2163 343
9.23642 346
9.25653 365
9.27664 334
9.29676 339
9.31687 330
9.33699 335
9.3571 340
9.37721 373
9.39733 361
9.41744 370
9.43755 403
9.45767 360
9.47778 369
9.4979 339
9.51801 384
9.53812 356
9.55824 338
9.57835 327
9.59846 330
9.61858 330
9.63869 354
9.6588 357
9.67892 363
9.69903 357
9.71915 380
9.73926 351
9.75937 357
9.77949 353
9.7996 358
9.81971 366
9.83983 349
9.85994 377
9.88006 350
9.90017 386
9.92028 355
9.9404 336
9.96051 341
9.98062 363
10.00074 341
10.02085 329
10.04097 337
10.06108 349
10.08119 367
10.10131 400
10.12142 356
10.14153 370
10.16165 334
10.18176 344
10.20187 370
10.22199 340
10.2421 376
10.26222 345
10.28233 315
10.30244 317
10.32256 359
10.34267 329
10.36278 351
10.3829 378
10.40301 382
10.42313 334
10.44324 327
10.46335 383
10.48347 358
10.50358 340
10.52369 336
10.54381 364
10.56392 327
10.58403 366
10.60415 353
10.62426 356
10.64438 355
10.66449 315
10.6846 310
10.70472 341
10.72483 367
10.74494 345
10.76506 375
10.78517 340
10.80529 370
10.8254 371
10.84551 359
10.86563 329
10.88574 361
10.90585 397
10.92597 377
10.94608 358
10.9662 350
10.98631 326
11.00642 348
11.02654 353
11.04665 357
11.06676 353
11.08688 315
11.10699 318
11.1271 383
11.14722 340
11.16733 356
11.18745 360
11.20756 385
11.22767 344
11.24779 349
11.2679 352
11.28801 385
11.30813 348
11.32824 358
11.34836 367
11.36847 379
11.38858 348
11.4087 394
11.42881 381
11.44892 376
11.46904 370
11.48915 384
11.50927 365
11.52938 367
11.54949 383
11.56961 399
11.58972 346
11.60983 362
11.62995 381
11.65006 395
11.67017 364
11.69029 381
11.7104 425
11.73052 459
11.75063 389
11.77074 414
11.79086 412
11.81097 407
11.83108 438
11.8512 427
11.87131 416
11.89143 451
11.91154 447
11.93165 470
11.95177 497
11.97188 530
11.99199 527
12.01211 560
12.03222 546
12.05234 583
12.07245 583
12.09256 627
12.11268 669
12.13279 669
12.1529 656
12.17302 675
12.19313 728
12.21324 802
12.23336 756
12.25347 758
12.27359 770
12.2937 794
12.31381 765
12.33393 770
12.35404 680
12.37415 671
12.39427 702
12.41438 655
12.4345 655
12.45461 588
12.47472 611
12.49484 563
12.51495 577
12.53506 521
12.55518 563
12.57529 493
12.5954 450
12.61552 420
12.63563 448
12.65575 415
12.67586 416
12.69597 411
12.71609 421
12.7362 400
12.75631 410
12.77643 371
12.79654 420
12.81666 376
12.83677 362
12.85688 346
12.877 357
12.89711 339
12.91722 386
12.93734 365
12.95745 379
12.97757 331
12.99768 346
13.01779 305
13.03791 349
13.05802 318
13.07813 354
13.09825 308
13.11836 308
13.13847 358
13.15859 354
13.1787 331
13.19882 345
13.21893 344
13.23904 339
13.25916 310
13.27927 312
13.29938 345
13.3195 334
13.33961 336
13.35973 290
13.37984 309
13.39995 356
13.42007 314
13.44018 333
13.46029 351
13.48041 344
13.50052 321
13.52064 312
13.54075 347
13.56086 356
13.58098 343
13.60109 280
13.6212 329
13.64132 351
13.66143 297
13.68154 331
13.70166 293
13.72177 313
13.74189 328
13.762 345
13.78211 321
13.80223 371
13.82234 275
13.84245 334
13.86257 318
13.88268 308
13.9028 364
13.92291 299
13.94302 356
13.96314 307
13.98325 340
14.00336 325
14.02348 337
14.04359 276
14.06371 289
14.08382 294
14.10393 300
14.12405 357
14.14416 320
14.16427 314
14.18439 291
14.2045 306
14.22461 301
14.24473 307
14.26484 289
14.28496 324
14.30507 297
14.32518 311
14.3453 315
14.36541 288
14.38552 311
14.40564 311
14.42575 332
14.44587 328
14.46598 276
14.48609 323
14.50621 302
14.52632 309
14.54643 312
14.56655 280
14.58666 321
14.60677 305
14.62689 293
14.647 280
14.66712 290
14.68723 298
14.70734 305
14.72746 320
14.74757 291
14.76768 296
14.7878 311
14.80791 311
14.82803 306
14.84814 301
14.86825 332
14.88837 286
14.90848 348
14.92859 341
14.94871 295
14.96882 317
14.98894 324
15.00905 302
15.02916 335
15.04928 318
15.06939 294
15.0895 317
15.10962 262
15.12973 325
15.14984 292
15.16996 305
15.19007 317
15.21019 311
15.2303 327
15.25041 324
15.27053 305
15.29064 315
15.31075 324
15.33087 270
15.35098 302
15.3711 340
15.39121 308
15.41132 305
15.43144 287
15.45155 334
15.47166 274
15.49178 296
15.51189 284
15.53201 280
15.55212 300
15.57223 319
15.59235 326
15.61246 304
15.63257 304
15.65269 347
15.6728 271
15.69291 324
15.71303 285
15.73314 299
15.75326 332
15.77337 308
15.79348 292
15.8136 314
15.83371 297
15.85382 323
15.87394 274
15.89405 301
15.91417 296
15.93428 336
15.95439 315
15.97451 290
15.99462 306
16.01473 311
16.03485 316
16.05496 313
16.07508 317
16.09519 289
16.1153 302
16.13542 339
16.15553 322
16.17564 340
16.19576 315
16.21587 272
16.23598 287
16.2561 293
16.27621 266
16.29633 327
16.31644 303
16.33655 305
16.35667 292
16.37678 304
16.39689 311
16.41701 298
16.43712 274
16.45724 322
16.47735 294
16.49746 310
16.51758 263
16.53769 286
16.5578 300
16.57792 304
16.59803 295
16.61814 320
16.63826 312
16.65837 299
16.67849 314
16.6986 260
16.71871 298
16.73883 327
16.75894 308
16.77905 296
16.79917 303
16.81928 313
16.8394 300
16.85951 322
16.87962 261
16.89974 305
16.91985 333
16.93996 347
16.96008 317
16.98019 317
17.00031 285
17.02042 296
17.04053 293
17.06065 289
17.08076 305
17.10087 326
17.12099 320
17.1411 317
17.16121 337
17.18133 335
17.20144 289
17.22156 299
17.24167 321
17.26178 315
17.2819 331
17.30201 274
17.32212 303
17.34224 334
17.36235 309
17.38247 319
17.40258 289
17.42269 286
17.44281 335
17.46292 336
17.48303 287
17.50315 336
17.52326 335
17.54338 336
17.56349 316
17.5836 330
17.60372 311
17.62383 326
17.64394 300
17.66406 322
17.68417 346
17.70428 316
17.7244 354
17.74451 331
17.76463 316
17.78474 337
17.80485 329
17.82497 312
17.84508 297
17.86519 326
17.88531 317
17.90542 336
17.92554 336
17.94565 296
17.96576 310
17.98588 331
18.00599 319
18.0261 348
18.04622 312
18.06633 312
18.08645 309
18.10656 344
18.12667 298
18.14679 322
18.1669 332
18.18701 300
18.20713 346
18.22724 292
18.24735 314
18.26747 286
18.28758 315
18.3077 304
18.32781 313
18.34792 325
18.36804 350
18.38815 327
18.40826 353
18.42838 300
18.44849 298
18.46861 350
18.48872 316
18.50883 319
18.52895 303
18.54906 331
18.56917 353
18.58929 306
18.6094 289
18.62951 316
18.64963 339
18.66974 345
18.68986 330
18.70997 313
18.73008 307
18.7502 329
18.77031 289
18.79042 315
18.81054 361
18.83065 341
18.85077 299
18.87088 332
18.89099 328
18.91111 307
18.93122 309
18.95133 331
18.97145 302
18.99156 312
19.01168 353
19.03179 317
19.0519 341
19.07202 316
19.09213 355
19.11224 337
19.13236 335
19.15247 324
19.17258 330
19.1927 313
19.21281 378
19.23293 337
19.25304 346
19.27315 361
19.29327 342
19.31338 329
19.33349 352
19.35361 366
19.37372 373
19.39384 361
19.41395 385
19.43406 383
19.45418 400
19.47429 359
19.4944 367
19.51452 380
19.53463 420
19.55475 396
19.57486 447
19.59497 452
19.61509 417
19.6352 503
19.65531 477
19.67543 585
19.69554 527
19.71565 584
19.73577 603
19.75588 661
19.776 648
19.79611 707
19.81622 754
19.83634 722
19.85645 726
19.87656 755
19.89668 772
19.91679 736
19.93691 703
19.95702 704
19.97713 674
19.99725 619
20.01736 680
20.03747 600
20.05759 603
20.0777 600
20.09782 661
20.11793 646
20.13804 654
20.15816 627
20.17827 684
20.19838 622
20.2185 649
20.23861 661
20.25872 678
20.27884 655
20.29895 649
20.31907 682
20.33918 685
20.35929 714
20.37941 643
20.39952 691
20.41963 754
20.43975 751
20.45986 731
20.47998 712
20.50009 746
20.5202 752
20.54032 796
20.56043 805
20.58054 905
20.60066 903
20.62077 1016
20.64088 1194
20.661 1367
20.68111 1570
20.70123 1964
20.72134 2279
20.74145 2804
20.76157 3252
20.78168 3460
20.80179 3821
20.82191 3753
20.84202 3345
20.86214 2987
20.88225 2424
20.90236 1855
20.92248 1439
20.94259 1187
20.9627 997
20.98282 935
21.00293 867
21.02305 767
21.04316 720
21.06327 756
21.08339 747
21.1035 725
21.12361 657
21.14373 671
21.16384 690
21.18395 673
21.20407 657
21.22418 671
21.2443 695
21.26441 639
21.28452 665
21.30464 683
21.32475 678
21.34486 645
21.36498 627
21.38509 649
21.40521 661
21.42532 626
21.44543 602
21.46555 607
21.48566 583
21.50577 587
21.52589 599
21.546 547
21.56612 620
21.58623 582
21.60634 579
21.62646 582
21.64657 552
21.66668 561
21.6868 531
21.70691 544
21.72702 528
21.74714 550
21.76725 479
21.78737 562
21.80748 548
21.82759 506
21.84771 537
21.86782 534
21.88793 521
21.90805 513
21.92816 463
21.94828 540
21.96839 564
21.9885 512
22.00862 530
22.02873 502
22.04884 529
22.06896 566
22.08907 496
22.10919 497
22.1293 490
22.14941 493
22.16953 466
22.18964 471
22.20975 476
22.22987 526
22.24998 490
22.27009 509
22.29021 457
22.31032 513
22.33044 451
22.35055 460
22.37066 449
22.39078 453
22.41089 455
22.431 486
22.45112 460
22.47123 418
22.49135 478
22.51146 505
22.53157 481
22.55169 444
22.5718 419
22.59191 436
22.61203 446
22.63214 477
22.65225 474
22.67237 443
22.69248 413
22.7126 461
22.73271 435
22.75282 454
22.77294 492
22.79305 451
22.81316 429
22.83328 426
22.85339 469
22.87351 503
22.89362 456
22.91373 407
22.93385 458
22.95396 443
22.97407 448
22.99419 442
23.0143 475
23.03442 458
23.05453 429
23.07464 395
23.09476 470
23.11487 417
23.13498 518
23.1551 452
23.17521 471
23.19532 412
23.21544 449
23.23555 477
23.25567 419
23.27578 402
23.29589 417
23.31601 424
23.33612 452
23.35623 419
23.37635 427
23.39646 425
23.41658 438
23.43669 467
23.4568 463
23.47692 399
23.49703 443
23.51714 440
23.53726 447
23.55737 414
23.57749 383
23.5976 464
23.61771 417
23.63783 423
23.65794 437
23.67805 467
23.69817 438
23.71828 487
23.73839 445
23.75851 464
23.77862 428
23.79874 451
23.81885 503
23.83896 463
23.85908 484
23.87919 466
23.8993 495
23.91942 491
23.93953 482
23.95965 471
23.97976 457
23.99987 523
24.01999 506
24.0401 453
24.06021 492
24.08033 493
24.10044 469
24.12056 470
24.14067 483
24.16078 519
24.1809 458
24.20101 464
24.22112 499
24.24124 514
24.26135 508
24.28146 515
24.30158 521
24.32169 524
24.34181 525
24.36192 487
24.38203 510
24.40215 523
24.42226 489
24.44237 497
24.46249 498
24.4826 497
24.50272 554
24.52283 548
24.54294 549
24.56306 557
24.58317 587
24.60328 571
24.6234 635
24.64351 574
24.66362 624
24.68374 635
24.70385 692
24.72397 691
24.74408 706
24.76419 703
24.78431 726
24.80442 737
24.82453 755
24.84465 726
24.86476 738
24.88488 681
24.90499 699
24.9251 687
24.94522 680
24.96533 674
24.98544 678
25.00556 623
25.02567 648
25.04579 586
25.0659 615
25.08601 600
25.10613 578
25.12624 600
25.14635 590
25.16647 588
25.18658 570
25.20669 556
25.22681 620
25.24692 556
25.26704 531
25.28715 539
25.30726 543
25.32738 517
25.34749 502
25.3676 514
25.38772 547
25.40783 463
25.42795 475
25.44806 503
25.46817 468
25.48829 506
25.5084 520
25.52851 502
25.54863 510
25.56874 482
25.58886 515
25.60897 499
25.62908 523
25.6492 558
25.66931 521
25.68942 509
25.70954 558
25.72965 538
25.74976 566
25.76988 551
25.78999 526
25.81011 510
25.83022 593
25.85033 533
25.87045 532
25.89056 546
25.91067 560
25.93079 567
25.9509 553
25.97102 593
25.99113 653
26.01124 621
26.03136 607
26.05147 646
26.07158 672
26.0917 693
26.11181 706
26.13193 767
26.15204 754
26.17215 897
26.19227 864
26.21238 902
26.23249 1072
26.25261 1054
26.27272 1146
26.29283 1268
26.31295 1486
26.33306 1663
26.35318 1972
26.37329 2363
26.3934 3011
26.41352 3510
26.43363 4549
26.45374 5871
26.47386 7232
26.49397 9159
26.51409 10941
26.5342 13116
26.55431 14661
26.57443 15580
26.59454 15589
26.61465 14305
26.63477 12519
26.65488 10050
26.67499 7656
26.69511 5613
26.71522 4152
26.73534 2853
26.75545 2131
26.77556 1672
26.79568 1389
26.81579 1160
26.8359 1138
26.85602 1048
26.87613 991
26.89625 913
26.91636 850
26.93647 761
26.95659 761
26.9767 672
26.99681 643
27.01693 643
27.03704 619
27.05716 567
27.07727 623
27.09738 589
27.1175 564
27.13761 540
27.15772 569
27.17784 544
27.19795 528
27.21806 501
27.23818 519
27.25829 513
27.27841 531
27.29852 534
27.31863 523
27.33875 587
27.35886 555
27.37897 583
27.39909 566
27.4192 534
27.43932 567
27.45943 568
27.47954 534
27.49966 461
27.51977 477
27.53988 499
27.56 422
27.58011 454
27.60023 483
27.62034 413
27.64045 487
27.66057 443
27.68068 436
27.70079 480
27.72091 447
27.74102 434
27.76113 418
27.78125 427
27.80136 445
27.82148 426
27.84159 393
27.8617 410
27.88182 403
27.90193 458
27.92204 383
27.94216 410
27.96227 396
27.98239 426
28.0025 428
28.02261 396
28.04273 424
28.06284 361
28.08295 404
28.10307 403
28.12318 386
28.1433 412
28.16341 377
28.18352 363
28.20364 390
28.22375 437
28.24386 354
28.26398 379
28.28409 383
28.3042 399
28.32432 391
28.34443 383
28.36455 391
28.38466 403
28.40477 349
28.42489 393
28.445 393
28.46511 347
28.48523 373
28.50534 374
28.52546 382
28.54557 366
28.56568 385
28.5858 367
28.60591 353
28.62602 386
28.64614 381
28.66625 367
28.68636 366
28.70648 335
28.72659 388
28.74671 361
28.76682 385
28.78693 353
28.80705 379
28.82716 376
28.84727 404
28.86739 390
28.8875 378
28.90762 311
28.92773 386
28.94784 335
28.96796 366
28.98807 382
29.00818 376
29.0283 395
29.04841 390
29.06853 347
29.08864 388
29.10875 379
29.12887 378
29.14898 378
29.16909 362
29.18921 362
29.20932 356
29.22943 404
29.24955 361
29.26966 336
29.28978 383
29.30989 344
29.33 345
29.35012 356
29.37023 347
29.39034 370
29.41046 371
29.43057 394
29.45069 388
29.4708 345
29.49091 351
29.51103 369
29.53114 349
29.55125 351
29.57137 371
29.59148 324
29.6116 350
29.63171 358
29.65182 334
29.67194 366
29.69205 359
29.71216 344
29.73228 342
29.75239 382
29.7725 391
29.79262 353
29.81273 335
29.83285 365
29.85296 374
29.87307 383
29.89319 352
29.9133 375
29.93341 382
29.95353 370
29.97364 368
29.99376 343
30.01387 352
30.03398 384
30.0541 371
30.07421 328
30.09432 425
30.11444 379
30.13455 361
30.15467 336
30.17478 428
30.19489 357
30.21501 364
30.23512 360
30.25523 350
30.27535 357
30.29546 385
30.31557 346
30.33569 330
30.3558 353
30.37592 313
30.39603 332
30.41614 339
30.43626 370
30.45637 365
30.47648 338
30.4966 369
30.51671 335
30.53683 345
30.55694 307
30.57705 322
30.59717 372
30.61728 351
30.63739 359
30.65751 373
30.67762 365
30.69773 382
30.71785 377
30.73796 386
30.75808 377
30.77819 329
30.7983 339
30.81842 368
30.83853 354
30.85864 350
30.87876 325
30.89887 313
30.91899 344
30.9391 346
30.95921 336
30.97933 360
30.99944 350
31.01955 357
31.03967 357
31.05978 345
31.0799 339
31.10001 331
31.12012 328
31.14024 319
31.16035 359
31.18046 328
31.20058 318
31.22069 351
31.2408 321
31.26092 321
31.28103 301
31.30115 321
31.32126 331
31.34137 327
31.36149 313
31.3816 319
31.40171 329
31.42183 275
31.44194 301
31.46206 355
31.48217 364
31.50228 308
31.5224 313
31.54251 328
31.56262 307
31.58274 338
31.60285 318
31.62297 313
31.64308 321
31.66319 316
31.68331 327
31.70342 323
31.72353 330
31.74365 303
31.76376 340
31.78387 346
31.80399 339
31.8241 336
31.84422 312
31.86433 325
31.88444 337
31.90456 366
31.92467 313
31.94478 345
31.9649 310
31.98501 337
32.00513 329
32.02524 340
32.04535 319
32.06547 330
32.08558 336
32.10569 327
32.12581 335
32.14592 369
32.16604 315
32.18615 341
32.20626 351
32.22638 333
32.24649 313
32.2666 336
32.28672 331
32.30683 322
32.32694 349
32.34706 344
32.36717 336
32.38729 331
32.4074 301
32.42751 352
32.44763 341
32.46774 344
32.48785 327
32.50797 324
32.52808 342
32.5482 329
32.56831 320
32.58842 348
32.60854 348
32.62865 372
32.64876 380
32.66888 364
32.68899 342
32.7091 362
32.72922 350
32.74933 363
32.76945 369
32.78956 335
32.80967 320
32.82979 410
32.8499 350
32.87001 364
32.89013 395
32.91024 381
32.93036 380
32.95047 395
32.97058 387
32.9907 419
33.01081 428
33.03092 436
33.05104 435
33.07115 454
33.09127 478
33.11138 450
33.13149 422
33.15161 436
33.17172 421
33.19183 450
33.21195 388
33.23206 430
33.25217 379
33.27229 409
33.2924 394
33.31252 396
33.33263 396
33.35274 418
33.37286 384
33.39297 371
33.41308 376
33.4332 357
33.45331 372
33.47343 374
33.49354 335
33.51365 358
33.53377 325
33.55388 311
33.57399 345
33.59411 330
33.61422 361
33.63434 336
33.65445 352
33.67456 349
33.69468 333
33.71479 339
33.7349 340
33.75502 333
33.77513 319
33.79524 324
33.81536 349
33.83547 325
33.85559 344
33.8757 320
33.89581 369
33.91593 333
33.93604 345
33.95615 310
33.97627 319
33.99638 336
34.0165 318
34.03661 352
34.05672 335
34.07684 326
34.09695 338
34.11706 315
34.13718 335
34.15729 366
34.17741 344
34.19752 347
34.21763 382
34.23775 317
34.25786 383
34.27797 333
34.29809 373
34.3182 329
34.33831 355
34.35843 358
34.37854 330
34.39866 367
34.41877 385
34.43888 393
34.459 375
34.47911 409
34.49922 336
34.51934 382
34.53945 397
34.55957 432
34.57968 417
34.59979 396
34.61991 433
34.64002 425
34.66013 439
34.68025 429
34.70036 458
34.72047 452
34.74059 494
34.7607 503
34.78082 482
34.80093 518
34.82104 568
34.84116 523
34.86127 563
34.88138 593
34.9015 561
34.92161 564
34.94173 567
34.96184 528
34.98195 576
35.00207 563
35.02218 537
35.04229 554
35.06241 470
35.08252 528
35.10264 505
35.12275 511
35.14286 539
35.16298 476
35.18309 480
35.2032 453
35.22332 455
35.24343 486
35.26354 510
35.28366 514
35.30377 491
35.32389 508
35.344 503
35.36411 521
35.38423 530
35.40434 557
35.42445 502
35.44457 501
35.46468 538
35.4848 521
35.50491 557
35.52502 591
35.54514 576
35.56525 573
35.58536 551
35.60548 570
35.62559 541
35.64571 523
35.66582 536
35.68593 615
35.70605 500
35.72616 543
35.74627 557
35.76639 539
35.7865 557
35.80661 537
35.82673 586
35.84684 571
35.86696 520
35.88707 528
35.90718 594
35.9273 520
35.94741 504
35.96752 454
35.98764 522
36.00775 485
36.02787 513
36.04798 474
36.06809 479
36.08821 455
36.10832 450
36.12843 464
36.14855 486
36.16866 469
36.18878 511
36.20889 478
36.229 518
36.24912 541
36.26923 610
36.28934 595
36.30946 669
36.32957 710
36.34968 815
36.3698 951
36.38991 1052
36.41003 1074
36.43014 1200
36.45025 1337
36.47037 1277
36.49048 1369
36.51059 1291
36.53071 1101
36.55082 994
36.57094 915
36.59105 818
36.61116 745
36.63128 650
36.65139 568
36.6715 518
36.69162 474
36.71173 458
36.73184 441
36.75196 439
36.77207 474
36.79219 454
36.8123 454
36.83241 432
36.85253 447
36.87264 435
36.89275 426
36.91287 438
36.93298 438
36.9531 424
36.97321 414
36.99332 394
37.01344 453
37.03355 403
37.05366 401
37.07378 424
37.09389 394
37.11401 385
37.13412 376
37.15423 421
37.17435 390
37.19446 352
37.21457 387
37.23469 413
37.2548 360
37.27491 371
37.29503 395
37.31514 399
37.33526 364
37.35537 385
37.37548 361
37.3956 405
37.41571 389
37.43582 400
37.45594 391
37.47605 364
37.49617 402
37.51628 410
37.53639 402
37.55651 456
37.57662 417
37.59673 381
37.61685 428
37.63696 439
37.65708 444
37.67719 412
37.6973 426
37.71742 411
37.73753 402
37.75764 423
37.77776 410
37.79787 391
37.81798 396
37.8381 386
37.85821 406
37.87833 378
37.89844 433
37.91855 419
37.93867 443
37.95878 436
37.97889 406
37.99901 444
38.01912 418
38.03924 465
38.05935 420
38.07946 450
38.09958 478
38.11969 513
38.1398 456
38.15992 496
38.18003 465
38.20015 420
38.22026 528
38.24037 490
38.26049 512
38.2806 499
38.30071 510
38.32083 541
38.34094 539
38.36105 498
38.38117 515
38.40128 516
38.4214 515
38.44151 503
38.46162 496
38.48174 494
38.50185 509
38.52196 472
38.54208 507
38.56219 432
38.58231 455
38.60242 432
38.62253 418
38.64265 450
38.66276 452
38.68287 440
38.70299 429
38.7231 407
38.74321 406
38.76333 431
38.78344 436
38.80356 419
38.82367 401
38.84378 422
38.8639 399
38.88401 427
38.90412 450
38.92424 424
38.94435 408
38.96447 441
38.98458 450
39.00469 452
39.02481 442
39.04492 467
39.06503 467
39.08515 507
39.10526 523
39.12538 533
39.14549 509
39.1656 544
39.18572 597
39.20583 642
39.22594 667
39.24606 725
39.26617 767
39.28628 889
39.3064 917
39.32651 1004
39.34663 1168
39.36674 1223
39.38685 1257
39.40697 1268
39.42708 1199
39.44719 1119
39.46731 1038
39.48742 896
39.50754 770
39.52765 722
39.54776 653
39.56788 522
39.58799 496
39.6081 455
39.62822 373
39.64833 405
39.66845 376
39.68856 417
39.70867 372
39.72879 358
39.7489 372
39.76901 367
39.78913 379
39.80924 374
39.82935 356
39.84947 396
39.86958 386
39.8897 396
39.90981 357
39.92992 393
39.95004 417
39.97015 413
39.99026 408
40.01038 467
40.03049 436
40.05061 502
40.07072 494
40.09083 499
40.11095 586
40.13106 632
40.15117 669
40.17129 706
40.1914 715
40.21152 736
40.23163 818
40.25174 768
40.27186 709
40.29197 635
40.31208 607
40.3322 579
40.35231 537
40.37242 503
40.39254 463
40.41265 411
40.43277 406
40.45288 390
40.47299 413
40.49311 345
40.51322 347
40.53333 384
40.55345 364
40.57356 370
40.59368 368
40.61379 337
40.6339 362
40.65402 347
40.67413 383
40.69424 382
40.71436 384
40.73447 357
40.75458 355
40.7747 367
40.79481 355
40.81493 369
40.83504 413
40.85515 369
40.87527 393
40.89538 428
40.91549 341
40.93561 361
40.95572 370
40.97584 356
40.99595 367
41.01606 339
41.03618 392
41.05629 355
41.0764 359
41.09652 365
41.11663 366
41.13675 361
41.15686 361
41.17697 353
41.19709 354
41.2172 345
41.23731 378
41.25743 323
41.27754 344
41.29765 346
41.31777 359
41.33788 349
41.358 343
41.37811 339
41.39822 325
41.41834 356
41.43845 332
41.45856 304
41.47868 341
41.49879 325
41.51891 340
41.53902 367
41.55913 355
41.57925 353
41.59936 379
41.61947 377
41.63959 351
41.6597 369
41.67982 361
41.69993 375
41.72004 342
41.74016 338
41.76027 297
41.78038 370
41.8005 310
41.82061 384
41.84072 338
41.86084 327
41.88095 335
41.90107 345
41.92118 359
41.94129 336
41.96141 337
41.98152 347
42.00163 344
42.02175 345
42.04186 340
42.06198 320
42.08209 362
42.1022 380
42.12232 397
42.14243 424
42.16254 440
42.18266 474
42.20277 490
42.22289 503
42.243 630
42.26311 606
42.28323 727
42.30334 826
42.32345 857
42.34357 855
42.36368 881
42.38379 944
42.40391 861
42.42402 850
42.44414 773
42.46425 685
42.48436 648
42.50448 609
42.52459 547
42.5447 492
42.56482 431
42.58493 375
42.60505 354
42.62516 353
42.64527 366
42.66539 305
42.6855 333
42.70561 343
42.72573 328
42.74584 315
42.76595 318
42.78607 284
42.80618 307
42.8263 295
42.84641 307
42.86652 305
42.88664 293
42.90675 301
42.92686 286
42.94698 321
42.96709 296
42.98721 318
43.00732 297
43.02743 316
43.04755 311
43.06766 294
43.08777 306
43.10789 275
43.128 303
43.14812 304
43.16823 293
43.18834 288
43.20846 310
43.22857 318
43.24868 303
43.2688 322
43.28891 301
43.30902 322
43.32914 304
43.34925 319
43.36937 289
43.38948 327
43.40959 314
43.42971 293
43.44982 321
43.46993 257
43.49005 298
43.51016 282
43.53028 301
43.55039 293
43.5705 304
43.59062 278
43.61073 245
43.63084 293
43.65096 293
43.67107 279
43.69119 302
43.7113 309
43.73141 294
43.75153 300
43.77164 287
43.79175 286
43.81187 304
43.83198 303
43.85209 276
43.87221 286
43.89232 295
43.91244 297
43.93255 304
43.95266 278
43.97278 292
43.99289 277
44.013 305
44.03312 301
44.05323 301
44.07335 248
44.09346 297
44.11357 261
44.13369 294
44.1538 289
44.17391 288
44.19403 318
44.21414 309
44.23426 266
44.25437 309
44.27448 295
44.2946 306
44.31471 282
44.33482 295
44.35494 278
44.37505 280
44.39516 292
44.41528 269
44.43539 310
44.45551 266
44.47562 315
44.49573 274
44.51585 296
44.53596 283
44.55607 286
44.57619 293
44.5963 286
44.61642 309
44.63653 291
44.65664 318
44.67676 302
44.69687 311
44.71698 307
44.7371 303
44.75721 287
44.77732 291
44.79744 301
44.81755 315
44.83767 335
44.85778 327
44.87789 311
44.89801 285
44.91812 336
44.93823 303
44.95835 320
44.97846 310
44.99858 331
45.01869 285
45.0388 337
45.05892 312
45.07903 349
45.09914 331
45.11926 305
45.13937 328
45.15949 322
45.1796 333
45.19971 329
45.21983 345
45.23994 351
45.26005 373
45.28017 341
45.30028 364
45.32039 384
45.34051 353
45.36062 370
45.38074 361
45.40085 393
45.42096 389
45.44108 380
45.46119 419
45.4813 388
45.50142 396
45.52153 456
45.54165 463
45.56176 424
45.58187 531
45.60199 574
45.6221 584
45.64221 677
45.66233 699
45.68244 701
45.70256 733
45.72267 711
45.74278 717
45.7629 666
45.78301 661
45.80312 626
45.82324 556
45.84335 486
45.86346 502
45.88358 437
45.90369 387
45.92381 396
45.94392 385
45.96403 385
45.98415 340
46.00426 335
46.02437 342
46.04449 363
46.0646 302
46.08472 316
46.10483 323
46.12494 318
46.14506 311
46.16517 295
46.18528 296
46.2054 288
46.22551 334
46.24563 308
46.26574 299
46.28585 298
46.30597 344
46.32608 281
46.34619 300
46.36631 271
46.38642 301
46.40653 318
46.42665 323
46.44676 311
46.46688 325
46.48699 318
46.5071 292
46.52722 291
46.54733 346
46.56744 302
46.58756 342
46.60767 311
46.62779 295
46.6479 287
46.66801 292
46.68813 292
46.70824 307
46.72835 313
46.74847 315
46.76858 289
46.78869 326
46.80881 276
46.82892 329
46.84904 318
46.86915 296
46.88926 282
46.90938 275
46.92949 310
46.9496 288
46.96972 299
46.98983 312
47.00995 287
47.03006 307
47.05017 315
47.07029 310
47.0904 300
47.11051 267
47.13063 282
47.15074 282
47.17086 313
47.19097 292
47.21108 313
47.2312 314
47.25131 286
47.27142 271
47.29154 281
47.31165 273
47.33176 299
47.35188 311
47.37199 291
47.39211 280
47.41222 295
47.43233 278
47.45245 279
47.47256 322
47.49267 286
47.51279 271
47.5329 301
47.55302 293
47.57313 343
47.59324 310
47.61336 324
47.63347 302
47.65358 308
47.6737 308
47.69381 320
47.71393 330
47.73404 330
47.75415 345
47.77427 314
47.79438 333
47.81449 361
47.83461 315
47.85472 329
47.87483 327
47.89495 285
47.91506 339
47.93518 337
47.95529 329
47.9754 305
47.99552 308
48.01563 327
48.03574 323
48.05586 305
48.07597 313
48.09609 304
48.1162 292
48.13631 284
48.15643 330
48.17654 280
48.19665 307
48.21677 284
48.23688 292
48.257 300
48.27711 326
48.29722 311
48.31734 295
48.33745 295
48.35756 289
48.37768 317
48.39779 301
48.4179 283
48.43802 326
48.45813 298
48.47825 316
48.49836 296
48.51847 289
48.53859 304
48.5587 323
48.57881 300
48.59893 307
48.61904 315
48.63916 304
48.65927 298
48.67938 269
48.6995 317
48.71961 280
48.73972 302
48.75984 311
48.77995 274
48.80006 287
48.82018 305
48.84029 302
48.86041 297
48.88052 291
48.90063 282
48.92075 303
48.94086 310
48.96097 292
48.98109 313
49.0012 327
49.02132 337
49.04143 283
49.06154 328
49.08166 332
49.10177 303
49.12188 291
49.142 327
49.16211 329
49.18223 318
49.20234 292
49.22245 349
49.24257 342
49.26268 329
49.28279 300
49.30291 332
49.32302 377
49.34313 372
49.36325 365
49.38336 348
49.40348 331
49.42359 332
49.4437 320
49.46382 346
49.48393 343
49.50404 312
49.52416 335
49.54427 336
49.56439 362
49.5845 356
49.60461 369
49.62473 353
49.64484 395
49.66495 375
49.68507 389
49.70518 385
49.7253 446
49.74541 466
49.76552 468
49.78564 448
49.80575 526
49.82586 600
49.84598 613
49.86609 674
49.8862 768
49.90632 810
49.92643 981
49.94655 1093
49.96666 1310
49.98677 1449
50.00689 1606
50.027 1709
50.04711 1805
50.06723 1797
50.08734 1724
50.10746 1563
50.12757 1411
50.14768 1275
50.1678 1127
50.18791 1039
50.20802 1040
50.22814 825
50.24825 693
50.26837 646
50.28848 546
50.30859 424
50.32871 431
50.34882 418
50.36893 403
50.38905 388
50.40916 377
50.42927 389
50.44939 374
50.4695 375
50.48962 372
50.50973 373
50.52984 385
50.54996 366
50.57007 339
50.59018 346
50.6103 352
50.63041 319
50.65053 326
50.67064 318
50.69075 342
50.71087 327
50.73098 326
50.75109 297
50.77121 311
50.79132 299
50.81143 320
50.83155 324
50.85166 315
50.87178 306
50.89189 328
50.912 284
50.93212 269
50.95223 299
50.97234 287
50.99246 288
51.01257 298
51.03269 322
51.0528 320
51.07291 291
51.09303 308
51.11314 298
51.13325 282
51.15337 285
51.17348 281
51.1936 301
51.21371 289
51.23382 298
51.25394 306
51.27405 283
51.29416 292
51.31428 314
51.33439 262
51.3545 276
51.37462 245
51.39473 304
51.41485 309
51.43496 271
51.45507 282
51.47519 276
51.4953 288
51.51541 287
51.53553 270
51.55564 276
51.57576 284
51.59587 296
51.61598 288
51.6361 289
51.65621 250
51.67632 289
51.69644 251
51.71655 299
51.73667 282
51.75678 255
51.77689 283
51.79701 294
51.81712 283
51.83723 282
51.85735 261
51.87746 301
51.89757 256
51.91769 251
51.9378 264
51.95792 298
51.97803 245
51.99814 274
52.01826 287
52.03837 268
52.05848 271
52.0786 273
52.09871 292
52.11883 298
52.13894 267
52.15905 237
52.17917 226
52.19928 267
52.21939 304
52.23951 269
52.25962 266
52.27974 306
52.29985 249
52.31996 289
52.34008 269
52.36019 282
52.3803 252
52.40042 268
52.42053 275
52.44064 291
52.46076 253
52.48087 310
52.50099 286
52.5211 251
52.54121 292
52.56133 268
52.58144 264
52.60155 295
52.62167 274
52.64178 263
52.6619 277
52.68201 295
52.70212 267
52.72224 286
52.74235 278
52.76246 280
52.78258 274
52.80269 285
52.8228 249
52.84292 299
52.86303 278
52.88315 298
52.90326 297
52.92337 310
52.94349 307
52.9636 279
52.98371 290
53.00383 309
53.02394 298
53.04406 280
53.06417 266
53.08428 303
53.1044 289
53.12451 309
53.14462 283
53.16474 309
53.18485 298
53.20497 286
53.22508 320
53.24519 256
53.26531 273
53.28542 282
53.30553 310
53.32565 290
53.34576 322
53.36587 339
53.38599 317
53.4061 308
53.42622 312
53.44633 307
53.46644 331
53.48656 320
53.50667 302
53.52678 299
53.5469 360
53.56701 314
53.58713 316
53.60724 318
53.62735 315
53.64747 384
53.66758 355
53.68769 354
53.70781 330
53.72792 344
53.74804 362
53.76815 376
53.78826 353
53.80838 353
53.82849 406
53.8486 373
53.86872 348
53.88883 337
53.90894 396
53.92906 347
53.94917 391
53.96929 415
53.9894 394
54.00951 382
54.02963 373
54.04974 367
54.06985 377
54.08997 342
54.11008 368
54.1302 402
54.15031 385
54.17042 396
54.19054 397
54.21065 376
54.23076 350
54.25088 396
54.27099 374
54.29111 376
54.31122 386
54.33133 403
54.35145 391
54.37156 380
54.39167 414
54.41179 396
54.4319 415
54.45201 374
54.47213 406
54.49224 398
54.51236 396
54.53247 409
54.55258 470
54.5727 460
54.59281 411
54.61292 461
54.63304 503
54.65315 523
54.67327 639
54.69338 654
54.71349 684
54.73361 720
54.75372 756
54.77383 756
54.79395 750
54.81406 714
54.83417 759
54.85429 748
54.8744 704
54.89452 667
54.91463 606
54.93474 608
54.95486 551
54.97497 593
54.99508 519
55.0152 513
55.03531 515
55.05543 483
55.07554 464
55.09565 486
55.11577 527
55.13588 491
55.15599 486
55.17611 504
55.19622 519
55.21634 546
55.23645 508
55.25656 552
55.27668 495
55.29679 497
55.3169 490
55.33702 464
55.35713 459
55.37724 421
55.39736 462
55.41747 448
55.43759 387
55.4577 394
55.47781 414
55.49793 340
55.51804 350
55.53815 354
55.55827 383
55.57838 321
55.5985 319
55.61861 293
55.63872 342
55.65884 321
55.67895 319
55.69906 332
55.71918 338
55.73929 330
55.75941 314
55.77952 332
55.79963 322
55.81975 342
55.83986 321
55.85997 337
55.88009 313
55.9002 342
55.92031 322
55.94043 329
55.96054 341
55.98066 319
56.00077 334
56.02088 303
56.041 307
56.06111 321
56.08122 313
56.10134 315
56.12145 318
56.14157 309
56.16168 272
56.18179 335
56.20191 289
56.22202 335
56.24213 302
56.26225 337
56.28236 305
56.30248 338
56.32259 338
56.3427 333
56.36282 277
56.38293 325
56.40304 282
56.42316 353
56.44327 304
56.46338 306
56.4835 310
56.50361 299
56.52373 300
56.54384 343
56.56395 309
56.58407 325
56.60418 325
56.62429 297
56.64441 314
56.66452 301
56.68464 307
56.70475 311
56.72486 283
56.74498 280
56.76509 316
56.7852 309
56.80532 320
56.82543 304
56.84554 336
56.86566 342
56.88577 327
56.90589 293
56.926 296
56.94611 335
56.96623 311
56.98634 301
57.00645 308
57.02657 311
57.04668 289
57.0668 310
57.08691 365
57.10702 326
57.12714 340
57.14725 325
57.16736 323
57.18748 312
57.20759 282
57.22771 303
57.24782 357
57.26793 306
57.28805 324
57.30816 333
57.32827 320
57.34839 298
57.3685 293
57.38861 314
57.40873 275
57.42884 301
57.44896 292
57.46907 285
57.48918 280
57.5093 300
57.52941 303
57.54952 278
57.56964 296
57.58975 307
57.60987 273
57.62998 284
57.65009 299
57.67021 303
57.69032 292
57.71043 297
57.73055 290
57.75066 274
57.77078 261
57.79089 299
57.811 285
57.83112 318
57.85123 293
57.87134 280
57.89146 267
57.91157 276
57.93168 314
57.9518 305
57.97191 294
57.99203 295
58.01214 288
58.03225 288
58.05237 263
58.07248 290
58.09259 276
58.11271 280
58.13282 253
58.15294 271
58.17305 270
58.19316 304
58.21328 285
58.23339 289
58.2535 264
58.27362 271
58.29373 320
58.31385 313
58.33396 279
58.35407 260
58.37419 298
58.3943 296
58.41441 300
58.43453 259
58.45464 288
58.47475 270
58.49487 270
58.51498 271
58.5351 260
58.55521 318
58.57532 297
58.59544 258
58.61555 272
58.63566 275
58.65578 304
58.67589 284
58.69601 275
58.71612 297
58.73623 262
58.75635 280
58.77646 258
58.79657 264
58.81669 290
58.8368 300
58.85691 298
58.87703 285
58.89714 291
58.91726 294
58.93737 292
58.95748 295
58.9776 307
58.99771 287
59.01782 247
59.03794 263
59.05805 305
59.07817 276
59.09828 295
59.11839 280
59.13851 286
59.15862 265
59.17873 304
59.19885 303
59.21896 292
59.23908 278
59.25919 348
59.2793 332
59.29942 324
59.31953 329
59.33964 310
59.35976 321
59.37987 327
59.39998 298
59.4201 306
59.44021 375
59.46033 350
59.48044 371
59.50055 361
59.52067 369
59.54078 367
59.56089 430
59.58101 411
59.60112 462
59.62124 462
59.64135 537
59.66146 523
59.68158 603
59.70169 667
59.7218 727
59.74192 776
59.76203 859
59.78215 949
59.80226 1065
59.82237 1147
59.84249 1143
59.8626 1212
59.88271 1141
59.90283 1069
59.92294 986
59.94305 895
59.96317 872
59.98328 799
60.0034 831
60.02351 735
60.04362 689
60.06374 640
60.08385 586
60.10396 541
60.12408 475
60.14419 398
60.16431 377
60.18442 350
60.20453 346
60.22465 339
60.24476 300
60.26487 312
60.28499 315
60.3051 292
60.32522 315
60.34533 315
60.36544 298
60.38556 290
60.40567 289
60.42578 300
60.4459 265
60.46601 309
60.48612 289
60.50624 300
60.52635 287
60.54647 290
60.56658 290
60.58669 302
60.60681 292
60.62692 266
60.64703 300
60.66715 263
60.68726 284
60.70738 314
60.72749 262
60.7476 275
60.76772 259
60.78783 281
60.80794 271
60.82806 272
60.84817 267
60.86828 277
60.8884 312
60.90851 293
60.92863 291
60.94874 278
60.96885 284
60.98897 296
61.00908 298
61.02919 275
61.04931 274
61.06942 287
61.08954 266
61.10965 290
61.12976 278
61.14988 289
61.16999 283
61.1901 277
61.21022 257
61.23033 299
61.25045 274
61.27056 283
61.29067 288
61.31079 288
61.3309 311
61.35101 325
61.37113 265
61.39124 263
61.41135 272
61.43147 290
61.45158 265
61.4717 279
61.49181 263
61.51192 315
61.53204 282
61.55215 326
61.57226 323
61.59238 333
61.61249 315
61.63261 279
61.65272 331
61.67283 347
61.69295 307
61.71306 339
61.73317 299
61.75329 314
61.7734 345
61.79352 345
61.81363 340
61.83374 326
61.85386 368
61.87397 335
61.89408 366
61.9142 347
61.93431 376
61.95442 362
61.97454 366
61.99465 407
62.01477 384
62.03488 401
62.05499 429
62.07511 425
62.09522 424
62.11533 393
62.13545 437
62.15556 416
62.17568 472
62.19579 439
62.2159 451
62.23602 423
62.25613 424
62.27624 467
62.29636 426
62.31647 407
62.33659 399
62.3567 379
62.37681 434
62.39693 376
62.41704 349
62.43715 371
62.45727 357
62.47738 354
62.49749 351
62.51761 340
62.53772 296
62.55784 329
62.57795 346
62.59806 316
62.61818 348
62.63829 333
62.6584 302
62.67852 316
62.69863 323
62.71875 307
62.73886 309
62.75897 323
62.77909 304
62.7992 294
62.81931 298
62.83943 277
62.85954 290
62.87965 316
62.89977 261
62.91988 311
62.94 259
62.96011 323
62.98022 263
63.00034 298
63.02045 316
63.04056 286
63.06068 319
63.08079 300
63.10091 316
63.12102 301
63.14113 293
63.16125 285
63.18136 302
63.20147 266
63.22159 320
63.2417 285
63.26182 287
63.28193 315
63.30204 285
63.32216 304
63.34227 302
63.36238 297
63.3825 289
63.40261 301
63.42272 293
63.44284 299
63.46295 301
63.48307 285
63.50318 294
63.52329 282
63.54341 284
63.56352 302
63.58363 288
63.60375 297
63.62386 336
63.64398 334
63.66409 330
63.6842 327
63.70432 335
63.72443 336
63.74454 338
63.76466 342
63.78477 393
63.80489 364
63.825 392
63.84511 417
63.86523 430
63.88534 432
63.90545 460
63.92557 450
63.94568 473
63.96579 491
63.98591 451
64.00602 434
64.02614 448
64.04625 393
64.06636 395
64.08648 360
64.10659 379
64.1267 364
64.14682 377
64.16693 345
64.18705 324
64.20716 322
64.22727 335
64.24739 275
64.2675 277
64.28761 280
64.30773 291
64.32784 272
64.34796 288
64.36807 313
64.38818 271
64.4083 286
64.42841 298
64.44852 259
64.46864 277
64.48875 301
64.50886 276
64.52898 284
64.54909 307
64.56921 266
64.58932 273
64.60943 293
64.62955 240
64.64966 262
64.66977 259
64.68989 270
64.71 268
64.73012 283
64.75023 269
64.77034 279
64.79046 262
64.81057 282
64.83068 272
64.8508 255
64.87091 264
64.89102 247
64.91114 276
64.93125 256
64.95137 280
64.97148 249
64.99159 275
65.01171 270
65.03182 297
65.05193 253
65.07205 255
65.09216 280
65.11228 245
65.13239 288
65.1525 263
65.17262 260
65.19273 293
65.21284 297
65.23296 299
65.25307 249
65.27319 270
65.2933 247
65.31341 263
65.33353 267
65.35364 266
65.37375 259
65.39387 265
65.41398 257
65.43409 268
65.45421 284
65.47432 256
65.49444 275
65.51455 282
65.53466 282
65.55478 281
65.57489 293
65.595 316
65.61512 286
65.63523 276
65.65535 285
65.67546 323
65.69557 298
65.71569 287
65.7358 264
65.75591 257
65.77603 269
65.79614 303
65.81626 300
65.83637 295
65.85648 299
65.8766 299
65.89671 269
65.91682 253
65.93694 246
65.95705 255
65.97716 290
65.99728 270
66.01739 269
66.03751 264
66.05762 262
66.07773 275
66.09785 228
66.11796 251
66.13807 284
66.15819 279
66.1783 273
66.19842 289
66.21853 284
66.23864 267
66.25876 280
66.27887 271
66.29898 236
66.3191 270
66.33921 281
66.35933 253
66.37944 265
66.39955 284
66.41967 263
66.43978 298
66.45989 289
66.48001 281
66.50012 283
66.52023 304
66.54035 269
66.56046 259
66.58058 278
66.60069 289
66.6208 260
66.64092 285
66.66103 245
66.68114 277
66.70126 269
66.72137 293
66.74149 267
66.7616 290
66.78171 268
66.80183 285
66.82194 281
66.84205 278
66.86217 306
66.88228 298
66.90239 270
66.92251 279
66.94262 265
66.96274 273
66.98285 306
67.00296 257
67.02308 288
67.04319 287
67.0633 268
67.08342 263
67.10353 272
67.12365 305
67.14376 290
67.16387 315
67.18399 337
67.2041 287
67.22421 303
67.24433 308
67.26444 313
67.28456 299
67.30467 337
67.32478 352
67.3449 358
67.36501 403
67.38512 357
67.40524 420
67.42535 436
67.44546 407
67.46558 459
67.48569 511
67.50581 568
67.52592 588
67.54603 616
67.56615 676
67.58626 726
67.60637 771
67.62649 816
67.6466 813
67.66672 754
67.68683 749
67.70694 731
67.72706 726
67.74717 692
67.76728 703
67.7874 687
67.80751 775
67.82763 742
67.84774 680
67.86785 694
67.88797 744
67.90808 732
67.92819 777
67.94831 831
67.96842 866
67.98853 984
68.00865 951
68.02876 1048
68.04888 1082
68.06899 1012
68.0891 1064
68.10922 1006
68.12933 937
68.14944 919
68.16956 940
68.18967 955
68.20979 895
68.2299 959
68.25001 859
68.27013 867
68.29024 728
68.31035 699
68.33047 608
68.35058 591
68.3707 537
68.39081 493
68.41092 498
68.43104 488
68.45115 474
68.47126 431
68.49138 383
68.51149 348
68.5316 331
68.55172 332
68.57183 361
68.59195 275
68.61206 294
68.63217 271
68.65229 309
68.6724 311
68.69251 302
68.71263 297
68.73274 294
68.75286 261
68.77297 306
68.79308 301
68.8132 297
68.83331 265
68.85342 279
68.87354 283
68.89365 265
68.91376 267
68.93388 294
68.95399 279
68.97411 285
68.99422 277
69.01433 299
69.03445 254
69.05456 266
69.07467 249
69.09479 265
69.1149 275
69.13502 275
69.15513 279
69.17524 254
69.19536 278
69.21547 281
69.23558 287
69.2557 259
69.27581 279
69.29593 251
69.31604 278
69.33615 268
69.35627 254
69.37638 283
69.39649 265
69.41661 247
69.43672 246
69.45683 238
69.47695 243
69.49706 239
69.51718 279
69.53729 276
69.5574 286
69.57752 244
69.59763 226
69.61774 249
69.63786 279
69.65797 270
69.67809 256
69.6982 235
69.71831 244
69.73843 267
69.75854 292
69.77865 282
69.79877 257
69.81888 257
69.839 269
69.85911 256
69.87922 250
69.89934 280
69.91945 280
69.93956 258
69.95968 241
69.97979 249
69.9999 276
70.02002 253
70.04013 253
70.06025 259
70.08036 271
70.10047 268
70.12059 286
70.1407 274
70.16081 244
70.18093 274
70.20104 270
70.22116 265
70.24127 254
70.26138 253
70.2815 243
70.30161 251
70.32172 250
70.34184 248
70.36195 257
70.38207 241
70.40218 239
70.42229 240
70.44241 251
70.46252 233
70.48263 236
70.50275 262
70.52286 233
70.54297 228
70.56309 231
70.5832 258
70.60332 266
70.62343 248
70.64354 262
70.66366 238
70.68377 207
70.70388 225
70.724 253
70.74411 232
70.76423 237
70.78434 262
70.80445 270
70.82457 265
70.84468 252
70.86479 256
70.88491 257
70.90502 259
70.92513 234
70.94525 240
70.96536 230
70.98548 249
71.00559 252
71.0257 243
71.04582 233
71.06593 243
71.08604 258
71.10616 292
71.12627 245
71.14639 237
71.1665 256
71.18661 249
71.20673 207
71.22684 227
71.24695 267
71.26707 208
71.28718 231
71.3073 237
71.32741 257
71.34752 274
71.36764 242
71.38775 267
71.40786 249
71.42798 232
71.44809 264
71.4682 232
71.48832 279
71.50843 279
71.52855 248
71.54866 240
71.56877 246
71.58889 236
71.609 276
71.62911 255
71.64923 231
71.66934 263
71.68946 254
71.70957 281
71.72968 268
71.7498 255
71.76991 255
71.79002 275
71.81014 280
71.83025 245
71.85037 264
71.87048 277
71.89059 259
71.91071 230
71.93082 244
71.95093 272
71.97105 295
71.99116 291
72.01127 290
72.03139 278
72.0515 280
72.07162 296
72.09173 273
72.11184 269
72.13196 242
72.15207 254
72.17218 279
72.1923 300
72.21241 252
72.23253 266
72.25264 244
72.27275 239
72.29287 272
72.31298 274
72.33309 253
72.35321 271
72.37332 281
72.39344 246
72.41355 291
72.43366 257
72.45378 272
72.47389 257
72.494 247
72.51412 237
72.53423 249
72.55434 255
72.57446 251
72.59457 255
72.61469 246
72.6348 276
72.65491 278
72.67503 240
72.69514 267
72.71525 274
72.73537 267
72.75548 255
72.7756 261
72.79571 293
72.81582 263
72.83594 241
72.85605 242
72.87616 257
72.89628 241
72.91639 278
72.9365 281
72.95662 273
72.97673 262
72.99685 310
73.01696 288
73.03707 271
73.05719 278
73.0773 297
73.09741 297
73.11753 272
73.13764 294
73.15776 305
73.17787 302
73.19798 351
73.2181 313
73.23821 381
73.25832 374
73.27844 389
73.29855 399
73.31867 402
73.33878 419
73.35889 412
73.37901 437
73.39912 453
73.41923 404
73.43935 403
73.45946 346
73.47957 382
73.49969 381
73.5198 353
73.53992 366
73.56003 395
73.58014 343
73.60026 342
73.62037 361
73.64048 326
73.6606 287
73.68071 293
73.70083 324
73.72094 276
73.74105 276
73.76117 288
73.78128 216
73.80139 263
73.82151 277
73.84162 253
73.86174 261
73.88185 260
73.90196 256
73.92208 254
73.94219 267
73.9623 260
73.98242 244
74.00253 265
74.02264 241
74.04276 272
74.06287 256
74.08299 245
74.1031 249
74.12321 260
74.14333 250
74.16344 276
74.18355 251
74.20367 258
74.22378 257
74.2439 251
74.26401 233
74.28412 268
74.30424 255
74.32435 247
74.34446 252
74.36458 263
74.38469 243
74.40481 248
74.42492 244
74.44503 230
74.46515 263
74.48526 256
74.50537 234
74.52549 235
74.5456 232
74.56571 260
74.58583 293
74.60594 235
74.62606 236
74.64617 243
74.66628 248
74.6864 250
74.70651 272
74.72662 236
74.74674 232
74.76685 252
74.78697 271
74.80708 240
74.82719 291
74.84731 254
74.86742 245
74.88753 203
74.90765 268
74.92776 263
74.94787 258
74.96799 271
74.9881 271
75.00822 240
