3.00117 21029
3.02128 20562
3.0414 19715
3.06151 19353
3.08162 18985
3.10174 18489
3.12185 17928
3.14197 17316
3.16208 17067
3.18219 16171
3.20231 16132
3.22242 15569
3.24253 14839
3.26265 14502
3.28276 14154
3.30288 13636
3.32299 13262
3.3431 12843
3.36322 12540
3.38333 11883
3.40344 11942
3.42356 11649
3.44367 10837
3.46379 10879
3.4839 10238
3.50401 10087
3.52413 9438
3.54424 9131
3.56435 9087
3.58447 8472
3.60458 8193
3.62469 7912
3.64481 7576
3.66492 7317
3.68504 7103
3.70515 6739
3.72526 6591
3.74538 6214
3.76549 6278
3.7856 5956
3.80572 5526
3.82583 5348
3.84595 5288
3.86606 5010
3.88617 4715
3.90629 4698
3.9264 4379
3.94651 4203
3.96663 4218
3.98674 3985
4.00686 3774
4.02697 3491
4.04708 3306
4.0672 3273
4.08731 3117
4.10742 3021
4.12754 2797
4.14765 2813
4.16776 2742
4.18788 2721
4.20799 2580
4.22811 2354
4.24822 2288
4.26833 2331
4.28845 2198
4.30856 2106
4.32867 2084
4.34879 1961
4.3689 2029
4.38902 2015
4.40913 1801
4.42924 1844
4.44936 1720
4.46947 1764
4.48958 1753
4.5097 1652
4.52981 1558
4.54992 1576
4.57004 1698
4.59015 1551
4.61027 1436
4.63038 1464
4.65049 1460
4.67061 1415
4.69072 1456
4.71083 1297
4.73095 1364
4.75106 1262
4.77118 1294
4.79129 1319
4.8114 1210
4.83152 1258
4.85163 1227
4.87174 1301
4.89186 1231
4.91197 1141
4.93209 1119
4.9522 1122
4.97231 1125
4.99243 1093
5.01254 1009
5.03265 1006
5.05277 998
5.07288 1023
5.09299 1006
5.11311 998
5.13322 924
5.15334 964
5.17345 958
5.19356 897
5.21368 902
5.23379 891
5.2539 919
5.27402 892
5.29413 856
5.31425 892
5.33436 877
5.35447 875
5.37459 801
5.3947 841
5.41481 751
5.43493 752
5.45504 817
5.47516 800
5.49527 830
5.51538 833
5.5355 764
5.55561 718
5.57572 788
5.59584 758
5.61595 790
5.63606 731
5.65618 741
5.67629 740
5.69641 779
5.71652 680
5.73663 698
5.75675 792
5.77686 757
5.79697 713
5.81709 755
5.8372 666
5.85732 694
5.87743 683
5.89754 704
5.91766 690
5.93777 676
5.95788 661
5.978 669
5.99811 684
6.01823 620
6.03834 667
6.05845 660
6.07857 619
6.09868 711
6.11879 628
6.13891 597
6.15902 605
6.17913 659
6.19925 641
6.21936 629
6.23948 657
6.25959 587
6.2797 598
6.29982 617
6.31993 620
6.34004 546
6.36016 559
6.38027 531
6.40039 559
6.4205 583
6.44061 577
6.46073 587
6.48084 532
6.50095 555
6.52107 530
6.54118 553
6.56129 496
6.58141 477
6.60152 515
6.62164 541
6.64175 526
6.66186 547
6.68198 504
6.70209 453
6.7222 525
6.74232 493
6.76243 534
6.78255 490
6.80266 470
6.82277 473
6.84289 494
6.863 476
6.88311 509
6.90323 515
6.92334 474
6.94346 449
6.96357 485
6.98368 471
7.0038 472
7.02391 448
7.04402 438
7.06414 449
7.08425 456
7.10436 489
7.12448 453
7.14459 459
7.16471 455
7.18482 454
7.20493 441
7.22505 461
7.24516 446
7.26527 430
7.28539 458
7.3055 424
7.32562 440
7.34573 448
7.36584 437
7.38596 353
7.40607 458
7.42618 477
7.4463 440
7.46641 453
7.48653 442
7.50664 421
7.52675 414
7.54687 389
7.56698 452
7.58709 440
7.60721 465
7.62732 407
7.64743 398
7.66755 429
7.68766 417
7.70778 457
7.72789 404
7.748 439
7.76812 409
7.78823 422
7.80834 434
7.82846 422
7.84857 384
7.86869 419
7.8888 377
7.90891 380
7.92903 407
7.94914 422
7.96925 405
7.98937 381
8.00948 385
8.0296 396
8.04971 430
8.06982 396
8.08994 370
8.11005 364
8.13016 401
8.15028 385
8.17039 400
8.1905 372
8.21062 410
8.23073 389
8.25085 424
8.27096 394
8.29107 402
8.31119 417
8.3313 438
8.35141 431
8.37153 415
8.39164 406
8.41176 408
8.43187 372
8.45198 418
8.4721 388
8.49221 471
8.51232 388
8.53244 376
8.55255 407
8.57266 432
8.59278 379
8.61289 440
8.63301 415
8.65312 414
8.67323 440
8.69335 428
8.71346 414
8.73357 407
8.75369 459
8.7738 446
8.79392 468
8.81403 426
8.83414 423
8.85426 409
8.87437 399
8.89448 415
8.9146 414
8.93471 421
8.95483 368
8.97494 380
8.99505 386
9.01517 372
9.03528 381
9.05539 363
9.07551 342
9.09562 389
9.11573 383
9.13585 355
9.15596 361
9.17608 366
9.19619 375
9.2163 389
9.23642 353
9.25653 395
9.27664 349
9.29676 322
9.31687 337
9.33699 343
9.3571 341
9.37721 316
9.39733 342
9.41744 375
9.43755 415
9.45767 351
9.47778 349
9.4979 354
9.51801 357
9.53812 325
9.55824 337
9.57835 324
9.59846 383
9.61858 349
9.63869 333
9.6588 381
9.67892 358
9.69903 364
9.71915 329
9.73926 367
9.75937 359
9.77949 353
9.7996 397
9.81971 387
9.83983 352
9.85994 360
9.88006 336
9.90017 368
9.92028 348
9.9404 339
9.96051 376
9.98062 354
10.00074 352
10.02085 342
10.04097 367
10.06108 343
10.08119 340
10.10131 370
10.12142 317
10.14153 296
10.16165 314
10.18176 342
10.20187 352
10.22199 349
10.2421 341
10.26222 351
10.28233 327
10.30244 356
10.32256 349
10.34267 318
10.36278 349
10.3829 328
10.40301 336
10.42313 368
10.44324 407
10.46335 361
10.48347 376
10.50358 353
10.52369 361
10.54381 367
10.56392 368
10.58403 356
10.60415 324
10.62426 394
10.64438 345
10.66449 368
10.6846 342
10.70472 344
10.72483 338
10.74494 336
10.76506 331
10.78517 310
10.80529 326
10.8254 325
10.84551 310
10.86563 299
10.88574 362
10.90585 343
10.92597 296
10.94608 360
10.9662 328
10.98631 329
11.00642 326
11.02654 332
11.04665 371
11.06676 361
11.08688 327
11.10699 350
11.1271 341
11.14722 371
11.16733 311
11.18745 360
11.20756 328
11.22767 322
11.24779 348
11.2679 365
11.28801 331
11.30813 341
11.32824 342
11.34836 349
11.36847 347
11.38858 324
11.4087 344
11.42881 361
11.44892 375
11.46904 331
11.48915 400
11.50927 374
11.52938 372
11.54949 364
11.56961 357
11.58972 341
11.60983 362
11.62995 342
11.65006 317
11.67017 356
11.69029 376
11.7104 374
11.73052 363
11.75063 374
11.77074 401
11.79086 388
11.81097 390
11.83108 402
11.8512 395
11.87131 373
11.89143 360
11.91154 369
11.93165 407
11.95177 384
11.97188 371
11.99199 399
12.01211 385
12.03222 436
12.05234 374
12.07245 407
12.09256 403
12.11268 449
12.13279 422
12.1529 412
12.17302 400
12.19313 439
12.21324 472
12.23336 409
12.25347 428
12.27359 426
12.2937 452
12.31381 412
12.33393 388
12.35404 412
12.37415 367
12.39427 382
12.41438 411
12.4345 388
12.45461 376
12.47472 397
12.49484 363
12.51495 327
12.53506 398
12.55518 329
12.57529 332
12.5954 376
12.61552 372
12.63563 352
12.65575 321
12.67586 352
12.69597 355
12.71609 324
12.7362 326
12.75631 331
12.77643 360
12.79654 336
12.81666 336
12.83677 319
12.85688 315
12.877 316
12.89711 340
12.91722 274
12.93734 323
12.95745 319
12.97757 306
12.99768 334
13.01779 318
13.03791 331
13.05802 343
13.07813 330
13.09825 337
13.11836 349
13.13847 347
13.15859 329
13.1787 375
13.19882 319
13.21893 311
13.23904 303
13.25916 346
13.27927 342
13.29938 314
13.3195 340
13.33961 293
13.35973 375
13.37984 312
13.39995 324
13.42007 305
13.44018 316
13.46029 327
13.48041 356
13.50052 333
13.52064 356
13.54075 376
13.56086 365
13.58098 395
13.60109 339
13.6212 418
13.64132 403
13.66143 409
13.68154 391
13.70166 341
13.72177 337
13.74189 374
13.762 336
13.78211 335
13.80223 399
13.82234 344
13.84245 337
13.86257 349
13.88268 350
13.9028 347
13.92291 332
13.94302 320
13.96314 328
13.98325 306
14.00336 331
14.02348 298
14.04359 330
14.06371 321
14.08382 333
14.10393 294
14.12405 292
14.14416 307
14.16427 329
14.18439 296
14.2045 300
14.22461 243
14.24473 273
14.26484 296
14.28496 291
14.30507 305
14.32518 291
14.3453 265
14.36541 322
14.38552 279
14.40564 321
14.42575 303
14.44587 340
14.46598 316
14.48609 265
14.50621 285
14.52632 305
14.54643 288
14.56655 310
14.58666 265
14.60677 300
14.62689 271
14.647 281
14.66712 274
14.68723 297
14.70734 260
14.72746 280
14.74757 292
14.76768 302
14.7878 272
14.80791 312
14.82803 296
14.84814 323
14.86825 331
14.88837 337
14.90848 325
14.92859 346
14.94871 322
14.96882 335
14.98894 366
15.00905 351
15.02916 362
15.04928 334
15.06939 337
15.0895 380
15.10962 351
15.12973 366
15.14984 291
15.16996 324
15.19007 334
15.21019 341
15.2303 316
15.25041 307
15.27053 342
15.29064 318
15.31075 288
15.33087 278
15.35098 288
15.3711 299
15.39121 293
15.41132 304
15.43144 275
15.45155 285
15.47166 328
15.49178 279
15.51189 292
15.53201 263
15.55212 310
15.57223 291
15.59235 305
15.61246 294
15.63257 308
15.65269 291
15.6728 321
15.69291 346
15.71303 317
15.73314 309
15.75326 297
15.77337 303
15.79348 274
15.8136 308
15.83371 337
15.85382 292
15.87394 312
15.89405 299
15.91417 253
15.93428 301
15.95439 257
15.97451 264
15.99462 318
16.01473 284
16.03485 275
16.05496 269
16.07508 246
16.09519 299
16.1153 280
16.13542 288
16.15553 285
16.17564 287
16.19576 315
16.21587 252
16.23598 274
16.2561 266
16.27621 262
16.29633 267
16.31644 289
16.33655 274
16.35667 285
16.37678 299
16.39689 271
16.41701 312
16.43712 269
16.45724 296
16.47735 275
16.49746 289
16.51758 316
16.53769 281
16.5578 305
16.57792 316
16.59803 286
16.61814 271
16.63826 275
16.65837 282
16.67849 285
16.6986 286
16.71871 261
16.73883 282
16.75894 297
16.77905 303
16.79917 286
16.81928 302
16.8394 297
16.85951 276
16.87962 275
16.89974 271
16.91985 252
16.93996 288
16.96008 280
16.98019 292
17.00031 304
17.02042 285
17.04053 274
17.06065 254
17.08076 280
17.10087 259
17.12099 286
17.1411 287
17.16121 293
17.18133 293
17.20144 291
17.22156 277
17.24167 301
17.26178 291
17.2819 301
17.30201 258
17.32212 309
17.34224 307
17.36235 287
17.38247 261
17.40258 300
17.42269 280
17.44281 293
17.46292 290
17.48303 302
17.50315 284
17.52326 316
17.54338 284
17.56349 333
17.5836 271
17.60372 310
17.62383 282
17.64394 263
17.66406 250
17.68417 311
17.70428 298
17.7244 292
17.74451 309
17.76463 282
17.78474 318
17.80485 277
17.82497 297
17.84508 325
17.86519 300
17.88531 288
17.90542 282
17.92554 309
17.94565 265
17.96576 308
17.98588 328
18.00599 286
18.0261 294
18.04622 300
18.06633 315
18.08645 288
18.10656 303
18.12667 303
18.14679 302
18.1669 315
18.18701 265
18.20713 310
18.22724 316
18.24735 312
18.26747 312
18.28758 309
18.3077 295
18.32781 283
18.34792 307
18.36804 304
18.38815 297
18.40826 285
18.42838 273
18.44849 297
18.46861 336
18.48872 279
18.50883 285
18.52895 269
18.54906 293
18.56917 302
18.58929 292
18.6094 316
18.62951 318
18.64963 294
18.66974 257
18.68986 285
18.70997 317
18.73008 323
18.7502 288
18.77031 324
18.79042 303
18.81054 317
18.83065 316
18.85077 356
18.87088 328
18.89099 327
18.91111 314
18.93122 314
18.95133 322
18.97145 338
18.99156 289
19.01168 306
19.03179 289
19.0519 285
19.07202 311
19.09213 345
19.11224 326
19.13236 354
19.15247 319
19.17258 356
19.1927 363
19.21281 383
19.23293 406
19.25304 407
19.27315 379
19.29327 420
19.31338 409
19.33349 411
19.35361 413
19.37372 432
19.39384 416
19.41395 410
19.43406 475
19.45418 420
19.47429 464
19.4944 468
19.51452 503
19.53463 483
19.55475 505
19.57486 487
19.59497 537
19.61509 494
19.6352 488
19.65531 546
19.67543 575
19.69554 547
19.71565 550
19.73577 570
19.75588 551
19.776 562
19.79611 542
19.81622 613
19.83634 582
19.85645 623
19.87656 641
19.89668 599
19.91679 625
19.93691 587
19.95702 565
19.97713 589
19.99725 634
20.01736 559
20.03747 535
20.05759 586
20.0777 575
20.09782 537
20.11793 524
20.13804 585
20.15816 544
20.17827 516
20.19838 544
20.2185 566
20.23861 490
20.25872 522
20.27884 488
20.29895 516
20.31907 584
20.33918 534
20.35929 573
20.37941 545
20.39952 557
20.41963 555
20.43975 561
20.45986 530
20.47998 573
20.50009 567
20.5202 578
20.54032 562
20.56043 546
20.58054 606
20.60066 644
20.62077 709
20.64088 735
20.661 830
20.68111 940
20.70123 1056
20.72134 1137
20.74145 1336
20.76157 1632
20.78168 1741
20.80179 1899
20.82191 2023
20.84202 2117
20.86214 2039
20.88225 1895
20.90236 1569
20.92248 1312
20.94259 1263
20.9627 1166
20.98282 1111
21.00293 1015
21.02305 944
21.04316 912
21.06327 772
21.08339 768
21.1035 651
21.12361 619
21.14373 583
21.16384 574
21.18395 531
21.20407 493
21.22418 499
21.2443 501
21.26441 551
21.28452 534
21.30464 460
21.32475 482
21.34486 471
21.36498 526
21.38509 472
21.40521 486
21.42532 448
21.44543 490
21.46555 448
21.48566 486
21.50577 411
21.52589 450
21.546 469
21.56612 491
21.58623 448
21.60634 433
21.62646 447
21.64657 475
21.66668 428
21.6868 516
21.70691 455
21.72702 459
21.74714 525
21.76725 490
21.78737 503
21.80748 523
21.82759 554
21.84771 584
21.86782 645
21.88793 691
21.90805 719
21.92816 786
21.94828 814
21.96839 764
21.9885 852
22.00862 773
22.02873 715
22.04884 623
22.06896 569
22.08907 539
22.10919 547
22.1293 475
22.14941 499
22.16953 422
22.18964 433
22.20975 529
22.22987 453
22.24998 478
22.27009 500
22.29021 490
22.31032 490
22.33044 509
22.35055 528
22.37066 504
22.39078 525
22.41089 511
22.431 465
22.45112 522
22.47123 469
22.49135 483
22.51146 501
22.53157 471
22.55169 498
22.5718 497
22.59191 443
22.61203 469
22.63214 471
22.65225 436
22.67237 453
22.69248 458
22.7126 458
22.73271 484
22.75282 436
22.77294 457
22.79305 469
22.81316 439
22.83328 443
22.85339 467
22.87351 528
22.89362 500
22.91373 505
22.93385 511
22.95396 516
22.97407 506
22.99419 551
23.0143 503
23.03442 538
23.05453 509
23.07464 521
23.09476 532
23.11487 538
23.13498 581
23.1551 526
23.17521 553
23.19532 572
23.21544 533
23.23555 553
23.25567 525
23.27578 517
23.29589 547
23.31601 572
23.33612 571
23.35623 567
23.37635 598
23.39646 646
23.41658 604
23.43669 640
23.4568 605
23.47692 713
23.49703 693
23.51714 692
23.53726 810
23.55737 757
23.57749 781
23.5976 745
23.61771 723
23.63783 659
23.65794 647
23.67805 639
23.69817 567
23.71828 626
23.73839 640
23.75851 634
23.77862 657
23.79874 647
23.81885 718
23.83896 646
23.85908 629
23.87919 640
23.8993 578
23.91942 584
23.93953 564
23.95965 585
23.97976 602
23.99987 586
24.01999 563
24.0401 556
24.06021 553
24.08033 514
24.10044 554
24.12056 526
24.14067 519
24.16078 611
24.1809 561
24.20101 604
24.22112 589
24.24124 644
24.26135 634
24.28146 634
24.30158 629
24.32169 638
24.34181 627
24.36192 642
24.38203 550
24.40215 611
24.42226 594
24.44237 610
24.46249 608
24.4826 539
24.50272 528
24.52283 592
24.54294 522
24.56306 530
24.58317 518
24.60328 511
24.6234 546
24.64351 544
24.66362 554
24.68374 539
24.70385 569
24.72397 556
24.74408 518
24.76419 470
24.78431 573
24.80442 534
24.82453 563
24.84465 522
24.86476 541
24.88488 510
24.90499 517
24.9251 491
24.94522 512
24.96533 539
24.98544 494
25.00556 489
25.02567 544
25.04579 465
25.0659 532
25.08601 532
25.10613 535
25.12624 492
25.14635 522
25.16647 511
25.18658 530
25.20669 488
25.22681 532
25.24692 558
25.26704 504
25.28715 548
25.30726 545
25.32738 524
25.34749 650
25.3676 551
25.38772 595
25.40783 632
25.42795 644
25.44806 679
25.46817 701
25.48829 730
25.5084 812
25.52851 826
25.54863 860
25.56874 844
25.58886 831
25.60897 871
25.62908 785
25.6492 733
25.66931 696
25.68942 658
25.70954 626
25.72965 594
25.74976 570
25.76988 521
25.78999 543
25.81011 540
25.83022 532
25.85033 522
25.87045 506
25.89056 522
25.91067 510
25.93079 501
25.9509 479
25.97102 487
25.99113 538
26.01124 514
26.03136 561
26.05147 582
26.07158 559
26.0917 568
26.11181 655
26.13193 627
26.15204 638
26.17215 733
26.19227 704
26.21238 722
26.23249 827
26.25261 868
26.27272 913
26.29283 1027
26.31295 1139
26.33306 1290
26.35318 1440
26.37329 1551
26.3934 1835
26.41352 2146
26.43363 2433
26.45374 3092
26.47386 3569
26.49397 4239
26.51409 5007
26.5342 5929
26.55431 6578
26.57443 7213
26.59454 7634
26.61465 7246
26.63477 6741
26.65488 5702
26.67499 4394
26.69511 3372
26.71522 2491
26.73534 1894
26.75545 1487
26.77556 1172
26.79568 1075
26.81579 1073
26.8359 1070
26.85602 1031
26.87613 992
26.89625 1020
26.91636 959
26.93647 967
26.95659 995
26.9767 1081
26.99681 1076
27.01693 1023
27.03704 1071
27.05716 1011
27.07727 984
27.09738 893
27.1175 892
27.13761 807
27.15772 793
27.17784 816
27.19795 806
27.21806 754
27.23818 800
27.25829 896
27.27841 873
27.29852 994
27.31863 977
27.33875 1080
27.35886 1189
27.37897 1204
27.39909 1323
27.4192 1369
27.43932 1303
27.45943 1312
27.47954 1225
27.49966 1229
27.51977 1105
27.53988 961
27.56 968
27.58011 913
27.60023 915
27.62034 936
27.64045 935
27.66057 949
27.68068 1097
27.70079 1141
27.72091 1242
27.74102 1257
27.76113 1270
27.78125 1224
27.80136 1296
27.82148 1201
27.84159 1154
27.8617 1090
27.88182 1059
27.90193 1076
27.92204 1114
27.94216 1017
27.96227 969
27.98239 934
28.0025 870
28.02261 807
28.04273 754
28.06284 680
28.08295 618
28.10307 510
28.12318 526
28.1433 553
28.16341 523
28.18352 539
28.20364 559
28.22375 565
28.24386 563
28.26398 576
28.28409 561
28.3042 602
28.32432 562
28.34443 564
28.36455 567
28.38466 508
28.40477 483
28.42489 470
28.445 432
28.46511 425
28.48523 438
28.50534 409
28.52546 413
28.54557 407
28.56568 389
28.5858 440
28.60591 372
28.62602 436
28.64614 360
28.66625 370
28.68636 382
28.70648 393
28.72659 360
28.74671 389
28.76682 394
28.78693 375
28.80705 403
28.82716 375
28.84727 383
28.86739 394
28.8875 373
28.90762 386
28.92773 374
28.94784 382
28.96796 359
28.98807 373
29.00818 397
29.0283 384
29.04841 382
29.06853 374
29.08864 385
29.10875 330
29.12887 392
29.14898 379
29.16909 382
29.18921 369
29.20932 385
29.22943 394
29.24955 394
29.26966 446
29.28978 416
29.30989 457
29.33 422
29.35012 462
29.37023 480
29.39034 479
29.41046 442
29.43057 467
29.45069 436
29.4708 506
29.49091 455
29.51103 533
29.53114 444
29.55125 457
29.57137 524
29.59148 467
29.6116 513
29.63171 465
29.65182 501
29.67194 531
29.69205 522
29.71216 534
29.73228 559
29.75239 513
29.7725 539
29.79262 556
29.81273 529
29.83285 511
29.85296 539
29.87307 491
29.89319 539
29.9133 471
29.93341 523
29.95353 462
29.97364 479
29.99376 476
30.01387 485
30.03398 503
30.0541 505
30.07421 546
30.09432 533
30.11444 573
30.13455 494
30.15467 535
30.17478 544
30.19489 598
30.21501 566
30.23512 536
30.25523 541
30.27535 595
30.29546 553
30.31557 578
30.33569 540
30.3558 513
30.37592 545
30.39603 577
30.41614 504
30.43626 506
30.45637 512
30.47648 538
30.4966 485
30.51671 494
30.53683 513
30.55694 473
30.57705 494
30.59717 460
30.61728 490
30.63739 519
30.65751 517
30.67762 514
30.69773 578
30.71785 545
30.73796 565
30.75808 591
30.77819 544
30.7983 566
30.81842 515
30.83853 520
30.85864 457
30.87876 428
30.89887 446
30.91899 434
30.9391 411
30.95921 378
30.97933 362
30.99944 355
31.01955 317
31.03967 360
31.05978 323
31.0799 345
31.10001 345
31.12012 331
31.14024 358
31.16035 367
31.18046 343
31.20058 366
31.22069 359
31.2408 380
31.26092 383
31.28103 388
31.30115 342
31.32126 416
31.34137 384
31.36149 400
31.3816 442
31.40171 403
31.42183 393
31.44194 353
31.46206 372
31.48217 356
31.50228 368
31.5224 364
31.54251 378
31.56262 353
31.58274 345
31.60285 352
31.62297 354
31.64308 322
31.66319 347
31.68331 316
31.70342 339
31.72353 365
31.74365 323
31.76376 345
31.78387 311
31.80399 364
31.8241 339
31.84422 341
31.86433 338
31.88444 338
31.90456 339
31.92467 346
31.94478 354
31.9649 371
31.98501 342
32.00513 316
32.02524 377
32.04535 346
32.06547 395
32.08558 346
32.10569 392
32.12581 404
32.14592 381
32.16604 389
32.18615 367
32.20626 413
32.22638 409
32.24649 434
32.2666 424
32.28672 403
32.30683 382
32.32694 392
32.34706 415
32.36717 426
32.38729 424
32.4074 406
32.42751 400
32.44763 413
32.46774 415
32.48785 384
32.50797 383
32.52808 379
32.5482 364
32.56831 348
32.58842 300
32.60854 356
32.62865 325
32.64876 372
32.66888 376
32.68899 352
32.7091 362
32.72922 337
32.74933 318
32.76945 347
32.78956 342
32.80967 351
32.82979 326
32.8499 333
32.87001 323
32.89013 357
32.91024 317
32.93036 366
32.95047 334
32.97058 340
32.9907 371
33.01081 375
33.03092 356
33.05104 316
33.07115 330
33.09127 305
33.11138 345
33.13149 328
33.15161 328
33.17172 305
33.19183 308
33.21195 307
33.23206 358
33.25217 343
33.27229 338
33.2924 314
33.31252 313
33.33263 342
33.35274 334
33.37286 318
33.39297 312
33.41308 326
33.4332 321
33.45331 325
33.47343 310
33.49354 335
33.51365 334
33.53377 315
33.55388 331
33.57399 364
33.59411 359
33.61422 357
33.63434 341
33.65445 367
33.67456 385
33.69468 383
33.71479 348
33.7349 374
33.75502 392
33.77513 353
33.79524 374
33.81536 365
33.83547 419
33.85559 419
33.8757 399
33.89581 387
33.91593 360
33.93604 379
33.95615 397
33.97627 421
33.99638 388
34.0165 425
34.03661 402
34.05672 445
34.07684 542
34.09695 451
34.11706 499
34.13718 542
34.15729 520
34.17741 583
34.19752 547
34.21763 488
34.23775 550
34.25786 538
34.27797 508
34.29809 543
34.3182 542
34.33831 492
34.35843 523
34.37854 536
34.39866 515
34.41877 504
34.43888 481
34.459 521
34.47911 495
34.49922 500
34.51934 416
34.53945 532
34.55957 476
34.57968 534
34.59979 473
34.61991 494
34.64002 528
34.66013 495
34.68025 491
34.70036 509
34.72047 504
34.74059 524
34.7607 507
34.78082 567
34.80093 536
34.82104 561
34.84116 557
34.86127 542
34.88138 576
34.9015 533
34.92161 547
34.94173 533
34.96184 544
34.98195 590
35.00207 550
35.02218 531
35.04229 521
35.06241 566
35.08252 564
35.10264 535
35.12275 538
35.14286 528
35.16298 532
35.18309 596
35.2032 574
35.22332 559
35.24343 560
35.26354 562
35.28366 586
35.30377 542
35.32389 558
35.344 572
35.36411 575
35.38423 603
35.40434 553
35.42445 611
35.44457 565
35.46468 564
35.4848 578
35.50491 539
35.52502 537
35.54514 528
35.56525 522
35.58536 553
35.60548 481
35.62559 456
35.64571 487
35.66582 504
35.68593 494
35.70605 468
35.72616 506
35.74627 505
35.76639 479
35.7865 458
35.80661 483
35.82673 452
35.84684 448
35.86696 480
35.88707 477
35.90718 437
35.9273 467
35.94741 477
35.96752 505
35.98764 494
36.00775 488
36.02787 448
36.04798 469
36.06809 450
36.08821 429
36.10832 433
36.12843 402
36.14855 428
36.16866 422
36.18878 432
36.20889 457
36.229 481
36.24912 502
36.26923 451
36.28934 478
36.30946 509
36.32957 512
36.34968 589
36.3698 606
36.38991 606
36.41003 761
36.43014 759
36.45025 809
36.47037 875
36.49048 830
36.51059 829
36.53071 724
36.55082 729
36.57094 730
36.59105 639
36.61116 634
36.63128 560
36.65139 534
36.6715 489
36.69162 464
36.71173 468
36.73184 421
36.75196 470
36.77207 462
36.79219 491
36.8123 445
36.83241 498
36.85253 454
36.87264 480
36.89275 449
36.91287 468
36.93298 517
36.9531 488
36.97321 478
36.99332 463
37.01344 460
37.03355 466
37.05366 485
37.07378 466
37.09389 462
37.11401 445
37.13412 409
37.15423 434
37.17435 399
37.19446 431
37.21457 439
37.23469 433
37.2548 415
37.27491 457
37.29503 443
37.31514 415
37.33526 407
37.35537 427
37.37548 406
37.3956 394
37.41571 407
37.43582 377
37.45594 381
37.47605 449
37.49617 390
37.51628 381
37.53639 409
37.55651 411
37.57662 399
37.59673 428
37.61685 435
37.63696 443
37.65708 410
37.67719 408
37.6973 417
37.71742 407
37.73753 439
37.75764 397
37.77776 403
37.79787 387
37.81798 399
37.8381 380
37.85821 376
37.87833 359
37.89844 373
37.91855 349
37.93867 386
37.95878 381
37.97889 416
37.99901 398
38.01912 337
38.03924 402
38.05935 372
38.07946 399
38.09958 406
38.11969 391
38.1398 408
38.15992 415
38.18003 383
38.20015 392
38.22026 368
38.24037 413
38.26049 398
38.2806 407
38.30071 429
38.32083 428
38.34094 422
38.36105 422
38.38117 432
38.40128 426
38.4214 399
38.44151 399
38.46162 443
38.48174 419
38.50185 496
38.52196 410
38.54208 424
38.56219 430
38.58231 421
38.60242 429
38.62253 424
38.64265 434
38.66276 386
38.68287 349
38.70299 399
38.7231 373
38.74321 385
38.76333 381
38.78344 391
38.80356 365
38.82367 426
38.84378 354
38.8639 422
38.88401 388
38.90412 342
38.92424 381
38.94435 370
38.96447 393
38.98458 383
39.00469 386
39.02481 401
39.04492 392
39.06503 405
39.08515 452
39.10526 415
39.12538 424
39.14549 409
39.1656 456
39.18572 435
39.20583 465
39.22594 464
39.24606 554
39.26617 570
39.28628 581
39.3064 615
39.32651 592
39.34663 699
39.36674 704
39.38685 795
39.40697 771
39.42708 775
39.44719 715
39.46731 659
39.48742 620
39.50754 583
39.52765 546
39.54776 513
39.56788 466
39.58799 429
39.6081 430
39.62822 414
39.64833 378
39.66845 406
39.68856 354
39.70867 357
39.72879 369
39.7489 340
39.76901 358
39.78913 319
39.80924 353
39.82935 396
39.84947 363
39.86958 348
39.8897 332
39.90981 359
39.92992 386
39.95004 387
39.97015 388
39.99026 382
40.01038 397
40.03049 363
40.05061 369
40.07072 408
40.09083 432
40.11095 466
40.13106 468
40.15117 470
40.17129 544
40.1914 531
40.21152 527
40.23163 578
40.25174 538
40.27186 515
40.29197 520
40.31208 472
40.3322 481
40.35231 416
40.37242 420
40.39254 390
40.41265 374
40.43277 390
40.45288 385
40.47299 384
40.49311 356
40.51322 332
40.53333 354
40.55345 349
40.57356 346
40.59368 370
40.61379 377
40.6339 356
40.65402 367
40.67413 336
40.69424 378
40.71436 364
40.73447 352
40.75458 364
40.7747 322
40.79481 325
40.81493 313
40.83504 332
40.85515 379
40.87527 383
40.89538 354
40.91549 367
40.93561 353
40.95572 343
40.97584 373
40.99595 380
41.01606 346
41.03618 375
41.05629 358
41.0764 356
41.09652 348
41.11663 351
41.13675 363
41.15686 362
41.17697 371
41.19709 378
41.2172 364
41.23731 345
41.25743 367
41.27754 339
41.29765 353
41.31777 367
41.33788 391
41.358 372
41.37811 342
41.39822 391
41.41834 384
41.43845 360
41.45856 409
41.47868 393
41.49879 375
41.51891 388
41.53902 430
41.55913 413
41.57925 460
41.59936 484
41.61947 466
41.63959 462
41.6597 492
41.67982 475
41.69993 489
41.72004 523
41.74016 532
41.76027 482
41.78038 495
41.8005 473
41.82061 451
41.84072 430
41.86084 435
41.88095 376
41.90107 383
41.92118 382
41.94129 364
41.96141 328
41.98152 360
42.00163 369
42.02175 370
42.04186 341
42.06198 351
42.08209 329
42.1022 394
42.12232 375
42.14243 383
42.16254 403
42.18266 421
42.20277 414
42.22289 432
42.243 465
42.26311 487
42.28323 447
42.30334 561
42.32345 550
42.34357 618
42.36368 646
42.38379 612
42.40391 651
42.42402 606
42.44414 610
42.46425 589
42.48436 510
42.50448 489
42.52459 511
42.5447 466
42.56482 412
42.58493 402
42.60505 395
42.62516 389
42.64527 416
42.66539 422
42.6855 399
42.70561 373
42.72573 419
42.74584 373
42.76595 399
42.78607 331
42.80618 372
42.8263 352
42.84641 322
42.86652 363
42.88664 380
42.90675 346
42.92686 342
42.94698 348
42.96709 319
42.98721 335
43.00732 358
43.02743 319
43.04755 314
43.06766 313
43.08777 336
43.10789 319
43.128 306
43.14812 307
43.16823 316
43.18834 284
43.20846 311
43.22857 305
43.24868 302
43.2688 310
43.28891 291
43.30902 264
43.32914 325
43.34925 300
43.36937 335
43.38948 316
43.40959 307
43.42971 335
43.44982 339
43.46993 304
43.49005 326
43.51016 307
43.53028 324
43.55039 295
43.5705 297
43.59062 302
43.61073 296
43.63084 319
43.65096 297
43.67107 306
43.69119 310
43.7113 322
43.73141 328
43.75153 304
43.77164 296
43.79175 300
43.81187 310
43.83198 313
43.85209 285
43.87221 279
43.89232 307
43.91244 298
43.93255 305
43.95266 289
43.97278 307
43.99289 277
44.013 325
44.03312 292
44.05323 310
44.07335 289
44.09346 340
44.11357 319
44.13369 335
44.1538 270
44.17391 283
44.19403 298
44.21414 282
44.23426 337
44.25437 308
44.27448 329
44.2946 309
44.31471 291
44.33482 294
44.35494 298
44.37505 260
44.39516 305
44.41528 298
44.43539 326
44.45551 325
44.47562 327
44.49573 283
44.51585 306
44.53596 336
44.55607 322
44.57619 327
44.5963 335
44.61642 317
44.63653 326
44.65664 332
44.67676 317
44.69687 323
44.71698 333
44.7371 328
44.75721 322
44.77732 328
44.79744 322
44.81755 331
44.83767 338
44.85778 316
44.87789 328
44.89801 343
44.91812 289
44.93823 383
44.95835 334
44.97846 378
44.99858 340
45.01869 361
45.0388 364
45.05892 352
45.07903 341
45.09914 367
45.11926 316
45.13937 356
45.15949 361
45.1796 356
45.19971 324
45.21983 341
45.23994 364
45.26005 353
45.28017 326
45.30028 378
45.32039 329
45.34051 367
45.36062 356
45.38074 366
45.40085 374
45.42096 367
45.44108 396
45.46119 406
45.4813 427
45.50142 419
45.52153 426
45.54165 413
45.56176 425
45.58187 462
45.60199 475
45.6221 491
45.64221 489
45.66233 514
45.68244 532
45.70256 523
45.72267 517
45.74278 513
45.7629 523
45.78301 523
45.80312 462
45.82324 429
45.84335 451
45.86346 427
45.88358 416
45.90369 401
45.92381 377
45.94392 382
45.96403 357
45.98415 354
46.00426 342
46.02437 334
46.04449 309
46.0646 357
46.08472 386
46.10483 319
46.12494 330
46.14506 359
46.16517 348
46.18528 331
46.2054 329
46.22551 308
46.24563 310
46.26574 329
46.28585 304
46.30597 321
46.32608 331
46.34619 340
46.36631 317
46.38642 308
46.40653 297
46.42665 302
46.44676 297
46.46688 309
46.48699 261
46.5071 323
46.52722 310
46.54733 290
46.56744 313
46.58756 328
46.60767 320
46.62779 298
46.6479 301
46.66801 345
46.68813 290
46.70824 324
46.72835 365
46.74847 296
46.76858 307
46.78869 323
46.80881 313
46.82892 313
46.84904 319
46.86915 353
46.88926 313
46.90938 311
46.92949 315
46.9496 331
46.96972 343
46.98983 348
47.00995 365
47.03006 343
47.05017 372
47.07029 354
47.0904 317
47.11051 343
47.13063 346
47.15074 382
47.17086 364
47.19097 343
47.21108 349
47.2312 336
47.25131 357
47.27142 341
47.29154 373
47.31165 355
47.33176 369
47.35188 336
47.37199 361
47.39211 377
47.41222 358
47.43233 356
47.45245 325
47.47256 326
47.49267 359
47.51279 391
47.5329 320
47.55302 345
47.57313 305
47.59324 308
47.61336 289
47.63347 313
47.65358 292
47.6737 320
47.69381 318
47.71393 307
47.73404 275
47.75415 257
47.77427 288
47.79438 291
47.81449 296
47.83461 317
47.85472 319
47.87483 322
47.89495 321
47.91506 312
47.93518 348
47.95529 268
47.9754 315
47.99552 354
48.01563 318
48.03574 311
48.05586 313
48.07597 332
48.09609 333
48.1162 312
48.13631 296
48.15643 293
48.17654 315
48.19665 302
48.21677 306
48.23688 296
48.257 313
48.27711 289
48.29722 323
48.31734 309
48.33745 310
48.35756 294
48.37768 323
48.39779 291
48.4179 320
48.43802 301
48.45813 326
48.47825 281
48.49836 311
48.51847 304
48.53859 307
48.5587 325
48.57881 329
48.59893 288
48.61904 358
48.63916 314
48.65927 303
48.67938 339
48.6995 322
48.71961 339
48.73972 337
48.75984 361
48.77995 326
48.80006 364
48.82018 353
48.84029 368
48.86041 339
48.88052 344
48.90063 342
48.92075 376
48.94086 312
48.96097 369
48.98109 313
49.0012 311
49.02132 330
49.04143 321
49.06154 338
49.08166 349
49.10177 314
49.12188 350
49.142 339
49.16211 328
49.18223 351
49.20234 374
49.22245 342
49.24257 318
49.26268 329
49.28279 322
49.30291 327
49.32302 308
49.34313 363
49.36325 305
49.38336 320
49.40348 329
49.42359 299
49.4437 327
49.46382 333
49.48393 322
49.50404 356
49.52416 347
49.54427 339
49.56439 340
49.5845 331
49.60461 338
49.62473 395
49.64484 381
49.66495 390
49.68507 401
49.70518 396
49.7253 414
49.74541 444
49.76552 454
49.78564 451
49.80575 509
49.82586 480
49.84598 534
49.86609 549
49.8862 575
49.90632 579
49.92643 651
49.94655 693
49.96666 713
49.98677 746
50.00689 849
50.027 946
50.04711 1034
50.06723 1002
50.08734 969
50.10746 942
50.12757 899
50.14768 850
50.1678 706
50.18791 697
50.20802 693
50.22814 649
50.24825 564
50.26837 513
50.28848 475
50.30859 465
50.32871 437
50.34882 410
50.36893 452
50.38905 412
50.40916 436
50.42927 469
50.44939 490
50.4695 524
50.48962 490
50.50973 458
50.52984 526
50.54996 476
50.57007 463
50.59018 464
50.6103 472
50.63041 460
50.65053 443
50.67064 443
50.69075 456
50.71087 454
50.73098 437
50.75109 470
50.77121 428
50.79132 388
50.81143 372
50.83155 347
50.85166 346
50.87178 362
50.89189 349
50.912 335
50.93212 322
50.95223 310
50.97234 326
50.99246 363
51.01257 354
51.03269 340
51.0528 318
51.07291 328
51.09303 322
51.11314 320
51.13325 304
51.15337 331
51.17348 331
51.1936 314
51.21371 325
51.23382 305
51.25394 337
51.27405 346
51.29416 341
51.31428 342
51.33439 339
51.3545 344
51.37462 306
51.39473 338
51.41485 317
51.43496 339
51.45507 291
51.47519 277
51.4953 343
51.51541 325
51.53553 328
51.55564 290
51.57576 307
51.59587 285
51.61598 256
51.6361 280
51.65621 251
51.67632 308
51.69644 284
51.71655 269
51.73667 281
51.75678 310
51.77689 243
51.79701 264
51.81712 289
51.83723 273
51.85735 289
51.87746 273
51.89757 278
51.91769 290
51.9378 284
51.95792 274
51.97803 273
51.99814 281
52.01826 261
52.03837 285
52.05848 272
52.0786 290
52.09871 315
52.11883 295
52.13894 280
52.15905 293
52.17917 296
52.19928 279
52.21939 314
52.23951 313
52.25962 280
52.27974 293
52.29985 296
52.31996 330
52.34008 309
52.36019 324
52.3803 303
52.40042 315
52.42053 321
52.44064 305
52.46076 325
52.48087 301
52.50099 284
52.5211 299
52.54121 280
52.56133 320
52.58144 291
52.60155 293
52.62167 269
52.64178 305
52.6619 303
52.68201 306
52.70212 300
52.72224 281
52.74235 311
52.76246 324
52.78258 312
52.80269 302
52.8228 300
52.84292 299
52.86303 313
52.88315 311
52.90326 346
52.92337 302
52.94349 325
52.9636 343
52.98371 339
53.00383 346
53.02394 318
53.04406 304
53.06417 339
53.08428 322
53.1044 304
53.12451 344
53.14462 328
53.16474 338
53.18485 336
53.20497 303
53.22508 314
53.24519 310
53.26531 293
53.28542 360
53.30553 351
53.32565 330
53.34576 330
53.36587 310
53.38599 294
53.4061 311
53.42622 335
53.44633 306
53.46644 308
53.48656 305
53.50667 334
53.52678 318
53.5469 311
53.56701 299
53.58713 319
53.60724 294
53.62735 332
53.64747 307
53.66758 307
53.68769 328
53.70781 332
53.72792 335
53.74804 310
53.76815 338
53.78826 332
53.80838 346
53.82849 333
53.8486 314
53.86872 344
53.88883 340
53.90894 338
53.92906 325
53.94917 364
53.96929 333
53.9894 356
54.00951 355
54.02963 340
54.04974 321
54.06985 360
54.08997 324
54.11008 328
54.1302 363
54.15031 308
54.17042 337
54.19054 317
54.21065 347
54.23076 354
54.25088 324
54.27099 305
54.29111 327
54.31122 365
54.33133 372
54.35145 364
54.37156 339
54.39167 346
54.41179 372
54.4319 317
54.45201 360
54.47213 347
54.49224 370
54.51236 339
54.53247 405
54.55258 388
54.5727 364
54.59281 378
54.61292 387
54.63304 414
54.65315 445
54.67327 479
54.69338 433
54.71349 468
54.73361 503
54.75372 491
54.77383 483
54.79395 501
54.81406 535
54.83417 554
54.85429 523
54.8744 509
54.89452 462
54.91463 453
54.93474 424
54.95486 450
54.97497 455
54.99508 415
55.0152 411
55.03531 404
55.05543 364
55.07554 390
55.09565 382
55.11577 386
55.13588 352
55.15599 368
55.17611 360
55.19622 431
55.21634 432
55.23645 402
55.25656 405
55.27668 381
55.29679 409
55.3169 394
55.33702 408
55.35713 397
55.37724 387
55.39736 367
55.41747 401
55.43759 383
55.4577 392
55.47781 376
55.49793 384
55.51804 350
55.53815 343
55.55827 351
55.57838 344
55.5985 342
55.61861 310
55.63872 344
55.65884 324
55.67895 347
55.69906 293
55.71918 324
55.73929 320
55.75941 286
55.77952 286
55.79963 306
55.81975 339
55.83986 306
55.85997 316
55.88009 296
55.9002 307
55.92031 295
55.94043 316
55.96054 302
55.98066 302
56.00077 287
56.02088 315
56.041 304
56.06111 307
56.08122 298
56.10134 310
56.12145 304
56.14157 324
56.16168 308
56.18179 333
56.20191 323
56.22202 293
56.24213 308
56.26225 302
56.28236 310
56.30248 291
56.32259 307
56.3427 306
56.36282 274
56.38293 318
56.40304 295
56.42316 313
56.44327 325
56.46338 305
56.4835 330
56.50361 311
56.52373 301
56.54384 302
56.56395 290
56.58407 307
56.60418 309
56.62429 297
56.64441 315
56.66452 310
56.68464 321
56.70475 327
56.72486 300
56.74498 330
56.76509 280
56.7852 320
56.80532 293
56.82543 281
56.84554 309
56.86566 323
56.88577 316
56.90589 288
56.926 289
56.94611 275
56.96623 284
56.98634 306
57.00645 286
57.02657 299
57.04668 284
57.0668 317
57.08691 273
57.10702 287
57.12714 286
57.14725 269
57.16736 323
57.18748 310
57.20759 292
57.22771 286
57.24782 291
57.26793 332
57.28805 307
57.30816 315
57.32827 331
57.34839 339
57.3685 308
57.38861 302
57.40873 297
57.42884 298
57.44896 303
57.46907 314
57.48918 253
57.5093 285
57.52941 298
57.54952 266
57.56964 276
57.58975 295
57.60987 287
57.62998 280
57.65009 291
57.67021 265
57.69032 281
57.71043 298
57.73055 319
57.75066 328
57.77078 316
57.79089 265
57.811 283
57.83112 321
57.85123 272
57.87134 284
57.89146 295
57.91157 305
57.93168 306
57.9518 278
57.97191 318
57.99203 275
58.01214 286
58.03225 288
58.05237 284
58.07248 305
58.09259 308
58.11271 297
58.13282 286
58.15294 309
58.17305 277
58.19316 280
58.21328 319
58.23339 308
58.2535 312
58.27362 267
58.29373 277
58.31385 277
58.33396 342
58.35407 307
58.37419 315
58.3943 293
58.41441 270
58.43453 334
58.45464 327
58.47475 278
58.49487 322
58.51498 296
58.5351 305
58.55521 337
58.57532 288
58.59544 338
58.61555 291
58.63566 318
58.65578 291
58.67589 309
58.69601 335
58.71612 313
58.73623 313
58.75635 295
58.77646 323
58.79657 284
58.81669 297
58.8368 296
58.85691 250
58.87703 269
58.89714 288
58.91726 275
58.93737 279
58.95748 255
58.9776 283
58.99771 274
59.01782 295
59.03794 295
59.05805 295
59.07817 289
59.09828 291
59.11839 272
59.13851 317
59.15862 302
59.17873 322
59.19885 282
59.21896 283
59.23908 307
59.25919 276
59.2793 288
59.29942 299
59.31953 276
59.33964 332
59.35976 322
59.37987 316
59.39998 338
59.4201 337
59.44021 316
59.46033 324
59.48044 356
59.50055 352
59.52067 342
59.54078 310
59.56089 380
59.58101 408
59.60112 383
59.62124 420
59.64135 376
59.66146 401
59.68158 477
59.70169 426
59.7218 523
59.74192 525
59.76203 531
59.78215 631
59.80226 638
59.82237 719
59.84249 680
59.8626 787
59.88271 744
59.90283 719
59.92294 734
59.94305 685
59.96317 656
59.98328 556
60.0034 583
60.02351 517
60.04362 515
60.06374 518
60.08385 503
60.10396 483
60.12408 440
60.14419 459
60.16431 395
60.18442 413
60.20453 378
60.22465 409
60.24476 396
60.26487 351
60.28499 348
60.3051 363
60.32522 367
60.34533 328
60.36544 372
60.38556 358
60.40567 337
60.42578 360
60.4459 325
60.46601 330
60.48612 345
60.50624 320
60.52635 343
60.54647 297
60.56658 340
60.58669 330
60.60681 334
60.62692 307
60.64703 324
60.66715 344
60.68726 327
60.70738 320
60.72749 345
60.7476 339
60.76772 327
60.78783 329
60.80794 325
60.82806 326
60.84817 289
60.86828 334
60.8884 361
60.90851 335
60.92863 342
60.94874 338
60.96885 333
60.98897 355
61.00908 358
61.02919 348
61.04931 319
61.06942 350
61.08954 328
61.10965 323
61.12976 323
61.14988 369
61.16999 336
61.1901 338
61.21022 337
61.23033 357
61.25045 361
61.27056 395
61.29067 355
61.31079 326
61.3309 367
61.35101 380
61.37113 316
61.39124 329
61.41135 354
61.43147 339
61.45158 320
61.4717 369
61.49181 324
61.51192 308
61.53204 326
61.55215 356
61.57226 303
61.59238 357
61.61249 352
61.63261 342
61.65272 319
61.67283 341
61.69295 334
61.71306 320
61.73317 365
61.75329 371
61.7734 322
61.79352 318
61.81363 345
61.83374 351
61.85386 334
61.87397 367
61.89408 368
61.9142 331
61.93431 332
61.95442 362
61.97454 358
61.99465 381
62.01477 369
62.03488 344
62.05499 336
62.07511 353
62.09522 357
62.11533 324
62.13545 363
62.15556 383
62.17568 369
62.19579 391
62.2159 352
62.23602 348
62.25613 379
62.27624 349
62.29636 350
62.31647 329
62.33659 329
62.3567 335
62.37681 347
62.39693 340
62.41704 321
62.43715 333
62.45727 337
62.47738 352
62.49749 339
62.51761 334
62.53772 336
62.55784 287
62.57795 322
62.59806 284
62.61818 331
62.63829 348
62.6584 302
62.67852 307
62.69863 321
62.71875 336
62.73886 313
62.75897 307
62.77909 332
62.7992 274
62.81931 284
62.83943 307
62.85954 320
62.87965 321
62.89977 321
62.91988 313
62.94 319
62.96011 325
62.98022 321
63.00034 342
63.02045 314
63.04056 297
63.06068 314
63.08079 314
63.10091 311
63.12102 314
63.14113 322
63.16125 330
63.18136 334
63.20147 308
63.22159 302
63.2417 287
63.26182 330
63.28193 316
63.30204 345
63.32216 306
63.34227 299
63.36238 308
63.3825 280
63.40261 306
63.42272 297
63.44284 328
63.46295 309
63.48307 314
63.50318 302
63.52329 306
63.54341 329
63.56352 316
63.58363 299
63.60375 334
63.62386 327
63.64398 347
63.66409 323
63.6842 339
63.70432 359
63.72443 362
63.74454 392
63.76466 387
63.78477 373
63.80489 358
63.825 385
63.84511 400
63.86523 366
63.88534 376
63.90545 387
63.92557 393
63.94568 419
63.96579 384
63.98591 383
64.00602 361
64.02614 369
64.04625 335
64.06636 354
64.08648 357
64.10659 370
64.1267 316
64.14682 321
64.16693 319
64.18705 302
64.20716 315
64.22727 297
64.24739 280
64.2675 279
64.28761 291
64.30773 316
64.32784 284
64.34796 264
64.36807 272
64.38818 308
64.4083 275
64.42841 270
64.44852 316
64.46864 302
64.48875 291
64.50886 292
64.52898 307
64.54909 300
64.56921 317
64.58932 296
64.60943 287
64.62955 310
64.64966 273
64.66977 302
64.68989 272
64.71 299
64.73012 286
64.75023 278
64.77034 317
64.79046 291
64.81057 294
64.83068 290
64.8508 281
64.87091 282
64.89102 285
64.91114 276
64.93125 296
64.95137 291
64.97148 318
64.99159 270
65.01171 276
65.03182 316
65.05193 287
65.07205 275
65.09216 300
65.11228 277
65.13239 291
65.1525 303
65.17262 286
65.19273 313
65.21284 271
65.23296 273
65.25307 289
65.27319 288
65.2933 295
65.31341 300
65.33353 270
65.35364 290
65.37375 292
65.39387 290
65.41398 296
65.43409 283
65.45421 293
65.47432 278
65.49444 283
65.51455 282
65.53466 282
65.55478 307
65.57489 316
65.595 265
65.61512 277
65.63523 273
65.65535 288
65.67546 305
65.69557 283
65.71569 289
65.7358 250
65.75591 259
65.77603 280
65.79614 280
65.81626 273
65.83637 263
65.85648 264
65.8766 274
65.89671 267
65.91682 292
65.93694 273
65.95705 279
65.97716 269
65.99728 281
66.01739 256
66.03751 244
66.05762 279
66.07773 262
66.09785 275
66.11796 272
66.13807 294
66.15819 288
66.1783 288
66.19842 272
66.21853 304
66.23864 305
66.25876 279
66.27887 293
66.29898 294
66.3191 287
66.33921 317
66.35933 295
66.37944 269
66.39955 256
66.41967 271
66.43978 258
66.45989 276
66.48001 244
66.50012 262
66.52023 291
66.54035 248
66.56046 259
66.58058 288
66.60069 267
66.6208 292
66.64092 249
66.66103 266
66.68114 279
66.70126 243
66.72137 245
66.74149 252
66.7616 255
66.78171 298
66.80183 264
66.82194 275
66.84205 264
66.86217 260
66.88228 299
66.90239 254
66.92251 285
66.94262 263
66.96274 283
66.98285 300
67.00296 272
67.02308 266
67.04319 276
67.0633 309
67.08342 307
67.10353 297
67.12365 277
67.14376 306
67.16387 260
67.18399 302
67.2041 297
67.22421 280
67.24433 313
67.26444 294
67.28456 274
67.30467 288
67.32478 317
67.3449 322
67.36501 326
67.38512 300
67.40524 336
67.42535 320
67.44546 371
67.46558 393
67.48569 368
67.50581 410
67.52592 403
67.54603 459
67.56615 439
67.58626 531
67.60637 518
67.62649 551
67.6466 519
67.66672 568
67.68683 564
67.70694 534
67.72706 517
67.74717 509
67.76728 493
67.7874 498
67.80751 499
67.82763 512
67.84774 505
67.86785 524
67.88797 549
67.90808 515
67.92819 540
67.94831 554
67.96842 572
67.98853 597
68.00865 592
68.02876 615
68.04888 639
68.06899 603
68.0891 622
68.10922 630
68.12933 590
68.14944 566
68.16956 577
68.18967 579
68.20979 629
68.2299 567
68.25001 580
68.27013 576
68.29024 549
68.31035 472
68.33047 439
68.35058 438
68.3707 394
68.39081 428
68.41092 419
68.43104 389
68.45115 370
68.47126 310
68.49138 351
68.51149 325
68.5316 309
68.55172 321
68.57183 301
68.59195 287
68.61206 304
68.63217 266
68.65229 295
68.6724 280
68.69251 296
68.71263 277
68.73274 275
68.75286 290
68.77297 287
68.79308 285
68.8132 267
68.83331 293
68.85342 254
68.87354 300
68.89365 253
68.91376 255
68.93388 286
68.95399 287
68.97411 281
68.99422 285
69.01433 284
69.03445 277
69.05456 283
69.07467 274
69.09479 294
69.1149 269
69.13502 290
69.15513 287
69.17524 278
69.19536 236
69.21547 260
69.23558 288
69.2557 268
69.27581 276
69.29593 291
69.31604 245
69.33615 278
69.35627 262
69.37638 267
69.39649 278
69.41661 276
69.43672 300
69.45683 290
69.47695 273
69.49706 277
69.51718 299
69.53729 264
69.5574 291
69.57752 247
69.59763 280
69.61774 271
69.63786 284
69.65797 277
69.67809 272
69.6982 274
69.71831 263
69.73843 262
69.75854 286
69.77865 269
69.79877 284
69.81888 288
69.839 275
69.85911 298
69.87922 253
69.89934 288
69.91945 291
69.93956 239
69.95968 279
69.97979 270
69.9999 254
70.02002 271
70.04013 289
70.06025 267
70.08036 251
70.10047 261
70.12059 251
70.1407 277
70.16081 267
70.18093 258
70.20104 266
70.22116 244
70.24127 259
70.26138 248
70.2815 246
70.30161 285
70.32172 275
70.34184 243
70.36195 249
70.38207 255
70.40218 269
70.42229 279
70.44241 265
70.46252 296
70.48263 267
70.50275 296
70.52286 276
70.54297 262
70.56309 235
70.5832 277
70.60332 262
70.62343 260
70.64354 248
70.66366 229
70.68377 253
70.70388 249
70.724 289
70.74411 276
70.76423 283
70.78434 278
70.80445 260
70.82457 256
70.84468 296
70.86479 249
70.88491 272
70.90502 257
70.92513 261
70.94525 239
70.96536 276
70.98548 261
71.00559 274
71.0257 302
71.04582 249
71.06593 259
71.08604 280
71.10616 287
71.12627 308
71.14639 267
71.1665 258
71.18661 243
71.20673 275
71.22684 280
71.24695 255
71.26707 282
71.28718 244
71.3073 280
71.32741 300
71.34752 262
71.36764 262
71.38775 268
71.40786 295
71.42798 291
71.44809 249
71.4682 260
71.48832 258
71.50843 259
71.52855 268
71.54866 259
71.56877 301
71.58889 266
71.609 272
71.62911 260
71.64923 263
71.66934 259
71.68946 294
71.70957 268
71.72968 293
71.7498 272
71.76991 257
71.79002 287
71.81014 272
71.83025 280
71.85037 281
71.87048 256
71.89059 292
71.91071 292
71.93082 276
71.95093 262
71.97105 325
71.99116 266
72.01127 287
72.03139 322
72.0515 261
72.07162 261
72.09173 275
72.11184 312
72.13196 271
72.15207 282
72.17218 305
72.1923 281
72.21241 260
72.23253 273
72.25264 262
72.27275 280
72.29287 300
72.31298 277
72.33309 239
72.35321 249
72.37332 267
72.39344 257
72.41355 289
72.43366 268
72.45378 304
72.47389 247
72.494 264
72.51412 259
72.53423 272
72.55434 279
72.57446 277
72.59457 270
72.61469 284
72.6348 252
72.65491 279
72.67503 268
72.69514 282
72.71525 255
72.73537 319
72.75548 277
72.7756 284
72.79571 261
72.81582 257
72.83594 294
72.85605 261
72.87616 295
72.89628 297
72.91639 271
72.9365 278
72.95662 281
72.97673 269
72.99685 284
73.01696 311
73.03707 310
73.05719 309
73.0773 305
73.09741 289
73.11753 259
73.13764 316
73.15776 309
73.17787 291
73.19798 284
73.2181 350
73.23821 313
73.25832 322
73.27844 338
73.29855 350
73.31867 341
73.33878 370
73.35889 366
73.37901 351
73.39912 393
73.41923 348
73.43935 357
73.45946 323
73.47957 307
73.49969 295
73.5198 329
73.53992 278
73.56003 323
73.58014 346
73.60026 329
73.62037 320
73.64048 318
73.6606 321
73.68071 259
73.70083 279
73.72094 274
73.74105 294
73.76117 299
73.78128 294
73.80139 258
73.82151 260
73.84162 290
73.86174 263
73.88185 266
73.90196 270
73.92208 256
73.94219 272
73.9623 302
73.98242 279
74.00253 283
74.02264 289
74.04276 270
74.06287 298
74.08299 244
74.1031 277
74.12321 249
74.14333 267
74.16344 284
74.18355 268
74.20367 288
74.22378 263
74.2439 286
74.26401 269
74.28412 266
74.30424 278
74.32435 265
74.34446 279
74.36458 265
74.38469 269
74.40481 269
74.42492 272
74.44503 254
74.46515 256
74.48526 272
74.50537 267
74.52549 264
74.5456 253
74.56571 249
74.58583 270
74.60594 254
74.62606 260
74.64617 245
74.66628 287
74.6864 280
74.70651 274
74.72662 278
74.74674 290
74.76685 288
74.78697 270
74.80708 288
74.82719 270
74.84731 280
74.86742 263
74.88753 277
74.90765 284
74.92776 270
74.94787 264
74.96799 293
74.9881 274
75.00822 265
