3.00117 18778
3.02128 18563
3.0414 18084
3.06151 17523
3.08162 16715
3.10174 16385
3.12185 16130
3.14197 15465
3.16208 15245
3.18219 15106
3.20231 14183
3.22242 14085
3.24253 13503
3.26265 12967
3.28276 12895
3.30288 12577
3.32299 11935
3.3431 11698
3.36322 11036
3.38333 10868
3.40344 10482
3.42356 10150
3.44367 9821
3.46379 9215
3.4839 9309
3.50401 8665
3.52413 8603
3.54424 8083
3.56435 7901
3.58447 7587
3.60458 7304
3.62469 7070
3.64481 6759
3.66492 6375
3.68504 6408
3.70515 6074
3.72526 5659
3.74538 5534
3.76549 5202
3.7856 5269
3.80572 4997
3.82583 4768
3.84595 4440
3.86606 4251
3.88617 4243
3.90629 3929
3.9264 3795
3.94651 3699
3.96663 3321
3.98674 3343
4.00686 3077
4.02697 2949
4.04708 2789
4.0672 2650
4.08731 2684
4.10742 2420
4.12754 2413
4.14765 2179
4.16776 2141
4.18788 2159
4.20799 1998
4.22811 1915
4.24822 1768
4.26833 1668
4.28845 1820
4.30856 1654
4.32867 1547
4.34879 1429
4.3689 1423
4.38902 1490
4.40913 1411
4.42924 1323
4.44936 1237
4.46947 1256
4.48958 1298
4.5097 1220
4.52981 1078
4.54992 1105
4.57004 1088
4.59015 1070
4.61027 1158
4.63038 1013
4.65049 1044
4.67061 875
4.69072 932
4.71083 945
4.73095 857
4.75106 862
4.77118 790
4.79129 812
4.8114 853
4.83152 797
4.85163 795
4.87174 701
4.89186 717
4.91197 673
4.93209 651
4.9522 659
4.97231 608
4.99243 641
5.01254 619
5.03265 586
5.05277 596
5.07288 588
5.09299 562
5.11311 560
5.13322 478
5.15334 534
5.17345 464
5.19356 489
5.21368 423
5.23379 413
5.2539 494
5.27402 450
5.29413 441
5.31425 419
5.33436 435
5.35447 361
5.37459 406
5.3947 409
5.41481 434
5.43493 344
5.45504 355
5.47516 421
5.49527 361
5.51538 344
5.5355 296
5.55561 304
5.57572 328
5.59584 341
5.61595 309
5.63606 290
5.65618 281
5.67629 295
5.69641 292
5.71652 268
5.73663 247
5.75675 256
5.77686 255
5.79697 266
5.81709 211
5.8372 219
5.85732 242
5.87743 225
5.89754 251
5.91766 234
5.93777 208
5.95788 234
5.978 219
5.99811 217
6.01823 214
6.03834 255
6.05845 207
6.07857 196
6.09868 204
6.11879 207
6.13891 214
6.15902 235
6.17913 178
6.19925 185
6.21936 163
6.23948 178
6.25959 201
6.2797 182
6.29982 187
6.31993 191
6.34004 170
6.36016 205
6.38027 169
6.40039 183
6.4205 165
6.44061 169
6.46073 189
6.48084 204
6.50095 206
6.52107 173
6.54118 162
6.56129 196
6.58141 186
6.60152 167
6.62164 138
6.64175 172
6.66186 152
6.68198 153
6.70209 193
6.7222 161
6.74232 152
6.76243 179
6.78255 183
6.80266 162
6.82277 175
6.84289 163
6.863 173
6.88311 171
6.90323 175
6.92334 152
6.94346 182
6.96357 184
6.98368 164
7.0038 181
7.02391 157
7.04402 160
7.06414 200
7.08425 173
7.10436 161
7.12448 151
7.14459 177
7.16471 186
7.18482 145
7.20493 175
7.22505 166
7.24516 158
7.26527 190
7.28539 173
7.3055 176
7.32562 192
7.34573 177
7.36584 193
7.38596 165
7.40607 168
7.42618 202
7.4463 161
7.46641 179
7.48653 188
7.50664 192
7.52675 206
7.54687 180
7.56698 198
7.58709 193
7.60721 180
7.62732 180
7.64743 179
7.66755 193
7.68766 163
7.70778 164
7.72789 178
7.748 175
7.76812 161
7.78823 208
7.80834 161
7.82846 203
7.84857 222
7.86869 214
7.8888 193
7.90891 152
7.92903 176
7.94914 170
7.96925 164
7.98937 208
8.00948 186
8.0296 209
8.04971 211
8.06982 192
8.08994 179
8.11005 201
8.13016 189
8.15028 187
8.17039 189
8.1905 187
8.21062 195
8.23073 195
8.25085 174
8.27096 172
8.29107 177
8.31119 204
8.3313 206
8.35141 155
8.37153 174
8.39164 191
8.41176 203
8.43187 215
8.45198 214
8.4721 203
8.49221 217
8.51232 199
8.53244 202
8.55255 198
8.57266 217
8.59278 178
8.61289 228
8.63301 197
8.65312 204
8.67323 213
8.69335 215
8.71346 219
8.73357 204
8.75369 225
8.7738 213
8.79392 205
8.81403 205
8.83414 227
8.85426 224
8.87437 242
8.89448 234
8.9146 221
8.93471 231
8.95483 238
8.97494 229
8.99505 209
9.01517 208
9.03528 205
9.05539 221
9.07551 208
9.09562 205
9.11573 201
9.13585 188
9.15596 209
9.17608 214
9.19619 208
9.2163 206
9.23642 200
9.25653 220
9.27664 177
9.29676 195
9.31687 226
9.33699 194
9.3571 204
9.37721 217
9.39733 197
9.41744 211
9.43755 211
9.45767 211
9.47778 219
9.4979 199
9.51801 196
9.53812 233
9.55824 197
9.57835 229
9.59846 218
9.61858 209
9.63869 213
9.6588 199
9.67892 199
9.69903 204
9.71915 221
9.73926 215
9.75937 238
9.77949 222
9.7996 192
9.81971 220
9.83983 222
9.85994 216
9.88006 175
9.90017 191
9.92028 215
9.9404 203
9.96051 219
9.98062 206
10.00074 224
10.02085 202
10.04097 209
10.06108 195
10.08119 206
10.10131 208
10.12142 169
10.14153 202
10.16165 229
10.18176 207
10.20187 224
10.22199 205
10.2421 216
10.26222 225
10.28233 194
10.30244 216
10.32256 207
10.34267 217
10.36278 216
10.3829 208
10.40301 194
10.42313 224
10.44324 223
10.46335 217
10.48347 243
10.50358 213
10.52369 226
10.54381 233
10.56392 213
10.58403 218
10.60415 222
10.62426 227
10.64438 197
10.66449 224
10.6846 208
10.70472 210
10.72483 228
10.74494 198
10.76506 219
10.78517 213
10.80529 222
10.8254 208
10.84551 207
10.86563 238
10.88574 195
10.90585 217
10.92597 231
10.94608 216
10.9662 217
10.98631 187
11.00642 221
11.02654 209
11.04665 229
11.06676 191
11.08688 231
11.10699 227
11.1271 220
11.14722 216
11.16733 196
11.18745 199
11.20756 224
11.22767 227
11.24779 190
11.2679 210
11.28801 221
11.30813 193
11.32824 231
11.34836 202
11.36847 214
11.38858 197
11.4087 197
11.42881 224
11.44892 188
11.46904 224
11.48915 203
11.50927 220
11.52938 202
11.54949 228
11.56961 219
11.58972 210
11.60983 185
11.62995 200
11.65006 213
11.67017 186
11.69029 227
11.7104 182
11.73052 243
11.75063 205
11.77074 229
11.79086 202
11.81097 235
11.83108 196
11.8512 229
11.87131 222
11.89143 214
11.91154 226
11.93165 217
11.95177 220
11.97188 231
11.99199 226
12.01211 221
12.03222 217
12.05234 224
12.07245 219
12.09256 237
12.11268 217
12.13279 221
12.1529 256
12.17302 216
12.19313 252
12.21324 222
12.23336 247
12.25347 253
12.27359 249
12.2937 252
12.31381 258
12.33393 238
12.35404 228
12.37415 242
12.39427 237
12.41438 218
12.4345 228
12.45461 243
12.47472 222
12.49484 257
12.51495 218
12.53506 229
12.55518 237
12.57529 217
12.5954 227
12.61552 224
12.63563 221
12.65575 209
12.67586 231
12.69597 215
12.71609 200
12.7362 194
12.75631 221
12.77643 191
12.79654 192
12.81666 181
12.83677 210
12.85688 217
12.877 215
12.89711 184
12.91722 193
12.93734 192
12.95745 197
12.97757 216
12.99768 220
13.01779 270
13.03791 235
13.05802 228
13.07813 235
13.09825 250
13.11836 254
13.13847 261
13.15859 245
13.1787 225
13.19882 226
13.21893 201
13.23904 199
13.25916 214
13.27927 239
13.29938 175
13.3195 219
13.33961 191
13.35973 210
13.37984 207
13.39995 199
13.42007 177
13.44018 215
13.46029 195
13.48041 213
13.50052 220
13.52064 203
13.54075 249
13.56086 272
13.58098 279
13.60109 249
13.6212 261
13.64132 248
13.66143 288
13.68154 237
13.70166 238
13.72177 204
13.74189 186
13.762 198
13.78211 174
13.80223 168
13.82234 198
13.84245 193
13.86257 172
13.88268 185
13.9028 182
13.92291 181
13.94302 167
13.96314 164
13.98325 170
14.00336 172
14.02348 179
14.04359 176
14.06371 174
14.08382 196
14.10393 197
14.12405 171
14.14416 168
14.16427 189
14.18439 187
14.2045 184
14.22461 197
14.24473 178
14.26484 174
14.28496 181
14.30507 162
14.32518 174
14.3453 180
14.36541 172
14.38552 187
14.40564 163
14.42575 176
14.44587 191
14.46598 166
14.48609 169
14.50621 169
14.52632 176
14.54643 192
14.56655 169
14.58666 160
14.60677 168
14.62689 163
14.647 165
14.66712 169
14.68723 168
14.70734 178
14.72746 171
14.74757 184
14.76768 188
14.7878 204
14.80791 204
14.82803 194
14.84814 216
14.86825 233
14.88837 204
14.90848 218
14.92859 214
14.94871 214
14.96882 200
14.98894 196
15.00905 201
15.02916 166
15.04928 204
15.06939 171
15.0895 166
15.10962 162
15.12973 162
15.14984 185
15.16996 214
15.19007 208
15.21019 188
15.2303 214
15.25041 199
15.27053 176
15.29064 214
15.31075 181
15.33087 180
15.35098 168
15.3711 174
15.39121 170
15.41132 146
15.43144 157
15.45155 164
15.47166 182
15.49178 169
15.51189 175
15.53201 145
15.55212 179
15.57223 161
15.59235 167
15.61246 158
15.63257 153
15.65269 181
15.6728 177
15.69291 136
15.71303 147
15.73314 180
15.75326 179
15.77337 164
15.79348 162
15.8136 170
15.83371 150
15.85382 183
15.87394 180
15.89405 149
15.91417 185
15.93428 150
15.95439 131
15.97451 148
15.99462 169
16.01473 145
16.03485 146
16.05496 154
16.07508 173
16.09519 186
16.1153 181
16.13542 157
16.15553 168
16.17564 170
16.19576 160
16.21587 155
16.23598 159
16.2561 139
16.27621 172
16.29633 152
16.31644 168
16.33655 152
16.35667 155
16.37678 168
16.39689 150
16.41701 170
16.43712 161
16.45724 131
16.47735 124
16.49746 150
16.51758 150
16.53769 163
16.5578 147
16.57792 151
16.59803 175
16.61814 174
16.63826 132
16.65837 165
16.67849 176
16.6986 137
16.71871 142
16.73883 170
16.75894 158
16.77905 184
16.79917 159
16.81928 153
16.8394 149
16.85951 157
16.87962 142
16.89974 161
16.91985 161
16.93996 155
16.96008 171
16.98019 156
17.00031 171
17.02042 164
17.04053 136
17.06065 145
17.08076 167
17.10087 160
17.12099 157
17.1411 140
17.16121 169
17.18133 159
17.20144 178
17.22156 145
17.24167 138
17.26178 168
17.2819 156
17.30201 153
17.32212 133
17.34224 125
17.36235 168
17.38247 172
17.40258 150
17.42269 147
17.44281 155
17.46292 161
17.48303 155
17.50315 164
17.52326 166
17.54338 152
17.56349 142
17.5836 145
17.60372 136
17.62383 162
17.64394 168
17.66406 185
17.68417 154
17.70428 152
17.7244 157
17.74451 187
17.76463 160
17.78474 180
17.80485 170
17.82497 169
17.84508 156
17.86519 160
17.88531 148
17.90542 175
17.92554 151
17.94565 150
17.96576 158
17.98588 153
18.00599 147
18.0261 159
18.04622 179
18.06633 173
18.08645 182
18.10656 155
18.12667 152
18.14679 156
18.1669 152
18.18701 156
18.20713 177
18.22724 145
18.24735 171
18.26747 141
18.28758 173
18.3077 153
18.32781 142
18.34792 144
18.36804 163
18.38815 151
18.40826 143
18.42838 136
18.44849 145
18.46861 138
18.48872 166
18.50883 145
18.52895 142
18.54906 143
18.56917 142
18.58929 164
18.6094 171
18.62951 130
18.64963 158
18.66974 166
18.68986 177
18.70997 173
18.73008 158
18.7502 147
18.77031 184
18.79042 174
18.81054 143
18.83065 164
18.85077 164
18.87088 167
18.89099 165
18.91111 132
18.93122 152
18.95133 173
18.97145 168
18.99156 140
19.01168 161
19.03179 175
19.0519 145
19.07202 186
19.09213 166
19.11224 186
19.13236 167
19.15247 161
19.17258 180
19.1927 196
19.21281 187
19.23293 184
19.25304 191
19.27315 208
19.29327 186
19.31338 208
19.33349 214
19.35361 196
19.37372 189
19.39384 150
19.41395 163
19.43406 177
19.45418 163
19.47429 152
19.4944 177
19.51452 142
19.53463 207
19.55475 175
19.57486 168
19.59497 184
19.61509 172
19.6352 176
19.65531 172
19.67543 223
19.69554 195
19.71565 219
19.73577 219
19.75588 204
19.776 234
19.79611 239
19.81622 241
19.83634 221
19.85645 235
19.87656 241
19.89668 251
19.91679 242
19.93691 246
19.95702 232
19.97713 257
19.99725 268
20.01736 230
20.03747 227
20.05759 232
20.0777 249
20.09782 238
20.11793 250
20.13804 242
20.15816 270
20.17827 257
20.19838 239
20.2185 249
20.23861 230
20.25872 242
20.27884 250
20.29895 236
20.31907 243
20.33918 254
20.35929 271
20.37941 296
20.39952 280
20.41963 299
20.43975 315
20.45986 345
20.47998 308
20.50009 314
20.5202 354
20.54032 357
20.56043 419
20.58054 450
20.60066 487
20.62077 600
20.64088 713
20.661 842
20.68111 1078
20.70123 1421
20.72134 1760
20.74145 2309
20.76157 2930
20.78168 3715
20.80179 4216
20.82191 4705
20.84202 5200
20.86214 5173
20.88225 4823
20.90236 3968
20.92248 3095
20.94259 2240
20.9627 1761
20.98282 1361
21.00293 1082
21.02305 1050
21.04316 941
21.06327 798
21.08339 713
21.1035 567
21.12361 482
21.14373 408
21.16384 351
21.18395 312
21.20407 335
21.22418 304
21.2443 299
21.26441 260
21.28452 267
21.30464 254
21.32475 241
21.34486 248
21.36498 253
21.38509 290
21.40521 273
21.42532 239
21.44543 233
21.46555 266
21.48566 241
21.50577 213
21.52589 203
21.546 222
21.56612 221
21.58623 238
21.60634 222
21.62646 239
21.64657 230
21.66668 258
21.6868 228
21.70691 203
21.72702 209
21.74714 201
21.76725 212
21.78737 238
21.80748 213
21.82759 208
21.84771 224
21.86782 211
21.88793 234
21.90805 202
21.92816 229
21.94828 245
21.96839 211
21.9885 241
22.00862 261
22.02873 239
22.04884 230
22.06896 235
22.08907 277
22.10919 214
22.1293 257
22.14941 243
22.16953 262
22.18964 261
22.20975 267
22.22987 307
22.24998 323
22.27009 320
22.29021 349
22.31032 361
22.33044 311
22.35055 342
22.37066 274
22.39078 286
22.41089 224
22.431 225
22.45112 228
22.47123 226
22.49135 220
22.51146 208
22.53157 218
22.55169 228
22.5718 248
22.59191 242
22.61203 243
22.63214 275
22.65225 252
22.67237 252
22.69248 251
22.7126 261
22.73271 190
22.75282 203
22.77294 215
22.79305 211
22.81316 192
22.83328 201
22.85339 205
22.87351 221
22.89362 228
22.91373 233
22.93385 261
22.95396 274
22.97407 264
22.99419 299
23.0143 345
23.03442 354
23.05453 378
23.07464 377
23.09476 423
23.11487 417
23.13498 503
23.1551 485
23.17521 532
23.19532 546
23.21544 515
23.23555 459
23.25567 437
23.27578 363
23.29589 297
23.31601 272
23.33612 252
23.35623 230
23.37635 236
23.39646 196
23.41658 238
23.43669 205
23.4568 188
23.47692 205
23.49703 225
23.51714 238
23.53726 202
23.55737 201
23.57749 200
23.5976 236
23.61771 212
23.63783 204
23.65794 213
23.67805 212
23.69817 195
23.71828 187
23.73839 246
23.75851 231
23.77862 247
23.79874 268
23.81885 308
23.83896 290
23.85908 306
23.87919 381
23.8993 388
23.91942 456
23.93953 489
23.95965 525
23.97976 513
23.99987 584
24.01999 588
24.0401 504
24.06021 438
24.08033 345
24.10044 346
24.12056 295
24.14067 263
24.16078 253
24.1809 232
24.20101 256
24.22112 301
24.24124 312
24.26135 315
24.28146 315
24.30158 324
24.32169 345
24.34181 354
24.36192 299
24.38203 282
24.40215 294
24.42226 248
24.44237 212
24.46249 240
24.4826 219
24.50272 235
24.52283 249
24.54294 231
24.56306 259
24.58317 261
24.60328 297
24.6234 284
24.64351 324
24.66362 313
24.68374 312
24.70385 314
24.72397 269
24.74408 290
24.76419 299
24.78431 292
24.80442 257
24.82453 248
24.84465 253
24.86476 283
24.88488 258
24.90499 244
24.9251 268
24.94522 302
24.96533 288
24.98544 280
25.00556 279
25.02567 237
25.04579 231
25.0659 236
25.08601 258
25.10613 229
25.12624 247
25.14635 232
25.16647 263
25.18658 231
25.20669 229
25.22681 232
25.24692 247
25.26704 286
25.28715 266
25.30726 261
25.32738 276
25.34749 299
25.3676 340
25.38772 345
25.40783 368
25.42795 454
25.44806 459
25.46817 548
25.48829 565
25.5084 598
25.52851 617
25.54863 606
25.56874 619
25.58886 592
25.60897 594
25.62908 595
25.6492 580
25.66931 563
25.68942 567
25.70954 502
25.72965 471
25.74976 424
25.76988 431
25.78999 437
25.81011 412
25.83022 416
25.85033 388
25.87045 411
25.89056 373
25.91067 430
25.93079 368
25.9509 399
25.97102 432
25.99113 423
26.01124 451
26.03136 446
26.05147 512
26.07158 452
26.0917 494
26.11181 553
26.13193 644
26.15204 593
26.17215 672
26.19227 768
26.21238 817
26.23249 887
26.25261 943
26.27272 1116
26.29283 1337
26.31295 1475
26.33306 1783
26.35318 2082
26.37329 2445
26.3934 2985
26.41352 3751
26.43363 4641
26.45374 5733
26.47386 7439
26.49397 9486
26.51409 11476
26.5342 14299
26.55431 16717
26.57443 19529
26.59454 21915
26.61465 23421
26.63477 23394
26.65488 20846
26.67499 16994
26.69511 13430
26.71522 9931
26.73534 6958
26.75545 4554
26.77556 2893
26.79568 1955
26.81579 1542
26.8359 1375
26.85602 1223
26.87613 1080
26.89625 1048
26.91636 1010
26.93647 975
26.95659 930
26.9767 1019
26.99681 1011
27.01693 950
27.03704 917
27.05716 953
27.07727 923
27.09738 853
27.1175 846
27.13761 786
27.15772 715
27.17784 664
27.19795 666
27.21806 629
27.23818 680
27.25829 793
27.27841 838
27.29852 951
27.31863 1116
27.33875 1203
27.35886 1299
27.37897 1393
27.39909 1497
27.4192 1637
27.43932 1538
27.45943 1466
27.47954 1320
27.49966 1134
27.51977 1023
27.53988 887
27.56 687
27.58011 630
27.60023 522
27.62034 466
27.64045 447
27.66057 440
27.68068 362
27.70079 337
27.72091 349
27.74102 315
27.76113 323
27.78125 316
27.80136 311
27.82148 316
27.84159 287
27.8617 298
27.88182 295
27.90193 290
27.92204 309
27.94216 286
27.96227 282
27.98239 292
28.0025 277
28.02261 273
28.04273 285
28.06284 258
28.08295 249
28.10307 228
28.12318 255
28.1433 276
28.16341 229
28.18352 229
28.20364 259
28.22375 232
28.24386 250
28.26398 242
28.28409 231
28.3042 244
28.32432 247
28.34443 244
28.36455 208
28.38466 217
28.40477 232
28.42489 227
28.445 253
28.46511 245
28.48523 246
28.50534 228
28.52546 218
28.54557 226
28.56568 252
28.5858 249
28.60591 212
28.62602 233
28.64614 209
28.66625 228
28.68636 209
28.70648 211
28.72659 214
28.74671 211
28.76682 213
28.78693 202
28.80705 207
28.82716 208
28.84727 212
28.86739 232
28.8875 209
28.90762 204
28.92773 220
28.94784 204
28.96796 199
28.98807 218
29.00818 217
29.0283 226
29.04841 210
29.06853 209
29.08864 215
29.10875 244
29.12887 214
29.14898 220
29.16909 229
29.18921 255
29.20932 238
29.22943 236
29.24955 260
29.26966 310
29.28978 307
29.30989 320
29.33 353
29.35012 345
29.37023 388
29.39034 404
29.41046 402
29.43057 377
29.45069 400
29.4708 395
29.49091 324
29.51103 316
29.53114 276
29.55125 260
29.57137 236
29.59148 216
29.6116 239
29.63171 217
29.65182 202
29.67194 228
29.69205 211
29.71216 239
29.73228 232
29.75239 232
29.7725 242
29.79262 235
29.81273 219
29.83285 227
29.85296 230
29.87307 252
29.89319 224
29.9133 242
29.93341 218
29.95353 232
29.97364 301
29.99376 292
30.01387 282
30.03398 359
30.0541 347
30.07421 375
30.09432 357
30.11444 397
30.13455 422
30.15467 465
30.17478 452
30.19489 479
30.21501 481
30.23512 419
30.25523 435
30.27535 390
30.29546 343
30.31557 297
30.33569 244
30.3558 230
30.37592 248
30.39603 238
30.41614 241
30.43626 226
30.45637 217
30.47648 230
30.4966 235
30.51671 239
30.53683 259
30.55694 265
30.57705 284
30.59717 294
30.61728 334
30.63739 326
30.65751 371
30.67762 391
30.69773 374
30.71785 397
30.73796 382
30.75808 420
30.77819 365
30.7983 392
30.81842 390
30.83853 349
30.85864 345
30.87876 346
30.89887 289
30.91899 297
30.9391 271
30.95921 263
30.97933 224
30.99944 248
31.01955 204
31.03967 229
31.05978 228
31.0799 195
31.10001 219
31.12012 196
31.14024 204
31.16035 214
31.18046 163
31.20058 199
31.22069 178
31.2408 166
31.26092 162
31.28103 201
31.30115 187
31.32126 177
31.34137 176
31.36149 179
31.3816 192
31.40171 189
31.42183 166
31.44194 177
31.46206 159
31.48217 159
31.50228 177
31.5224 166
31.54251 176
31.56262 172
31.58274 171
31.60285 188
31.62297 170
31.64308 179
31.66319 152
31.68331 151
31.70342 164
31.72353 167
31.74365 151
31.76376 182
31.78387 157
31.80399 193
31.8241 179
31.84422 164
31.86433 154
31.88444 174
31.90456 191
31.92467 193
31.94478 195
31.9649 194
31.98501 193
32.00513 231
32.02524 222
32.04535 241
32.06547 223
32.08558 211
32.10569 215
32.12581 232
32.14592 218
32.16604 201
32.18615 221
32.20626 199
32.22638 221
32.24649 180
32.2666 190
32.28672 215
32.30683 232
32.32694 248
32.34706 238
32.36717 243
32.38729 247
32.4074 241
32.42751 269
32.44763 280
32.46774 288
32.48785 273
32.50797 257
32.52808 256
32.5482 204
32.56831 215
32.58842 204
32.60854 206
32.62865 167
32.64876 174
32.66888 184
32.68899 169
32.7091 161
32.72922 192
32.74933 166
32.76945 163
32.78956 165
32.80967 167
32.82979 169
32.8499 165
32.87001 180
32.89013 138
32.91024 143
32.93036 156
32.95047 168
32.97058 168
32.9907 159
33.01081 158
33.03092 158
33.05104 154
33.07115 162
33.09127 136
33.11138 159
33.13149 170
33.15161 132
33.17172 164
33.19183 148
33.21195 139
33.23206 180
33.25217 148
33.27229 148
33.2924 158
33.31252 163
33.33263 126
33.35274 146
33.37286 124
33.39297 169
33.41308 159
33.4332 152
33.45331 150
33.47343 141
33.49354 163
33.51365 158
33.53377 148
33.55388 161
33.57399 163
33.59411 157
33.61422 177
33.63434 161
33.65445 158
33.67456 149
33.69468 153
33.71479 163
33.7349 155
33.75502 157
33.77513 166
33.79524 149
33.81536 162
33.83547 172
33.85559 169
33.8757 172
33.89581 163
33.91593 171
33.93604 163
33.95615 184
33.97627 203
33.99638 191
34.0165 220
34.03661 248
34.05672 268
34.07684 272
34.09695 291
34.11706 328
34.13718 319
34.15729 340
34.17741 333
34.19752 334
34.21763 336
34.23775 316
34.25786 290
34.27797 259
34.29809 261
34.3182 212
34.33831 211
34.35843 213
34.37854 199
34.39866 194
34.41877 177
34.43888 183
34.459 187
34.47911 196
34.49922 189
34.51934 199
34.53945 197
34.55957 233
34.57968 263
34.59979 235
34.61991 232
34.64002 259
34.66013 255
34.68025 264
34.70036 259
34.72047 248
34.74059 255
34.7607 261
34.78082 227
34.80093 234
34.82104 280
34.84116 272
34.86127 240
34.88138 303
34.9015 273
34.92161 240
34.94173 243
34.96184 254
34.98195 251
35.00207 239
35.02218 216
35.04229 296
35.06241 236
35.08252 229
35.10264 229
35.12275 248
35.14286 237
35.16298 282
35.18309 248
35.2032 255
35.22332 249
35.24343 227
35.26354 269
35.28366 259
35.30377 219
35.32389 270
35.344 254
35.36411 260
35.38423 269
35.40434 241
35.42445 286
35.44457 319
35.46468 336
35.4848 361
35.50491 364
35.52502 353
35.54514 356
35.56525 309
35.58536 353
35.60548 290
35.62559 274
35.64571 278
35.66582 249
35.68593 249
35.70605 248
35.72616 248
35.74627 228
35.76639 227
35.7865 237
35.80661 223
35.82673 238
35.84684 261
35.86696 256
35.88707 229
35.90718 187
35.9273 202
35.94741 234
35.96752 199
35.98764 200
36.00775 223
36.02787 193
36.04798 209
36.06809 207
36.08821 218
36.10832 238
36.12843 209
36.14855 229
36.16866 229
36.18878 247
36.20889 269
36.229 267
36.24912 313
36.26923 338
36.28934 410
36.30946 457
36.32957 562
36.34968 639
36.3698 744
36.38991 877
36.41003 989
36.43014 1178
36.45025 1340
36.47037 1499
36.49048 1523
36.51059 1660
36.53071 1574
36.55082 1536
36.57094 1255
36.59105 1123
36.61116 941
36.63128 795
36.65139 672
36.6715 510
36.69162 381
36.71173 318
36.73184 297
36.75196 261
36.77207 266
36.79219 295
36.8123 273
36.83241 275
36.85253 264
36.87264 295
36.89275 267
36.91287 309
36.93298 294
36.9531 316
36.97321 244
36.99332 284
37.01344 267
37.03355 256
37.05366 238
37.07378 213
37.09389 211
37.11401 192
37.13412 195
37.15423 184
37.17435 208
37.19446 188
37.21457 189
37.23469 176
37.2548 169
37.27491 176
37.29503 197
37.31514 155
37.33526 186
37.35537 160
37.37548 173
37.3956 155
37.41571 184
37.43582 214
37.45594 172
37.47605 179
37.49617 191
37.51628 170
37.53639 191
37.55651 177
37.57662 168
37.59673 201
37.61685 183
37.63696 168
37.65708 198
37.67719 186
37.6973 173
37.71742 181
37.73753 183
37.75764 159
37.77776 181
37.79787 161
37.81798 166
37.8381 183
37.85821 179
37.87833 145
37.89844 194
37.91855 170
37.93867 199
37.95878 175
37.97889 188
37.99901 184
38.01912 166
38.03924 155
38.05935 170
38.07946 187
38.09958 162
38.11969 178
38.1398 188
38.15992 193
38.18003 196
38.20015 187
38.22026 175
38.24037 194
38.26049 199
38.2806 169
38.30071 202
38.32083 205
38.34094 230
38.36105 248
38.38117 237
38.40128 202
38.4214 248
38.44151 251
38.46162 250
38.48174 252
38.50185 234
38.52196 237
38.54208 251
38.56219 251
38.58231 238
38.60242 216
38.62253 223
38.64265 187
38.66276 216
38.68287 189
38.70299 187
38.7231 192
38.74321 159
38.76333 205
38.78344 195
38.80356 190
38.82367 190
38.84378 173
38.8639 173
38.88401 200
38.90412 171
38.92424 183
38.94435 205
38.96447 204
38.98458 220
39.00469 209
39.02481 224
39.04492 231
39.06503 227
39.08515 258
39.10526 256
39.12538 254
39.14549 315
39.1656 302
39.18572 350
39.20583 379
39.22594 458
39.24606 485
39.26617 602
39.28628 720
39.3064 815
39.32651 879
39.34663 1028
39.36674 1243
39.38685 1407
39.40697 1508
39.42708 1519
39.44719 1425
39.46731 1401
39.48742 1290
39.50754 1050
39.52765 969
39.54776 788
39.56788 658
39.58799 505
39.6081 409
39.62822 311
39.64833 282
39.66845 233
39.68856 207
39.70867 208
39.72879 216
39.7489 206
39.76901 216
39.78913 178
39.80924 191
39.82935 192
39.84947 215
39.86958 221
39.8897 185
39.90981 189
39.92992 229
39.95004 185
39.97015 236
39.99026 254
40.01038 277
40.03049 324
40.05061 305
40.07072 338
40.09083 360
40.11095 436
40.13106 474
40.15117 581
40.17129 610
40.1914 741
40.21152 786
40.23163 761
40.25174 811
40.27186 802
40.29197 745
40.31208 681
40.3322 590
40.35231 497
40.37242 512
40.39254 440
40.41265 393
40.43277 316
40.45288 248
40.47299 253
40.49311 222
40.51322 204
40.53333 204
40.55345 202
40.57356 187
40.59368 184
40.61379 213
40.6339 169
40.65402 184
40.67413 167
40.69424 179
40.71436 172
40.73447 155
40.75458 157
40.7747 167
40.79481 157
40.81493 162
40.83504 164
40.85515 183
40.87527 166
40.89538 135
40.91549 151
40.93561 174
40.95572 145
40.97584 177
40.99595 164
41.01606 163
41.03618 184
41.05629 158
41.0764 156
41.09652 167
41.11663 167
41.13675 174
41.15686 183
41.17697 168
41.19709 168
41.2172 157
41.23731 164
41.25743 157
41.27754 176
41.29765 154
41.31777 178
41.33788 181
41.358 159
41.37811 161
41.39822 176
41.41834 195
41.43845 202
41.45856 183
41.47868 209
41.49879 197
41.51891 211
41.53902 211
41.55913 240
41.57925 231
41.59936 256
41.61947 263
41.63959 269
41.6597 313
41.67982 356
41.69993 327
41.72004 373
41.74016 384
41.76027 418
41.78038 388
41.8005 375
41.82061 379
41.84072 342
41.86084 304
41.88095 287
41.90107 289
41.92118 279
41.94129 253
41.96141 210
41.98152 226
42.00163 208
42.02175 224
42.04186 194
42.06198 197
42.08209 245
42.1022 223
42.12232 265
42.14243 240
42.16254 308
42.18266 282
42.20277 332
42.22289 378
42.243 488
42.26311 482
42.28323 593
42.30334 676
42.32345 755
42.34357 856
42.36368 924
42.38379 1054
42.40391 1071
42.42402 1150
42.44414 1135
42.46425 1040
42.48436 863
42.50448 718
42.52459 653
42.5447 591
42.56482 495
42.58493 385
42.60505 349
42.62516 303
42.64527 273
42.66539 253
42.6855 239
42.70561 226
42.72573 245
42.74584 244
42.76595 191
42.78607 219
42.80618 221
42.8263 200
42.84641 200
42.86652 196
42.88664 163
42.90675 166
42.92686 161
42.94698 155
42.96709 175
42.98721 139
43.00732 176
43.02743 144
43.04755 166
43.06766 178
43.08777 160
43.10789 168
43.128 164
43.14812 189
43.16823 180
43.18834 170
43.20846 145
43.22857 168
43.24868 170
43.2688 158
43.28891 167
43.30902 157
43.32914 176
43.34925 182
43.36937 172
43.38948 177
43.40959 158
43.42971 152
43.44982 160
43.46993 174
43.49005 177
43.51016 179
43.53028 173
43.55039 180
43.5705 191
43.59062 148
43.61073 163
43.63084 163
43.65096 155
43.67107 177
43.69119 149
43.7113 132
43.73141 148
43.75153 139
43.77164 134
43.79175 152
43.81187 165
43.83198 163
43.85209 165
43.87221 162
43.89232 144
43.91244 150
43.93255 150
43.95266 148
43.97278 182
43.99289 147
44.013 188
44.03312 162
44.05323 156
44.07335 149
44.09346 172
44.11357 162
44.13369 159
44.1538 183
44.17391 161
44.19403 184
44.21414 152
44.23426 166
44.25437 157
44.27448 177
44.2946 170
44.31471 149
44.33482 160
44.35494 152
44.37505 165
44.39516 152
44.41528 184
44.43539 187
44.45551 152
44.47562 177
44.49573 145
44.51585 158
44.53596 164
44.55607 191
44.57619 157
44.5963 192
44.61642 165
44.63653 154
44.65664 165
44.67676 166
44.69687 160
44.71698 161
44.7371 165
44.75721 141
44.77732 161
44.79744 155
44.81755 144
44.83767 154
44.85778 151
44.87789 149
44.89801 158
44.91812 147
44.93823 138
44.95835 128
44.97846 135
44.99858 136
45.01869 164
45.0388 160
45.05892 162
45.07903 162
45.09914 163
45.11926 142
45.13937 156
45.15949 145
45.1796 161
45.19971 157
45.21983 154
45.23994 164
45.26005 177
45.28017 162
45.30028 178
45.32039 202
45.34051 186
45.36062 214
45.38074 210
45.40085 198
45.42096 227
45.44108 262
45.46119 287
45.4813 294
45.50142 275
45.52153 310
45.54165 334
45.56176 368
45.58187 431
45.60199 478
45.6221 534
45.64221 595
45.66233 622
45.68244 677
45.70256 713
45.72267 783
45.74278 840
45.7629 885
45.78301 757
45.80312 743
45.82324 622
45.84335 551
45.86346 492
45.88358 488
45.90369 439
45.92381 385
45.94392 313
45.96403 258
45.98415 228
46.00426 199
46.02437 200
46.04449 209
46.0646 192
46.08472 190
46.10483 191
46.12494 208
46.14506 191
46.16517 195
46.18528 191
46.2054 200
46.22551 159
46.24563 173
46.26574 177
46.28585 180
46.30597 177
46.32608 170
46.34619 174
46.36631 173
46.38642 167
46.40653 170
46.42665 144
46.44676 148
46.46688 135
46.48699 160
46.5071 148
46.52722 148
46.54733 148
46.56744 144
46.58756 142
46.60767 144
46.62779 130
46.6479 180
46.66801 150
46.68813 140
46.70824 154
46.72835 145
46.74847 147
46.76858 155
46.78869 161
46.80881 152
46.82892 167
46.84904 146
46.86915 173
46.88926 181
46.90938 168
46.92949 179
46.9496 188
46.96972 173
46.98983 196
47.00995 198
47.03006 213
47.05017 224
47.07029 218
47.0904 197
47.11051 233
47.13063 204
47.15074 210
47.17086 200
47.19097 182
47.21108 188
47.2312 158
47.25131 184
47.27142 184
47.29154 176
47.31165 189
47.33176 185
47.35188 166
47.37199 186
47.39211 181
47.41222 200
47.43233 170
47.45245 174
47.47256 175
47.49267 198
47.51279 186
47.5329 150
47.55302 158
47.57313 168
47.59324 157
47.61336 149
47.63347 144
47.65358 134
47.6737 169
47.69381 150
47.71393 150
47.73404 162
47.75415 151
47.77427 127
47.79438 133
47.81449 153
47.83461 137
47.85472 139
47.87483 126
47.89495 166
47.91506 164
47.93518 145
47.95529 135
47.9754 165
47.99552 153
48.01563 150
48.03574 150
48.05586 163
48.07597 156
48.09609 150
48.1162 154
48.13631 139
48.15643 161
48.17654 140
48.19665 167
48.21677 135
48.23688 158
48.257 138
48.27711 140
48.29722 150
48.31734 152
48.33745 141
48.35756 147
48.37768 166
48.39779 144
48.4179 151
48.43802 153
48.45813 136
48.47825 156
48.49836 150
48.51847 170
48.53859 171
48.5587 147
48.57881 179
48.59893 176
48.61904 192
48.63916 170
48.65927 177
48.67938 181
48.6995 192
48.71961 168
48.73972 171
48.75984 201
48.77995 204
48.80006 214
48.82018 200
48.84029 205
48.86041 208
48.88052 216
48.90063 211
48.92075 207
48.94086 223
48.96097 191
48.98109 195
49.0012 189
49.02132 201
49.04143 181
49.06154 216
49.08166 202
49.10177 186
49.12188 176
49.142 193
49.16211 172
49.18223 196
49.20234 174
49.22245 145
49.24257 146
49.26268 176
49.28279 190
49.30291 183
49.32302 158
49.34313 176
49.36325 161
49.38336 175
49.40348 164
49.42359 168
49.4437 129
49.46382 178
49.48393 159
49.50404 169
49.52416 185
49.54427 173
49.56439 229
49.5845 206
49.60461 208
49.62473 227
49.64484 221
49.66495 232
49.68507 241
49.70518 271
49.7253 289
49.74541 324
49.76552 328
49.78564 371
49.80575 410
49.82586 495
49.84598 579
49.86609 592
49.8862 714
49.90632 821
49.92643 947
49.94655 1077
49.96666 1360
49.98677 1519
50.00689 1777
50.027 1935
50.04711 2177
50.06723 2394
50.08734 2520
50.10746 2395
50.12757 2316
50.14768 2050
50.1678 1799
50.18791 1540
50.20802 1431
50.22814 1258
50.24825 1218
50.26837 976
50.28848 872
50.30859 665
50.32871 534
50.34882 439
50.36893 448
50.38905 420
50.40916 421
50.42927 453
50.44939 429
50.4695 494
50.48962 419
50.50973 453
50.52984 436
50.54996 442
50.57007 429
50.59018 354
50.6103 363
50.63041 356
50.65053 342
50.67064 313
50.69075 268
50.71087 240
50.73098 273
50.75109 251
50.77121 241
50.79132 219
50.81143 260
50.83155 231
50.85166 220
50.87178 225
50.89189 231
50.912 216
50.93212 211
50.95223 223
50.97234 200
50.99246 220
51.01257 196
51.03269 222
51.0528 198
51.07291 186
51.09303 154
51.11314 146
51.13325 148
51.15337 151
51.17348 157
51.1936 162
51.21371 164
51.23382 163
51.25394 139
51.27405 168
51.29416 157
51.31428 141
51.33439 142
51.3545 153
51.37462 151
51.39473 158
51.41485 127
51.43496 126
51.45507 142
51.47519 129
51.4953 158
51.51541 131
51.53553 177
51.55564 135
51.57576 135
51.59587 141
51.61598 158
51.6361 151
51.65621 141
51.67632 148
51.69644 161
51.71655 145
51.73667 129
51.75678 122
51.77689 159
51.79701 121
51.81712 132
51.83723 143
51.85735 130
51.87746 137
51.89757 143
51.91769 131
51.9378 148
51.95792 138
51.97803 121
51.99814 114
52.01826 145
52.03837 137
52.05848 139
52.0786 149
52.09871 136
52.11883 136
52.13894 136
52.15905 137
52.17917 128
52.19928 130
52.21939 148
52.23951 121
52.25962 113
52.27974 115
52.29985 140
52.31996 148
52.34008 136
52.36019 149
52.3803 145
52.40042 159
52.42053 153
52.44064 148
52.46076 140
52.48087 165
52.50099 135
52.5211 166
52.54121 147
52.56133 169
52.58144 159
52.60155 142
52.62167 157
52.64178 173
52.6619 178
52.68201 156
52.70212 158
52.72224 176
52.74235 151
52.76246 178
52.78258 160
52.80269 138
52.8228 146
52.84292 142
52.86303 149
52.88315 173
52.90326 157
52.92337 134
52.94349 145
52.9636 144
52.98371 146
53.00383 141
53.02394 155
53.04406 151
53.06417 149
53.08428 169
53.1044 171
53.12451 144
53.14462 148
53.16474 162
53.18485 174
53.20497 134
53.22508 159
53.24519 170
53.26531 184
53.28542 163
53.30553 157
53.32565 165
53.34576 149
53.36587 183
53.38599 160
53.4061 157
53.42622 163
53.44633 138
53.46644 152
53.48656 161
53.50667 167
53.52678 157
53.5469 141
53.56701 167
53.58713 133
53.60724 150
53.62735 163
53.64747 140
53.66758 148
53.68769 157
53.70781 178
53.72792 128
53.74804 141
53.76815 153
53.78826 169
53.80838 164
53.82849 165
53.8486 172
53.86872 164
53.88883 151
53.90894 146
53.92906 160
53.94917 184
53.96929 142
53.9894 180
54.00951 183
54.02963 162
54.04974 177
54.06985 173
54.08997 164
54.11008 147
54.1302 160
54.15031 183
54.17042 146
54.19054 162
54.21065 157
54.23076 153
54.25088 182
54.27099 129
54.29111 164
54.31122 167
54.33133 159
54.35145 193
54.37156 165
54.39167 174
54.41179 211
54.4319 199
54.45201 173
54.47213 189
54.49224 207
54.51236 198
54.53247 225
54.55258 264
54.5727 271
54.59281 276
54.61292 300
54.63304 331
54.65315 382
54.67327 414
54.69338 480
54.71349 563
54.73361 596
54.75372 687
54.77383 744
54.79395 758
54.81406 780
54.83417 795
54.85429 760
54.8744 752
54.89452 684
54.91463 620
54.93474 518
54.95486 526
54.97497 475
54.99508 447
55.0152 455
55.03531 379
55.05543 349
55.07554 319
55.09565 301
55.11577 310
55.13588 389
55.15599 333
55.17611 367
55.19622 394
55.21634 392
55.23645 406
55.25656 481
55.27668 453
55.29679 455
55.3169 415
55.33702 410
55.35713 359
55.37724 364
55.39736 341
55.41747 309
55.43759 301
55.4577 335
55.47781 268
55.49793 251
55.51804 230
55.53815 208
55.55827 212
55.57838 188
55.5985 207
55.61861 184
55.63872 172
55.65884 170
55.67895 159
55.69906 165
55.71918 150
55.73929 156
55.75941 171
55.77952 138
55.79963 153
55.81975 157
55.83986 154
55.85997 143
55.88009 158
55.9002 154
55.92031 133
55.94043 165
55.96054 152
55.98066 134
56.00077 154
56.02088 153
56.041 140
56.06111 142
56.08122 130
56.10134 153
56.12145 153
56.14157 141
56.16168 148
56.18179 145
56.20191 148
56.22202 125
56.24213 144
56.26225 133
56.28236 120
56.30248 140
56.32259 128
56.3427 143
56.36282 147
56.38293 160
56.40304 125
56.42316 140
56.44327 135
56.46338 140
56.4835 134
56.50361 124
56.52373 135
56.54384 157
56.56395 137
56.58407 146
56.60418 137
56.62429 155
56.64441 155
56.66452 150
56.68464 173
56.70475 184
56.72486 164
56.74498 161
56.76509 169
56.7852 152
56.80532 151
56.82543 168
56.84554 142
56.86566 174
56.88577 157
56.90589 152
56.926 152
56.94611 163
56.96623 134
56.98634 158
57.00645 161
57.02657 150
57.04668 140
57.0668 167
57.08691 160
57.10702 167
57.12714 183
57.14725 198
57.16736 179
57.18748 188
57.20759 181
57.22771 204
57.24782 185
57.26793 193
57.28805 183
57.30816 177
57.32827 196
57.34839 197
57.3685 171
57.38861 165
57.40873 164
57.42884 161
57.44896 153
57.46907 164
57.48918 172
57.5093 164
57.52941 161
57.54952 140
57.56964 148
57.58975 140
57.60987 141
57.62998 127
57.65009 155
57.67021 122
57.69032 123
57.71043 154
57.73055 159
57.75066 121
57.77078 122
57.79089 151
57.811 143
57.83112 139
57.85123 139
57.87134 144
57.89146 145
57.91157 133
57.93168 158
57.9518 157
57.97191 144
57.99203 146
58.01214 157
58.03225 146
58.05237 143
58.07248 179
58.09259 160
58.11271 154
58.13282 145
58.15294 151
58.17305 153
58.19316 183
58.21328 150
58.23339 140
58.2535 152
58.27362 147
58.29373 156
58.31385 148
58.33396 157
58.35407 131
58.37419 148
58.3943 158
58.41441 169
58.43453 165
58.45464 153
58.47475 158
58.49487 150
58.51498 139
58.5351 197
58.55521 136
58.57532 172
58.59544 167
58.61555 164
58.63566 159
58.65578 164
58.67589 157
58.69601 149
58.71612 201
58.73623 138
58.75635 159
58.77646 171
58.79657 155
58.81669 146
58.8368 145
58.85691 141
58.87703 152
58.89714 162
58.91726 146
58.93737 162
58.95748 137
58.9776 139
58.99771 141
59.01782 143
59.03794 148
59.05805 125
59.07817 160
59.09828 124
59.11839 146
59.13851 158
59.15862 146
59.17873 168
59.19885 148
59.21896 149
59.23908 142
59.25919 160
59.2793 154
59.29942 173
59.31953 190
59.33964 167
59.35976 170
59.37987 202
59.39998 192
59.4201 202
59.44021 242
59.46033 230
59.48044 233
59.50055 222
59.52067 245
59.54078 305
59.56089 271
59.58101 327
59.60112 327
59.62124 354
59.64135 416
59.66146 447
59.68158 490
59.70169 569
59.7218 658
59.74192 740
59.76203 849
59.78215 978
59.80226 1090
59.82237 1195
59.84249 1414
59.8626 1563
59.88271 1528
59.90283 1650
59.92294 1570
59.94305 1488
59.96317 1450
59.98328 1175
60.0034 1070
60.02351 903
60.04362 917
60.06374 855
60.08385 842
60.10396 751
60.12408 639
60.14419 526
60.16431 403
60.18442 318
60.20453 255
60.22465 252
60.24476 217
60.26487 190
60.28499 211
60.3051 190
60.32522 196
60.34533 193
60.36544 157
60.38556 168
60.40567 180
60.42578 177
60.4459 167
60.46601 149
60.48612 139
60.50624 153
60.52635 169
60.54647 135
60.56658 158
60.58669 155
60.60681 134
60.62692 160
60.64703 154
60.66715 154
60.68726 169
60.70738 142
60.72749 157
60.7476 167
60.76772 138
60.78783 165
60.80794 169
60.82806 158
60.84817 170
60.86828 159
60.8884 186
60.90851 161
60.92863 193
60.94874 177
60.96885 184
60.98897 188
61.00908 169
61.02919 196
61.04931 197
61.06942 224
61.08954 242
61.10965 236
61.12976 198
61.14988 171
61.16999 197
61.1901 186
61.21022 170
61.23033 168
61.25045 165
61.27056 182
61.29067 178
61.31079 163
61.3309 160
61.35101 164
61.37113 178
61.39124 155
61.41135 141
61.43147 152
61.45158 170
61.4717 148
61.49181 145
61.51192 151
61.53204 165
61.55215 140
61.57226 135
61.59238 152
61.61249 150
61.63261 169
61.65272 132
61.67283 141
61.69295 157
61.71306 145
61.73317 150
61.75329 138
61.7734 128
61.79352 164
61.81363 139
61.83374 164
61.85386 154
61.87397 128
61.89408 147
61.9142 147
61.93431 161
61.95442 152
61.97454 123
61.99465 161
62.01477 146
62.03488 177
62.05499 171
62.07511 156
62.09522 147
62.11533 168
62.13545 151
62.15556 166
62.17568 174
62.19579 161
62.2159 133
62.23602 146
62.25613 145
62.27624 179
62.29636 192
62.31647 154
62.33659 160
62.3567 170
62.37681 149
62.39693 157
62.41704 147
62.43715 135
62.45727 134
62.47738 162
62.49749 164
62.51761 163
62.53772 155
62.55784 153
62.57795 166
62.59806 158
62.61818 163
62.63829 153
62.6584 189
62.67852 149
62.69863 181
62.71875 162
62.73886 166
62.75897 179
62.77909 137
62.7992 174
62.81931 155
62.83943 141
62.85954 150
62.87965 186
62.89977 205
62.91988 178
62.94 209
62.96011 197
62.98022 210
63.00034 212
63.02045 220
63.04056 167
63.06068 207
63.08079 204
63.10091 228
63.12102 207
63.14113 193
63.16125 182
63.18136 178
63.20147 205
63.22159 168
63.2417 160
63.26182 147
63.28193 177
63.30204 146
63.32216 148
63.34227 172
63.36238 154
63.3825 163
63.40261 166
63.42272 159
63.44284 155
63.46295 143
63.48307 167
63.50318 168
63.52329 197
63.54341 163
63.56352 185
63.58363 157
63.60375 190
63.62386 194
63.64398 205
63.66409 208
63.6842 233
63.70432 222
63.72443 232
63.74454 235
63.76466 259
63.78477 269
63.80489 283
63.825 314
63.84511 307
63.86523 378
63.88534 388
63.90545 403
63.92557 412
63.94568 415
63.96579 486
63.98591 442
64.00602 420
64.02614 414
64.04625 380
64.06636 366
64.08648 314
64.10659 299
64.1267 293
64.14682 253
64.16693 280
64.18705 258
64.20716 200
64.22727 188
64.24739 214
64.2675 170
64.28761 159
64.30773 151
64.32784 117
64.34796 147
64.36807 141
64.38818 131
64.4083 129
64.42841 148
64.44852 126
64.46864 110
64.48875 129
64.50886 136
64.52898 144
64.54909 125
64.56921 129
64.58932 110
64.60943 134
64.62955 119
64.64966 155
64.66977 137
64.68989 132
64.71 139
64.73012 119
64.75023 140
64.77034 139
64.79046 155
64.81057 166
64.83068 151
64.8508 134
64.87091 148
64.89102 165
64.91114 150
64.93125 144
64.95137 154
64.97148 164
64.99159 180
65.01171 167
65.03182 155
65.05193 169
65.07205 189
65.09216 165
65.11228 185
65.13239 163
65.1525 186
65.17262 160
65.19273 177
65.21284 184
65.23296 175
65.25307 190
65.27319 206
65.2933 181
65.31341 205
65.33353 154
65.35364 169
65.37375 165
65.39387 159
65.41398 152
65.43409 169
65.45421 171
65.47432 169
65.49444 162
65.51455 172
65.53466 162
65.55478 147
65.57489 171
65.595 160
65.61512 178
65.63523 184
65.65535 177
65.67546 192
65.69557 194
65.71569 196
65.7358 204
65.75591 205
65.77603 205
65.79614 188
65.81626 176
65.83637 191
65.85648 177
65.8766 167
65.89671 174
65.91682 172
65.93694 168
65.95705 204
65.97716 148
65.99728 154
66.01739 156
66.03751 155
66.05762 183
66.07773 155
66.09785 173
66.11796 150
66.13807 165
66.15819 178
66.1783 179
66.19842 173
66.21853 221
66.23864 185
66.25876 176
66.27887 186
66.29898 164
66.3191 168
66.33921 175
66.35933 157
66.37944 174
66.39955 166
66.41967 175
66.43978 146
66.45989 180
66.48001 178
66.50012 172
66.52023 152
66.54035 161
66.56046 154
66.58058 152
66.60069 142
66.6208 153
66.64092 153
66.66103 139
66.68114 164
66.70126 149
66.72137 138
66.74149 165
66.7616 155
66.78171 138
66.80183 156
66.82194 164
66.84205 164
66.86217 172
66.88228 169
66.90239 161
66.92251 143
66.94262 166
66.96274 138
66.98285 165
67.00296 153
67.02308 163
67.04319 166
67.0633 171
67.08342 195
67.10353 180
67.12365 191
67.14376 187
67.16387 160
67.18399 183
67.2041 162
67.22421 194
67.24433 212
67.26444 195
67.28456 189
67.30467 208
67.32478 234
67.3449 232
67.36501 246
67.38512 249
67.40524 281
67.42535 303
67.44546 345
67.46558 363
67.48569 441
67.50581 492
67.52592 584
67.54603 618
67.56615 642
67.58626 684
67.60637 822
67.62649 871
67.6466 902
67.66672 992
67.68683 1042
67.70694 1036
67.72706 991
67.74717 903
67.76728 828
67.7874 788
67.80751 757
67.82763 808
67.84774 817
67.86785 841
67.88797 905
67.90808 888
67.92819 910
67.94831 940
67.96842 982
67.98853 1007
68.00865 1099
68.02876 1219
68.04888 1273
68.06899 1409
68.0891 1449
68.10922 1450
68.12933 1354
68.14944 1392
68.16956 1293
68.18967 1191
68.20979 1196
68.2299 1272
68.25001 1258
68.27013 1231
68.29024 1157
68.31035 1051
68.33047 882
68.35058 772
68.3707 698
68.39081 570
68.41092 506
68.43104 522
68.45115 472
68.47126 445
68.49138 424
68.51149 395
68.5316 273
68.55172 265
68.57183 245
68.59195 206
68.61206 194
68.63217 203
68.65229 174
68.6724 157
68.69251 172
68.71263 166
68.73274 186
68.75286 168
68.77297 170
68.79308 156
68.8132 180
68.83331 180
68.85342 156
68.87354 163
68.89365 176
68.91376 159
68.93388 154
68.95399 146
68.97411 157
68.99422 168
69.01433 155
69.03445 156
69.05456 141
69.07467 155
69.09479 159
69.1149 147
69.13502 142
69.15513 125
69.17524 136
69.19536 124
69.21547 124
69.23558 135
69.2557 159
69.27581 128
69.29593 135
69.31604 159
69.33615 135
69.35627 140
69.37638 149
69.39649 125
69.41661 140
69.43672 124
69.45683 140
69.47695 137
69.49706 141
69.51718 135
69.53729 141
69.5574 144
69.57752 108
69.59763 145
69.61774 114
69.63786 137
69.65797 151
69.67809 136
69.6982 158
69.71831 125
69.73843 148
69.75854 140
69.77865 133
69.79877 115
69.81888 131
69.839 137
69.85911 119
69.87922 135
69.89934 144
69.91945 137
69.93956 121
69.95968 147
69.97979 136
69.9999 135
70.02002 134
70.04013 141
70.06025 143
70.08036 149
70.10047 139
70.12059 149
70.1407 149
70.16081 148
70.18093 122
70.20104 122
70.22116 127
70.24127 134
70.26138 134
70.2815 132
70.30161 127
70.32172 143
70.34184 137
70.36195 142
70.38207 128
70.40218 134
70.42229 139
70.44241 131
70.46252 121
70.48263 132
70.50275 124
70.52286 141
70.54297 151
70.56309 139
70.5832 149
70.60332 165
70.62343 157
70.64354 142
70.66366 155
70.68377 140
70.70388 142
70.724 155
70.74411 162
70.76423 156
70.78434 161
70.80445 148
70.82457 155
70.84468 128
70.86479 131
70.88491 141
70.90502 144
70.92513 168
70.94525 152
70.96536 132
70.98548 134
71.00559 138
71.0257 134
71.04582 130
71.06593 124
71.08604 123
71.10616 140
71.12627 125
71.14639 146
71.1665 134
71.18661 139
71.20673 134
71.22684 126
71.24695 138
71.26707 130
71.28718 127
71.3073 134
71.32741 129
71.34752 138
71.36764 156
71.38775 127
71.40786 138
71.42798 155
71.44809 148
71.4682 148
71.48832 142
71.50843 170
71.52855 166
71.54866 156
71.56877 159
71.58889 166
71.609 137
71.62911 151
71.64923 130
71.66934 157
71.68946 142
71.70957 150
71.72968 158
71.7498 127
71.76991 168
71.79002 153
71.81014 128
71.83025 148
71.85037 140
71.87048 144
71.89059 145
71.91071 157
71.93082 162
71.95093 149
71.97105 152
71.99116 139
72.01127 143
72.03139 179
72.0515 156
72.07162 162
72.09173 160
72.11184 155
72.13196 178
72.15207 167
72.17218 148
72.1923 167
72.21241 176
72.23253 166
72.25264 176
72.27275 159
72.29287 149
72.31298 150
72.33309 163
72.35321 163
72.37332 154
72.39344 137
72.41355 170
72.43366 151
72.45378 140
72.47389 155
72.494 149
72.51412 154
72.53423 187
72.55434 122
72.57446 142
72.59457 144
72.61469 124
72.6348 147
72.65491 135
72.67503 135
72.69514 137
72.71525 140
72.73537 147
72.75548 149
72.7756 133
72.79571 158
72.81582 144
72.83594 143
72.85605 158
72.87616 158
72.89628 155
72.91639 156
72.9365 168
72.95662 178
72.97673 165
72.99685 192
73.01696 204
73.03707 184
73.05719 221
73.0773 186
73.09741 229
73.11753 243
73.13764 238
73.15776 252
73.17787 224
73.19798 243
73.2181 287
73.23821 306
73.25832 287
73.27844 326
73.29855 332
73.31867 336
73.33878 458
73.35889 396
73.37901 469
73.39912 452
73.41923 479
73.43935 414
73.45946 383
73.47957 351
73.49969 371
73.5198 307
73.53992 264
73.56003 293
73.58014 287
73.60026 298
73.62037 312
73.64048 271
73.6606 276
73.68071 241
73.70083 231
73.72094 216
73.74105 177
73.76117 180
73.78128 157
73.80139 157
73.82151 146
73.84162 156
73.86174 145
73.88185 140
73.90196 151
73.92208 141
73.94219 146
73.9623 136
73.98242 138
74.00253 142
74.02264 138
74.04276 122
74.06287 119
74.08299 152
74.1031 132
74.12321 149
74.14333 136
74.16344 118
74.18355 135
74.20367 145
74.22378 137
74.2439 138
74.26401 120
74.28412 132
74.30424 134
74.32435 158
74.34446 144
74.36458 147
74.38469 143
74.40481 160
74.42492 137
74.44503 150
74.46515 140
74.48526 167
74.50537 146
74.52549 165
74.5456 137
74.56571 150
74.58583 146
74.60594 140
74.62606 144
74.64617 147
74.66628 190
74.6864 166
74.70651 158
74.72662 163
74.74674 166
74.76685 161
74.78697 160
74.80708 163
74.82719 153
74.84731 149
74.86742 140
74.88753 142
74.90765 151
74.92776 171
74.94787 135
74.96799 131
74.9881 126
75.00822 153
