3.00117 20839.7700813751
3.02128 20271.6685926859
3.0414 19657
3.06151 19443.779863463
3.08162 18696.2344973118
3.10174 18202.5983032044
3.12185 17988.3613426509
3.14197 17195.9356870061
3.16208 16922.1411122081
3.18219 16531.3970317593
3.20231 15679.8057972807
3.22242 15615.6175925538
3.24253 14788.8883108017
3.26265 14447.6574549442
3.28276 14193.9750043544
3.30288 13579.502506372
3.32299 13240.1739024602
3.3431 12779
3.36322 12380.7611405992
3.38333 12100.1388448441
3.40344 11443.4737997658
3.42356 11441.6800192698
3.44367 10741.7080583783
3.46379 10663.0484781419
3.4839 10243
3.50401 9716.89086085459
3.52413 9618.45626556796
3.54424 9045.32593707465
3.56435 8973.53566444718
3.58447 8482.72714805449
3.60458 8197.16344154559
3.62469 8010.13546383816
3.64481 7623.76846779978
3.66492 7262.89371756595
3.68504 7260.61042910575
3.70515 6810.84053088968
3.72526 6494.4696542186
3.74538 6287.15892504826
3.76549 6131.10663831235
3.7856 5835
3.80572 5539.79748964147
3.82583 5382.697272626
3.84595 5131.47878784195
3.86606 5009.15680200179
3.88617 4855.4534526473
3.90629 4470.16005654052
3.9264 4308
3.94651 4267.95880610967
3.96663 4123.7454169948
3.98674 3907.37269579189
4.00686 3620.154199388
4.02697 3660.17221580915
4.04708 3374.19655624266
4.0672 3382
4.08731 3314.86909283393
4.10742 3024.91106004952
4.12754 3078.82764944019
4.14765 2772.79587104997
4.16776 2670.71224760134
4.18788 2835.07125007994
4.20799 2519.15566474906
4.22811 2377.97619326275
4.24822 2326.92851591068
4.26833 2296.13338662026
4.28845 2356.51322432664
4.30856 2031.19908022328
4.32867 2180.89497312433
4.34879 2050.06131824312
4.3689 2075
4.38902 2072.77369075166
4.40913 1780.88406134499
4.42924 1949.33485250026
4.44936 1925.32406916323
4.46947 1782.0270203703
4.48958 1842.01464624679
4.5097 1715
4.52981 1662.98595064991
4.54992 1633.99344396827
4.57004 1657.07315280326
4.59015 1660.15476180672
4.61027 1550.16200995102
4.63038 1506.96294061766
4.65049 1534.04416726591
4.67061 1398.99719275303
4.69072 1495.99777455108
4.71083 1360.85051614534
4.73095 1374.09353579898
4.75106 1356.12920223355
4.77118 1327.91628724168
4.79129 1421.03835705953
4.8114 1219
4.83152 1282.06870542876
4.85163 1262.93655194056
4.87174 1250.01014512043
4.89186 1245.0629663402
4.91197 1198.05131353328
4.93209 1186.00397433599
4.9522 1174
4.97231 1178.00337664945
4.99243 1166.93652924903
5.01254 1091.81100239569
5.03265 1035.92580611804
5.05277 1100.99542206709
5.07288 1042.02348771606
5.09299 1075.99198572256
5.11311 1035.97076275734
5.13322 1004.00306971975
5.15334 1025.02695097296
5.17345 994.78946171334
5.19356 911.032643799524
5.21368 921.070521332966
5.23379 807.005840870097
5.2539 910
5.27402 904.967696994588
5.29413 885.960334172608
5.31425 851.949550403185
5.33436 856.9587215415
5.35447 860.057608336109
5.37459 814.996034165696
5.3947 851
5.41481 802.017275419453
5.43493 881.961981332604
5.45504 762.898896652652
5.47516 818.921517923504
5.49527 784.065656638611
5.51538 760.04028223065
5.5355 710
5.55561 741.023544334722
5.57572 762.985648425365
5.59584 720.900890254092
5.61595 704.901322460295
5.63606 766.941926469888
5.65618 742.044678360449
5.67629 714.004212604488
5.69641 714.998858116374
5.71652 696.966756359404
5.73663 657.94759194543
5.75675 645.044842632958
5.77686 664.037625860609
5.79697 630.976896136722
5.81709 680.996250421492
5.8372 634
5.85732 641.018627775737
5.87743 627.915684902455
5.89754 581.054070270231
5.91766 646.991086299564
5.93777 589.032112062929
5.95788 628.972955664163
5.978 618
5.99811 649.016481931548
6.01823 654.96783456157
6.03834 623.956118025363
6.05845 606.091629638625
6.07857 570.983899720104
6.09868 613.982748697283
6.11879 597.00098066601
6.13891 608.98779044497
6.15902 564.001037555643
6.17913 609.030799943068
6.19925 584.948007929641
6.21936 584.02352540087
6.23948 560.006562401551
6.25959 581.984028693338
6.2797 604
6.29982 583.933548080625
6.31993 524.025295724373
6.34004 595.064764582929
6.36016 566.041826612597
6.38027 582.976821355449
6.40039 564.023382915209
6.4205 526
6.44061 553.003824477654
6.46073 542.023370311641
6.48084 561.914065425576
6.50095 501.907566083783
6.52107 589.036502492421
6.54118 464.052209243177
6.56129 550.940395784514
6.58141 591.978661900671
6.60152 509.929028506215
6.62164 497.086565474925
6.64175 551.05132048786
6.66186 520.113105643726
6.68198 481.003056624288
6.70209 521.962737946361
6.7222 572
6.74232 497.947909740201
6.76243 505.0483255164
6.78255 516.949678072395
6.80266 478.064030125819
6.82277 470.983151948954
6.84289 491.985628257393
6.863 512
6.88311 490.991834839062
6.90323 496.032214802223
6.92334 507.962299561316
6.94346 476.011140994598
6.96357 503.955880227367
6.98368 507.01947528608
7.0038 485
7.02391 482.990134410935
7.04402 462.018373823025
7.06414 507.036030095343
7.08425 483.069089380469
7.10436 486.934397278435
7.12448 519.99336327007
7.14459 501.008707399151
7.16471 502.004642861693
7.18482 494.962298795222
7.20493 449.979326404773
7.22505 473.068642424158
7.24516 474.048808450179
7.26527 452.984460849387
7.28539 473.010139206074
7.3055 423
7.32562 466.074258442928
7.34573 505.953922962803
7.36584 447.989021061846
7.38596 492.972681931287
7.40607 448.073937457024
7.42618 446.953923186459
7.4463 501
7.46641 473.971361078724
7.48653 428.986974246663
7.50664 449.035340434867
7.52675 442.057695549802
7.54687 439.928396398159
7.56698 494.012951923845
7.58709 429.014193932594
7.60721 472.030352858929
7.62732 498.994357354679
7.64743 477.969487695064
7.66755 473.02374224917
7.68766 474.058812526168
7.70778 429.023099226957
7.72789 436.994381062919
7.748 439
7.76812 440.968699532778
7.78823 404.018975687739
7.80834 453.033765798603
7.82846 430.999132618266
7.84857 465.969755471045
7.86869 446.01804932623
7.8888 436
7.90891 482.00223689065
7.92903 444.96117874397
7.94914 447.995617242469
7.96925 432.010095984301
7.98937 441.999314227428
8.00948 430.003685258785
8.0296 432
8.04971 405.997285512574
8.06982 423.01054972704
8.08994 424.033859105529
8.11005 455.043617361349
8.13016 436.101361990042
8.15028 403.966811020461
8.17039 468.991946088697
8.1905 428
8.21062 449.027554848543
8.23073 443.944794352942
8.25085 410.008000456757
8.27096 445.940331990291
8.29107 435.072125824295
8.31119 395.993255347318
8.3313 429
8.35141 367.999325658671
8.37153 434.066583855892
8.39164 414.927142901517
8.41176 403.976365603973
8.43187 418.998042362037
8.45198 410.996033074803
8.4721 429
8.49221 443.020591515596
8.51232 484.98984248788
8.53244 434.950711711615
8.55255 441.055796120825
8.57266 392.028217539473
8.59278 418.987394713032
8.61289 401.004692389429
8.63301 418.010957564286
8.65312 428.002261901904
8.67323 430.007268202575
8.69335 440.03554445616
8.71346 449.010125112121
8.73357 430.035821833922
8.75369 409.0093970545
8.7738 408
8.79392 446.998629828764
8.81403 403.939837526204
8.83414 399.037475395673
8.85426 417.986357058303
8.87437 411.015596895397
8.89448 414.974207378002
8.9146 435
8.93471 391.995298049242
8.95483 416.003327580209
8.97494 388.982585701277
8.99505 404.008009199177
9.01517 376.025722413113
9.03528 397.946264558956
9.05539 436.009403932757
9.07551 381.98697438649
9.09562 401.018717907643
9.11573 391.971359078334
9.13585 368.905174389178
9.15596 342.950727658375
9.17608 407.944083746697
9.19619 412.021129107785
9.2163 374
9.23642 410.992131346232
9.25653 359.96642325839
9.27664 389.064251419721
9.29676 392.021258233276
9.31687 386.993606409245
9.33699 389.007720118004
9.3571 360
9.37721 358.007568432139
9.39733 388.06921023887
9.41744 421.982631769635
9.43755 395.968900527896
9.45767 431.021379985707
9.47778 365.047563549591
9.4979 373
9.51801 394.004609262067
9.53812 393.99458030124
9.55824 397.042918203087
9.57835 416.970779567808
9.59846 380.050497787339
9.61858 382.988545481376
9.63869 382.007321032716
9.6588 365
9.67892 367.999148773978
9.69903 375.059775434315
9.71915 414.954473109736
9.73926 360.023398817752
9.75937 400.964734333246
9.77949 383.00671684935
9.7996 385
9.81971 361.00890495232
9.83983 401.995541552203
9.85994 354.951464087699
9.88006 377.943532245483
9.90017 387.98536433052
9.92028 391.028435098149
9.9404 348
9.96051 367.008861414438
9.98062 363.992030975169
10.00074 365.016437130271
10.02085 379.943402363263
10.04097 393.023066616785
10.06108 365.005702259044
10.08119 380.00037463799
10.10131 364.002895125642
10.12142 382.986608584957
10.14153 342.977383397181
10.16165 367.065576687775
10.18176 372.006835522749
10.20187 365.028008830749
10.22199 346.998215098427
10.2421 362
10.26222 346.011955288695
10.28233 381.020520928699
10.30244 366.991561483087
10.32256 384.970062556534
10.34267 380.025400482684
10.36278 360.021780724921
10.3829 348
10.40301 374.014696910593
10.42313 379.953963610162
10.44324 333.947545250377
10.46335 361.796475545232
10.48347 427.0332052238
10.50358 355.013118321077
10.52369 401.001676015203
10.54381 334.983517625259
10.56392 364.025026119682
10.58403 364.028964235894
10.60415 390.945960420148
10.62426 337.026579815501
10.64438 372.978673039349
10.66449 357.006125785071
10.6846 384
10.70472 429.988023458656
10.72483 377.9538198054
10.74494 387.014130950412
10.76506 373.024498997493
10.78517 361.053339730173
10.80529 329.98684392086
10.8254 393
10.84551 371.998150351198
10.86563 391.979226541777
10.88574 332.884536984975
10.90585 327.865879287745
10.92597 393.962179329239
10.94608 369.031756263314
10.9662 375
10.98631 410.988340648931
11.00642 356.994363045018
11.02654 400.026532586311
11.04665 361.088127208999
11.06676 365.947377062051
11.08688 386.992528689306
11.10699 376.01312985311
11.1271 359
11.14722 399.038770261439
11.16733 403.947555722801
11.18745 366.006196637233
11.20756 400.967884866955
11.22767 380.037596925317
11.24779 362.016115661013
11.2679 329
11.28801 366.018526637123
11.30813 376.989812198723
11.32824 362.962161230671
11.34836 353.97229399063
11.36847 371.018746785462
11.38858 340.005422169913
11.4087 372
11.42881 385.997352208889
11.44892 373.990143949249
11.46904 365.970044155252
11.48915 356.952513829324
11.50927 389.984125040059
11.52938 378.995483591404
11.54949 399.000937780503
11.56961 385.010501030264
11.58972 431.013493074307
11.60983 404.976753799935
11.62995 409.964836556334
11.65006 381.993667543629
11.67017 404.024485527231
11.69029 354.010540204481
11.7104 379
11.73052 382.000715388389
11.75063 387.997098977776
11.77074 391.067784102194
11.79086 433.993291533887
11.81097 395.053556190141
11.83108 392.983044959358
11.8512 409
11.87131 407.994734369162
11.89143 399.004055663591
11.91154 402.969674943121
11.93165 379.996635052878
11.95177 411.94501101288
11.97188 417.037497477724
11.99199 381.988017695922
12.01211 460.034893611839
12.03222 471.965313278216
12.05234 420.904822728631
12.07245 404.055792223286
12.09256 442.952424173817
12.11268 441.007357115573
12.13279 459.971802768225
12.1529 536
12.17302 555.969095000688
12.19313 514.993375545004
12.21324 546.03807747992
12.23336 547.946888476434
12.25347 595.964372295229
12.27359 570.02780237307
12.2937 540
12.31381 609.022740748911
12.33393 613.006382674685
12.35404 622.958730852674
12.37415 587.99047080788
12.39427 612.040998240303
12.41438 531.06421255258
12.4345 511
12.45461 477.987905931577
12.47472 471.997858452036
12.49484 468.005817493585
12.51495 471.03102616876
12.53506 439.079403101397
12.55518 404.028742794243
12.57529 386.001790708785
12.5954 400
12.61552 413.962728543054
12.63563 347.943846779693
12.65575 359.057989397336
12.67586 379.920415655056
12.69597 414.027791515399
12.71609 362.009475910678
12.7362 385
12.75631 357.988053329792
12.77643 359.015470509748
12.79654 361.989085659099
12.81666 348.042278859454
12.83677 329.012471939507
12.85688 341.963639177605
12.877 379
12.89711 363.990658378789
12.91722 352.985149622186
12.93734 338.000963806985
12.95745 350.982756877019
12.97757 342.02421404083
12.99768 331.999006365801
13.01779 332.008865060694
13.03791 323.021580780611
13.05802 381.99440130673
13.07813 313.927990196692
13.09825 331.114571930704
13.11836 346.079475911632
13.13847 298.973912782762
13.15859 359.994309940958
13.1787 316
13.19882 358.030987973813
13.21893 350.988549312026
13.23904 346.93346265602
13.25916 309.962977035787
13.27927 357.01594160712
13.29938 292.029227689067
13.3195 329
13.33961 337.995862639217
13.35973 333.002071152428
13.37984 338.00558391106
13.39995 336.008943557511
13.42007 332.00957034087
13.44018 319.021614813608
13.46029 303.995356852579
13.48041 341.025034224875
13.50052 361.963466407318
13.52064 299.947053369836
13.54075 317.021556489206
13.56086 307.968487784354
13.58098 340.003119590654
13.60109 317.986637757445
13.6212 374
13.64132 316.980084012465
13.66143 357.04761530432
13.68154 348.976405954969
13.70166 349.016793719082
13.72177 333.998948975852
13.74189 347.99877088557
13.762 328
13.78211 319.012365284739
13.80223 350.9972210674
13.82234 320.976716950494
13.84245 341.946497366796
13.86257 329.075074494398
13.88268 286.985168982631
13.9028 337
13.92291 309.998386999195
13.94302 342.013686408147
13.96314 321.968288602826
13.98325 325.002337523593
14.00336 310.032155253453
14.02348 303.000456379483
14.04359 308.992563220094
14.06371 320.997325584275
14.08382 302.988568125842
14.10393 319.067857464916
14.12405 350.93429738888
14.14416 287.070675053173
14.16427 306.944899319105
14.18439 320.006566867585
14.2045 302
14.22461 329.018076495642
14.24473 340.956110975228
14.26484 295.9643298973
14.28496 313.96016237012
14.30507 318.989868625589
14.32518 332.990251515495
14.3453 328
14.36541 311.000002118125
14.38552 318.991989446738
14.40564 297.986341393715
14.42575 305.015960448848
14.44587 287.000541308179
14.46598 310.974419023904
14.48609 321.998735575361
14.50621 320.997088217757
14.52632 310.98791837145
14.54643 301.996166736818
14.56655 309.041035178678
14.58666 323.995088276221
14.60677 313.021654189921
14.62689 305.999219683044
14.647 304
14.66712 277.989693329844
14.68723 294.045348319697
14.70734 321.035517210587
14.72746 326.011682730533
14.74757 310.04093080219
14.76768 287.001372947288
14.7878 299
14.80791 293.010020323427
14.82803 323.991970729122
14.84814 286.966271271885
14.86825 312.900711811835
14.88837 337.984858283479
14.90848 333.020251210181
14.92859 315.997348903649
14.94871 339.008435908863
14.96882 331.97488008813
14.98894 300.940252242516
15.00905 295.085891491359
15.02916 337.000469601274
15.04928 299.021756254459
15.06939 313.9907392493
15.0895 320
15.10962 329.987826242964
15.12973 310.012629750106
15.14984 334.98720548022
15.16996 316.92410430707
15.19007 385.98977209446
15.21019 315.035276641654
15.2303 300
15.25041 320.005206051069
15.27053 316.985455028775
15.29064 316.032952137014
15.31075 329.050862644647
15.33087 298.978723899576
15.35098 337.012812966208
15.3711 271
15.39121 288.025661478216
15.41132 319.987081586163
15.43144 284.982534289814
15.45155 309.95525618009
15.47166 291.089808467228
15.49178 267.963510043504
15.51189 333.986499632199
15.53201 314.997979361696
15.55212 328.974345751404
15.57223 273.97612119492
15.59235 308.067565463964
15.61246 310.964088768791
15.63257 333.036659597467
15.65269 273.016601817072
15.6728 291
15.69291 307.00362580062
15.71303 317.025153491016
15.73314 334.01258268057
15.75326 324.041853589986
15.77337 303.022524321834
15.79348 300.987739026148
15.8136 317
15.83371 310.993418871422
15.85382 295.98227315461
15.87394 288.030941587297
15.89405 313.976490651424
15.91417 294.052905545311
15.93428 265.014496951599
15.95439 278.975812336891
15.97451 323.998483235419
15.99462 284.981542176022
16.01473 305.030525999218
16.03485 308.014051721499
16.05496 325.960679117602
16.07508 336.99787085026
16.09519 321.021515875627
16.1153 274
16.13542 294.034367347679
16.15553 310.986308316687
16.17564 299.033949170026
16.19576 330.00445150988
16.21587 295.030307824555
16.23598 308.979829198107
16.2561 313
16.27621 304.997462922415
16.29633 309.022714349276
16.31644 316.960620878136
16.33655 284.026969836793
16.35667 301.972673959288
16.37678 299.017272117973
16.39689 287.995432707458
16.41701 314.012720596081
16.43712 328.008452396688
16.45724 324.947016180325
16.47735 290.967268152845
16.49746 303.967612420976
16.51758 304.012880499013
16.53769 292.998721606008
16.5578 299
16.57792 270.981041616418
16.59803 274.020475794234
16.61814 300.102056212449
16.63826 334.077591859657
16.65837 260.023280495999
16.67849 307.988663498663
16.6986 284
16.71871 313.003195087478
16.73883 289.99373787663
16.75894 304.973273300745
16.77905 273.975113686571
16.79917 317.981529440683
16.81928 278.046974509828
16.8394 273
16.85951 320.003633194383
16.87962 292.989283482974
16.89974 304.981834442808
16.91985 274.023739704236
16.93996 293.971354138745
16.96008 285.014808468462
16.98019 280.996932454043
17.00031 292.005565614286
17.02042 303.015006386617
17.04053 323.032112713664
17.06065 319.874826141649
17.08076 259.023668379427
17.10087 300.938229058034
17.12099 307.004746949486
17.1411 306
17.16121 320.000554675823
17.18133 303.966625171609
17.20144 294.020693178936
17.22156 308.014443935736
17.24167 293.972370451343
17.26178 321.027869334713
17.2819 262
17.30201 317.012197719451
17.32212 285.975996832988
17.34224 293.000204647999
17.36235 278.993190463138
17.38247 304.962882199757
17.40258 308.015089180973
17.42269 289.006031519379
17.44281 291.006289086662
17.46292 304.006518826666
17.48303 294.959811954167
17.50315 277.050213072061
17.52326 325.922676679772
17.54338 323.037805138147
17.56349 294.989906688716
17.5836 353
17.60372 351.964027922206
17.62383 312.96697431065
17.64394 315.027572660289
17.66406 326.982904496185
17.68417 329.009502897586
17.70428 321.99808044816
17.7244 332
17.74451 331.99884892672
17.76463 329.993524191068
17.78474 324.997326248181
17.80485 331.961186255725
17.82497 345.997265117954
17.84508 344.98393625455
17.86519 357.016656354217
17.88531 303.997495638803
17.90542 344.014718527774
17.92554 311.939587757542
17.94565 319.079527521473
17.96576 342.015126119536
17.98588 309.031592605904
18.00599 305.986775925912
18.0261 337
18.04622 311.954262840745
18.06633 281.009824097371
18.08645 317.086839411514
18.10656 326.022669895535
18.12667 304.042548584757
18.14679 294.983863643658
18.1669 339
18.18701 303.990036617542
18.20713 318.020210736788
18.22724 307.955593230154
18.24735 295.975727301194
18.26747 313.99797301936
18.28758 293.023920612326
18.3077 289
18.32781 321.014335384163
18.34792 335.002884660476
18.36804 326.955254231968
18.38815 303.021749262961
18.40826 301.040383619863
18.42838 285.961116079436
18.44849 351.99168235936
18.46861 308.981706931752
18.48872 310.00451051049
18.50883 296.973975446966
18.52895 295.050512645121
18.54906 324.960235423869
18.56917 332.979930208047
18.58929 336.020302747089
18.6094 276
18.62951 308.020498686145
18.64963 320.986853576514
18.66974 312.01190250712
18.68986 320.035942161631
18.70997 289.004088457394
18.73008 321.965430338049
18.7502 329
18.77031 315.004545816621
18.79042 332.991725959562
18.81054 310.018026666404
18.83065 347.958044971671
18.85077 326.042712443655
18.87088 319.986457206836
18.89099 333.002443573277
18.91111 322.006027515051
18.93122 340.980585600502
18.95133 297.990698180918
18.97145 332.044165381722
18.99156 321.986020314932
19.01168 339.024851193462
19.03179 293.995490359212
19.0519 345
19.07202 298.979850356699
19.09213 324.017539468949
19.11224 301.964186035321
19.13236 314.934247362632
19.15247 337.013771805931
19.17258 316.989963806085
19.1927 354
19.21281 340.99161754473
19.23293 340.008604606232
19.25304 345.011525585392
19.27315 353.967844542085
19.29327 362.009871598309
19.31338 341.025216674363
19.33349 335.985087517676
19.35361 380.011101214608
19.37372 373.994689405737
19.39384 383.016104248028
19.41395 384.007203716461
19.43406 393.973734167899
19.45418 399.010733084847
19.47429 388.992528231613
19.4944 418
19.51452 410.017380420367
19.53463 446.009911977719
19.55475 425.001868245195
19.57486 462.918232170505
19.59497 480.99610442238
19.61509 485.991259921864
19.6352 522
19.65531 557.999027902882
19.67543 548.053365377521
19.69554 630.150006204686
19.71565 654.048669198729
19.73577 641.9426215365
19.75588 731.901141089301
19.776 798
19.79611 802.992604699529
19.81622 789.000324745676
19.83634 811.074989493769
19.85645 824.114331436486
19.87656 762.995683279533
19.89668 813.993506343045
19.91679 753.028877545129
19.93691 748.013754469813
19.95702 773.007376676154
19.97713 762.981485056735
19.99725 749.933289508812
20.01736 707.095149596476
20.03747 677.000655964564
20.05759 685.008288454606
20.0777 646
20.09782 662.050935144058
20.11793 700.979228070584
20.13804 652.954462624513
20.15816 685.88045507968
20.17827 720.024790061827
20.19838 674.029098536185
20.2185 667
20.23861 635.007184141061
20.25872 689.033741338485
20.27884 680.975559062897
20.29895 680.029024544264
20.31907 655.028122441884
20.33918 659.973189784658
20.35929 687.995042234675
20.37941 673.987686759591
20.39952 651.981154269554
20.41963 647.029218584709
20.43975 686.106511302001
20.45986 701.057626141774
20.47998 649.037923856953
20.50009 659.970992420643
20.5202 703
20.54032 638.008800993957
20.56043 730.118536956232
20.58054 748.006112252857
20.60066 744.098599962322
20.62077 698.928037107363
20.64088 828.889666652234
20.661 865
20.68111 896.032067109367
20.70123 1041.39410270953
20.72134 1377.64301289382
20.74145 1680.10797460033
20.76157 2177.04489638748
20.78168 2881.31978390771
20.80179 3450.77866954662
20.82191 3832.19268385308
20.84202 4141.07540353015
20.86214 3922.16590120107
20.88225 3395.42600083432
20.90236 2688.4886609931
20.92248 1976.62473971839
20.94259 1459.21145643954
20.9627 1127
20.98282 992.904664547024
21.00293 899.882915934711
21.02305 840.884975201268
21.04316 802.059633623184
21.06327 782.015442993142
21.08339 780.995884510474
21.1035 770
21.12361 707.002432445158
21.14373 754.991450028023
21.16384 690.9391974655
21.18395 721.928377580772
21.20407 709.045540203226
21.22418 702.96386125624
21.2443 750
21.26441 711.979453641247
21.28452 714.049091932739
21.30464 767.017891253659
21.32475 731.084839283363
21.34486 727.979000742274
21.36498 717.049886579264
21.38509 665.997925159597
21.40521 721.02251470756
21.42532 715.964781979914
21.44543 674.937688704816
21.46555 649.003730080462
21.48566 652.065569287734
21.50577 585.091793366686
21.52589 570.982185991642
21.546 614
21.56612 593.009782595904
21.58623 619.960794685514
21.60634 555.96786920096
21.62646 589.998430993584
21.64657 534.079098987165
21.66668 522.989996547684
21.6868 530
21.70691 529.002587675805
21.72702 536.999517840255
21.74714 514.909682840966
21.76725 481.957212770117
21.78737 531.958651687544
21.80748 523.004790757361
21.82759 525.014663452773
21.84771 475.990966800548
21.86782 513.065970031046
21.88793 547.953523610182
21.90805 489.972534001127
21.92816 530.951619117195
21.94828 521.990379841071
21.96839 564.980634703246
21.9885 565
22.00862 530.001571784033
22.02873 557.00928325527
22.04884 533.970755495533
22.06896 537.014666803505
22.08907 508.050271469047
22.10919 480.014375687402
22.1293 460
22.14941 469.988969329123
22.16953 442.043984888855
22.18964 520.109030381306
22.20975 502.170115838247
22.22987 446.004719319255
22.24998 478.988432902913
22.27009 469.985677205118
22.29021 520.999524481941
22.31032 466.965998004664
22.33044 484.053506581839
22.35055 478.906427926274
22.37066 446.974805221477
22.39078 484.994815756977
22.41089 452.009123574248
22.431 467
22.45112 457.980007682379
22.47123 446.004935462962
22.49135 458.017297485039
22.51146 460.972687795488
22.53157 476.011861901667
22.55169 459.992407101802
22.5718 496
22.59191 457.975817075372
22.61203 434.002517582163
22.63214 439.976022542369
22.65225 427.929338687854
22.67237 468.02639884258
22.69248 413.999247757251
22.7126 477
22.73271 460.987576551972
22.75282 447.971788993146
22.77294 417.012702090438
22.79305 446.007978327151
22.81316 416.987249968416
22.83328 443.03168118686
22.85339 389.98000285321
22.87351 504.026710203203
22.89362 458.951898119449
22.91373 460.011788341043
22.93385 460.049120148724
22.95396 477.071147003015
22.97407 420.990726895265
22.99419 474.997854692458
23.0143 426
23.03442 476.032046445641
23.05453 458.967528469144
23.07464 458.001844426571
23.09476 449.023516753493
23.11487 457.930822545367
23.13498 505.005774576839
23.1551 462
23.17521 494.007981169847
23.19532 482.006507540747
23.21544 505.987791038112
23.23555 459.125747550798
23.25567 437.993009144
23.27578 450.992417496774
23.29589 458.986140306682
23.31601 491.000425531298
23.33612 449.941866835745
23.35623 415.007341655026
23.37635 448.08214230821
23.39646 470.939205803752
23.41658 487.038418092412
23.43669 429.999427292829
23.4568 487
23.47692 457.947731377101
23.49703 416.949784225795
23.51714 428.193824193761
23.53726 537.987576766142
23.55737 456.058740041922
23.57749 504.974317935197
23.5976 500
23.61771 460.978759138349
23.63783 422.962720873954
23.65794 423.057297514858
23.67805 457.963847259659
23.69817 455.982410610031
23.71828 483.98386125177
23.73839 461.030622536818
23.75851 425.02645610511
23.77862 523.034822991084
23.79874 473.907280363336
23.81885 468.974565894773
23.83896 444.004655306294
23.85908 470.974449974056
23.87919 490.97979454721
23.8993 527
23.91942 481.010214808059
23.93953 541.03207194217
23.95965 514.006044235209
23.97976 563.925302927416
23.99987 546.084776920812
24.01999 501.998058883971
24.0401 520
24.06021 451.99695818867
24.08033 506.029119137776
24.10044 466.945363936934
24.12056 475.999338838189
24.14067 459.992200005227
24.16078 486.988485652826
24.1809 468
24.20101 457.004009635341
24.22112 480.031043954237
24.24124 494.962304686612
24.26135 461.030405217995
24.28146 477.966158421645
24.30158 485.98083855904
24.32169 504.007994294862
24.34181 459.983653534736
24.36192 458.009571701855
24.38203 459.991584080966
24.40215 438.89006311958
24.42226 402.976883850628
24.44237 453.935799672072
24.46249 464.000259010678
24.4826 466
24.50272 451.984091103611
24.52283 458.067060055423
24.54294 504.990838012613
24.56306 460.040304656293
24.58317 483.965851411903
24.60328 482.005158298296
24.6234 499
24.64351 540.003842420176
24.66362 521.995201487178
24.68374 543.041172157371
24.70385 545.022343727475
24.72397 549.946117233963
24.74408 598.973777392122
24.76419 578.028529445439
24.78431 549.026467221737
24.80442 644.042472968179
24.82453 615.965171207528
24.84465 626.999619199277
24.86476 610.982299902443
24.88488 639.996468574905
24.90499 593.038275422759
24.9251 530
24.94522 547.041638347249
24.96533 574.989976290971
24.98544 540.933831664105
25.00556 523.031825971948
25.02567 511.984296038202
25.04579 538.989196649784
25.0659 531
25.08601 488.994958263284
25.10613 513.040309439483
25.12624 527.03184749285
25.14635 542.010305543784
25.16647 528.990311050472
25.18658 548.003939218914
25.20669 520.008714999019
25.22681 533.014426313524
25.24692 555.006454064602
25.26704 554.015947638428
25.28715 574.04627005253
25.30726 570.068266704036
25.32738 532.007276942582
25.34749 543.008750550292
25.3676 507
25.38772 553.036369862553
25.40783 555.996757926625
25.42795 556.960503467694
25.44806 535.988595086413
25.46817 558.005817323476
25.48829 534.99646238285
25.5084 570
25.52851 553.000639864618
25.54863 580.020159969211
25.56874 566.973043302093
25.58886 563.02034585403
25.60897 548.003624233907
25.62908 571.953450001732
25.6492 616
25.66931 597.977355758294
25.68942 562.000907471185
25.70954 573.94014853361
25.72965 511.082392493703
25.74976 528.944446708867
25.76988 536.003503326291
25.78999 536.99491363219
25.81011 553.006763008338
25.83022 553.986425157175
25.85033 537.993947423094
25.87045 539.969946786487
25.89056 523.97935051828
25.91067 557.963247649153
25.93079 559.001860267494
25.9509 557
25.97102 535.985355603905
25.99113 552.084568900326
26.01124 598.954501051776
26.03136 551.930731075039
26.05147 646.9584974843
26.07158 598.007366849005
26.0917 657
26.11181 626.984291243991
26.13193 635.043217489701
26.15204 671.095178795823
26.17215 720.907680136682
26.19227 746.953558303433
26.21238 781.978711418701
26.23249 804.971461414865
26.25261 880.021398782995
26.27272 877.98947599581
26.29283 893.057308619408
26.31295 965.294251485451
26.33306 1098.79119992115
26.35318 1165.93695324232
26.37329 1254.94545090221
26.3934 1398
26.41352 1640.26800856478
26.43363 1948.56534889361
26.45374 2412.05319623647
26.47386 3078.22878918842
26.49397 4293.68008980352
26.51409 6037.12241062155
26.5342 8040
26.55431 11101.4603839648
26.57443 13677.7880230747
26.59454 16084.6918938541
26.61465 17056.5643824788
26.63477 16362.5817446996
26.65488 13857.8390113215
26.67499 10993.4725525975
26.69511 8100.7234359616
26.71522 5889.93488584147
26.73534 3892.51823727556
26.75545 2509.3573620894
26.77556 1728.97871129955
26.79568 1419.23677287775
26.81579 1203.06560584483
26.8359 1149
26.85602 1072.92150728305
26.87613 998.866286043236
26.89625 926.998404724426
26.91636 949.113930075608
26.93647 829.095669741381
26.95659 855.983084235908
26.9767 841
26.99681 809.986111587923
27.01693 753.83066819045
27.03704 662.074986862503
27.05716 777.932217680421
27.07727 690.13527279829
27.09738 680.962942883645
27.1175 702
27.13761 646.97561584982
27.15772 603.924996444833
27.17784 539.052954985018
27.19795 614.99566697361
27.21806 534.096874080651
27.23818 565.954879672615
27.25829 572.009342559152
27.27841 564.011874868517
27.29852 606.025237729466
27.31863 614.03667638264
27.33875 662.110740546186
27.35886 684.980204304552
27.37897 703.938454321325
27.39909 748.991573908727
27.4192 746
27.43932 775.995694681768
27.45943 740.977617832719
27.47954 744.943252284645
27.49966 681.100016266033
27.51977 660.037011071176
27.53988 610.063138487159
27.56 552
27.58011 524.994904993924
27.60023 525.007938075542
27.62034 529.001925111683
27.64045 528.000486309547
27.66057 534.973461402223
27.68068 548.010925222172
27.70079 514.018268493114
27.72091 508.01885322502
27.74102 548.990189446413
27.76113 516.03785628581
27.78125 588.064151346807
27.80136 557.011444304282
27.82148 601.961120167169
27.84159 587.030095474234
27.8617 541
27.88182 601.022168191091
27.90193 573.98435680419
27.92204 595.003745595181
27.94216 575.982093958262
27.96227 602.025080866362
27.98239 535.032013923294
28.0025 510
28.02261 508.996695406479
28.04273 493.970603431524
28.06284 477.984953320589
28.08295 467.076541084648
28.10307 424.046336298746
28.12318 424.971341521599
28.1433 460
28.16341 458.989256676896
28.18352 436.993716348839
28.20364 436.961958422137
28.22375 413.026469846521
28.24386 452.951529974404
28.26398 446.009277334616
28.28409 444.006981112407
28.3042 427
28.32432 457.018958407719
28.34443 437.922516070877
28.36455 388.961578593879
28.38466 399.006118140393
28.40477 375.021125646147
28.42489 380.997233011283
28.445 376
28.46511 391.022345006233
28.48523 436.008087190737
28.50534 395.896524944697
28.52546 372.972603847269
28.54557 405.959360295577
28.56568 407.020465945595
28.5858 395
28.60591 431.001947442835
28.62602 403.989146399203
28.64614 392.8520962375
28.66625 301.993210348556
28.68636 398.837322836427
28.70648 401.032074031784
28.72659 382.001797184916
28.74671 379.991852127157
28.76682 365.018026419934
28.78693 403.019476985752
28.80705 383.966269662706
28.82716 383.037000723893
28.84727 352.011780643244
28.86739 373.988595120247
28.8875 382
28.90762 395.015347674214
28.92773 394.956814049986
28.94784 364.014358497247
28.96796 388.041595284134
28.98807 339.993567145358
29.00818 409.931191040878
29.0283 424
29.04841 395.000670791142
29.06853 408.967842194036
29.08864 367.001146450662
29.10875 408.952680678421
29.12887 391.007079997068
29.14898 407.006115468783
29.16909 374.010712851197
29.18921 375.999616232873
29.20932 370.012515332737
29.22943 396.015742739964
29.24955 387.997738246044
29.26966 395.019574914257
29.28978 379.983793042859
29.30989 420.988792070597
29.33 402
29.35012 375.000918381892
29.37023 386.987678480096
29.39034 367.015856936127
29.41046 416.869086160058
29.43057 451.029211228215
29.45069 398.021916887228
29.4708 394
29.49091 430.020323491285
29.51103 438.920394070515
29.53114 367.97254302329
29.55125 418.880112853958
29.57137 407.092642965787
29.59148 350.006560209515
29.6116 385
29.63171 381.005492319592
29.65182 400.981837905706
29.67194 363.01568477741
29.69205 422.1252631467
29.71216 426.040751413953
29.73228 411.001679840723
29.75239 418.996936462517
29.7725 416
29.79262 417.019527723222
29.81273 429.95736451642
29.83285 392.048553851915
29.85296 441.032673302729
29.87307 367.043298639638
29.89319 403.989580022667
29.9133 379
29.93341 388.00311202985
29.95353 388.031008923201
29.97364 405.929757230502
29.99376 354.956986139092
30.01387 443.905833052143
30.03398 426.060283641531
30.0541 380
30.07421 398.013338224173
30.09432 410.998284753528
30.11444 407.014060378306
30.13455 422.976774851238
30.15467 430.95903182933
30.17478 459.011182201048
30.19489 410.022519422017
30.21501 405.015073695136
30.23512 437.005029032855
30.25523 415.973624153234
30.27535 410.969416215578
30.29546 397.974420035051
30.31557 417.031376352016
30.33569 371.004678055412
30.3558 408
30.37592 403.982181883841
30.39603 390.983718361029
30.41614 391.045001602944
30.43626 407.062699638338
30.45637 358.989080905565
30.47648 416.96839632644
30.4966 392
30.51671 377.995972463146
30.53683 368.997804021165
30.55694 377.022018393203
30.57705 383.994681842353
30.59717 386.984655759212
30.61728 396.007261065453
30.63739 380.000997583283
30.65751 398.010581808163
30.67762 408.000871142257
30.69773 404.994324779128
30.71785 407.028290396105
30.73796 422.975790898076
30.75808 413.041950954195
30.77819 369.002671351703
30.7983 406
30.81842 425.003214119201
30.83853 411.943993497622
30.85864 377.005590192895
30.87876 404.989690972207
30.89887 377.035304470476
30.91899 375.000330526868
30.9391 372
30.95921 391.001745125384
30.97933 373.971088109196
30.99944 360.968211719438
31.01955 343.023698639638
31.03967 347.977280503436
31.05978 357.009366351019
31.0799 345
31.10001 376.006090331292
31.12012 357.97651711994
31.14024 351.014390983845
31.16035 360.990999559858
31.18046 356.013458495668
31.20058 356.988638464355
31.22069 372.99401318145
31.2408 373
31.26092 351.971272181401
31.28103 335.019512284402
31.30115 364.031690221457
31.32126 353.020072043882
31.34137 355.994640671835
31.36149 361.988692547817
31.3816 380
31.40171 338.999249732265
31.42183 374.015889204381
31.44194 344.953367264067
31.46206 344.013546624662
31.48217 326.00921383578
31.50228 339.980727008561
31.5224 352
31.54251 349.991992799786
31.56262 339.018618767611
31.58274 372.014572972659
31.60285 343.08897895076
31.62297 327.994150672908
31.64308 338.992091395527
31.66319 340.998352785763
31.68331 339.990939982372
31.70342 318.00051345714
31.72353 340.024293168944
31.74365 341.008158485219
31.76376 346.022591539453
31.78387 322.022148917821
31.80399 325.994727554069
31.8241 343
31.84422 372.98872790918
31.86433 334.978661508102
31.88444 359.053363344976
31.90456 357.053491282812
31.92467 328.018393194418
31.94478 341.969159196693
31.9649 370
31.98501 362.987538091843
32.00513 340.998451478549
32.02524 358.028609180032
32.04535 352.058093532943
32.06547 324.034133607622
32.08558 330.948538227847
32.10569 385.000602266995
32.12581 335.984243292654
32.14592 345.008031916859
32.16604 333.986685686974
32.18615 346.054402075819
32.20626 365.970168627268
32.22638 371.007052483938
32.24649 362.997800927286
32.2666 369
32.28672 333.975248753378
32.30683 342.052709782722
32.32694 371.995348372371
32.34706 340.063072151141
32.36717 337.959197189537
32.38729 355.016341577674
32.4074 306
32.42751 374.028417564876
32.44763 374.955477078041
32.46774 342.938582675734
32.48785 340.872830642803
32.50797 400.00414236082
32.52808 346.024415046192
32.5482 366
32.56831 331.993899226398
32.58842 346.993482303395
32.60854 312.962860313739
32.62865 326.947409890902
32.64876 340.964049542829
32.66888 358.00044193255
32.68899 339.01103992742
32.7091 335
32.72922 361.007246424317
32.74933 340.952969468789
32.76945 333.086805590988
32.78956 372.030082718934
32.80967 315.042789871643
32.82979 338.984852102865
32.8499 341
32.87001 342.019579398442
32.89013 392.01605572726
32.91024 354.9128032948
32.93036 339.982758705228
32.95047 353.990405741919
32.97058 352.995332353503
32.9907 369
33.01081 373.989660423885
33.03092 343.988397000814
33.05104 356.026964722218
33.07115 351.05334259474
33.09127 338.968291349421
33.11138 378.979883423195
33.13149 356.025353370126
33.15161 326.012314122442
33.17172 385.038869088981
33.19183 383.989232233061
33.21195 387.997094497674
33.23206 379.006137554452
33.25217 380.015571840219
33.27229 364.000039712403
33.2924 388
33.31252 400.972267299496
33.33263 370.033870703424
33.35274 427.030772370045
33.37286 394.024710784483
33.39297 419.980160171645
33.41308 393.043340602757
33.4332 364
33.45331 367.998270212634
33.47343 362.022266129521
33.49354 382.977941045188
33.51365 356.964112434756
33.53377 400.989098267986
33.55388 363.025210332496
33.57399 381.981632654028
33.59411 392.983870252599
33.61422 344.981813341489
33.63434 365.043243324955
33.65445 366.992989288471
33.67456 366.014788974712
33.69468 357.994427634897
33.71479 372.997033393477
33.7349 364
33.75502 364.012700193189
33.77513 373.985629296371
33.79524 349.967373835328
33.81536 347.011298467924
33.83547 333.01754526731
33.85559 344.976797443501
33.8757 390
33.89581 347.98905029412
33.91593 360.003005273569
33.93604 341.991575334924
33.95615 355.000260137249
33.97627 336.019817013983
33.99638 341.985926453904
34.0165 356
34.03661 366.997100573439
34.05672 352.997630564347
34.07684 364.012774400117
34.09695 362.983513652821
34.11706 383.946401472162
34.13718 396.015281430171
34.15729 367.008138201947
34.17741 376.010323524261
34.19752 387.996329529014
34.21763 376.995445972441
34.23775 375.950024494493
34.25786 357.947574728357
34.27797 409.974970608944
34.29809 389.000029716375
34.3182 413
34.33831 383.006097360749
34.35843 435.036708536677
34.37854 408.934185688982
34.39866 401.982580190322
34.41877 418.957914493142
34.43888 431.034389273529
34.459 386
34.47911 446.017042882008
34.49922 432.992538379391
34.51934 462.087378974195
34.53945 502.897298524201
34.55957 526.026269205047
34.57968 483.030416132922
34.59979 491.981214702544
34.61991 526.004191557802
34.64002 507.976570673854
34.66013 495.993737831848
34.68025 509.108150510336
34.70036 543.057242305144
34.72047 472.059147816751
34.74059 516.945839797426
34.7607 610
34.78082 567.972588945634
34.80093 589.044119601485
34.82104 605.04030256362
34.84116 618.046989429686
34.86127 587.9655596313
34.88138 649.973254945093
34.9015 618
34.92161 613.011709583476
34.94173 638.00919983679
34.96184 636.041178746417
34.98195 666.012640894556
35.00207 614.099014271153
35.02218 588.960754803998
35.04229 646.996389294958
35.06241 592.971994152007
35.08252 572.996097135589
35.10264 565.982071736851
35.12275 566.04730943537
35.14286 573.091227265905
35.16298 512.994576841384
35.18309 584.970301265949
35.2032 568
35.22332 503.011197034466
35.24343 557.00225127302
35.26354 504.976591444607
35.28366 548.957676616757
35.30377 522.03355350693
35.32389 527.99724915902
35.344 509
35.36411 481.004063450564
35.38423 517.044859966452
35.40434 519.976911111831
35.42445 525.892891393806
35.44457 565.038530073669
35.46468 491.044073847972
35.4848 514
35.50491 531.984152732778
35.52502 490.005602008653
35.54514 537.048849140987
35.56525 517.056636233836
35.58536 511.022859584848
35.60548 490.012126703483
35.62559 497.989462482463
35.64571 510.995227845066
35.66582 484.978244384611
35.68593 482.015134752281
35.70605 492.005806498259
35.72616 500.925917958029
35.74627 542.997658158856
35.76639 501.021447921263
35.7865 491
35.80661 513.009657308453
35.82673 525.014053841926
35.84684 529.987853778593
35.86696 517.01768797059
35.88707 509.031626217234
35.90718 483.008219271718
35.9273 501
35.94741 519.999383205762
35.96752 505.989860245444
35.98764 511.030005428144
36.00775 521.01286501929
36.02787 505.018554530361
36.04798 506.987217930909
36.06809 527.985081154342
36.08821 546.993608691194
36.10832 501.943580428539
36.12843 474.030991410104
36.14855 507.979654485497
36.16866 461.053505611522
36.18878 476.977137368085
36.20889 477.008486090355
36.229 466
36.24912 493.015738622322
36.26923 488.99000442043
36.28934 490.003997702633
36.30946 507.889985465473
36.32957 585.903757525
36.34968 630.944351506887
36.3698 709
36.38991 784.039879882045
36.41003 881.171201278425
36.43014 1012.28888397851
36.45025 1159.65286785796
36.47037 1307.72765703557
36.49048 1487.88618517821
36.51059 1496.03758835233
36.53071 1403.96821492936
36.55082 1355.9116242544
36.57094 1201.62747278779
36.59105 1037.71062293147
36.61116 958.154981219986
36.63128 870.074357153021
36.65139 794.057336937922
36.6715 659
36.69162 609.952138262758
36.71173 541.908110108492
36.73184 518.037033834316
36.75196 546.001919994494
36.77207 522.004432688233
36.79219 550.986265622387
36.8123 552
36.83241 530.99121729559
36.85253 527.019621722889
36.87264 546.020195128821
36.89275 537.058754092458
36.91287 521.981496788419
36.93298 546.996184705049
36.9531 530
36.97321 540.996285945049
36.99332 520.003388589613
37.01344 545.011834406332
37.03355 525.030134441858
37.05366 528.016800258444
37.07378 501.025809599029
37.09389 491.997917650316
37.11401 503.007541265349
37.13412 508.986219566046
37.15423 478.95244391218
37.17435 458.978533184478
37.19446 458.987174062523
37.21457 461.016572717668
37.23469 444.003443454946
37.2548 450
37.27491 443.991952648849
37.29503 434.016368636108
37.31514 450.986885783674
37.33526 418.064232079614
37.35537 411.971695516111
37.37548 436.986812420134
37.3956 442
37.41571 455.985731123574
37.43582 398.967694678822
37.45594 418.08918407765
37.47605 442.044569766043
37.49617 402.031762243807
37.51628 412.984216060196
37.53639 429.979201070055
37.55651 464.986458302313
37.57662 400.980035149912
37.59673 443.062419663772
37.61685 442.94658996982
37.63696 431.977987759743
37.65708 444.019550868663
37.67719 414.991705231743
37.6973 476
37.71742 477.97709983568
37.73753 449.948076054463
37.75764 428.02433209258
37.77776 445.057764999598
37.79787 398.974906002748
37.81798 469.963942256626
37.8381 438
37.85821 426.004892719942
37.87833 438.007682253109
37.89844 441.028932028786
37.91855 463.964000539466
37.93867 459.027731903227
37.95878 432.035852278126
37.97889 394.016044799976
37.99901 394.025397641892
38.01912 461.028949264585
38.03924 438.934933206188
38.05935 424.984645566611
38.07946 419.004964325015
38.09958 416.010719295705
38.11969 409.990741045878
38.1398 440
38.15992 431.01133875411
38.18003 456.995946355387
38.20015 430.998209060075
38.22026 466.929564782289
38.24037 471.031443279828
38.26049 456.990531234615
38.2806 488
38.30071 461.004771488093
38.32083 504.020660865892
38.34094 478.97745555078
38.36105 493.996414469193
38.38117 477.996038262693
38.40128 501.988266252465
38.4214 502
38.44151 537.002045159742
38.46162 502.96434501657
38.48174 491.002642197487
38.50185 497.961609517889
38.52196 506.036069093102
38.54208 472.020544133361
38.56219 477.991723951999
38.58231 481.992070729102
38.60242 449.963254892371
38.62253 428.002556226549
38.64265 444.03040645167
38.66276 436.052763985064
38.68287 416.980801277985
38.70299 441.005075498834
38.7231 404
38.74321 436.019480018548
38.76333 447.979506680543
38.78344 423.959489321317
38.80356 415.007346220171
38.82367 416.978708277023
38.84378 437.984541028111
38.8639 436
38.88401 408.98754267087
38.90412 400.01151565026
38.92424 407.951703404791
38.94435 372.988446633806
38.96447 413.964550281937
38.98458 413.976637028908
39.00469 453.998905672124
39.02481 425.000437789275
39.04492 460.012366536934
39.06503 429.946541461199
39.08515 418.012364329067
39.10526 435.932881908902
39.12538 466.993164644811
39.14549 449.010979608767
39.1656 439
39.18572 437.99938839747
39.20583 446.038922018873
39.22594 478.032622938388
39.24606 486.938219507503
39.26617 543.914767768051
39.28628 608.894021134843
39.3064 718
39.32651 713.02542302731
39.34663 859.269060976542
39.36674 1031.36177452412
39.38685 1211.62918514132
39.40697 1312.90203104254
39.42708 1366.94661533618
39.44719 1386.03044390167
39.46731 1237.90266302262
39.48742 1072.90540854088
39.50754 1018.83909743466
39.52765 886.651548381019
39.54776 779.153832913252
39.56788 710.079681003782
39.58799 616.045435156096
39.6081 526
39.62822 435.978062963176
39.64833 462.004702651392
39.66845 417.888348787602
39.68856 392.06582642072
39.70867 361.985553523469
39.72879 398.99253373619
39.7489 386
39.76901 404.996873336588
39.78913 370.966807634696
39.80924 382.052750550767
39.82935 398.007191210103
39.84947 381.026969264099
39.86958 375.99089619158
39.8897 377
39.90981 352.02055948689
39.92992 427.015332258505
39.95004 370.907812595216
39.97015 380.920675837856
39.99026 406.946568883823
40.01038 419.025128965729
40.03049 388.989880818131
40.05061 454.024232656125
40.07072 458.994673501081
40.09083 467.017536243644
40.11095 482.068152395837
40.13106 522.908147400744
40.15117 575.896428917901
40.17129 650.97007894323
40.1914 702
40.21152 786.072182582457
40.23163 818.98886081059
40.25174 804.022176519694
40.27186 832.990636780636
40.29197 792.098615642221
40.31208 716.090781833826
40.3322 637
40.35231 641.000904535253
40.37242 612.954760390846
40.39254 555.8506573392
40.41265 486.085956656349
40.43277 484.998543096813
40.45288 451.073919953413
40.47299 369.025684551986
40.49311 376.027722344629
40.51322 428.005664856579
40.53333 382.913744995774
40.55345 353.0015288692
40.57356 375.93195447913
40.59368 406.975757194447
40.61379 408.017703744654
40.6339 364
40.65402 388.019136116853
40.67413 382.986323403089
40.69424 383.004903027719
40.71436 376.042861040971
40.73447 355.000328657803
40.75458 372.986825887161
40.7747 375
40.79481 373.980356449161
40.81493 326.005454882343
40.83504 376.062347384036
40.85515 367.015016285213
40.87527 378.997592700634
40.89538 359.024190360692
40.91549 351.992723485669
40.93561 367.996377987666
40.95572 343.990479892432
40.97584 360.043144507923
40.99595 371.00937890612
41.01606 376.971990076488
41.03618 391.997199160959
41.05629 377.012567228299
41.0764 359
41.09652 371.010169271836
41.11663 375.011670351953
41.13675 388.023730422641
41.15686 380.06137761206
41.17697 354.977773545791
41.19709 394.992076738136
41.2172 372
41.23731 367.005150837605
41.25743 384.033087377776
41.27754 399.999894892451
41.29765 389.017195376741
41.31777 387.016782528435
41.33788 373.993093748767
41.358 389
41.37811 360.998333237328
41.39822 390.027012085974
41.41834 390.969429886579
41.43845 386.93734707278
41.45856 412.044542450737
41.47868 359.019021410857
41.49879 383.99269749429
41.51891 370.998238021506
41.53902 376.978655745929
41.55913 342.003348855579
41.57925 384.084071693542
41.59936 379.052727843697
41.61947 361.990926991854
41.63959 393.976633349426
41.6597 428
41.67982 410.988160116903
41.69993 406.971153033012
41.72004 380.998255361473
41.74016 402.978688960755
41.76027 390.022488311119
41.78038 397.965668322815
41.8005 429
41.82061 396.993471444321
41.84072 400.974761795471
41.86084 361.012982558536
41.88095 401.99457228865
41.90107 356.045092443152
41.92118 371.971652820376
41.94129 376.011822400082
41.96141 351.001828440821
41.98152 369.991167824445
42.00163 337.989081970171
42.02175 366.06567720493
42.04186 375.969312796518
42.06198 388.022232955669
42.08209 351.99894684922
42.1022 391
42.12232 379.990869650343
42.14243 383.98960801235
42.16254 358.948032059977
42.18266 353.957364020007
42.20277 386.963477942711
42.22289 394.998109270152
42.243 424
42.26311 503.017276532951
42.28323 505.048791095251
42.30334 599.244815119427
42.32345 710.771723823118
42.34357 791.869634080323
42.36368 893.892751748489
42.38379 978.978843295547
42.40391 995.012569564611
42.42402 1018.97656017339
42.44414 950.874069221213
42.46425 898.793108956689
42.48436 789.176710264001
42.50448 733.058064562104
42.52459 674.011346054103
42.5447 665
42.56482 558.89646580989
42.58493 483.892423377386
42.60505 398.781822500615
42.62516 345.98105783228
42.64527 382.996540891727
42.66539 354.995741217454
42.6855 400
42.70561 359.974568031913
42.72573 326.95692782836
42.74584 312.045036413038
42.76595 353.95263768979
42.78607 338.03135439368
42.80618 338.980112980834
42.8263 355
42.84641 332.997103500311
42.86652 345.001373612828
42.88664 331.994501404882
42.90675 336.042788659177
42.92686 308.994660646192
42.94698 338.984978405295
42.96709 323.010443290131
42.98721 308.989488384711
43.00732 296.024396161187
43.02743 348.060052113768
43.04755 353.970900466547
43.06766 334.070015788694
43.08777 303.995969266177
43.10789 334.986525942834
43.128 339
43.14812 334.997150594575
43.16823 323.958908469276
43.18834 291.967986003402
43.20846 305.924959861317
43.22857 328.040013820279
43.24868 279.011057599018
43.2688 309
43.28891 292.998542248993
43.30902 307.994806551996
43.32914 284.999460995362
43.34925 311.954869397871
43.36937 304.022940499169
43.38948 304.977755906443
43.40959 329.998084931618
43.42971 318.000662603253
43.44982 334.002875221548
43.46993 326.016479625474
43.49005 344.965206190551
43.51016 303.047538676724
43.53028 308.001162060598
43.55039 302.985790312633
43.5705 354
43.59062 328.950364681317
43.61073 300.01911319545
43.63084 336.039648603899
43.65096 320.06435682554
43.67107 303.979867453551
43.69119 324.004897686548
43.7113 297
43.73141 321.992040102502
43.75153 283.02543162186
43.77164 348.052431972927
43.79175 310.102431308932
43.81187 301.00384835115
43.83198 296.987633404745
43.85209 324.987677717345
43.87221 331.996768911343
43.89232 319.986273307073
43.91244 308.985448574312
43.93255 306.002714989224
43.95266 306.011947937412
43.97278 300.992098317846
43.99289 322.987479836363
44.013 330
44.03312 301.998356131773
44.05323 322.006532673685
44.07335 300.952638936582
44.09346 303.964603576299
44.11357 330.943463946018
44.13369 350.015598378207
44.1538 295
44.17391 322.014262618192
44.19403 325.997889201041
44.21414 319.942223777465
44.23426 286.004354656527
44.25437 314.965567618613
44.27448 309.02086404793
44.2946 303
44.31471 326.987778439202
44.33482 271.980396677091
44.35494 297.027045419788
44.37505 294.915294159027
44.39516 350.976353286015
44.41528 305.050715883461
44.43539 293.98954591842
44.45551 313.99691421302
44.47562 296.009701208554
44.49573 322.991525924832
44.51585 292.00188024901
44.53596 323.988734080863
44.55607 299.003761204707
44.57619 328.990467370703
44.5963 317
44.61642 316.022292234021
44.63653 345.021745891428
44.65664 320.868744331076
44.67676 275.915559261582
44.69687 366.948367767672
44.71698 320.047985484493
44.7371 318
44.75721 316.997119266006
44.77732 318.011887318154
44.79744 325.970111757488
44.81755 301.999419566506
44.83767 327.96995397623
44.85778 324.014604923845
44.87789 319.992729945722
44.89801 343.006545865009
44.91812 334.977793083365
44.93823 329.050994445676
44.95835 379.044347261965
44.97846 348.096209360544
44.99858 315.016163101812
45.01869 314.992927970567
45.0388 332
45.05892 338.013361977723
45.07903 347.976039229895
45.09914 316.975361225193
45.11926 326.99485488689
45.13937 316.996940499647
45.15949 337.989015815479
45.1796 353
45.19971 361.989771924704
45.21983 333.00691058265
45.23994 368.0404875195
45.26005 369.938465460167
45.28017 397.048621522724
45.30028 324.031827220221
45.32039 365.96655344095
45.34051 399.995509715345
45.36062 359.951038258014
45.38074 340.051740777715
45.40085 381.021192040801
45.42096 360.994422748928
45.44108 388.995798971646
45.46119 369.996311507303
45.4813 399
45.50142 363.990503025316
45.52153 389.018463640489
45.54165 381.027192303001
45.56176 418.933116361039
45.58187 440.948860264441
45.60199 487.981986018125
45.6221 504
45.64221 516.004045291752
45.66233 542.106936214272
45.68244 639.148403014556
45.70256 693.830871869892
45.72267 796.912769193036
45.74278 792.024188952886
45.7629 799
45.78301 818.963073175087
45.80312 673.877436288316
45.82324 634.024566684981
45.84335 635.106593924596
45.86346 581.993590779794
45.88358 616.027528181154
45.90369 514.04787614277
45.92381 468.985852574935
45.94392 433.970063730387
45.96403 401.922058131903
45.98415 345.937611115141
46.00426 353.982580402183
46.02437 347.010178692375
46.04449 353.990802123303
46.0646 370
46.08472 347.956400005323
46.10483 320.035069460877
46.12494 370.03212710065
46.14506 341.049545916997
46.16517 344.987225217204
46.18528 343.003318626493
46.2054 346
46.22551 342.986163502
46.24563 310.99773928086
46.26574 345.07998498457
46.28585 361.023381683172
46.30597 349.981819535884
46.32608 362.036267673761
46.34619 295.015483661788
46.36631 317.012839717882
46.38642 314.987817799652
46.40653 314.021193536885
46.42665 330.001204884027
46.44676 320.990468843426
46.46688 336.001647989572
46.48699 321.997557093094
46.5071 346
46.52722 323.953447140945
46.54733 296.037689998096
46.56744 349.041992270059
46.58756 323.056706886732
46.60767 320.986616827684
46.62779 323.003692651738
46.6479 320
46.66801 341.996710179158
46.68813 313.986063874314
46.70824 331.022298368447
46.72835 326.991351629781
46.74847 336.015240754558
46.76858 311.010435274172
46.78869 319.997976634261
46.80881 316.004602751462
46.82892 326.980046565129
46.84904 300.045644807033
46.86915 353.016882417213
46.88926 310.039857288857
46.90938 344.950841454168
46.92949 351.027182087201
46.9496 288
46.96972 339.025162840038
46.98983 328.030236532317
47.00995 383.064508248125
47.03006 360.055791870692
47.05017 352.01010116317
47.07029 335.009884561647
47.0904 326
47.11051 338.999413771687
47.13063 326.999165236806
47.15074 333.977136840632
47.17086 309.014513457167
47.19097 321.992755506633
47.21108 315.991085710504
47.2312 336
47.25131 319.99911001401
47.27142 337.008963784491
47.29154 327.979441645611
47.31165 321.038607972023
47.33176 302.01077165786
47.35188 317.972163718574
47.37199 340.994801270657
47.39211 327.980223530959
47.41222 289.995590612952
47.43233 319.045785564757
47.45245 327.989052543836
47.47256 321.014017093009
47.49267 318.991575943812
47.51279 320.009244703745
47.5329 299
47.55302 334.025480183955
47.57313 326.959167343672
47.59324 305.99960432045
47.61336 326.944382221295
47.63347 342.005637731554
47.65358 321.030522675957
47.6737 305
47.69381 334.00375804443
47.71393 315.980899799101
47.73404 325.033449965893
47.75415 339.95682040429
47.77427 348.026041661991
47.79438 320.007349632651
47.81449 339.988626771461
47.83461 340.989515444924
47.85472 308.968570919757
47.87483 309.076956535574
47.89495 366.998691817498
47.91506 320.032787410861
47.93518 352.975553484518
47.95529 345.003366130997
47.9754 347
47.99552 317.987891117806
48.01563 328.010944402428
48.03574 319.977589807379
48.05586 315.002449879777
48.07597 307.033869501395
48.09609 294.984031973331
48.1162 348
48.13631 320.988624385266
48.15643 321.994515840384
48.17654 311.014882951014
48.19665 321.07240469272
48.21677 274.998325873514
48.23688 320.975875992399
48.257 306
48.27711 324.002227146962
48.29722 299.969077829941
48.31734 290.0356847249
48.33745 317.0262089212
48.35756 298.071489516274
48.37768 278.980805761868
48.39779 312.99822317536
48.4179 293
48.43802 321.989360096116
48.45813 274.970142306184
48.47825 305.099691964132
48.49836 325.975383079269
48.51847 326.040129369059
48.53859 291.004780672893
48.5587 319
48.57881 343.995763117423
48.59893 306.930919923202
48.61904 282.015470357035
48.63916 301.005650633403
48.65927 287.968009090093
48.67938 329.99618239292
48.6995 292
48.71961 306.011094999946
48.73972 325.034128675609
48.75984 352.963091599371
48.77995 300.086380044855
48.80006 306.960708680881
48.82018 320.981405638328
48.84029 330.012682513494
48.86041 290.996727376068
48.88052 316.009878244627
48.90063 303.00409278413
48.92075 330.052930109345
48.94086 330.013859318718
48.96097 332.9769454864
48.98109 350.995977535048
49.0012 342
49.02132 324.997024833705
49.04143 335.017623091283
49.06154 343.019388591403
49.08166 347.0293877329
49.10177 321.024878422944
49.12188 321.993698464001
49.142 324
49.16211 329.006667704708
49.18223 344.009055745418
49.20234 344.014446850688
49.22245 349.049823644533
49.24257 315.020925390503
49.26268 341.945381997184
49.28279 373.015738117775
49.30291 310.989495588424
49.32302 335.002263062548
49.34313 303.98632057996
49.36325 331.056331999657
49.38336 331.995199821706
49.40348 339.008415467168
49.42359 317.006718700418
49.4437 327
49.46382 344.991685082757
49.48393 322.992343697295
49.50404 330.974137773404
49.52416 304.993503471265
49.54427 333.986416996772
49.56439 314.006188681504
49.5845 327
49.60461 334.998381406616
49.62473 328.999023325663
49.64484 339.03573298685
49.66495 355.976000931173
49.68507 355.013006253311
49.70518 346.004713657325
49.7253 347
49.74541 357.011541072637
49.76552 393.041405765594
49.78564 425.028465317091
49.80575 421.970060585965
49.82586 416.980469942731
49.84598 428.009127294183
49.86609 428.968685621146
49.8862 535
49.90632 547.981215779935
49.92643 572.161919005119
49.94655 733.349389924811
49.96666 830.791344431045
49.98677 974.754796677789
50.00689 1147.90603480357
50.027 1356
50.04711 1586.115609905
50.06723 1776.15988566279
50.08734 1829.13444930931
50.10746 1903.98831737371
50.12757 1789.31560129317
50.14768 1549.22328131223
50.1678 1360
50.18791 1199.94513493408
50.20802 1152.9983977287
50.22814 1148.9278531412
50.24825 1071.2447092233
50.26837 949.252406179111
50.28848 740.216694245791
50.30859 560.063081624475
50.32871 485.981495251763
50.34882 446.936848480121
50.36893 386.991108319956
50.38905 422.031493915854
50.40916 390.070749498713
50.42927 391.940832963585
50.44939 431.998646331952
50.4695 402
50.48962 407.004000871208
50.50973 399.997422065578
50.52984 409.017846442953
50.54996 419.948978810793
50.57007 437.041292770232
50.59018 398.977786919213
50.6103 454
50.63041 383.988431230056
50.65053 422.012190156299
50.67064 371.908599838692
50.69075 369.951253373888
50.71087 372.048081503638
50.73098 338.983612603405
50.75109 395.981067101533
50.77121 377.974309070158
50.79132 340.000576739231
50.81143 366.020136962959
50.83155 346.915978890095
50.85166 336.931197122819
50.87178 378.011387610843
50.89189 327.009220697194
50.912 346
50.93212 300.982729501203
50.95223 329.043638817458
50.97234 333.998534747306
50.99246 337.998717376339
51.01257 333.007239900791
51.03269 330.002612520971
51.0528 330
51.07291 349.998902463808
51.09303 321.952084650678
51.11314 317.063268409158
51.13325 351.020381603621
51.15337 309.034493807439
51.17348 319.992572207829
51.1936 305
51.21371 312.021575680716
51.23382 346.971341878003
51.25394 279.95150891271
51.27405 319.887919578763
51.29416 328.023751624657
51.31428 314.015082340127
51.33439 303.001210585966
51.3545 313
51.37462 324.981008754953
51.39473 285.960206382737
51.41485 287.029682254272
51.43496 295.982425887032
51.45507 301.008040573881
51.47519 288.005568112316
51.4953 285
51.51541 283.995297581124
51.53553 270.9905184286
51.55564 274.009840846571
51.57576 280.967276046772
51.59587 294.016148264217
51.61598 278.979116088812
51.6361 318
51.65621 277.99077673394
51.67632 295.00659946756
51.69644 272.953986548656
51.71655 270.965471072399
51.73667 293.954299274648
51.75678 317.995412577799
51.77689 307.004950626397
51.79701 296.986155142751
51.81712 263.99227773605
51.83723 285.034385360141
51.85735 287.968878420507
51.87746 276.993979025409
51.89757 290.985826388952
51.91769 294.993510342508
51.9378 309
51.95792 285.990793670717
51.97803 295.004215055065
51.99814 285.995755057141
52.01826 290.018420087034
52.03837 266.031023598652
52.05848 268.970836678353
52.0786 302
52.09871 290.995554662907
52.11883 297.013997687552
52.13894 294.96686627776
52.15905 280.976978647487
52.17917 301.003478016659
52.19928 288.975913362935
52.21939 327.008298940457
52.23951 266.988426766911
52.25962 299.025826917192
52.27974 297.018564584493
52.29985 319.999789364615
52.31996 295.029658472559
52.34008 307.976324155177
52.36019 320.002649982366
52.3803 297
52.40042 277.018054493833
52.42053 307.993993667362
52.44064 273.977449995148
52.46076 305.914394989313
52.48087 324.016342128434
52.50099 295.015913891012
52.5211 275
52.54121 282.012588386787
52.56133 308.008729774678
52.58144 305.040154817653
52.60155 337.99196205504
52.62167 299.076347719911
52.64178 268.008528585299
52.6619 271
52.68201 276.013589975702
52.70212 315.021351996915
52.72224 307.965570923078
52.74235 306.941159829201
52.76246 328.034428352259
52.78258 291.999041916419
52.80269 326.994890980861
52.8228 302
52.84292 315.00157883997
52.86303 294.976827268433
52.88315 305.076342774106
52.90326 337.957314537756
52.92337 339.022160429246
52.94349 325.998983234521
52.9636 333
52.98371 313.002207565217
53.00383 337.008430397282
53.02394 319.987563612689
53.04406 338.949971264594
53.06417 338.060278280065
53.08428 293.001337955014
53.1044 326
53.12451 288.975797863267
53.14462 280.046990833671
53.16474 346.061427166916
53.18485 333.029373297517
53.20497 343.984792300613
53.22508 336.019813185934
53.24519 321.998256539765
53.26531 333.99991355394
53.28542 324.003131152901
53.30553 343.021906243304
53.32565 342.987677285122
53.34576 342.989821716355
53.36587 356.96049619289
53.38599 388.986608749534
53.4061 390
53.42622 340.969797284619
53.44633 340.0100348683
53.46644 349.054720116644
53.48656 378.005831572262
53.50667 352.010500113973
53.52678 364.011044222879
53.5469 343
53.56701 394.00134201128
53.58713 353.996327653278
53.60724 403.068905398494
53.62735 393.047313535345
53.64747 386.014419536384
53.66758 364.029150191535
53.68769 361.972718015482
53.70781 433.00831695312
53.72792 390.965250225456
53.74804 400.048114541763
53.76815 396.89065235354
53.78826 354.966662387849
53.80838 413.971941438211
53.82849 388.015117258961
53.8486 396
53.86872 422.977960397768
53.88883 364.934322656111
53.90894 358.006821766204
53.92906 360.963715362277
53.94917 382.006639817523
53.96929 350.016513230929
53.9894 347
54.00951 386.006053703847
54.02963 369.982114513659
54.04974 375.005788325258
54.06985 372.976862893756
54.08997 388.997327616239
54.11008 378.998364852206
54.1302 387
54.15031 366.008540687362
54.17042 408.008813995318
54.19054 367.906766351554
54.21065 360.906622064335
54.23076 405.978548547277
54.25088 383.014152582908
54.27099 392.996479466513
54.29111 370.97508138293
54.31122 337.025206270713
54.33133 392.017878797014
54.35145 359.988582689262
54.37156 397.951700121365
54.39167 403.941391488732
54.41179 440.027671683694
54.4319 334
54.45201 416.044719815533
54.47213 441.986290295324
54.49224 424.947760402714
54.51236 395.052595742159
54.53247 390.954787986458
54.55258 425.004930096858
54.5727 395
54.59281 437.01685392452
54.61292 430.970738792151
54.63304 426.101236143595
54.65315 501.904742856256
54.67327 495.991949982193
54.69338 540.943287897879
54.71349 571.004173892727
54.73361 571.033203585834
54.75372 692.104099105105
54.77383 730.991737365837
54.79395 749.220372709704
54.81406 858.931485528054
54.83417 801.106322220953
54.85429 768.011208270937
54.8744 736
54.89452 711.989460601057
54.91463 696.938924086041
54.93474 642.934567233128
54.95486 634.032348796015
54.97497 603.032522961436
54.99508 592.022557677735
55.0152 559
55.03531 546.982807913898
55.05543 485.908357514286
55.07554 459.03261347507
55.09565 481.047434863971
55.11577 438.004562427514
55.13588 478.975154779564
55.15599 462.012281791681
55.17611 467.018814379922
55.19622 510.017334444631
55.21634 506.018683220759
55.23645 540.087803935591
55.25656 556.995664453445
55.27668 557.990352562799
55.29679 567.005469516103
55.3169 534
55.33702 500.963827011064
55.35713 476.013605865749
55.37724 493.958298706393
55.39736 447.02380284361
55.41747 473.986340455572
55.43759 450.007669678074
55.4577 450
55.47781 421.003152304958
55.49793 449.991274294067
55.51804 404.937653717397
55.53815 394.090638794846
55.55827 343.01257142614
55.57838 382.963418128275
55.5985 389
55.61861 389.993304848174
55.63872 371.000377570562
55.65884 383.98805949079
55.67895 361.015592801097
55.69906 375.98579277675
55.71918 368.998159618734
55.73929 376.007247007858
55.75941 344.992290729653
55.77952 349.998641095929
55.79963 350.053664085079
55.81975 394.981719203252
55.83986 339.07830137327
55.85997 340.99537098022
55.88009 329.001494676855
55.9002 337
55.92031 335.01661169388
55.94043 383.011238948554
55.96054 343.926481127939
55.98066 330.036769933451
56.00077 308.99079116394
56.02088 342.967610148177
56.041 359
56.06111 358.980500783754
56.08122 309.996103811419
56.10134 349.049911821146
56.12145 344.97908570537
56.14157 370.989517009357
56.16168 347.030171854227
56.18179 330.004340479192
56.20191 327.002587453977
56.22202 332.996937337934
56.24213 329.01954238524
56.26225 352.019389568229
56.28236 334.058026462089
56.30248 318.990088778581
56.32259 337.000900614434
56.3427 310
56.36282 299.006460448603
56.38293 322.059372804513
56.40304 349.974861484393
56.42316 314.025938641737
56.44327 336.961185453321
56.46338 339.015855797279
56.4835 324
56.50361 330.998321202666
56.52373 320.003978059639
56.54384 335.009635891284
56.56395 328.987737274974
56.58407 339.018840326457
56.60418 313.999285213296
56.62429 342.989257662356
56.64441 334.988026942126
56.66452 317.999715218854
56.68464 332.03242746457
56.70475 340.002592714827
56.72486 340.98715900168
56.74498 337.035682525994
56.76509 301.989986476564
56.7852 368
56.80532 354.946316163834
56.82543 304.968087450597
56.84554 320.069215061682
56.86566 342.013712597062
56.88577 321.006681046918
56.90589 344.983279825283
56.926 354
56.94611 300.979325050013
56.96623 295.030369076137
56.98634 328.082187783131
57.00645 353.029199038198
57.02657 323.014204652431
57.04668 336.998365988432
57.0668 315
57.08691 313.005075104697
57.10702 331.028027415286
57.12714 358.024128652044
57.14725 356.004341254091
57.16736 364.968654756986
57.18748 365.03409445257
57.20759 324.000760758115
57.22771 357.008074474296
57.24782 334.969605501343
57.26793 324.010494026118
57.28805 337.021155619584
57.30816 339.986406994851
57.32827 347.008818819498
57.34839 334.000538502925
57.3685 339
57.38861 313.998125225331
57.40873 335.02524679059
57.42884 328.962052156396
57.44896 320.965488741681
57.46907 345.003306821221
57.48918 318.017163255312
57.5093 331
57.52941 353.002834025874
57.54952 341.981134892428
57.56964 323.966436743303
57.58975 321.934447120728
57.60987 353.0024096064
57.62998 317.034445628898
57.65009 304.00345902752
57.67021 306.014643397122
57.69032 341.000239935812
57.71043 303.945348517246
57.73055 301.065769011782
57.75066 323.024198489772
57.77078 300.978082470197
57.79089 353.991622231726
57.811 321
57.83112 321.001284311398
57.85123 308.982130228708
57.87134 300.973381321088
57.89146 290.977069506382
57.91157 323.945806891703
57.93168 337.018617227042
57.9518 306
57.97191 316.008402336727
57.99203 318.98012014142
58.01214 301.988705217276
58.03225 313.948026056062
58.05237 327.999991513656
58.07248 323.990866554567
58.09259 348.986967563379
58.11271 354.989562075093
58.13282 318.967848277325
58.15294 306.00662439577
58.17305 314.010184707855
58.19316 309.021218798703
58.21328 305.985494243668
58.23339 321.005835292461
58.2535 292
58.27362 302.996056081043
58.29373 288.019906742744
58.31385 335.116622739106
58.33396 349.035981532997
58.35407 319.034027429681
58.37419 312.000904753968
58.3943 311
58.41441 324.006787137149
58.43453 327.985596754571
58.45464 313.989840061114
58.47475 315.021989246968
58.49487 295.024486874803
58.51498 288.006539549286
58.5351 282
58.55521 308.025765188488
58.57532 346.984187025983
58.59544 294.945430109574
58.61555 318.896968523768
58.63566 338.018490653043
58.65578 322.99202991789
58.67589 345.999431127914
58.69601 318.987810005669
58.71612 312.997958806085
58.73623 315.030942494902
58.75635 335.970523644857
58.77646 305.006560311862
58.79657 330.984771476582
58.81669 313.00662620068
58.8368 316
58.85691 299.991021868677
58.87703 303.052508406326
58.89714 326.917110371505
58.91726 264.964773619045
58.93737 343.966778521874
58.95748 289.033995246756
58.9776 313
58.99771 308.003138943861
59.01782 330.004596322384
59.03794 314.99227929148
59.05805 326.002719262846
59.07817 312.001035570586
59.09828 321.011164822102
59.11839 298.996675052476
59.13851 324.998190707982
59.15862 290.983819832801
59.17873 317.067010083804
59.19885 352.04890783224
59.21896 344.084476454652
59.23908 299.008704049211
59.25919 323.99141919144
59.2793 322
59.29942 347.01653730207
59.31953 337.959091674464
59.33964 318.011947489519
59.35976 339.981562441324
59.37987 336.979473658263
59.39998 363.99245285528
59.4201 350
59.44021 373.019543330193
59.46033 398.992180343859
59.48044 367.933184505784
59.50055 351.010553406495
59.52067 358.964528202326
59.54078 388.97705380789
59.56089 400.995006069448
59.58101 409.999893072129
59.60112 389.957969454974
59.62124 356.014364379565
59.64135 398.094091228676
59.66146 415.958016370467
59.68158 450.963834139359
59.70169 478.988801068523
59.7218 499
59.74192 529.056728042481
59.76203 616.157460795236
59.78215 714.189019355797
59.80226 776.855945432798
59.82237 874.82638127429
59.84249 1008.92130970754
59.8626 1181
59.88271 1330.06422700734
59.90283 1406.98876656378
59.92294 1320.74785704363
59.94305 1182.39480505814
59.96317 1016.2258247065
59.98328 899.084829651719
60.0034 846
60.02351 850.004793008539
60.04362 841.967428082221
60.06374 807.990631015188
60.08385 814.080001787843
60.10396 720.259037606859
60.12408 611.055677658982
60.14419 577.037449942894
60.16431 457.949361061433
60.18442 410.984703533086
60.20453 388.93476660984
60.22465 341.958073163745
60.24476 357.963775137864
60.26487 365.976108479299
60.28499 380.008111108022
60.3051 347
60.32522 365.00213085728
60.34533 341.976090574734
60.36544 347.016083835291
60.38556 342.032243551488
60.40567 336.960116497453
60.42578 363.027734056889
60.4459 294
60.46601 315.029610371425
60.48612 351.979849080818
60.50624 304.982757565534
60.52635 342.931029495823
60.54647 329.045196806969
60.56658 316.984599962442
60.58669 344.991924395534
60.60681 352.012264867779
60.62692 372.96931901322
60.64703 303.93199520704
60.66715 310.060840407268
60.68726 316.032343014312
60.70738 311.953815988898
60.72749 370.003799826963
60.7476 298
60.76772 295.013293355248
60.78783 308.051052844657
60.80794 338.963906046559
60.82806 294.006813811069
60.84817 335.965505223009
60.86828 313.031613478221
60.8884 304
60.90851 319.008856027359
60.92863 325.980246503692
60.94874 311.022026843269
60.96885 339.973183681239
60.98897 327.009403607774
61.00908 336.994667058865
61.02919 332.000050597801
61.04931 334.99453587748
61.06942 320.007971321272
61.08954 340.994030985601
61.10965 309.934441157772
61.12976 313.94549212788
61.14988 343.981290670459
61.16999 356.986841325144
61.1901 378
61.21022 331.989236881806
61.23033 364.036106863286
61.25045 348.912419466791
61.27056 325.000337821332
61.29067 341.977367627591
61.31079 348.994249305479
61.3309 364
61.35101 353.992559770213
61.37113 346.001863418679
61.39124 347.984061136725
61.41135 344.931221215314
61.43147 382.001098928269
61.45158 345.024276855816
61.4717 349
61.49181 348.018173447928
61.51192 404.01963405475
61.53204 372.918958349037
61.55215 355.008914965571
61.57226 362.94962552558
61.59238 394.977951500349
61.61249 400.999945988904
61.63261 408.008174391305
61.65272 411.967293637873
61.67283 368.996938149553
61.69295 407.065686150189
61.71306 403.997569489202
61.73317 415.01111380807
61.75329 391.005101884897
61.7734 407
61.79352 421.002418093996
61.81363 416.99371684215
61.83374 408.956986014151
61.85386 389.980535377147
61.87397 418.981132535743
61.89408 413.988254130588
61.9142 432
61.93431 385.99409696171
61.95442 418.026445296712
61.97454 424.038762499354
61.99465 448.036213801753
62.01477 405.027195807214
62.03488 425.978887553601
62.05499 431.992850259398
62.07511 454.002613234237
62.09522 441.994578283016
62.11533 452.015853260979
62.13545 445.937447777105
62.15556 418.023520373613
62.17568 426.984390038511
62.19579 435.998492688599
62.2159 439
62.23602 446.997121815066
62.25613 432.978041893303
62.27624 428.00954464088
62.29636 434.997028898575
62.31647 429.011670454404
62.33659 413.01800841729
62.3567 377
62.37681 405.012703336572
62.39693 413.013667591929
62.41704 414.935952073446
62.43715 364.067114189153
62.45727 375.965021931028
62.47738 383.009764565257
62.49749 370.001045632795
62.51761 378.001581051727
62.53772 368.986409227
62.55784 369.048813163899
62.57795 383.901944172123
62.59806 324.003293783712
62.61818 366.007541927877
62.63829 311.003383614749
62.6584 365
62.67852 344.982314383328
62.69863 344.969540068452
62.71875 307.97084531673
62.73886 325.9793921143
62.75897 317.999584371256
62.77909 339.984868702185
62.7992 349
62.81931 304.990311701688
62.83943 320.029792932837
62.85954 326.005030718242
62.87965 317.096605002326
62.89977 284.955186409413
62.91988 344.997712631244
62.94 286
62.96011 309.016464563725
62.98022 323.014313060145
63.00034 335.980777021517
63.02045 321.947348426641
63.04056 358.017998275712
63.06068 316.002437749986
63.08079 353.996687342911
63.10091 312.983552953276
63.12102 319.020640563592
63.14113 331.006069149943
63.16125 332.004854211955
63.18136 338.976063533099
63.20147 344.021080354822
63.22159 316.012122680727
63.2417 312
63.26182 329.000938616271
63.28193 313.979891227108
63.30204 315.021968614835
63.32216 331.954038768394
63.34227 346.015853685947
63.36238 323.007386691574
63.3825 337
63.40261 339.001280289731
63.42272 339.985570679584
63.44284 316.978881022869
63.46295 320.007365655427
63.48307 313.979788971678
63.50318 332.015245738422
63.52329 297.001529762564
63.54341 333.015174620933
63.56352 337.000945423983
63.58363 347.011543881386
63.60375 341.957770987064
63.62386 327.993551779877
63.64398 344.986941679785
63.66409 336.015771054468
63.6842 318
63.70432 374.014559643309
63.72443 331.925921889151
63.74454 317.026031865047
63.76466 342.940186309031
63.78477 362.993440760739
63.80489 352.01019791913
63.825 338
63.84511 369.03033500224
63.86523 425.021518765957
63.88534 411.014023506631
63.90545 451.905528561937
63.92557 476.942224558008
63.94568 511.015785113455
63.96579 468.999497974797
63.98591 527.029687856979
64.00602 530.946346808668
64.02614 458.904235531373
64.04625 444.972137808618
64.06636 406.130262949515
64.08648 363.96965892522
64.10659 442.97308379496
64.1267 446
64.14682 454.985262473284
64.16693 418.968533401155
64.18705 418.97834096167
64.20716 383.102807548189
64.22727 347.000418788316
64.24739 360.008211813079
64.2675 320
64.28761 336.001521352728
64.30773 318.999060610962
64.32784 338.011251399593
64.34796 319.043383559692
64.36807 309.007932725445
64.38818 303.004941241732
64.4083 303
64.42841 314.004614074484
64.44852 316.997724163686
64.46864 318.023662694186
64.48875 328.030515470685
64.50886 287.110887109631
64.52898 257.974943934054
64.54909 303.997153221503
64.56921 269.994075907154
64.58932 303.038897772952
64.60943 322.017100623637
64.62955 323.945224122697
64.64966 296.996582905297
64.66977 327.959213272538
64.68989 323.016377525303
64.71 290
64.73012 303.011050300159
64.75023 306.019500775829
64.77034 319.975458740894
64.79046 285.052563288962
64.81057 287.966765808284
64.83068 312.978883364381
64.8508 322
64.87091 302.984725269333
64.89102 282.007926767238
64.91114 311.045686915438
64.93125 314.009720546566
64.95137 318.975357029492
64.97148 334.002191838522
64.99159 317.006766388347
65.01171 312.996809561826
65.03182 297.982303673367
65.05193 295.03524482857
65.07205 320.981064666134
65.09216 287.033963645356
65.11228 296.995947916984
65.13239 288.996620747463
65.1525 310
65.17262 305.010321529439
65.19273 322.984881589567
65.21284 291.981961296538
65.23296 310.979518248223
65.25307 302.003242115099
65.27319 304.011285140752
65.2933 272
65.31341 316.023305285314
65.33353 329.975449850898
65.35364 300.947865693129
65.37375 287.018762210721
65.39387 286.978244395952
65.41398 310.97898316498
65.43409 316.005983567198
65.45421 310.011971977349
65.47432 341.993835802719
65.49444 298.935369496478
65.51455 310.100785477961
65.53466 335.043011622485
65.55478 285.029089457347
65.57489 297.986350617009
65.595 317
65.61512 320.979832133887
65.63523 297.008313977365
65.65535 333.085175121381
65.67546 340.027229862562
65.69557 325.005508436178
65.71569 332.996349869104
65.7358 336
65.75591 337.989210981748
65.77603 304.979703016236
65.79614 311.996584445817
65.81626 294.024599341805
65.83637 300.972736195087
65.85648 314.000753611123
65.8766 311
65.89671 328.993214016875
65.91682 300.006633588572
65.93694 336.016150092869
65.95705 313.992949753078
65.97716 345.979194330267
65.99728 313.047055623026
66.01739 277.01403395254
66.03751 265.008020166166
66.05762 306.050545525364
66.07773 329.963553870411
66.09785 285.966805711272
66.11796 311.952653723878
66.13807 311.010295233054
66.15819 307.005563363759
66.1783 299
66.19842 337.038408653054
66.21853 339.92951411762
66.23864 280.964340747365
66.25876 308.948722796338
66.27887 311.988473499379
66.29898 331.987783848762
66.3191 324
66.33921 312.005396173988
66.35933 328.988619616603
66.37944 298.961050064046
66.39955 307.943211992046
66.41967 322.999633207229
66.43978 312.011631585284
66.45989 303.006710303121
66.48001 294.005807117501
66.50012 316.005806135406
66.52023 300.978909775885
66.54035 303.02932135731
66.56046 302.059430815107
66.58058 268.994283059988
66.60069 311.981753734076
66.6208 309
66.64092 286.015047076355
66.66103 319.003110301041
66.68114 282.93477080225
66.70126 277.987808664086
66.72137 286.969518487152
66.74149 304.004925241963
66.7616 288
66.78171 324.991978967678
66.80183 266.968917597506
66.82194 298.037619448408
66.84205 286.987149051221
66.86217 305.02796291035
66.88228 261.007921810149
66.90239 293.991364103155
66.92251 279.997811302627
66.94262 304.030208673652
66.96274 317.993806560281
66.98285 307.984997252598
67.00296 309.993520509864
67.02308 302.024822569867
67.04319 285.987763140816
67.0633 332
67.08342 309.981740376047
67.10353 324.049482089209
67.12365 342.96190216117
67.14376 307.045194458382
67.16387 317.953125131677
67.18399 340.002004695921
67.2041 317
67.22421 332.026332821692
67.24433 376.979732392041
67.26444 324.960124717541
67.28456 345.998567368648
67.30467 322.983353050435
67.32478 364.988686466761
67.3449 329
67.36501 324.009625878053
67.38512 347.014948832873
67.40524 344.967091787438
67.42535 338.932790067377
67.44546 387.925685556428
67.46558 382.046894453457
67.48569 342.991857074158
67.50581 402.020624792221
67.52592 418.04246986703
67.54603 484.050686153083
67.56615 503.189944980234
67.58626 624.835718036344
67.60637 659.905738889958
67.62649 768.951995896584
67.6466 828
67.66672 892.05274064952
67.68683 904.94611129917
67.70694 855.966554526836
67.72706 844.157357026104
67.74717 715.133363212607
67.76728 695.01090400777
67.7874 656
67.80751 618.979208404171
67.82763 619.149506713203
67.84774 755.098774547334
67.86785 696.167761532639
67.88797 697.926716541547
67.90808 746.976403547141
67.92819 743.004379635386
67.94831 740.99676830728
67.96842 724.980844310338
67.98853 740.120373297052
68.00865 867.306211097318
68.02876 937.960436122395
68.04888 970.892338119645
68.06899 1120.95226694584
68.0891 1139
68.10922 1159.97241315404
68.12933 1070.84228561374
68.14944 1007.98926236488
68.16956 1004.14558255215
68.18967 906.011449899766
68.20979 1001.95177040313
68.2299 1045
68.25001 1095.01735581666
68.27013 1101.99190571729
68.29024 1067.81218169067
68.31035 928.341724458771
68.33047 821.142482854113
68.35058 721.101345533896
68.3707 633
68.39081 600.993201593636
68.41092 591.992828983042
68.43104 590.018959278028
68.45115 590.91563966596
68.47126 530.106109354282
68.49138 502.019073896141
68.51149 471.023405721603
68.5316 416
68.55172 388.000490561987
68.57183 393.974160702578
68.59195 351.901875764364
68.61206 335.997249781278
68.63217 335.025014674658
68.65229 322.986679878328
68.6724 366
68.69251 324.984558676591
68.71263 332.029389277698
68.73274 335.970520181376
68.75286 308.063907536278
68.77297 305.920140912754
68.79308 369.996290238264
68.8132 313
68.83331 311.00371217205
68.85342 310.008106378503
68.87354 326.009920376196
68.89365 324.958301564719
68.91376 342.048004258892
68.93388 292.018713933333
68.95399 308.999900510118
68.97411 282.995566091288
68.99422 301.011506049091
69.01433 301.024770683139
69.03445 324.985352270506
69.05456 297.010003627102
69.07467 319.983401388514
69.09479 298.018052429703
69.1149 275
69.13502 285.000894585611
69.15513 284.036234997691
69.17524 326.05009426151
69.19536 301.146421157156
69.21547 241.974122495458
69.23558 313.957606112081
69.2557 296
69.27581 304.014715351631
69.29593 327.000247931148
69.31604 307.963323907346
69.33615 298.032982195722
69.35627 288.978112569486
69.37638 321.973719473323
69.39649 324.007585234386
69.41661 306.994841937736
69.43672 307.005724511093
69.45683 301.958680056595
69.47695 273.00731585558
69.49706 307.932857048575
69.51718 309.029975898859
69.53729 278.001531624888
69.5574 302
69.57752 306.001628173215
69.59763 313.007663697385
69.61774 303.94375133624
69.63786 280.97601408347
69.65797 308.011521439004
69.67809 272.003901311116
69.6982 299
69.71831 284.999328475183
69.73843 310.039436381775
69.75854 310.947238184041
69.77865 281.017833932192
69.79877 292.0023887505
69.81888 276.001328207255
69.839 294
69.85911 286.991526962922
69.87922 276.001304189198
69.89934 288.02955569941
69.91945 295.998096268568
69.93956 289.017421811544
69.95968 286.991205955292
69.97979 297.001318006227
69.9999 294
70.02002 318.977492026442
70.04013 268.988755003745
70.06025 311.072493730783
70.08036 299.038042413334
70.10047 294.005593937873
70.12059 298.983035237709
70.1407 333
70.16081 287.997935852761
70.18093 325.012537182005
70.20104 290.958518474724
70.22116 304.970361466422
70.24127 299.021951941254
70.26138 294.986111612503
70.2815 319
70.30161 322.997478529822
70.32172 311.980581131987
70.34184 293.992317021644
70.36195 300.995087246158
70.38207 291.019396172734
70.40218 290.980103236525
70.42229 312.002030162228
70.44241 282.986276099233
70.46252 277.009463392336
70.48263 288.006823918684
70.50275 281.96795365056
70.52286 280.948550065969
70.54297 316.978461995668
70.56309 309.998189774912
70.5832 322
70.60332 279.962523968824
70.62343 278.049014666421
70.64354 309.992841929427
70.66366 271.077811265672
70.68377 266.953311847757
70.70388 297.008190001066
70.724 270
70.74411 307.99885384222
70.76423 260.957063848885
70.78434 278.055231777711
70.80445 291.973696168286
70.82457 298.015373413959
70.84468 284.990319869171
70.86479 307.000862736925
70.88491 288.003140554029
70.90502 303.967704284452
70.92513 245.996013995774
70.94525 298.063627458614
70.96536 275.025406530032
70.98548 290.995610875206
71.00559 275.002402582286
71.0257 292
71.04582 287.972431350144
71.06593 266.02231908382
71.08604 299.002207954747
71.10616 272.002566255994
71.12627 297.998258620988
71.14639 256.025416791458
71.1665 244
71.18661 304.014944197247
71.20673 292.978348227489
71.22684 290.978293041862
71.24695 267.048753487854
71.26707 265.978396934426
71.28718 282.990455689039
71.3073 290
71.32741 320.012229513633
71.34752 313.954602128309
71.36764 265.991826641324
71.38775 301.935605220414
71.40786 299.001125556009
71.42798 307.008658488073
71.44809 281.009225530157
71.4682 285
71.48832 293.990135929615
71.50843 271.975696824507
71.52855 276.052713970436
71.54866 294.999183779625
71.56877 282.007491876133
71.58889 289.997725530655
71.609 290
71.62911 308.003238393622
71.64923 298.985366237581
71.66934 295.993557442981
71.68946 295.972725838005
71.70957 314.991972356904
71.72968 296.034890776077
71.7498 280
71.76991 323.9995885332
71.79002 280.976338345137
71.81014 299.042080002134
71.83025 301.002212380968
71.85037 301.017489693111
71.87048 283.006125492417
71.89059 293.992406026417
71.91071 305.005517446394
71.93082 314.000372035561
71.95093 311.008039293829
71.97105 317.975368148709
71.99116 296.021224042765
72.01127 302.988473131139
72.03139 303.998111959913
72.0515 311
72.07162 309.006798236203
72.09173 325.020352217784
72.11184 327.991150625127
72.13196 309.086628684538
72.15207 273.974916962095
72.17218 324.976222016363
72.1923 304
72.21241 304.000953265397
72.23253 302.012716276263
72.25264 311.97622638064
72.27275 298.925014478459
72.29287 347.005640147261
72.31298 302.005611481387
72.33309 342.992989556628
72.35321 309.986759091454
72.37332 303.975599501556
72.39344 272.021271555559
72.41355 323.097729301162
72.43366 317.065400740046
72.45378 292.997928924753
72.47389 308.999798627584
72.494 297
72.51412 314.98423517642
72.53423 272.974379557064
72.55434 295.049382162096
72.57446 306.960823808969
72.59457 327.011648367724
72.61469 298.007569557587
72.6348 311
72.65491 325.006762371907
72.67503 335.999944554103
72.69514 316.925188368675
72.71525 279.050243975875
72.73537 294.921370649451
72.75548 348.980864926467
72.7756 327
72.79571 308.997192686536
72.81582 313.01390825496
72.83594 320.971543453613
72.85605 298.996745926286
72.87616 314.023516406143
72.89628 281.007671127286
72.91639 317.972881432985
72.9365 349
72.95662 317.971173180876
72.97673 311.012517599139
72.99685 324.033570771594
73.01696 332.993024087975
73.03707 329.018845026642
73.05719 318.997484253624
73.0773 339
73.09741 351.000739565979
73.11753 345.989068611964
73.13764 340.995665323731
73.15776 337.021626950894
73.17787 332.967636698963
73.19798 368.98016144732
73.2181 360
73.23821 357.012633085759
73.25832 386.999761114818
73.27844 366.004901753376
73.29855 399.927561082678
73.31867 416.949524294119
73.33878 461.97861588681
73.35889 457.998328079355
73.37901 483.013948738983
73.39912 499.007398650428
73.41923 507.021209245494
73.43935 525.034225203208
73.45946 508.13114795559
73.47957 429.05652435483
73.49969 427.012938924423
73.5198 377
73.53992 397.995288180077
73.56003 359.972808632592
73.58014 386.083445626874
73.60026 420.934254461416
73.62037 448.978510143061
73.64048 442.02734808508
73.6606 411
73.68071 407.99944719703
73.70083 390.944376814421
73.72094 347.940482143179
73.74105 330.063949034271
73.76117 304.993851512044
73.78128 328.994019933835
73.80139 320.990078507653
73.82151 359.002037352143
73.84162 327.98461476469
73.86174 335.977813670525
73.88185 301.954645731554
73.90196 312.969943467836
73.92208 318.991206241164
73.94219 326.005698480129
73.9623 300
73.98242 302.019255010388
74.00253 318.999348993102
74.02264 302.970643552065
74.04276 293.036538484001
74.06287 280.966642526903
74.08299 316.999664322324
74.1031 278
74.12321 283.016552911832
74.14333 318.031162310842
74.16344 311.940303051207
74.18355 284.999305939753
74.20367 305.983511334586
74.22378 299.002368894102
74.2439 303
74.26401 281.996847207032
74.28412 300.026859223305
74.30424 313.988667058648
74.32435 293.062200203455
74.34446 280.986292323807
74.36458 298.984822796295
74.38469 301.003920770733
74.40481 292.999157078415
74.42492 307.032545207296
74.44503 334.995327483605
74.46515 306.94923586329
74.48526 314.950759901371
74.50537 328.02318288665
74.52549 288.02157254582
74.5456 273
74.56571 308.003624579013
74.58583 280.956361700776
74.60594 265.967714724111
74.62606 251.985563676571
74.64617 281.947343363554
74.66628 297.013278664434
74.6864 273
74.70651 276.994181588287
74.72662 261.019406451416
74.74674 298.999542338326
74.76685 261.045811501094
74.78697 284.952341821651
74.80708 304.977469991223
74.82719 327.996773161689
74.84731 312.98779308238
74.86742 289.977789940429
74.88753 284.040140916819
74.90765 321.019572512746
74.92776 288.091879959126
74.94787 265.982054059648
74.96799 293.992137480381
74.9881 286
75.00822 276.994141236689
