3.00117 19437
3.02128 18872
3.0414 18795
3.06151 18039
3.08162 17339
3.10174 17031
3.12185 16313
3.14197 15876
3.16208 15510
3.18219 15182
3.20231 14422
3.22242 13883
3.24253 14022
3.26265 13417
3.28276 12843
3.30288 12802
3.32299 11901
3.3431 11896
3.36322 11400
3.38333 10749
3.40344 10772
3.42356 10139
3.44367 10173
3.46379 9784
3.4839 9087
3.50401 9072
3.52413 8531
3.54424 8381
3.56435 8006
3.58447 7590
3.60458 7424
3.62469 6914
3.64481 6926
3.66492 6691
3.68504 6307
3.70515 6236
3.72526 5605
3.74538 5749
3.76549 5507
3.7856 4920
3.80572 4908
3.82583 4754
3.84595 4525
3.86606 4483
3.88617 3998
3.90629 4001
3.9264 3667
3.94651 3652
3.96663 3632
3.98674 3205
4.00686 3105
4.02697 2922
4.04708 2960
4.0672 2801
4.08731 2520
4.10742 2606
4.12754 2384
4.14765 2275
4.16776 2172
4.18788 1982
4.20799 2073
4.22811 1875
4.24822 1763
4.26833 1803
4.28845 1648
4.30856 1509
4.32867 1561
4.34879 1522
4.3689 1567
4.38902 1370
4.40913 1407
4.42924 1311
4.44936 1393
4.46947 1404
4.48958 1184
4.5097 1202
4.52981 1149
4.54992 1140
4.57004 1160
4.59015 1047
4.61027 1101
4.63038 1036
4.65049 1016
4.67061 1004
4.69072 881
4.71083 955
4.73095 810
4.75106 889
4.77118 902
4.79129 787
4.8114 815
4.83152 790
4.85163 803
4.87174 761
4.89186 691
4.91197 690
4.93209 637
4.9522 659
4.97231 678
4.99243 619
5.01254 581
5.03265 651
5.05277 625
5.07288 571
5.09299 549
5.11311 580
5.13322 518
5.15334 510
5.17345 506
5.19356 464
5.21368 493
5.23379 475
5.2539 463
5.27402 467
5.29413 422
5.31425 457
5.33436 446
5.35447 396
5.37459 406
5.3947 395
5.41481 382
5.43493 338
5.45504 403
5.47516 378
5.49527 316
5.51538 355
5.5355 355
5.55561 368
5.57572 324
5.59584 315
5.61595 312
5.63606 283
5.65618 308
5.67629 260
5.69641 310
5.71652 319
5.73663 264
5.75675 290
5.77686 241
5.79697 258
5.81709 245
5.8372 289
5.85732 246
5.87743 239
5.89754 215
5.91766 282
5.93777 261
5.95788 268
5.978 218
5.99811 265
6.01823 237
6.03834 253
6.05845 229
6.07857 245
6.09868 226
6.11879 227
6.13891 192
6.15902 193
6.17913 236
6.19925 239
6.21936 226
6.23948 247
6.25959 212
6.2797 213
6.29982 254
6.31993 223
6.34004 181
6.36016 206
6.38027 205
6.40039 236
6.4205 220
6.44061 205
6.46073 188
6.48084 184
6.50095 198
6.52107 173
6.54118 207
6.56129 192
6.58141 212
6.60152 186
6.62164 181
6.64175 178
6.66186 171
6.68198 204
6.70209 204
6.7222 175
6.74232 202
6.76243 164
6.78255 194
6.80266 172
6.82277 214
6.84289 154
6.863 210
6.88311 164
6.90323 166
6.92334 164
6.94346 183
6.96357 196
6.98368 167
7.0038 220
7.02391 188
7.04402 161
7.06414 161
7.08425 185
7.10436 196
7.12448 189
7.14459 165
7.16471 205
7.18482 195
7.20493 194
7.22505 194
7.24516 200
7.26527 193
7.28539 175
7.3055 165
7.32562 183
7.34573 176
7.36584 173
7.38596 197
7.40607 207
7.42618 164
7.4463 179
7.46641 163
7.48653 190
7.50664 179
7.52675 188
7.54687 198
7.56698 206
7.58709 198
7.60721 202
7.62732 216
7.64743 192
7.66755 186
7.68766 210
7.70778 174
7.72789 192
7.748 185
7.76812 168
7.78823 205
7.80834 200
7.82846 187
7.84857 231
7.86869 219
7.8888 172
7.90891 201
7.92903 198
7.94914 191
7.96925 186
7.98937 173
8.00948 190
8.0296 220
8.04971 205
8.06982 195
8.08994 209
8.11005 196
8.13016 194
8.15028 215
8.17039 207
8.1905 206
8.21062 192
8.23073 204
8.25085 221
8.27096 203
8.29107 219
8.31119 209
8.3313 205
8.35141 201
8.37153 191
8.39164 197
8.41176 198
8.43187 201
8.45198 187
8.4721 198
8.49221 210
8.51232 206
8.53244 192
8.55255 222
8.57266 203
8.59278 227
8.61289 221
8.63301 210
8.65312 228
8.67323 222
8.69335 214
8.71346 230
8.73357 180
8.75369 215
8.7738 201
8.79392 216
8.81403 229
8.83414 190
8.85426 253
8.87437 229
8.89448 173
8.9146 213
8.93471 179
8.95483 194
8.97494 202
8.99505 205
9.01517 224
9.03528 202
9.05539 211
9.07551 225
9.09562 217
9.11573 228
9.13585 215
9.15596 191
9.17608 206
9.19619 189
9.2163 180
9.23642 190
9.25653 211
9.27664 198
9.29676 224
9.31687 210
9.33699 195
9.3571 220
9.37721 212
9.39733 198
9.41744 203
9.43755 224
9.45767 197
9.47778 200
9.4979 191
9.51801 207
9.53812 225
9.55824 216
9.57835 225
9.59846 207
9.61858 227
9.63869 216
9.6588 184
9.67892 192
9.69903 211
9.71915 188
9.73926 217
9.75937 182
9.77949 232
9.7996 193
9.81971 200
9.83983 232
9.85994 187
9.88006 189
9.90017 207
9.92028 200
9.9404 210
9.96051 225
9.98062 241
10.00074 235
10.02085 236
10.04097 194
10.06108 188
10.08119 194
10.10131 205
10.12142 189
10.14153 203
10.16165 228
10.18176 227
10.20187 209
10.22199 230
10.2421 206
10.26222 199
10.28233 215
10.30244 201
10.32256 221
10.34267 238
10.36278 205
10.3829 210
10.40301 223
10.42313 188
10.44324 210
10.46335 208
10.48347 236
10.50358 185
10.52369 199
10.54381 238
10.56392 241
10.58403 215
10.60415 199
10.62426 189
10.64438 200
10.66449 196
10.6846 195
10.70472 201
10.72483 184
10.74494 195
10.76506 210
10.78517 236
10.80529 211
10.8254 229
10.84551 209
10.86563 222
10.88574 232
10.90585 225
10.92597 217
10.94608 220
10.9662 212
10.98631 219
11.00642 204
11.02654 183
11.04665 183
11.06676 196
11.08688 185
11.10699 194
11.1271 204
11.14722 212
11.16733 178
11.18745 212
11.20756 163
11.22767 213
11.24779 195
11.2679 219
11.28801 200
11.30813 202
11.32824 249
11.34836 195
11.36847 209
11.38858 215
11.4087 178
11.42881 227
11.44892 202
11.46904 202
11.48915 225
11.50927 202
11.52938 223
11.54949 197
11.56961 207
11.58972 203
11.60983 213
11.62995 219
11.65006 206
11.67017 183
11.69029 224
11.7104 223
11.73052 223
11.75063 217
11.77074 212
11.79086 202
11.81097 200
11.83108 209
11.8512 201
11.87131 205
11.89143 211
11.91154 200
11.93165 219
11.95177 224
11.97188 204
11.99199 201
12.01211 208
12.03222 219
12.05234 219
12.07245 221
12.09256 220
12.11268 230
12.13279 198
12.1529 187
12.17302 219
12.19313 241
12.21324 236
12.23336 211
12.25347 204
12.27359 218
12.2937 255
12.31381 227
12.33393 249
12.35404 252
12.37415 216
12.39427 238
12.41438 228
12.4345 230
12.45461 224
12.47472 225
12.49484 214
12.51495 210
12.53506 220
12.55518 211
12.57529 235
12.5954 219
12.61552 201
12.63563 170
12.65575 189
12.67586 189
12.69597 197
12.71609 207
12.7362 192
12.75631 210
12.77643 215
12.79654 224
12.81666 193
12.83677 195
12.85688 194
12.877 196
12.89711 184
12.91722 185
12.93734 193
12.95745 193
12.97757 167
12.99768 210
13.01779 176
13.03791 181
13.05802 204
13.07813 208
13.09825 200
13.11836 182
13.13847 187
13.15859 202
13.1787 205
13.19882 166
13.21893 193
13.23904 197
13.25916 206
13.27927 209
13.29938 170
13.3195 187
13.33961 180
13.35973 179
13.37984 198
13.39995 190
13.42007 202
13.44018 207
13.46029 193
13.48041 194
13.50052 167
13.52064 194
13.54075 193
13.56086 177
13.58098 189
13.60109 172
13.6212 160
13.64132 178
13.66143 167
13.68154 203
13.70166 171
13.72177 194
13.74189 195
13.762 164
13.78211 206
13.80223 162
13.82234 202
13.84245 197
13.86257 181
13.88268 188
13.9028 183
13.92291 199
13.94302 162
13.96314 165
13.98325 169
14.00336 157
14.02348 188
14.04359 177
14.06371 181
14.08382 181
14.10393 171
14.12405 169
14.14416 165
14.16427 171
14.18439 152
14.2045 191
14.22461 146
14.24473 182
14.26484 168
14.28496 184
14.30507 178
14.32518 190
14.3453 181
14.36541 190
14.38552 177
14.40564 171
14.42575 195
14.44587 158
14.46598 190
14.48609 169
14.50621 184
14.52632 171
14.54643 187
14.56655 166
14.58666 195
14.60677 145
14.62689 194
14.647 178
14.66712 192
14.68723 159
14.70734 192
14.72746 160
14.74757 169
14.76768 170
14.7878 158
14.80791 166
14.82803 184
14.84814 175
14.86825 158
14.88837 148
14.90848 177
14.92859 161
14.94871 165
14.96882 168
14.98894 158
15.00905 145
15.02916 164
15.04928 178
15.06939 170
15.0895 195
15.10962 171
15.12973 146
15.14984 161
15.16996 177
15.19007 158
15.21019 184
15.2303 178
15.25041 180
15.27053 179
15.29064 167
15.31075 181
15.33087 174
15.35098 170
15.3711 154
15.39121 169
15.41132 173
15.43144 150
15.45155 170
15.47166 160
15.49178 169
15.51189 137
15.53201 194
15.55212 177
15.57223 139
15.59235 139
15.61246 169
15.63257 159
15.65269 180
15.6728 169
15.69291 176
15.71303 137
15.73314 179
15.75326 140
15.77337 174
15.79348 159
15.8136 149
15.83371 187
15.85382 175
15.87394 161
15.89405 163
15.91417 159
15.93428 150
15.95439 184
15.97451 160
15.99462 162
16.01473 149
16.03485 151
16.05496 150
16.07508 168
16.09519 154
16.1153 152
16.13542 146
16.15553 165
16.17564 163
16.19576 168
16.21587 183
16.23598 200
16.2561 160
16.27621 194
16.29633 167
16.31644 131
16.33655 154
16.35667 160
16.37678 153
16.39689 147
16.41701 167
16.43712 180
16.45724 181
16.47735 157
16.49746 167
16.51758 163
16.53769 166
16.5578 148
16.57792 136
16.59803 152
16.61814 163
16.63826 152
16.65837 158
16.67849 155
16.6986 176
16.71871 163
16.73883 186
16.75894 139
16.77905 155
16.79917 178
16.81928 154
16.8394 163
16.85951 142
16.87962 163
16.89974 164
16.91985 132
16.93996 147
16.96008 182
16.98019 166
17.00031 168
17.02042 156
17.04053 169
17.06065 145
17.08076 167
17.10087 176
17.12099 148
17.1411 148
17.16121 159
17.18133 168
17.20144 164
17.22156 163
17.24167 160
17.26178 147
17.2819 174
17.30201 144
17.32212 202
17.34224 178
17.36235 167
17.38247 155
17.40258 165
17.42269 154
17.44281 162
17.46292 161
17.48303 151
17.50315 140
17.52326 136
17.54338 177
17.56349 164
17.5836 189
17.60372 164
17.62383 162
17.64394 163
17.66406 170
17.68417 166
17.70428 145
17.7244 162
17.74451 143
17.76463 176
17.78474 163
17.80485 156
17.82497 174
17.84508 146
17.86519 153
17.88531 135
17.90542 137
17.92554 124
17.94565 168
17.96576 169
17.98588 177
18.00599 149
18.0261 174
18.04622 140
18.06633 155
18.08645 173
18.10656 149
18.12667 141
18.14679 164
18.1669 173
18.18701 174
18.20713 149
18.22724 159
18.24735 167
18.26747 152
18.28758 148
18.3077 153
18.32781 145
18.34792 155
18.36804 167
18.38815 134
18.40826 136
18.42838 162
18.44849 142
18.46861 155
18.48872 159
18.50883 160
18.52895 175
18.54906 157
18.56917 141
18.58929 173
18.6094 152
18.62951 165
18.64963 143
18.66974 173
18.68986 168
18.70997 145
18.73008 169
18.7502 179
18.77031 200
18.79042 156
18.81054 186
18.83065 191
18.85077 171
18.87088 176
18.89099 154
18.91111 155
18.93122 151
18.95133 154
18.97145 157
18.99156 131
19.01168 142
19.03179 145
19.0519 165
19.07202 174
19.09213 166
19.11224 150
19.13236 162
19.15247 158
19.17258 163
19.1927 158
19.21281 160
19.23293 158
19.25304 160
19.27315 149
19.29327 164
19.31338 174
19.33349 161
19.35361 171
19.37372 161
19.39384 167
19.41395 156
19.43406 173
19.45418 159
19.47429 190
19.4944 179
19.51452 175
19.53463 169
19.55475 178
19.57486 164
19.59497 184
19.61509 189
19.6352 195
19.65531 164
19.67543 191
19.69554 205
19.71565 224
19.73577 206
19.75588 190
19.776 212
19.79611 206
19.81622 238
19.83634 239
19.85645 228
19.87656 236
19.89668 223
19.91679 246
19.93691 216
19.95702 245
19.97713 238
19.99725 217
20.01736 191
20.03747 212
20.05759 227
20.0777 235
20.09782 235
20.11793 254
20.13804 243
20.15816 245
20.17827 275
20.19838 250
20.2185 260
20.23861 265
20.25872 287
20.27884 275
20.29895 274
20.31907 256
20.33918 271
20.35929 274
20.37941 280
20.39952 287
20.41963 309
20.43975 314
20.45986 314
20.47998 359
20.50009 391
20.5202 352
20.54032 327
20.56043 370
20.58054 374
20.60066 401
20.62077 429
20.64088 493
20.661 553
20.68111 601
20.70123 754
20.72134 1090
20.74145 1471
20.76157 2123
20.78168 3106
20.80179 4550
20.82191 6485
20.84202 8307
20.86214 9793
20.88225 10021
20.90236 8675
20.92248 6619
20.94259 4508
20.9627 2629
20.98282 1421
21.00293 849
21.02305 642
21.04316 514
21.06327 536
21.08339 480
21.1035 435
21.12361 417
21.14373 350
21.16384 368
21.18395 351
21.20407 289
21.22418 291
21.2443 309
21.26441 257
21.28452 254
21.30464 260
21.32475 254
21.34486 261
21.36498 253
21.38509 258
21.40521 234
21.42532 234
21.44543 234
21.46555 268
21.48566 219
21.50577 233
21.52589 250
21.546 223
21.56612 209
21.58623 210
21.60634 211
21.62646 225
21.64657 235
21.66668 225
21.6868 215
21.70691 213
21.72702 208
21.74714 229
21.76725 200
21.78737 191
21.80748 218
21.82759 224
21.84771 190
21.86782 195
21.88793 209
21.90805 238
21.92816 210
21.94828 208
21.96839 214
21.9885 198
22.00862 227
22.02873 205
22.04884 194
22.06896 180
22.08907 202
22.10919 201
22.1293 200
22.14941 211
22.16953 210
22.18964 224
22.20975 226
22.22987 198
22.24998 185
22.27009 200
22.29021 203
22.31032 215
22.33044 223
22.35055 213
22.37066 216
22.39078 192
22.41089 229
22.431 219
22.45112 191
22.47123 184
22.49135 198
22.51146 191
22.53157 185
22.55169 200
22.5718 193
22.59191 198
22.61203 181
22.63214 200
22.65225 180
22.67237 198
22.69248 188
22.7126 231
22.73271 196
22.75282 179
22.77294 220
22.79305 186
22.81316 177
22.83328 175
22.85339 168
22.87351 180
22.89362 165
22.91373 194
22.93385 195
22.95396 166
22.97407 195
22.99419 185
23.0143 188
23.03442 154
23.05453 174
23.07464 186
23.09476 197
23.11487 187
23.13498 198
23.1551 178
23.17521 209
23.19532 186
23.21544 168
23.23555 194
23.25567 191
23.27578 214
23.29589 189
23.31601 187
23.33612 182
23.35623 170
23.37635 185
23.39646 193
23.41658 199
23.43669 159
23.4568 186
23.47692 182
23.49703 187
23.51714 176
23.53726 223
23.55737 176
23.57749 201
23.5976 194
23.61771 176
23.63783 209
23.65794 182
23.67805 180
23.69817 199
23.71828 185
23.73839 182
23.75851 195
23.77862 219
23.79874 206
23.81885 196
23.83896 185
23.85908 189
23.87919 208
23.8993 203
23.91942 206
23.93953 251
23.95965 246
23.97976 275
23.99987 243
24.01999 292
24.0401 285
24.06021 254
24.08033 244
24.10044 210
24.12056 198
24.14067 234
24.16078 207
24.1809 192
24.20101 204
24.22112 186
24.24124 200
24.26135 163
24.28146 190
24.30158 198
24.32169 204
24.34181 172
24.36192 197
24.38203 185
24.40215 181
24.42226 191
24.44237 198
24.46249 176
24.4826 181
24.50272 173
24.52283 186
24.54294 179
24.56306 183
24.58317 203
24.60328 194
24.6234 172
24.64351 191
24.66362 178
24.68374 193
24.70385 226
24.72397 212
24.74408 184
24.76419 202
24.78431 203
24.80442 189
24.82453 188
24.84465 211
24.86476 224
24.88488 212
24.90499 228
24.9251 196
24.94522 233
24.96533 193
24.98544 169
25.00556 196
25.02567 204
25.04579 223
25.0659 181
25.08601 209
25.10613 209
25.12624 199
25.14635 199
25.16647 164
25.18658 214
25.20669 214
25.22681 220
25.24692 203
25.26704 202
25.28715 193
25.30726 208
25.32738 190
25.34749 214
25.3676 190
25.38772 206
25.40783 207
25.42795 213
25.44806 200
25.46817 198
25.48829 211
25.5084 207
25.52851 242
25.54863 223
25.56874 233
25.58886 265
25.60897 245
25.62908 279
25.6492 278
25.66931 296
25.68942 283
25.70954 348
25.72965 389
25.74976 405
25.76988 408
25.78999 453
25.81011 459
25.83022 411
25.85033 428
25.87045 424
25.89056 445
25.91067 428
25.93079 454
25.9509 451
25.97102 469
25.99113 486
26.01124 483
26.03136 515
26.05147 515
26.07158 527
26.0917 514
26.11181 549
26.13193 577
26.15204 641
26.17215 688
26.19227 686
26.21238 741
26.23249 813
26.25261 863
26.27272 898
26.29283 1013
26.31295 1095
26.33306 1143
26.35318 1281
26.37329 1357
26.3934 1612
26.41352 1843
26.43363 2201
26.45374 2787
26.47386 3460
26.49397 4821
26.51409 7038
26.5342 10133
26.55431 14713
26.57443 21405
26.59454 29677
26.61465 38664
26.63477 45939
26.65488 46855
26.67499 40382
26.69511 31339
26.71522 24050
26.73534 17630
26.75545 10612
26.77556 5640
26.79568 3213
26.81579 2295
26.8359 1901
26.85602 1689
26.87613 1469
26.89625 1378
26.91636 1272
26.93647 1074
26.95659 1037
26.9767 887
26.99681 808
27.01693 709
27.03704 652
27.05716 571
27.07727 576
27.09738 512
27.1175 489
27.13761 476
27.15772 465
27.17784 457
27.19795 452
27.21806 442
27.23818 392
27.25829 403
27.27841 433
27.29852 371
27.31863 407
27.33875 387
27.35886 391
27.37897 383
27.39909 422
27.4192 377
27.43932 406
27.45943 393
27.47954 373
27.49966 375
27.51977 326
27.53988 343
27.56 350
27.58011 367
27.60023 326
27.62034 331
27.64045 341
27.66057 325
27.68068 325
27.70079 314
27.72091 291
27.74102 325
27.76113 294
27.78125 333
27.80136 302
27.82148 279
27.84159 302
27.8617 283
27.88182 298
27.90193 279
27.92204 334
27.94216 274
27.96227 286
27.98239 292
28.0025 290
28.02261 284
28.04273 272
28.06284 286
28.08295 280
28.10307 266
28.12318 282
28.1433 257
28.16341 241
28.18352 270
28.20364 279
28.22375 245
28.24386 258
28.26398 242
28.28409 256
28.3042 234
28.32432 283
28.34443 258
28.36455 268
28.38466 241
28.40477 253
28.42489 254
28.445 232
28.46511 266
28.48523 255
28.50534 245
28.52546 216
28.54557 238
28.56568 249
28.5858 240
28.60591 225
28.62602 219
28.64614 238
28.66625 217
28.68636 250
28.70648 245
28.72659 218
28.74671 238
28.76682 253
28.78693 225
28.80705 234
28.82716 204
28.84727 218
28.86739 214
28.8875 237
28.90762 244
28.92773 235
28.94784 207
28.96796 228
28.98807 246
29.00818 224
29.0283 231
29.04841 210
29.06853 249
29.08864 233
29.10875 212
29.12887 223
29.14898 219
29.16909 218
29.18921 220
29.20932 202
29.22943 211
29.24955 212
29.26966 204
29.28978 208
29.30989 194
29.33 213
29.35012 216
29.37023 209
29.39034 213
29.41046 204
29.43057 202
29.45069 229
29.4708 227
29.49091 209
29.51103 223
29.53114 219
29.55125 214
29.57137 214
29.59148 230
29.6116 214
29.63171 185
29.65182 194
29.67194 188
29.69205 215
29.71216 198
29.73228 205
29.75239 191
29.7725 192
29.79262 207
29.81273 189
29.83285 232
29.85296 201
29.87307 214
29.89319 220
29.9133 230
29.93341 192
29.95353 219
29.97364 188
29.99376 197
30.01387 195
30.03398 208
30.0541 204
30.07421 188
30.09432 190
30.11444 212
30.13455 209
30.15467 215
30.17478 193
30.19489 197
30.21501 203
30.23512 216
30.25523 205
30.27535 214
30.29546 192
30.31557 201
30.33569 199
30.3558 170
30.37592 181
30.39603 189
30.41614 183
30.43626 180
30.45637 155
30.47648 198
30.4966 211
30.51671 211
30.53683 199
30.55694 178
30.57705 182
30.59717 170
30.61728 204
30.63739 195
30.65751 178
30.67762 202
30.69773 204
30.71785 191
30.73796 209
30.75808 213
30.77819 189
30.7983 201
30.81842 209
30.83853 195
30.85864 180
30.87876 172
30.89887 200
30.91899 147
30.9391 186
30.95921 163
30.97933 198
30.99944 214
31.01955 176
31.03967 158
31.05978 182
31.0799 174
31.10001 163
31.12012 172
31.14024 175
31.16035 187
31.18046 160
31.20058 194
31.22069 165
31.2408 172
31.26092 182
31.28103 192
31.30115 201
31.32126 150
31.34137 174
31.36149 158
31.3816 179
31.40171 193
31.42183 161
31.44194 170
31.46206 152
31.48217 130
31.50228 193
31.5224 163
31.54251 168
31.56262 147
31.58274 139
31.60285 152
31.62297 159
31.64308 168
31.66319 163
31.68331 161
31.70342 151
31.72353 154
31.74365 200
31.76376 161
31.78387 155
31.80399 201
31.8241 162
31.84422 166
31.86433 168
31.88444 185
31.90456 146
31.92467 173
31.94478 151
31.9649 156
31.98501 149
32.00513 149
32.02524 149
32.04535 186
32.06547 157
32.08558 148
32.10569 162
32.12581 191
32.14592 164
32.16604 150
32.18615 166
32.20626 143
32.22638 144
32.24649 163
32.2666 159
32.28672 171
32.30683 158
32.32694 134
32.34706 141
32.36717 154
32.38729 142
32.4074 156
32.42751 158
32.44763 169
32.46774 184
32.48785 144
32.50797 155
32.52808 150
32.5482 145
32.56831 153
32.58842 146
32.60854 164
32.62865 145
32.64876 153
32.66888 137
32.68899 157
32.7091 154
32.72922 121
32.74933 168
32.76945 166
32.78956 164
32.80967 133
32.82979 157
32.8499 159
32.87001 169
32.89013 165
32.91024 132
32.93036 161
32.95047 179
32.97058 175
32.9907 152
33.01081 146
33.03092 121
33.05104 142
33.07115 135
33.09127 172
33.11138 143
33.13149 158
33.15161 160
33.17172 136
33.19183 140
33.21195 154
33.23206 154
33.25217 175
33.27229 146
33.2924 143
33.31252 144
33.33263 149
33.35274 133
33.37286 165
33.39297 153
33.41308 138
33.4332 149
33.45331 145
33.47343 161
33.49354 123
33.51365 137
33.53377 141
33.55388 151
33.57399 125
33.59411 148
33.61422 138
33.63434 161
33.65445 136
33.67456 165
33.69468 140
33.71479 152
33.7349 138
33.75502 157
33.77513 145
33.79524 144
33.81536 140
33.83547 145
33.85559 139
33.8757 144
33.89581 152
33.91593 122
33.93604 152
33.95615 164
33.97627 150
33.99638 139
34.0165 143
34.03661 146
34.05672 125
34.07684 165
34.09695 140
34.11706 122
34.13718 173
34.15729 138
34.17741 149
34.19752 138
34.21763 160
34.23775 159
34.25786 153
34.27797 151
34.29809 121
34.3182 145
34.33831 139
34.35843 159
34.37854 158
34.39866 130
34.41877 137
34.43888 138
34.459 156
34.47911 156
34.49922 135
34.51934 151
34.53945 161
34.55957 141
34.57968 173
34.59979 157
34.61991 165
34.64002 155
34.66013 162
34.68025 169
34.70036 168
34.72047 155
34.74059 171
34.7607 167
34.78082 145
34.80093 148
34.82104 153
34.84116 147
34.86127 180
34.88138 169
34.9015 175
34.92161 156
34.94173 171
34.96184 161
34.98195 199
35.00207 169
35.02218 150
35.04229 185
35.06241 172
35.08252 185
35.10264 160
35.12275 166
35.14286 169
35.16298 175
35.18309 162
35.2032 172
35.22332 174
35.24343 167
35.26354 165
35.28366 160
35.30377 163
35.32389 158
35.344 168
35.36411 183
35.38423 186
35.40434 150
35.42445 170
35.44457 177
35.46468 192
35.4848 185
35.50491 182
35.52502 174
35.54514 193
35.56525 182
35.58536 152
35.60548 172
35.62559 173
35.64571 167
35.66582 182
35.68593 186
35.70605 170
35.72616 152
35.74627 162
35.76639 174
35.7865 179
35.80661 179
35.82673 172
35.84684 159
35.86696 165
35.88707 152
35.90718 187
35.9273 186
35.94741 179
35.96752 195
35.98764 161
36.00775 146
36.02787 189
36.04798 208
36.06809 195
36.08821 215
36.10832 183
36.12843 218
36.14855 204
36.16866 213
36.18878 227
36.20889 259
36.229 228
36.24912 242
36.26923 254
36.28934 304
36.30946 316
36.32957 360
36.34968 390
36.3698 477
36.38991 580
36.41003 786
36.43014 919
36.45025 1256
36.47037 1647
36.49048 2090
36.51059 2673
36.53071 2892
36.55082 2962
36.57094 2669
36.59105 2211
36.61116 1761
36.63128 1653
36.65139 1381
36.6715 1090
36.69162 693
36.71173 413
36.73184 330
36.75196 314
36.77207 269
36.79219 266
36.8123 265
36.83241 251
36.85253 235
36.87264 205
36.89275 231
36.91287 221
36.93298 197
36.9531 180
36.97321 166
36.99332 182
37.01344 191
37.03355 155
37.05366 177
37.07378 199
37.09389 147
37.11401 177
37.13412 165
37.15423 180
37.17435 163
37.19446 149
37.21457 174
37.23469 155
37.2548 177
37.27491 176
37.29503 178
37.31514 168
37.33526 158
37.35537 147
37.37548 160
37.3956 145
37.41571 141
37.43582 160
37.45594 157
37.47605 168
37.49617 131
37.51628 134
37.53639 170
37.55651 180
37.57662 160
37.59673 154
37.61685 168
37.63696 163
37.65708 164
37.67719 169
37.6973 130
37.71742 168
37.73753 165
37.75764 180
37.77776 144
37.79787 159
37.81798 165
37.8381 157
37.85821 165
37.87833 148
37.89844 152
37.91855 149
37.93867 164
37.95878 162
37.97889 147
37.99901 165
38.01912 163
38.03924 163
38.05935 179
38.07946 164
38.09958 165
38.11969 160
38.1398 145
38.15992 165
38.18003 181
38.20015 185
38.22026 162
38.24037 155
38.26049 151
38.2806 170
38.30071 173
38.32083 162
38.34094 186
38.36105 169
38.38117 206
38.40128 163
38.4214 185
38.44151 180
38.46162 181
38.48174 178
38.50185 180
38.52196 163
38.54208 176
38.56219 159
38.58231 174
38.60242 171
38.62253 178
38.64265 189
38.66276 163
38.68287 186
38.70299 172
38.7231 169
38.74321 168
38.76333 167
38.78344 171
38.80356 187
38.82367 157
38.84378 169
38.8639 173
38.88401 168
38.90412 158
38.92424 193
38.94435 147
38.96447 208
38.98458 192
39.00469 180
39.02481 188
39.04492 194
39.06503 185
39.08515 196
39.10526 187
39.12538 209
39.14549 216
39.1656 248
39.18572 256
39.20583 271
39.22594 297
39.24606 306
39.26617 382
39.28628 454
39.3064 572
39.32651 676
39.34663 865
39.36674 1119
39.38685 1433
39.40697 1920
39.42708 2389
39.44719 2749
39.46731 2942
39.48742 2682
39.50754 2183
39.52765 1717
39.54776 1587
39.56788 1426
39.58799 1326
39.6081 922
39.62822 589
39.64833 388
39.66845 280
39.68856 269
39.70867 254
39.72879 289
39.7489 256
39.76901 238
39.78913 224
39.80924 218
39.82935 235
39.84947 204
39.86958 235
39.8897 204
39.90981 199
39.92992 198
39.95004 182
39.97015 204
39.99026 191
40.01038 192
40.03049 234
40.05061 266
40.07072 257
40.09083 285
40.11095 329
40.13106 347
40.15117 459
40.17129 570
40.1914 680
40.21152 856
40.23163 1081
40.25174 1327
40.27186 1470
40.29197 1505
40.31208 1416
40.3322 1097
40.35231 922
40.37242 835
40.39254 819
40.41265 642
40.43277 545
40.45288 367
40.47299 281
40.49311 205
40.51322 219
40.53333 239
40.55345 185
40.57356 206
40.59368 197
40.61379 164
40.6339 183
40.65402 163
40.67413 170
40.69424 168
40.71436 188
40.73447 135
40.75458 151
40.7747 170
40.79481 164
40.81493 168
40.83504 157
40.85515 164
40.87527 159
40.89538 170
40.91549 170
40.93561 146
40.95572 164
40.97584 173
40.99595 157
41.01606 173
41.03618 167
41.05629 155
41.0764 168
41.09652 160
41.11663 167
41.13675 171
41.15686 160
41.17697 145
41.19709 158
41.2172 168
41.23731 146
41.25743 144
41.27754 172
41.29765 152
41.31777 171
41.33788 176
41.358 143
41.37811 156
41.39822 161
41.41834 155
41.43845 152
41.45856 136
41.47868 150
41.49879 157
41.51891 153
41.53902 137
41.55913 146
41.57925 168
41.59936 175
41.61947 140
41.63959 128
41.6597 156
41.67982 170
41.69993 148
41.72004 162
41.74016 179
41.76027 173
41.78038 152
41.8005 169
41.82061 171
41.84072 170
41.86084 135
41.88095 171
41.90107 157
41.92118 178
41.94129 190
41.96141 189
41.98152 152
42.00163 177
42.02175 162
42.04186 191
42.06198 195
42.08209 184
42.1022 220
42.12232 200
42.14243 214
42.16254 202
42.18266 229
42.20277 265
42.22289 277
42.243 335
42.26311 372
42.28323 444
42.30334 552
42.32345 613
42.34357 816
42.36368 1075
42.38379 1328
42.40391 1700
42.42402 1933
42.44414 2056
42.46425 1935
42.48436 1644
42.50448 1222
42.52459 1186
42.5447 1116
42.56482 1030
42.58493 894
42.60505 543
42.62516 353
42.64527 292
42.66539 257
42.6855 213
42.70561 223
42.72573 190
42.74584 188
42.76595 198
42.78607 208
42.80618 197
42.8263 160
42.84641 156
42.86652 173
42.88664 163
42.90675 139
42.92686 160
42.94698 161
42.96709 154
42.98721 161
43.00732 153
43.02743 156
43.04755 168
43.06766 161
43.08777 146
43.10789 159
43.128 151
43.14812 155
43.16823 148
43.18834 123
43.20846 167
43.22857 168
43.24868 144
43.2688 152
43.28891 116
43.30902 125
43.32914 124
43.34925 163
43.36937 135
43.38948 144
43.40959 127
43.42971 161
43.44982 98
43.46993 155
43.49005 125
43.51016 102
43.53028 152
43.55039 141
43.5705 137
43.59062 128
43.61073 167
43.63084 129
43.65096 132
43.67107 145
43.69119 131
43.7113 141
43.73141 133
43.75153 153
43.77164 142
43.79175 133
43.81187 124
43.83198 152
43.85209 143
43.87221 148
43.89232 136
43.91244 136
43.93255 123
43.95266 140
43.97278 161
43.99289 155
44.013 156
44.03312 136
44.05323 129
44.07335 134
44.09346 139
44.11357 150
44.13369 131
44.1538 122
44.17391 136
44.19403 150
44.21414 141
44.23426 135
44.25437 162
44.27448 149
44.2946 140
44.31471 142
44.33482 153
44.35494 141
44.37505 150
44.39516 155
44.41528 136
44.43539 145
44.45551 141
44.47562 159
44.49573 153
44.51585 145
44.53596 143
44.55607 150
44.57619 148
44.5963 130
44.61642 150
44.63653 158
44.65664 137
44.67676 127
44.69687 142
44.71698 139
44.7371 133
44.75721 141
44.77732 146
44.79744 141
44.81755 141
44.83767 131
44.85778 141
44.87789 140
44.89801 133
44.91812 150
44.93823 144
44.95835 130
44.97846 150
44.99858 165
45.01869 140
45.0388 155
45.05892 142
45.07903 147
45.09914 140
45.11926 151
45.13937 155
45.15949 135
45.1796 145
45.19971 135
45.21983 147
45.23994 161
45.26005 136
45.28017 144
45.30028 146
45.32039 149
45.34051 145
45.36062 131
45.38074 179
45.40085 184
45.42096 173
45.44108 153
45.46119 179
45.4813 200
45.50142 187
45.52153 183
45.54165 227
45.56176 275
45.58187 250
45.60199 270
45.6221 326
45.64221 438
45.66233 447
45.68244 585
45.70256 751
45.72267 951
45.74278 1109
45.7629 1284
45.78301 1340
45.80312 1355
45.82324 1096
45.84335 869
45.86346 785
45.88358 730
45.90369 739
45.92381 620
45.94392 490
45.96403 354
45.98415 258
46.00426 196
46.02437 192
46.04449 175
46.0646 161
46.08472 176
46.10483 154
46.12494 138
46.14506 137
46.16517 132
46.18528 152
46.2054 147
46.22551 147
46.24563 153
46.26574 145
46.28585 146
46.30597 129
46.32608 147
46.34619 140
46.36631 133
46.38642 122
46.40653 149
46.42665 161
46.44676 128
46.46688 155
46.48699 113
46.5071 139
46.52722 123
46.54733 130
46.56744 140
46.58756 143
46.60767 133
46.62779 112
46.6479 139
46.66801 134
46.68813 131
46.70824 123
46.72835 123
46.74847 132
46.76858 129
46.78869 137
46.80881 135
46.82892 119
46.84904 136
46.86915 124
46.88926 139
46.90938 138
46.92949 155
46.9496 142
46.96972 119
46.98983 117
47.00995 125
47.03006 116
47.05017 114
47.07029 120
47.0904 126
47.11051 140
47.13063 113
47.15074 124
47.17086 125
47.19097 121
47.21108 144
47.2312 128
47.25131 126
47.27142 126
47.29154 121
47.31165 128
47.33176 135
47.35188 112
47.37199 143
47.39211 125
47.41222 147
47.43233 109
47.45245 130
47.47256 125
47.49267 133
47.51279 139
47.5329 123
47.55302 142
47.57313 116
47.59324 125
47.61336 140
47.63347 139
47.65358 132
47.6737 146
47.69381 114
47.71393 122
47.73404 117
47.75415 133
47.77427 138
47.79438 128
47.81449 138
47.83461 141
47.85472 119
47.87483 125
47.89495 118
47.91506 142
47.93518 128
47.95529 143
47.9754 137
47.99552 139
48.01563 137
48.03574 132
48.05586 140
48.07597 138
48.09609 133
48.1162 119
48.13631 131
48.15643 124
48.17654 96
48.19665 123
48.21677 127
48.23688 120
48.257 122
48.27711 131
48.29722 147
48.31734 147
48.33745 133
48.35756 146
48.37768 142
48.39779 131
48.4179 110
48.43802 135
48.45813 135
48.47825 137
48.49836 144
48.51847 126
48.53859 153
48.5587 152
48.57881 149
48.59893 162
48.61904 134
48.63916 160
48.65927 141
48.67938 136
48.6995 148
48.71961 145
48.73972 139
48.75984 154
48.77995 140
48.80006 143
48.82018 144
48.84029 138
48.86041 128
48.88052 126
48.90063 119
48.92075 127
48.94086 150
48.96097 139
48.98109 146
49.0012 145
49.02132 141
49.04143 138
49.06154 164
49.08166 166
49.10177 144
49.12188 166
49.142 155
49.16211 146
49.18223 148
49.20234 163
49.22245 152
49.24257 160
49.26268 163
49.28279 147
49.30291 158
49.32302 158
49.34313 141
49.36325 131
49.38336 148
49.40348 150
49.42359 152
49.4437 172
49.46382 167
49.48393 178
49.50404 174
49.52416 181
49.54427 157
49.56439 166
49.5845 191
49.60461 163
49.62473 197
49.64484 163
49.66495 207
49.68507 201
49.70518 210
49.7253 249
49.74541 198
49.76552 289
49.78564 284
49.80575 332
49.82586 325
49.84598 379
49.86609 455
49.8862 443
49.90632 541
49.92643 632
49.94655 770
49.96666 991
49.98677 1196
50.00689 1462
50.027 1865
50.04711 2328
50.06723 2961
50.08734 3610
50.10746 4292
50.12757 4547
50.14768 4248
50.1678 3669
50.18791 2736
50.20802 2347
50.22814 2297
50.24825 2333
50.26837 2211
50.28848 1991
50.30859 1377
50.32871 817
50.34882 556
50.36893 405
50.38905 351
50.40916 303
50.42927 299
50.44939 273
50.4695 250
50.48962 254
50.50973 276
50.52984 250
50.54996 266
50.57007 262
50.59018 303
50.6103 291
50.63041 263
50.65053 218
50.67064 255
50.69075 201
50.71087 211
50.73098 229
50.75109 196
50.77121 207
50.79132 193
50.81143 183
50.83155 143
50.85166 162
50.87178 150
50.89189 148
50.912 139
50.93212 167
50.95223 149
50.97234 144
50.99246 131
51.01257 124
51.03269 129
51.0528 136
51.07291 148
51.09303 132
51.11314 137
51.13325 136
51.15337 144
51.17348 137
51.1936 137
51.21371 138
51.23382 133
51.25394 125
51.27405 123
51.29416 136
51.31428 118
51.33439 148
51.3545 130
51.37462 126
51.39473 124
51.41485 127
51.43496 123
51.45507 139
51.47519 141
51.4953 116
51.51541 124
51.53553 102
51.55564 150
51.57576 115
51.59587 130
51.61598 123
51.6361 114
51.65621 126
51.67632 132
51.69644 133
51.71655 132
51.73667 117
51.75678 126
51.77689 126
51.79701 128
51.81712 109
51.83723 129
51.85735 117
51.87746 135
51.89757 125
51.91769 112
51.9378 128
51.95792 117
51.97803 134
51.99814 111
52.01826 145
52.03837 129
52.05848 121
52.0786 146
52.09871 126
52.11883 123
52.13894 131
52.15905 162
52.17917 114
52.19928 101
52.21939 112
52.23951 122
52.25962 134
52.27974 132
52.29985 108
52.31996 124
52.34008 128
52.36019 118
52.3803 124
52.40042 132
52.42053 118
52.44064 108
52.46076 130
52.48087 129
52.50099 137
52.5211 123
52.54121 123
52.56133 126
52.58144 100
52.60155 136
52.62167 116
52.64178 110
52.6619 107
52.68201 113
52.70212 126
52.72224 125
52.74235 127
52.76246 128
52.78258 115
52.80269 119
52.8228 120
52.84292 135
52.86303 127
52.88315 127
52.90326 117
52.92337 117
52.94349 109
52.9636 135
52.98371 126
53.00383 128
53.02394 131
53.04406 118
53.06417 121
53.08428 118
53.1044 146
53.12451 137
53.14462 148
53.16474 144
53.18485 118
53.20497 111
53.22508 111
53.24519 131
53.26531 122
53.28542 147
53.30553 116
53.32565 126
53.34576 141
53.36587 126
53.38599 136
53.4061 140
53.42622 134
53.44633 147
53.46644 127
53.48656 128
53.50667 134
53.52678 138
53.5469 139
53.56701 130
53.58713 108
53.60724 150
53.62735 156
53.64747 146
53.66758 151
53.68769 122
53.70781 131
53.72792 145
53.74804 156
53.76815 120
53.78826 135
53.80838 131
53.82849 132
53.8486 150
53.86872 142
53.88883 146
53.90894 133
53.92906 130
53.94917 164
53.96929 140
53.9894 158
54.00951 145
54.02963 149
54.04974 137
54.06985 141
54.08997 158
54.11008 133
54.1302 131
54.15031 140
54.17042 134
54.19054 146
54.21065 171
54.23076 127
54.25088 159
54.27099 170
54.29111 141
54.31122 165
54.33133 134
54.35145 158
54.37156 157
54.39167 168
54.41179 152
54.4319 166
54.45201 160
54.47213 166
54.49224 166
54.51236 171
54.53247 156
54.55258 219
54.5727 204
54.59281 233
54.61292 239
54.63304 285
54.65315 259
54.67327 338
54.69338 313
54.71349 408
54.73361 522
54.75372 655
54.77383 772
54.79395 904
54.81406 1107
54.83417 1251
54.85429 1330
54.8744 1302
54.89452 1166
54.91463 906
54.93474 739
54.95486 729
54.97497 748
54.99508 792
55.0152 682
55.03531 636
55.05543 534
55.07554 406
55.09565 293
55.11577 284
55.13588 273
55.15599 257
55.17611 318
55.19622 331
55.21634 378
55.23645 421
55.25656 530
55.27668 547
55.29679 650
55.3169 673
55.33702 638
55.35713 501
55.37724 404
55.39736 350
55.41747 392
55.43759 385
55.4577 370
55.47781 381
55.49793 334
55.51804 281
55.53815 210
55.55827 204
55.57838 155
55.5985 145
55.61861 159
55.63872 159
55.65884 166
55.67895 147
55.69906 140
55.71918 120
55.73929 145
55.75941 129
55.77952 135
55.79963 130
55.81975 136
55.83986 138
55.85997 135
55.88009 141
55.9002 138
55.92031 139
55.94043 123
55.96054 130
55.98066 138
56.00077 105
56.02088 134
56.041 148
56.06111 128
56.08122 122
56.10134 112
56.12145 132
56.14157 106
56.16168 120
56.18179 102
56.20191 112
56.22202 128
56.24213 122
56.26225 137
56.28236 115
56.30248 116
56.32259 114
56.3427 138
56.36282 124
56.38293 106
56.40304 111
56.42316 118
56.44327 106
56.46338 104
56.4835 121
56.50361 127
56.52373 111
56.54384 112
56.56395 112
56.58407 123
56.60418 141
56.62429 142
56.64441 128
56.66452 140
56.68464 109
56.70475 122
56.72486 133
56.74498 144
56.76509 114
56.7852 120
56.80532 128
56.82543 104
56.84554 123
56.86566 108
56.88577 111
56.90589 136
56.926 113
56.94611 135
56.96623 142
56.98634 138
57.00645 111
57.02657 114
57.04668 132
57.0668 139
57.08691 123
57.10702 141
57.12714 169
57.14725 169
57.16736 174
57.18748 179
57.20759 196
57.22771 198
57.24782 189
57.26793 154
57.28805 133
57.30816 167
57.32827 146
57.34839 155
57.3685 176
57.38861 157
57.40873 165
57.42884 139
57.44896 118
57.46907 114
57.48918 142
57.5093 129
57.52941 122
57.54952 116
57.56964 133
57.58975 114
57.60987 117
57.62998 117
57.65009 122
57.67021 109
57.69032 122
57.71043 121
57.73055 107
57.75066 135
57.77078 154
57.79089 129
57.811 138
57.83112 128
57.85123 124
57.87134 128
57.89146 138
57.91157 127
57.93168 115
57.9518 115
57.97191 100
57.99203 110
58.01214 117
58.03225 127
58.05237 137
58.07248 146
58.09259 125
58.11271 124
58.13282 133
58.15294 113
58.17305 118
58.19316 128
58.21328 128
58.23339 132
58.2535 123
58.27362 134
58.29373 124
58.31385 123
58.33396 134
58.35407 127
58.37419 125
58.3943 128
58.41441 131
58.43453 115
58.45464 142
58.47475 140
58.49487 119
58.51498 147
58.5351 154
58.55521 135
58.57532 155
58.59544 137
58.61555 120
58.63566 129
58.65578 134
58.67589 121
58.69601 138
58.71612 133
58.73623 128
58.75635 123
58.77646 125
58.79657 138
58.81669 121
58.8368 129
58.85691 143
58.87703 111
58.89714 133
58.91726 131
58.93737 124
58.95748 125
58.9776 111
58.99771 135
59.01782 137
59.03794 132
59.05805 128
59.07817 128
59.09828 119
59.11839 151
59.13851 154
59.15862 115
59.17873 138
59.19885 127
59.21896 148
59.23908 149
59.25919 125
59.2793 139
59.29942 143
59.31953 160
59.33964 130
59.35976 163
59.37987 150
59.39998 142
59.4201 179
59.44021 171
59.46033 178
59.48044 178
59.50055 190
59.52067 174
59.54078 210
59.56089 225
59.58101 240
59.60112 237
59.62124 258
59.64135 325
59.66146 311
59.68158 370
59.70169 386
59.7218 447
59.74192 505
59.76203 668
59.78215 734
59.80226 890
59.82237 1108
59.84249 1439
59.8626 1705
59.88271 2078
59.90283 2454
59.92294 2804
59.94305 2840
59.96317 2694
59.98328 2236
60.0034 1649
60.02351 1381
60.04362 1370
60.06374 1327
60.08385 1507
60.10396 1477
60.12408 1307
60.14419 1152
60.16431 737
60.18442 539
60.20453 365
60.22465 321
60.24476 265
60.26487 264
60.28499 201
60.3051 168
60.32522 199
60.34533 193
60.36544 169
60.38556 175
60.40567 173
60.42578 155
60.4459 166
60.46601 172
60.48612 161
60.50624 164
60.52635 160
60.54647 151
60.56658 149
60.58669 157
60.60681 140
60.62692 139
60.64703 132
60.66715 156
60.68726 143
60.70738 133
60.72749 140
60.7476 150
60.76772 129
60.78783 152
60.80794 123
60.82806 122
60.84817 148
60.86828 132
60.8884 147
60.90851 118
60.92863 139
60.94874 127
60.96885 134
60.98897 138
61.00908 114
61.02919 118
61.04931 133
61.06942 121
61.08954 133
61.10965 111
61.12976 123
61.14988 106
61.16999 122
61.1901 119
61.21022 134
61.23033 118
61.25045 126
61.27056 105
61.29067 126
61.31079 121
61.3309 127
61.35101 125
61.37113 115
61.39124 110
61.41135 140
61.43147 128
61.45158 137
61.4717 120
61.49181 136
61.51192 113
61.53204 140
61.55215 139
61.57226 134
61.59238 117
61.61249 121
61.63261 112
61.65272 128
61.67283 138
61.69295 129
61.71306 124
61.73317 110
61.75329 138
61.7734 127
61.79352 123
61.81363 132
61.83374 118
61.85386 128
61.87397 151
61.89408 115
61.9142 122
61.93431 137
61.95442 120
61.97454 127
61.99465 135
62.01477 134
62.03488 117
62.05499 123
62.07511 114
62.09522 122
62.11533 149
62.13545 133
62.15556 148
62.17568 116
62.19579 117
62.2159 138
62.23602 141
62.25613 149
62.27624 144
62.29636 129
62.31647 122
62.33659 124
62.3567 112
62.37681 118
62.39693 130
62.41704 119
62.43715 145
62.45727 128
62.47738 111
62.49749 139
62.51761 126
62.53772 129
62.55784 105
62.57795 128
62.59806 106
62.61818 113
62.63829 137
62.6584 113
62.67852 108
62.69863 116
62.71875 108
62.73886 100
62.75897 99
62.77909 151
62.7992 131
62.81931 108
62.83943 140
62.85954 124
62.87965 132
62.89977 123
62.91988 119
62.94 125
62.96011 120
62.98022 125
63.00034 123
63.02045 135
63.04056 138
63.06068 118
63.08079 139
63.10091 134
63.12102 129
63.14113 111
63.16125 124
63.18136 138
63.20147 110
63.22159 125
63.2417 123
63.26182 129
63.28193 119
63.30204 138
63.32216 128
63.34227 87
63.36238 117
63.3825 125
63.40261 142
63.42272 130
63.44284 104
63.46295 131
63.48307 128
63.50318 101
63.52329 133
63.54341 132
63.56352 129
63.58363 115
63.60375 111
63.62386 123
63.64398 147
63.66409 165
63.6842 141
63.70432 155
63.72443 155
63.74454 146
63.76466 164
63.78477 170
63.80489 175
63.825 192
63.84511 204
63.86523 246
63.88534 248
63.90545 325
63.92557 352
63.94568 394
63.96579 470
63.98591 530
64.00602 591
64.02614 553
64.04625 533
64.06636 443
64.08648 360
64.10659 310
64.1267 334
64.14682 335
64.16693 311
64.18705 346
64.20716 341
64.22727 318
64.24739 295
64.2675 201
64.28761 159
64.30773 157
64.32784 135
64.34796 132
64.36807 124
64.38818 145
64.4083 135
64.42841 125
64.44852 140
64.46864 122
64.48875 113
64.50886 116
64.52898 112
64.54909 139
64.56921 104
64.58932 111
64.60943 105
64.62955 110
64.64966 105
64.66977 120
64.68989 105
64.71 130
64.73012 116
64.75023 107
64.77034 119
64.79046 119
64.81057 110
64.83068 131
64.8508 116
64.87091 109
64.89102 117
64.91114 109
64.93125 133
64.95137 136
64.97148 126
64.99159 110
65.01171 128
65.03182 105
65.05193 123
65.07205 130
65.09216 115
65.11228 124
65.13239 128
65.1525 114
65.17262 121
65.19273 105
65.21284 125
65.23296 108
65.25307 105
65.27319 124
65.2933 110
65.31341 123
65.33353 134
65.35364 104
65.37375 113
65.39387 112
65.41398 133
65.43409 122
65.45421 119
65.47432 137
65.49444 145
65.51455 132
65.53466 146
65.55478 133
65.57489 138
65.595 164
65.61512 167
65.63523 169
65.65535 200
65.67546 181
65.69557 194
65.71569 235
65.7358 259
65.75591 227
65.77603 224
65.79614 208
65.81626 218
65.83637 175
65.85648 197
65.8766 163
65.89671 187
65.91682 198
65.93694 202
65.95705 201
65.97716 188
65.99728 164
66.01739 143
66.03751 128
66.05762 142
66.07773 119
66.09785 136
66.11796 112
66.13807 136
66.15819 124
66.1783 125
66.19842 126
66.21853 117
66.23864 120
66.25876 126
66.27887 116
66.29898 120
66.3191 134
66.33921 114
66.35933 107
66.37944 141
66.39955 97
66.41967 129
66.43978 151
66.45989 136
66.48001 133
66.50012 141
66.52023 140
66.54035 126
66.56046 113
66.58058 123
66.60069 131
66.6208 141
66.64092 115
66.66103 129
66.68114 146
66.70126 125
66.72137 117
66.74149 145
66.7616 121
66.78171 117
66.80183 143
66.82194 132
66.84205 148
66.86217 125
66.88228 138
66.90239 148
66.92251 136
66.94262 132
66.96274 134
66.98285 136
67.00296 133
67.02308 122
67.04319 145
67.0633 141
67.08342 146
67.10353 138
67.12365 136
67.14376 153
67.16387 149
67.18399 150
67.2041 155
67.22421 157
67.24433 187
67.26444 172
67.28456 181
67.30467 173
67.32478 214
67.3449 227
67.36501 192
67.38512 236
67.40524 245
67.42535 254
67.44546 260
67.46558 288
67.48569 339
67.50581 380
67.52592 377
67.54603 413
67.56615 529
67.58626 591
67.60637 766
67.62649 905
67.6466 1060
67.66672 1352
67.68683 1463
67.70694 1540
67.72706 1611
67.74717 1529
67.76728 1300
67.7874 1034
67.80751 914
67.82763 865
67.84774 849
67.86785 1010
67.88797 1018
67.90808 1175
67.92819 1177
67.94831 1073
67.96842 1019
67.98853 1062
68.00865 1099
68.02876 1258
68.04888 1492
68.06899 1635
68.0891 1895
68.10922 2187
68.12933 2099
68.14944 2025
68.16956 1947
68.18967 1653
68.20979 1548
68.2299 1671
68.25001 1743
68.27013 1854
68.29024 1977
68.31035 1892
68.33047 1761
68.35058 1446
68.3707 1122
68.39081 876
68.41092 767
68.43104 757
68.45115 746
68.47126 674
68.49138 688
68.51149 605
68.5316 482
68.55172 393
68.57183 293
68.59195 264
68.61206 227
68.63217 208
68.65229 214
68.6724 191
68.69251 181
68.71263 167
68.73274 176
68.75286 150
68.77297 174
68.79308 166
68.8132 162
68.83331 156
68.85342 164
68.87354 151
68.89365 139
68.91376 136
68.93388 147
68.95399 140
68.97411 140
68.99422 135
69.01433 147
69.03445 121
69.05456 129
69.07467 130
69.09479 121
69.1149 131
69.13502 127
69.15513 128
69.17524 128
69.19536 114
69.21547 105
69.23558 128
69.2557 111
69.27581 123
69.29593 125
69.31604 129
69.33615 106
69.35627 131
69.37638 115
69.39649 128
69.41661 123
69.43672 129
69.45683 103
69.47695 122
69.49706 115
69.51718 119
69.53729 126
69.5574 118
69.57752 121
69.59763 125
69.61774 117
69.63786 112
69.65797 122
69.67809 122
69.6982 118
69.71831 89
69.73843 125
69.75854 118
69.77865 85
69.79877 99
69.81888 128
69.839 129
69.85911 99
69.87922 116
69.89934 118
69.91945 103
69.93956 108
69.95968 100
69.97979 112
69.9999 126
70.02002 101
70.04013 125
70.06025 119
70.08036 111
70.10047 106
70.12059 93
70.1407 97
70.16081 112
70.18093 106
70.20104 110
70.22116 118
70.24127 114
70.26138 97
70.2815 116
70.30161 116
70.32172 123
70.34184 112
70.36195 116
70.38207 103
70.40218 118
70.42229 100
70.44241 111
70.46252 135
70.48263 112
70.50275 127
70.52286 100
70.54297 96
70.56309 114
70.5832 103
70.60332 111
70.62343 110
70.64354 119
70.66366 104
70.68377 94
70.70388 88
70.724 92
70.74411 97
70.76423 120
70.78434 131
70.80445 116
70.82457 94
70.84468 107
70.86479 112
70.88491 131
70.90502 107
70.92513 119
70.94525 103
70.96536 128
70.98548 114
71.00559 110
71.0257 110
71.04582 114
71.06593 99
71.08604 101
71.10616 107
71.12627 107
71.14639 121
71.1665 115
71.18661 112
71.20673 120
71.22684 102
71.24695 124
71.26707 98
71.28718 116
71.3073 99
71.32741 99
71.34752 114
71.36764 117
71.38775 123
71.40786 109
71.42798 94
71.44809 103
71.4682 101
71.48832 121
71.50843 101
71.52855 98
71.54866 100
71.56877 122
71.58889 117
71.609 117
71.62911 116
71.64923 120
71.66934 116
71.68946 120
71.70957 118
71.72968 108
71.7498 121
71.76991 115
71.79002 93
71.81014 111
71.83025 122
71.85037 103
71.87048 121
71.89059 118
71.91071 123
71.93082 136
71.95093 122
71.97105 123
71.99116 111
72.01127 110
72.03139 91
72.0515 111
72.07162 109
72.09173 127
72.11184 104
72.13196 89
72.15207 126
72.17218 113
72.1923 105
72.21241 108
72.23253 121
72.25264 117
72.27275 99
72.29287 114
72.31298 104
72.33309 99
72.35321 124
72.37332 110
72.39344 119
72.41355 114
72.43366 122
72.45378 107
72.47389 111
72.494 102
72.51412 116
72.53423 98
72.55434 91
72.57446 115
72.59457 121
72.61469 114
72.6348 122
72.65491 134
72.67503 110
72.69514 97
72.71525 107
72.73537 86
72.75548 112
72.7756 126
72.79571 106
72.81582 102
72.83594 116
72.85605 116
72.87616 110
72.89628 120
72.91639 124
72.9365 112
72.95662 126
72.97673 131
72.99685 103
73.01696 139
73.03707 147
73.05719 134
73.0773 121
73.09741 123
73.11753 126
73.13764 161
73.15776 156
73.17787 139
73.19798 151
73.2181 154
73.23821 210
73.25832 214
73.27844 248
73.29855 246
73.31867 300
73.33878 371
73.35889 430
73.37901 477
73.39912 561
73.41923 575
73.43935 577
73.45946 557
73.47957 506
73.49969 417
73.5198 381
73.53992 286
73.56003 268
73.58014 304
73.60026 333
73.62037 335
73.64048 345
73.6606 374
73.68071 340
73.70083 304
73.72094 225
73.74105 180
73.76117 165
73.78128 139
73.80139 134
73.82151 151
73.84162 128
73.86174 135
73.88185 124
73.90196 110
73.92208 131
73.94219 138
73.9623 127
73.98242 111
74.00253 108
74.02264 101
74.04276 121
74.06287 107
74.08299 94
74.1031 118
74.12321 103
74.14333 115
74.16344 116
74.18355 122
74.20367 103
74.22378 106
74.2439 130
74.26401 104
74.28412 114
74.30424 138
74.32435 118
74.34446 99
74.36458 115
74.38469 117
74.40481 113
74.42492 110
74.44503 104
74.46515 127
74.48526 114
74.50537 132
74.52549 114
74.5456 106
74.56571 94
74.58583 119
74.60594 92
74.62606 99
74.64617 121
74.66628 129
74.6864 111
74.70651 103
74.72662 104
74.74674 117
74.76685 121
74.78697 136
74.80708 118
74.82719 118
74.84731 117
74.86742 119
74.88753 101
74.90765 108
74.92776 108
74.94787 110
74.96799 115
74.9881 112
75.00822 117
