3.00117 20764
3.02128 20146
3.0414 19713
3.06151 18963
3.08162 18436
3.10174 17893
3.12185 17550
3.14197 16913
3.16208 16252
3.18219 16004
3.20231 15579
3.22242 15183
3.24253 14933
3.26265 13934
3.28276 13453
3.30288 13180
3.32299 12623
3.3431 12466
3.36322 11899
3.38333 11716
3.40344 11397
3.42356 10787
3.44367 10397
3.46379 9952
3.4839 9747
3.50401 9442
3.52413 9096
3.54424 8875
3.56435 8314
3.58447 8099
3.60458 7824
3.62469 7445
3.64481 7448
3.66492 6743
3.68504 6753
3.70515 6619
3.72526 6054
3.74538 6081
3.76549 5601
3.7856 5322
3.80572 5192
3.82583 4916
3.84595 4824
3.86606 4473
3.88617 4386
3.90629 4322
3.9264 3985
3.94651 3943
3.96663 3639
3.98674 3424
4.00686 3388
4.02697 3266
4.04708 3071
4.0672 2827
4.08731 2760
4.10742 2821
4.12754 2609
4.14765 2481
4.16776 2379
4.18788 2268
4.20799 2195
4.22811 2001
4.24822 1971
4.26833 1892
4.28845 1809
4.30856 1813
4.32867 1781
4.34879 1676
4.3689 1579
4.38902 1549
4.40913 1551
4.42924 1543
4.44936 1480
4.46947 1277
4.48958 1258
4.5097 1372
4.52981 1398
4.54992 1235
4.57004 1214
4.59015 1156
4.61027 1196
4.63038 1165
4.65049 1108
4.67061 1093
4.69072 998
4.71083 1019
4.73095 1016
4.75106 1003
4.77118 990
4.79129 884
4.8114 927
4.83152 897
4.85163 810
4.87174 835
4.89186 779
4.91197 800
4.93209 802
4.9522 746
4.97231 764
4.99243 698
5.01254 749
5.03265 750
5.05277 604
5.07288 675
5.09299 605
5.11311 632
5.13322 604
5.15334 564
5.17345 574
5.19356 579
5.21368 585
5.23379 572
5.2539 508
5.27402 513
5.29413 473
5.31425 504
5.33436 495
5.35447 470
5.37459 458
5.3947 481
5.41481 444
5.43493 400
5.45504 412
5.47516 450
5.49527 378
5.51538 363
5.5355 420
5.55561 367
5.57572 359
5.59584 333
5.61595 321
5.63606 332
5.65618 339
5.67629 289
5.69641 349
5.71652 308
5.73663 321
5.75675 312
5.77686 338
5.79697 282
5.81709 281
5.8372 303
5.85732 309
5.87743 309
5.89754 291
5.91766 281
5.93777 281
5.95788 283
5.978 293
5.99811 254
6.01823 242
6.03834 244
6.05845 246
6.07857 203
6.09868 225
6.11879 267
6.13891 247
6.15902 228
6.17913 247
6.19925 221
6.21936 238
6.23948 241
6.25959 231
6.2797 218
6.29982 213
6.31993 215
6.34004 224
6.36016 220
6.38027 190
6.40039 261
6.4205 221
6.44061 235
6.46073 236
6.48084 233
6.50095 226
6.52107 219
6.54118 205
6.56129 191
6.58141 215
6.60152 243
6.62164 205
6.64175 201
6.66186 191
6.68198 204
6.70209 230
6.7222 197
6.74232 207
6.76243 241
6.78255 201
6.80266 204
6.82277 231
6.84289 228
6.863 244
6.88311 222
6.90323 203
6.92334 190
6.94346 198
6.96357 201
6.98368 193
7.0038 205
7.02391 195
7.04402 200
7.06414 222
7.08425 211
7.10436 213
7.12448 200
7.14459 213
7.16471 200
7.18482 191
7.20493 227
7.22505 221
7.24516 186
7.26527 234
7.28539 208
7.3055 211
7.32562 207
7.34573 185
7.36584 213
7.38596 193
7.40607 202
7.42618 223
7.4463 198
7.46641 225
7.48653 203
7.50664 236
7.52675 184
7.54687 187
7.56698 206
7.58709 228
7.60721 229
7.62732 239
7.64743 222
7.66755 235
7.68766 212
7.70778 195
7.72789 231
7.748 223
7.76812 199
7.78823 203
7.80834 170
7.82846 226
7.84857 205
7.86869 236
7.8888 213
7.90891 192
7.92903 201
7.94914 201
7.96925 216
7.98937 213
8.00948 225
8.0296 206
8.04971 237
8.06982 201
8.08994 259
8.11005 245
8.13016 200
8.15028 215
8.17039 244
8.1905 196
8.21062 236
8.23073 207
8.25085 187
8.27096 242
8.29107 228
8.31119 239
8.3313 224
8.35141 212
8.37153 241
8.39164 217
8.41176 231
8.43187 211
8.45198 230
8.4721 213
8.49221 212
8.51232 254
8.53244 236
8.55255 230
8.57266 224
8.59278 243
8.61289 218
8.63301 214
8.65312 275
8.67323 234
8.69335 235
8.71346 246
8.73357 244
8.75369 255
8.7738 289
8.79392 249
8.81403 239
8.83414 251
8.85426 227
8.87437 236
8.89448 226
8.9146 255
8.93471 229
8.95483 252
8.97494 218
8.99505 239
9.01517 226
9.03528 211
9.05539 228
9.07551 231
9.09562 246
9.11573 226
9.13585 220
9.15596 232
9.17608 228
9.19619 269
9.2163 224
9.23642 249
9.25653 234
9.27664 245
9.29676 200
9.31687 201
9.33699 244
9.3571 248
9.37721 194
9.39733 251
9.41744 224
9.43755 213
9.45767 230
9.47778 240
9.4979 208
9.51801 236
9.53812 242
9.55824 233
9.57835 245
9.59846 223
9.61858 239
9.63869 203
9.6588 217
9.67892 219
9.69903 215
9.71915 245
9.73926 235
9.75937 236
9.77949 240
9.7996 260
9.81971 241
9.83983 230
9.85994 225
9.88006 267
9.90017 218
9.92028 222
9.9404 237
9.96051 249
9.98062 235
10.00074 218
10.02085 219
10.04097 249
10.06108 221
10.08119 230
10.10131 215
10.12142 242
10.14153 249
10.16165 224
10.18176 238
10.20187 240
10.22199 250
10.2421 229
10.26222 245
10.28233 246
10.30244 219
10.32256 239
10.34267 215
10.36278 223
10.3829 205
10.40301 230
10.42313 251
10.44324 235
10.46335 232
10.48347 240
10.50358 250
10.52369 240
10.54381 235
10.56392 239
10.58403 248
10.60415 241
10.62426 221
10.64438 231
10.66449 228
10.6846 246
10.70472 229
10.72483 236
10.74494 240
10.76506 256
10.78517 239
10.80529 218
10.8254 228
10.84551 237
10.86563 190
10.88574 251
10.90585 204
10.92597 219
10.94608 236
10.9662 225
10.98631 254
11.00642 238
11.02654 241
11.04665 255
11.06676 245
11.08688 257
11.10699 222
11.1271 232
11.14722 222
11.16733 224
11.18745 215
11.20756 238
11.22767 243
11.24779 202
11.2679 220
11.28801 247
11.30813 243
11.32824 204
11.34836 248
11.36847 242
11.38858 228
11.4087 244
11.42881 251
11.44892 240
11.46904 258
11.48915 233
11.50927 230
11.52938 238
11.54949 262
11.56961 235
11.58972 250
11.60983 253
11.62995 238
11.65006 278
11.67017 227
11.69029 255
11.7104 241
11.73052 223
11.75063 219
11.77074 236
11.79086 268
11.81097 288
11.83108 238
11.8512 284
11.87131 246
11.89143 254
11.91154 245
11.93165 224
11.95177 251
11.97188 241
11.99199 241
12.01211 253
12.03222 237
12.05234 237
12.07245 237
12.09256 220
12.11268 250
12.13279 258
12.1529 282
12.17302 276
12.19313 239
12.21324 271
12.23336 249
12.25347 246
12.27359 255
12.2937 271
12.31381 283
12.33393 259
12.35404 272
12.37415 250
12.39427 241
12.41438 256
12.4345 238
12.45461 260
12.47472 267
12.49484 265
12.51495 209
12.53506 225
12.55518 239
12.57529 250
12.5954 250
12.61552 207
12.63563 225
12.65575 212
12.67586 250
12.69597 205
12.71609 190
12.7362 197
12.75631 218
12.77643 204
12.79654 194
12.81666 216
12.83677 198
12.85688 220
12.877 212
12.89711 205
12.91722 205
12.93734 194
12.95745 218
12.97757 196
12.99768 224
13.01779 218
13.03791 219
13.05802 233
13.07813 229
13.09825 234
13.11836 177
13.13847 197
13.15859 199
13.1787 206
13.19882 220
13.21893 218
13.23904 186
13.25916 197
13.27927 202
13.29938 215
13.3195 205
13.33961 200
13.35973 228
13.37984 194
13.39995 183
13.42007 228
13.44018 240
13.46029 237
13.48041 215
13.50052 217
13.52064 202
13.54075 191
13.56086 204
13.58098 209
13.60109 203
13.6212 215
13.64132 207
13.66143 196
13.68154 211
13.70166 183
13.72177 187
13.74189 185
13.762 234
13.78211 180
13.80223 193
13.82234 203
13.84245 184
13.86257 218
13.88268 162
13.9028 179
13.92291 201
13.94302 203
13.96314 170
13.98325 205
14.00336 207
14.02348 194
14.04359 176
14.06371 205
14.08382 177
14.10393 192
14.12405 194
14.14416 188
14.16427 194
14.18439 191
14.2045 194
14.22461 177
14.24473 221
14.26484 171
14.28496 201
14.30507 177
14.32518 187
14.3453 190
14.36541 198
14.38552 186
14.40564 173
14.42575 205
14.44587 204
14.46598 175
14.48609 203
14.50621 197
14.52632 181
14.54643 191
14.56655 142
14.58666 184
14.60677 208
14.62689 193
14.647 175
14.66712 183
14.68723 183
14.70734 209
14.72746 186
14.74757 164
14.76768 182
14.7878 197
14.80791 191
14.82803 206
14.84814 191
14.86825 166
14.88837 187
14.90848 183
14.92859 180
14.94871 192
14.96882 194
14.98894 190
15.00905 168
15.02916 188
15.04928 188
15.06939 179
15.0895 177
15.10962 169
15.12973 193
15.14984 194
15.16996 174
15.19007 161
15.21019 168
15.2303 212
15.25041 196
15.27053 184
15.29064 195
15.31075 155
15.33087 191
15.35098 211
15.3711 183
15.39121 179
15.41132 164
15.43144 151
15.45155 169
15.47166 200
15.49178 206
15.51189 182
15.53201 182
15.55212 165
15.57223 172
15.59235 169
15.61246 149
15.63257 188
15.65269 191
15.6728 179
15.69291 170
15.71303 167
15.73314 181
15.75326 192
15.77337 191
15.79348 192
15.8136 153
15.83371 159
15.85382 187
15.87394 166
15.89405 181
15.91417 175
15.93428 182
15.95439 183
15.97451 172
15.99462 190
16.01473 190
16.03485 171
16.05496 172
16.07508 182
16.09519 182
16.1153 173
16.13542 204
16.15553 160
16.17564 161
16.19576 188
16.21587 171
16.23598 178
16.2561 183
16.27621 182
16.29633 191
16.31644 145
16.33655 158
16.35667 140
16.37678 173
16.39689 172
16.41701 154
16.43712 180
16.45724 183
16.47735 183
16.49746 185
16.51758 180
16.53769 169
16.5578 162
16.57792 172
16.59803 169
16.61814 184
16.63826 179
16.65837 180
16.67849 179
16.6986 176
16.71871 143
16.73883 142
16.75894 169
16.77905 172
16.79917 167
16.81928 190
16.8394 178
16.85951 161
16.87962 169
16.89974 165
16.91985 181
16.93996 162
16.96008 194
16.98019 186
17.00031 163
17.02042 164
17.04053 176
17.06065 161
17.08076 159
17.10087 177
17.12099 192
17.1411 165
17.16121 186
17.18133 151
17.20144 148
17.22156 184
17.24167 170
17.26178 201
17.2819 175
17.30201 173
17.32212 161
17.34224 156
17.36235 174
17.38247 157
17.40258 168
17.42269 169
17.44281 185
17.46292 186
17.48303 170
17.50315 212
17.52326 182
17.54338 167
17.56349 154
17.5836 180
17.60372 164
17.62383 176
17.64394 164
17.66406 164
17.68417 176
17.70428 158
17.7244 160
17.74451 162
17.76463 166
17.78474 199
17.80485 178
17.82497 179
17.84508 152
17.86519 163
17.88531 195
17.90542 183
17.92554 179
17.94565 174
17.96576 173
17.98588 153
18.00599 179
18.0261 171
18.04622 169
18.06633 181
18.08645 158
18.10656 149
18.12667 163
18.14679 154
18.1669 155
18.18701 162
18.20713 161
18.22724 148
18.24735 187
18.26747 182
18.28758 164
18.3077 160
18.32781 185
18.34792 171
18.36804 177
18.38815 154
18.40826 181
18.42838 167
18.44849 169
18.46861 169
18.48872 176
18.50883 181
18.52895 162
18.54906 144
18.56917 168
18.58929 167
18.6094 183
18.62951 149
18.64963 218
18.66974 165
18.68986 173
18.70997 191
18.73008 191
18.7502 197
18.77031 193
18.79042 177
18.81054 160
18.83065 190
18.85077 204
18.87088 157
18.89099 173
18.91111 180
18.93122 157
18.95133 183
18.97145 177
18.99156 156
19.01168 157
19.03179 193
19.0519 146
19.07202 173
19.09213 175
19.11224 170
19.13236 184
19.15247 165
19.17258 180
19.1927 153
19.21281 174
19.23293 181
19.25304 185
19.27315 165
19.29327 167
19.31338 170
19.33349 217
19.35361 195
19.37372 193
19.39384 200
19.41395 182
19.43406 169
19.45418 180
19.47429 181
19.4944 202
19.51452 195
19.53463 190
19.55475 185
19.57486 189
19.59497 180
19.61509 243
19.6352 195
19.65531 206
19.67543 192
19.69554 227
19.71565 263
19.73577 225
19.75588 273
19.776 258
19.79611 286
19.81622 302
19.83634 277
19.85645 296
19.87656 279
19.89668 284
19.91679 304
19.93691 307
19.95702 281
19.97713 263
19.99725 277
20.01736 293
20.03747 255
20.05759 289
20.0777 283
20.09782 286
20.11793 308
20.13804 283
20.15816 320
20.17827 347
20.19838 316
20.2185 320
20.23861 293
20.25872 314
20.27884 341
20.29895 333
20.31907 295
20.33918 377
20.35929 329
20.37941 321
20.39952 346
20.41963 354
20.43975 361
20.45986 375
20.47998 394
20.50009 399
20.5202 359
20.54032 431
20.56043 441
20.58054 469
20.60066 469
20.62077 499
20.64088 545
20.661 659
20.68111 798
20.70123 1025
20.72134 1405
20.74145 1954
20.76157 2868
20.78168 4097
20.80179 5665
20.82191 7332
20.84202 8682
20.86214 9178
20.88225 8260
20.90236 6338
20.92248 4507
20.94259 2889
20.9627 1709
20.98282 1081
21.00293 807
21.02305 625
21.04316 622
21.06327 549
21.08339 531
21.1035 448
21.12361 456
21.14373 407
21.16384 382
21.18395 338
21.20407 367
21.22418 333
21.2443 322
21.26441 348
21.28452 278
21.30464 320
21.32475 292
21.34486 291
21.36498 286
21.38509 269
21.40521 275
21.42532 253
21.44543 263
21.46555 298
21.48566 297
21.50577 281
21.52589 277
21.546 248
21.56612 259
21.58623 266
21.60634 264
21.62646 218
21.64657 233
21.66668 227
21.6868 233
21.70691 247
21.72702 269
21.74714 235
21.76725 207
21.78737 219
21.80748 244
21.82759 268
21.84771 270
21.86782 233
21.88793 270
21.90805 233
21.92816 232
21.94828 231
21.96839 254
21.9885 232
22.00862 229
22.02873 255
22.04884 248
22.06896 232
22.08907 245
22.10919 225
22.1293 238
22.14941 231
22.16953 237
22.18964 223
22.20975 234
22.22987 245
22.24998 241
22.27009 251
22.29021 259
22.31032 253
22.33044 235
22.35055 209
22.37066 217
22.39078 225
22.41089 223
22.431 218
22.45112 205
22.47123 233
22.49135 218
22.51146 230
22.53157 212
22.55169 228
22.5718 222
22.59191 236
22.61203 204
22.63214 250
22.65225 217
22.67237 235
22.69248 255
22.7126 218
22.73271 217
22.75282 244
22.77294 194
22.79305 204
22.81316 233
22.83328 220
22.85339 199
22.87351 196
22.89362 192
22.91373 226
22.93385 202
22.95396 246
22.97407 197
22.99419 229
23.0143 227
23.03442 247
23.05453 242
23.07464 199
23.09476 223
23.11487 223
23.13498 204
23.1551 223
23.17521 250
23.19532 283
23.21544 236
23.23555 257
23.25567 220
23.27578 263
23.29589 187
23.31601 250
23.33612 190
23.35623 203
23.37635 213
23.39646 244
23.41658 194
23.43669 192
23.4568 217
23.47692 225
23.49703 221
23.51714 209
23.53726 238
23.55737 218
23.57749 209
23.5976 221
23.61771 210
23.63783 199
23.65794 253
23.67805 185
23.69817 220
23.71828 218
23.73839 226
23.75851 260
23.77862 228
23.79874 239
23.81885 237
23.83896 207
23.85908 236
23.87919 264
23.8993 230
23.91942 270
23.93953 272
23.95965 326
23.97976 313
23.99987 359
24.01999 344
24.0401 306
24.06021 277
24.08033 231
24.10044 264
24.12056 228
24.14067 221
24.16078 218
24.1809 207
24.20101 248
24.22112 225
24.24124 233
24.26135 222
24.28146 217
24.30158 216
24.32169 219
24.34181 223
24.36192 221
24.38203 250
24.40215 212
24.42226 206
24.44237 203
24.46249 216
24.4826 241
24.50272 224
24.52283 210
24.54294 203
24.56306 194
24.58317 217
24.60328 222
24.6234 231
24.64351 257
24.66362 222
24.68374 269
24.70385 215
24.72397 249
24.74408 228
24.76419 225
24.78431 246
24.80442 219
24.82453 281
24.84465 243
24.86476 235
24.88488 243
24.90499 266
24.9251 242
24.94522 278
24.96533 254
24.98544 224
25.00556 225
25.02567 254
25.04579 221
25.0659 242
25.08601 201
25.10613 238
25.12624 269
25.14635 233
25.16647 250
25.18658 251
25.20669 274
25.22681 238
25.24692 252
25.26704 249
25.28715 258
25.30726 255
25.32738 226
25.34749 244
25.3676 238
25.38772 268
25.40783 233
25.42795 254
25.44806 251
25.46817 262
25.48829 276
25.5084 286
25.52851 330
25.54863 318
25.56874 281
25.58886 327
25.60897 347
25.62908 336
25.6492 356
25.66931 378
25.68942 411
25.70954 414
25.72965 398
25.74976 450
25.76988 436
25.78999 455
25.81011 436
25.83022 460
25.85033 472
25.87045 431
25.89056 459
25.91067 489
25.93079 488
25.9509 493
25.97102 485
25.99113 481
26.01124 536
26.03136 558
26.05147 503
26.07158 557
26.0917 614
26.11181 560
26.13193 664
26.15204 689
26.17215 683
26.19227 759
26.21238 822
26.23249 875
26.25261 905
26.27272 985
26.29283 1059
26.31295 1139
26.33306 1264
26.35318 1393
26.37329 1619
26.3934 1805
26.41352 2233
26.43363 2671
26.45374 3429
26.47386 4793
26.49397 6557
26.51409 9225
26.5342 13159
26.55431 18599
26.57443 25623
26.59454 32830
26.61465 39113
26.63477 41469
26.65488 38307
26.67499 30325
26.69511 23536
26.71522 17261
26.73534 11559
26.75545 6351
26.77556 3634
26.79568 2471
26.81579 1987
26.8359 1682
26.85602 1412
26.87613 1362
26.89625 1264
26.91636 1230
26.93647 1025
26.95659 952
26.9767 877
26.99681 839
27.01693 765
27.03704 696
27.05716 682
27.07727 613
27.09738 560
27.1175 532
27.13761 520
27.15772 492
27.17784 459
27.19795 508
27.21806 458
27.23818 425
27.25829 423
27.27841 434
27.29852 428
27.31863 453
27.33875 462
27.35886 477
27.37897 477
27.39909 449
27.4192 521
27.43932 502
27.45943 517
27.47954 496
27.49966 489
27.51977 465
27.53988 446
27.56 386
27.58011 362
27.60023 409
27.62034 324
27.64045 330
27.66057 331
27.68068 329
27.70079 342
27.72091 319
27.74102 302
27.76113 275
27.78125 349
27.80136 292
27.82148 288
27.84159 343
27.8617 317
27.88182 277
27.90193 300
27.92204 291
27.94216 297
27.96227 289
27.98239 291
28.0025 280
28.02261 305
28.04273 243
28.06284 270
28.08295 257
28.10307 286
28.12318 297
28.1433 276
28.16341 264
28.18352 269
28.20364 268
28.22375 266
28.24386 254
28.26398 230
28.28409 270
28.3042 246
28.32432 265
28.34443 254
28.36455 265
28.38466 212
28.40477 264
28.42489 241
28.445 233
28.46511 254
28.48523 240
28.50534 265
28.52546 228
28.54557 258
28.56568 261
28.5858 246
28.60591 265
28.62602 242
28.64614 260
28.66625 226
28.68636 251
28.70648 256
28.72659 234
28.74671 216
28.76682 234
28.78693 247
28.80705 248
28.82716 235
28.84727 217
28.86739 223
28.8875 248
28.90762 233
28.92773 238
28.94784 244
28.96796 247
28.98807 238
29.00818 240
29.0283 240
29.04841 252
29.06853 236
29.08864 249
29.10875 283
29.12887 247
29.14898 225
29.16909 203
29.18921 226
29.20932 252
29.22943 237
29.24955 244
29.26966 219
29.28978 248
29.30989 260
29.33 219
29.35012 249
29.37023 245
29.39034 252
29.41046 252
29.43057 218
29.45069 280
29.4708 224
29.49091 235
29.51103 214
29.53114 250
29.55125 219
29.57137 221
29.59148 213
29.6116 208
29.63171 214
29.65182 226
29.67194 211
29.69205 236
29.71216 215
29.73228 235
29.75239 213
29.7725 241
29.79262 213
29.81273 226
29.83285 229
29.85296 237
29.87307 194
29.89319 205
29.9133 203
29.93341 173
29.95353 201
29.97364 218
29.99376 212
30.01387 247
30.03398 224
30.0541 200
30.07421 209
30.09432 212
30.11444 228
30.13455 213
30.15467 238
30.17478 228
30.19489 218
30.21501 216
30.23512 216
30.25523 238
30.27535 237
30.29546 217
30.31557 235
30.33569 203
30.3558 194
30.37592 199
30.39603 227
30.41614 195
30.43626 201
30.45637 205
30.47648 221
30.4966 197
30.51671 217
30.53683 204
30.55694 200
30.57705 203
30.59717 196
30.61728 196
30.63739 187
30.65751 200
30.67762 186
30.69773 235
30.71785 207
30.73796 229
30.75808 196
30.77819 204
30.7983 237
30.81842 208
30.83853 240
30.85864 205
30.87876 214
30.89887 203
30.91899 212
30.9391 214
30.95921 209
30.97933 212
30.99944 216
31.01955 202
31.03967 177
31.05978 170
31.0799 209
31.10001 202
31.12012 205
31.14024 183
31.16035 191
31.18046 189
31.20058 175
31.22069 173
31.2408 191
31.26092 178
31.28103 190
31.30115 174
31.32126 182
31.34137 226
31.36149 166
31.3816 157
31.40171 157
31.42183 170
31.44194 200
31.46206 170
31.48217 182
31.50228 166
31.5224 170
31.54251 180
31.56262 196
31.58274 207
31.60285 176
31.62297 180
31.64308 168
31.66319 178
31.68331 171
31.70342 175
31.72353 169
31.74365 152
31.76376 180
31.78387 153
31.80399 157
31.8241 205
31.84422 169
31.86433 184
31.88444 193
31.90456 157
31.92467 162
31.94478 189
31.9649 167
31.98501 192
32.00513 178
32.02524 153
32.04535 194
32.06547 198
32.08558 178
32.10569 203
32.12581 179
32.14592 171
32.16604 181
32.18615 188
32.20626 167
32.22638 175
32.24649 155
32.2666 188
32.28672 183
32.30683 173
32.32694 157
32.34706 151
32.36717 156
32.38729 167
32.4074 195
32.42751 172
32.44763 201
32.46774 186
32.48785 203
32.50797 166
32.52808 185
32.5482 169
32.56831 183
32.58842 184
32.60854 185
32.62865 159
32.64876 178
32.66888 173
32.68899 159
32.7091 188
32.72922 154
32.74933 166
32.76945 156
32.78956 167
32.80967 161
32.82979 159
32.8499 167
32.87001 171
32.89013 192
32.91024 167
32.93036 179
32.95047 157
32.97058 176
32.9907 154
33.01081 169
33.03092 183
33.05104 169
33.07115 159
33.09127 158
33.11138 176
33.13149 182
33.15161 157
33.17172 191
33.19183 152
33.21195 156
33.23206 164
33.25217 158
33.27229 190
33.2924 165
33.31252 168
33.33263 166
33.35274 137
33.37286 168
33.39297 160
33.41308 149
33.4332 169
33.45331 160
33.47343 142
33.49354 148
33.51365 161
33.53377 154
33.55388 171
33.57399 158
33.59411 166
33.61422 155
33.63434 178
33.65445 161
33.67456 127
33.69468 169
33.71479 151
33.7349 162
33.75502 161
33.77513 160
33.79524 139
33.81536 176
33.83547 159
33.85559 170
33.8757 137
33.89581 159
33.91593 143
33.93604 154
33.95615 155
33.97627 149
33.99638 141
34.0165 143
34.03661 136
34.05672 158
34.07684 168
34.09695 150
34.11706 165
34.13718 156
34.15729 165
34.17741 165
34.19752 164
34.21763 149
34.23775 191
34.25786 176
34.27797 164
34.29809 146
34.3182 168
34.33831 175
34.35843 159
34.37854 177
34.39866 172
34.41877 182
34.43888 179
34.459 172
34.47911 173
34.49922 186
34.51934 190
34.53945 165
34.55957 179
34.57968 180
34.59979 171
34.61991 191
34.64002 178
34.66013 184
34.68025 183
34.70036 200
34.72047 195
34.74059 181
34.7607 205
34.78082 186
34.80093 192
34.82104 213
34.84116 216
34.86127 211
34.88138 207
34.9015 214
34.92161 221
34.94173 201
34.96184 230
34.98195 216
35.00207 201
35.02218 233
35.04229 214
35.06241 186
35.08252 204
35.10264 184
35.12275 217
35.14286 216
35.16298 195
35.18309 201
35.2032 220
35.22332 195
35.24343 178
35.26354 198
35.28366 193
35.30377 207
35.32389 194
35.344 196
35.36411 216
35.38423 202
35.40434 215
35.42445 188
35.44457 215
35.46468 211
35.4848 236
35.50491 210
35.52502 235
35.54514 215
35.56525 209
35.58536 210
35.60548 208
35.62559 197
35.64571 180
35.66582 224
35.68593 207
35.70605 200
35.72616 193
35.74627 196
35.76639 206
35.7865 207
35.80661 204
35.82673 203
35.84684 208
35.86696 201
35.88707 212
35.90718 208
35.9273 221
35.94741 218
35.96752 237
35.98764 224
36.00775 191
36.02787 205
36.04798 247
36.06809 208
36.08821 222
36.10832 218
36.12843 220
36.14855 239
36.16866 227
36.18878 253
36.20889 271
36.229 253
36.24912 270
36.26923 306
36.28934 337
36.30946 385
36.32957 427
36.34968 457
36.3698 593
36.38991 754
36.41003 953
36.43014 1140
36.45025 1488
36.47037 1832
36.49048 2252
36.51059 2761
36.53071 2829
36.55082 2599
36.57094 2203
36.59105 1807
36.61116 1571
36.63128 1391
36.65139 1125
36.6715 786
36.69162 495
36.71173 365
36.73184 334
36.75196 300
36.77207 274
36.79219 270
36.8123 274
36.83241 231
36.85253 235
36.87264 242
36.89275 238
36.91287 220
36.93298 216
36.9531 236
36.97321 202
36.99332 190
37.01344 214
37.03355 182
37.05366 179
37.07378 185
37.09389 171
37.11401 197
37.13412 195
37.15423 201
37.17435 191
37.19446 200
37.21457 192
37.23469 192
37.2548 186
37.27491 173
37.29503 201
37.31514 170
37.33526 182
37.35537 191
37.37548 187
37.3956 194
37.41571 184
37.43582 170
37.45594 184
37.47605 164
37.49617 162
37.51628 180
37.53639 196
37.55651 201
37.57662 206
37.59673 179
37.61685 165
37.63696 180
37.65708 171
37.67719 196
37.6973 190
37.71742 191
37.73753 174
37.75764 190
37.77776 169
37.79787 175
37.81798 190
37.8381 147
37.85821 204
37.87833 183
37.89844 185
37.91855 194
37.93867 190
37.95878 190
37.97889 169
37.99901 175
38.01912 177
38.03924 215
38.05935 180
38.07946 188
38.09958 177
38.11969 189
38.1398 219
38.15992 185
38.18003 191
38.20015 178
38.22026 202
38.24037 186
38.26049 190
38.2806 159
38.30071 215
38.32083 198
38.34094 181
38.36105 182
38.38117 196
38.40128 223
38.4214 171
38.44151 197
38.46162 207
38.48174 183
38.50185 193
38.52196 205
38.54208 201
38.56219 182
38.58231 201
38.60242 176
38.62253 187
38.64265 177
38.66276 202
38.68287 168
38.70299 174
38.7231 184
38.74321 176
38.76333 184
38.78344 190
38.80356 207
38.82367 196
38.84378 191
38.8639 173
38.88401 193
38.90412 221
38.92424 231
38.94435 209
38.96447 209
38.98458 209
39.00469 212
39.02481 214
39.04492 186
39.06503 226
39.08515 222
39.10526 219
39.12538 263
39.14549 260
39.1656 268
39.18572 265
39.20583 339
39.22594 333
39.24606 411
39.26617 409
39.28628 529
39.3064 679
39.32651 833
39.34663 1011
39.36674 1254
39.38685 1621
39.40697 1991
39.42708 2378
39.44719 2511
39.46731 2448
39.48742 2136
39.50754 1671
39.52765 1474
39.54776 1403
39.56788 1215
39.58799 931
39.6081 638
39.62822 414
39.64833 361
39.66845 303
39.68856 282
39.70867 229
39.72879 220
39.7489 225
39.76901 214
39.78913 212
39.80924 225
39.82935 227
39.84947 206
39.86958 216
39.8897 203
39.90981 218
39.92992 218
39.95004 244
39.97015 218
39.99026 286
40.01038 250
40.03049 240
40.05061 258
40.07072 279
40.09083 313
40.11095 371
40.13106 441
40.15117 481
40.17129 620
40.1914 745
40.21152 890
40.23163 1123
40.25174 1243
40.27186 1342
40.29197 1269
40.31208 1048
40.3322 878
40.35231 728
40.37242 740
40.39254 666
40.41265 552
40.43277 388
40.45288 289
40.47299 269
40.49311 248
40.51322 227
40.53333 221
40.55345 212
40.57356 191
40.59368 183
40.61379 188
40.6339 182
40.65402 177
40.67413 201
40.69424 181
40.71436 177
40.73447 163
40.75458 185
40.7747 173
40.79481 171
40.81493 174
40.83504 179
40.85515 164
40.87527 175
40.89538 173
40.91549 170
40.93561 147
40.95572 175
40.97584 163
40.99595 162
41.01606 178
41.03618 170
41.05629 177
41.0764 164
41.09652 170
41.11663 177
41.13675 197
41.15686 181
41.17697 178
41.19709 157
41.2172 177
41.23731 184
41.25743 169
41.27754 179
41.29765 140
41.31777 193
41.33788 177
41.358 185
41.37811 173
41.39822 169
41.41834 178
41.43845 178
41.45856 185
41.47868 167
41.49879 165
41.51891 140
41.53902 163
41.55913 173
41.57925 175
41.59936 175
41.61947 174
41.63959 165
41.6597 164
41.67982 192
41.69993 200
41.72004 200
41.74016 199
41.76027 202
41.78038 183
41.8005 184
41.82061 205
41.84072 210
41.86084 179
41.88095 189
41.90107 191
41.92118 175
41.94129 183
41.96141 166
41.98152 200
42.00163 183
42.02175 183
42.04186 205
42.06198 209
42.08209 210
42.1022 208
42.12232 235
42.14243 229
42.16254 281
42.18266 308
42.20277 297
42.22289 330
42.243 388
42.26311 450
42.28323 515
42.30334 601
42.32345 766
42.34357 950
42.36368 1269
42.38379 1522
42.40391 1732
42.42402 1790
42.44414 1774
42.46425 1617
42.48436 1254
42.50448 1100
42.52459 1069
42.5447 928
42.56482 754
42.58493 617
42.60505 422
42.62516 334
42.64527 280
42.66539 249
42.6855 263
42.70561 205
42.72573 223
42.74584 205
42.76595 178
42.78607 186
42.80618 201
42.8263 204
42.84641 174
42.86652 173
42.88664 166
42.90675 166
42.92686 176
42.94698 182
42.96709 154
42.98721 163
43.00732 168
43.02743 168
43.04755 164
43.06766 156
43.08777 142
43.10789 150
43.128 164
43.14812 146
43.16823 152
43.18834 154
43.20846 167
43.22857 169
43.24868 161
43.2688 168
43.28891 149
43.30902 159
43.32914 140
43.34925 134
43.36937 138
43.38948 173
43.40959 144
43.42971 142
43.44982 132
43.46993 156
43.49005 146
43.51016 143
43.53028 159
43.55039 153
43.5705 149
43.59062 151
43.61073 136
43.63084 162
43.65096 168
43.67107 159
43.69119 150
43.7113 154
43.73141 151
43.75153 145
43.77164 156
43.79175 152
43.81187 134
43.83198 152
43.85209 164
43.87221 134
43.89232 172
43.91244 152
43.93255 155
43.95266 158
43.97278 141
43.99289 137
44.013 144
44.03312 131
44.05323 164
44.07335 141
44.09346 157
44.11357 154
44.13369 145
44.1538 139
44.17391 155
44.19403 130
44.21414 152
44.23426 164
44.25437 131
44.27448 158
44.2946 148
44.31471 149
44.33482 162
44.35494 160
44.37505 158
44.39516 140
44.41528 154
44.43539 174
44.45551 162
44.47562 161
44.49573 150
44.51585 127
44.53596 162
44.55607 173
44.57619 151
44.5963 166
44.61642 167
44.63653 142
44.65664 148
44.67676 136
44.69687 141
44.71698 163
44.7371 153
44.75721 171
44.77732 150
44.79744 162
44.81755 147
44.83767 151
44.85778 155
44.87789 145
44.89801 132
44.91812 164
44.93823 157
44.95835 170
44.97846 163
44.99858 175
45.01869 169
45.0388 150
45.05892 187
45.07903 173
45.09914 144
45.11926 173
45.13937 139
45.15949 162
45.1796 148
45.19971 151
45.21983 147
45.23994 193
45.26005 188
45.28017 164
45.30028 166
45.32039 189
45.34051 158
45.36062 204
45.38074 195
45.40085 202
45.42096 191
45.44108 190
45.46119 192
45.4813 193
45.50142 206
45.52153 214
45.54165 235
45.56176 293
45.58187 287
45.60199 337
45.6221 418
45.64221 472
45.66233 557
45.68244 658
45.70256 840
45.72267 991
45.74278 1122
45.7629 1246
45.78301 1177
45.80312 1060
45.82324 941
45.84335 723
45.86346 678
45.88358 709
45.90369 596
45.92381 509
45.94392 418
45.96403 299
45.98415 238
46.00426 207
46.02437 185
46.04449 192
46.0646 165
46.08472 158
46.10483 185
46.12494 194
46.14506 170
46.16517 166
46.18528 154
46.2054 153
46.22551 146
46.24563 146
46.26574 142
46.28585 148
46.30597 150
46.32608 158
46.34619 169
46.36631 146
46.38642 146
46.40653 140
46.42665 154
46.44676 151
46.46688 140
46.48699 155
46.5071 140
46.52722 167
46.54733 153
46.56744 146
46.58756 158
46.60767 150
46.62779 149
46.6479 136
46.66801 142
46.68813 151
46.70824 150
46.72835 142
46.74847 127
46.76858 134
46.78869 160
46.80881 140
46.82892 159
46.84904 136
46.86915 151
46.88926 136
46.90938 154
46.92949 127
46.9496 148
46.96972 143
46.98983 132
47.00995 150
47.03006 123
47.05017 143
47.07029 142
47.0904 143
47.11051 157
47.13063 166
47.15074 154
47.17086 134
47.19097 157
47.21108 110
47.2312 156
47.25131 149
47.27142 149
47.29154 147
47.31165 129
47.33176 143
47.35188 124
47.37199 154
47.39211 144
47.41222 169
47.43233 140
47.45245 155
47.47256 145
47.49267 143
47.51279 128
47.5329 134
47.55302 158
47.57313 137
47.59324 131
47.61336 134
47.63347 145
47.65358 134
47.6737 147
47.69381 144
47.71393 125
47.73404 138
47.75415 149
47.77427 148
47.79438 131
47.81449 150
47.83461 145
47.85472 140
47.87483 131
47.89495 148
47.91506 153
47.93518 137
47.95529 142
47.9754 144
47.99552 160
48.01563 137
48.03574 143
48.05586 132
48.07597 146
48.09609 149
48.1162 135
48.13631 129
48.15643 144
48.17654 121
48.19665 145
48.21677 132
48.23688 154
48.257 149
48.27711 151
48.29722 132
48.31734 165
48.33745 149
48.35756 152
48.37768 152
48.39779 134
48.4179 142
48.43802 159
48.45813 164
48.47825 143
48.49836 152
48.51847 171
48.53859 147
48.5587 148
48.57881 152
48.59893 149
48.61904 169
48.63916 153
48.65927 145
48.67938 165
48.6995 162
48.71961 151
48.73972 143
48.75984 169
48.77995 136
48.80006 153
48.82018 138
48.84029 162
48.86041 152
48.88052 158
48.90063 163
48.92075 141
48.94086 159
48.96097 154
48.98109 167
49.0012 137
49.02132 154
49.04143 145
49.06154 182
49.08166 156
49.10177 160
49.12188 176
49.142 156
49.16211 154
49.18223 162
49.20234 147
49.22245 166
49.24257 153
49.26268 153
49.28279 143
49.30291 162
49.32302 172
49.34313 156
49.36325 164
49.38336 155
49.40348 152
49.42359 161
49.4437 168
49.46382 161
49.48393 181
49.50404 173
49.52416 193
49.54427 183
49.56439 195
49.5845 183
49.60461 194
49.62473 191
49.64484 171
49.66495 246
49.68507 207
49.70518 230
49.7253 259
49.74541 265
49.76552 254
49.78564 320
49.80575 330
49.82586 400
49.84598 440
49.86609 488
49.8862 523
49.90632 593
49.92643 771
49.94655 885
49.96666 1066
49.98677 1323
50.00689 1708
50.027 2020
50.04711 2533
50.06723 3337
50.08734 3735
50.10746 3946
50.12757 3920
50.14768 3390
50.1678 2664
50.18791 2198
50.20802 2134
50.22814 2086
50.24825 2028
50.26837 1795
50.28848 1412
50.30859 970
50.32871 616
50.34882 472
50.36893 364
50.38905 360
50.40916 329
50.42927 299
50.44939 261
50.4695 269
50.48962 288
50.50973 308
50.52984 308
50.54996 268
50.57007 292
50.59018 291
50.6103 286
50.63041 264
50.65053 268
50.67064 240
50.69075 247
50.71087 246
50.73098 201
50.75109 208
50.77121 220
50.79132 194
50.81143 188
50.83155 176
50.85166 146
50.87178 177
50.89189 185
50.912 149
50.93212 161
50.95223 161
50.97234 144
50.99246 152
51.01257 144
51.03269 166
51.0528 140
51.07291 168
51.09303 132
51.11314 141
51.13325 168
51.15337 159
51.17348 136
51.1936 147
51.21371 135
51.23382 132
51.25394 146
51.27405 149
51.29416 141
51.31428 128
51.33439 142
51.3545 144
51.37462 119
51.39473 133
51.41485 130
51.43496 119
51.45507 141
51.47519 132
51.4953 122
51.51541 95
51.53553 146
51.55564 130
51.57576 163
51.59587 132
51.61598 124
51.6361 135
51.65621 127
51.67632 129
51.69644 131
51.71655 123
51.73667 136
51.75678 134
51.77689 128
51.79701 124
51.81712 137
51.83723 122
51.85735 141
51.87746 128
51.89757 146
51.91769 123
51.9378 131
51.95792 145
51.97803 144
51.99814 133
52.01826 138
52.03837 137
52.05848 147
52.0786 132
52.09871 133
52.11883 135
52.13894 128
52.15905 123
52.17917 124
52.19928 124
52.21939 120
52.23951 117
52.25962 135
52.27974 131
52.29985 138
52.31996 148
52.34008 119
52.36019 135
52.3803 120
52.40042 128
52.42053 126
52.44064 103
52.46076 134
52.48087 124
52.50099 137
52.5211 154
52.54121 152
52.56133 145
52.58144 117
52.60155 134
52.62167 140
52.64178 151
52.6619 140
52.68201 136
52.70212 140
52.72224 139
52.74235 138
52.76246 146
52.78258 125
52.80269 154
52.8228 131
52.84292 143
52.86303 134
52.88315 132
52.90326 150
52.92337 135
52.94349 136
52.9636 132
52.98371 136
53.00383 145
53.02394 143
53.04406 137
53.06417 135
53.08428 144
53.1044 148
53.12451 108
53.14462 143
53.16474 124
53.18485 141
53.20497 142
53.22508 152
53.24519 147
53.26531 139
53.28542 150
53.30553 134
53.32565 153
53.34576 152
53.36587 134
53.38599 142
53.4061 152
53.42622 142
53.44633 141
53.46644 155
53.48656 135
53.50667 144
53.52678 145
53.5469 151
53.56701 156
53.58713 161
53.60724 144
53.62735 155
53.64747 149
53.66758 147
53.68769 152
53.70781 171
53.72792 176
53.74804 154
53.76815 150
53.78826 128
53.80838 144
53.82849 152
53.8486 146
53.86872 152
53.88883 140
53.90894 145
53.92906 156
53.94917 136
53.96929 166
53.9894 126
54.00951 139
54.02963 128
54.04974 170
54.06985 167
54.08997 159
54.11008 159
54.1302 177
54.15031 161
54.17042 153
54.19054 155
54.21065 165
54.23076 157
54.25088 180
54.27099 160
54.29111 164
54.31122 169
54.33133 149
54.35145 183
54.37156 168
54.39167 196
54.41179 193
54.4319 166
54.45201 174
54.47213 180
54.49224 161
54.51236 206
54.53247 191
54.55258 225
54.5727 215
54.59281 234
54.61292 282
54.63304 305
54.65315 297
54.67327 380
54.69338 397
54.71349 493
54.73361 611
54.75372 684
54.77383 839
54.79395 994
54.81406 1155
54.83417 1219
54.85429 1165
54.8744 1087
54.89452 924
54.91463 760
54.93474 656
54.95486 715
54.97497 726
54.99508 669
55.0152 621
55.03531 533
55.05543 418
55.07554 352
55.09565 297
55.11577 311
55.13588 320
55.15599 308
55.17611 358
55.19622 388
55.21634 424
55.23645 480
55.25656 546
55.27668 566
55.29679 596
55.3169 560
55.33702 525
55.35713 419
55.37724 346
55.39736 362
55.41747 367
55.43759 359
55.4577 372
55.47781 313
55.49793 285
55.51804 217
55.53815 213
55.55827 182
55.57838 178
55.5985 157
55.61861 158
55.63872 203
55.65884 156
55.67895 163
55.69906 149
55.71918 155
55.73929 148
55.75941 148
55.77952 150
55.79963 170
55.81975 131
55.83986 125
55.85997 141
55.88009 134
55.9002 140
55.92031 144
55.94043 139
55.96054 168
55.98066 135
56.00077 138
56.02088 153
56.041 126
56.06111 170
56.08122 156
56.10134 142
56.12145 129
56.14157 141
56.16168 148
56.18179 121
56.20191 136
56.22202 142
56.24213 126
56.26225 139
56.28236 112
56.30248 154
56.32259 137
56.3427 140
56.36282 137
56.38293 149
56.40304 138
56.42316 145
56.44327 142
56.46338 139
56.4835 145
56.50361 152
56.52373 127
56.54384 129
56.56395 125
56.58407 124
56.60418 137
56.62429 148
56.64441 138
56.66452 168
56.68464 141
56.70475 161
56.72486 127
56.74498 148
56.76509 152
56.7852 137
56.80532 159
56.82543 133
56.84554 148
56.86566 142
56.88577 135
56.90589 133
56.926 139
56.94611 139
56.96623 147
56.98634 148
57.00645 125
57.02657 133
57.04668 142
57.0668 160
57.08691 167
57.10702 173
57.12714 166
57.14725 175
57.16736 169
57.18748 167
57.20759 207
57.22771 180
57.24782 202
57.26793 188
57.28805 154
57.30816 180
57.32827 154
57.34839 172
57.3685 191
57.38861 180
57.40873 150
57.42884 126
57.44896 149
57.46907 128
57.48918 150
57.5093 113
57.52941 165
57.54952 129
57.56964 122
57.58975 149
57.60987 130
57.62998 134
57.65009 139
57.67021 146
57.69032 152
57.71043 140
57.73055 120
57.75066 128
57.77078 131
57.79089 115
57.811 133
57.83112 131
57.85123 149
57.87134 137
57.89146 123
57.91157 135
57.93168 154
57.9518 117
57.97191 147
57.99203 126
58.01214 136
58.03225 139
58.05237 144
58.07248 125
58.09259 133
58.11271 123
58.13282 141
58.15294 131
58.17305 122
58.19316 120
58.21328 143
58.23339 129
58.2535 130
58.27362 132
58.29373 147
58.31385 147
58.33396 146
58.35407 145
58.37419 137
58.3943 136
58.41441 149
58.43453 135
58.45464 136
58.47475 145
58.49487 136
58.51498 142
58.5351 140
58.55521 132
58.57532 139
58.59544 154
58.61555 145
58.63566 122
58.65578 122
58.67589 125
58.69601 145
58.71612 131
58.73623 154
58.75635 138
58.77646 154
58.79657 137
58.81669 132
58.8368 135
58.85691 144
58.87703 135
58.89714 140
58.91726 146
58.93737 126
58.95748 143
58.9776 152
58.99771 146
59.01782 146
59.03794 114
59.05805 137
59.07817 139
59.09828 155
59.11839 129
59.13851 135
59.15862 161
59.17873 160
59.19885 150
59.21896 142
59.23908 144
59.25919 142
59.2793 172
59.29942 155
59.31953 154
59.33964 149
59.35976 148
59.37987 187
59.39998 181
59.4201 181
59.44021 170
59.46033 180
59.48044 202
59.50055 222
59.52067 194
59.54078 220
59.56089 230
59.58101 249
59.60112 276
59.62124 297
59.64135 335
59.66146 292
59.68158 380
59.70169 452
59.7218 498
59.74192 586
59.76203 713
59.78215 887
59.80226 1089
59.82237 1267
59.84249 1527
59.8626 1881
59.88271 2133
59.90283 2331
59.92294 2540
59.94305 2390
59.96317 2084
59.98328 1660
60.0034 1397
60.02351 1239
60.04362 1220
60.06374 1307
60.08385 1299
60.10396 1260
60.12408 1032
60.14419 831
60.16431 559
60.18442 418
60.20453 312
60.22465 271
60.24476 268
60.26487 213
60.28499 212
60.3051 185
60.32522 191
60.34533 202
60.36544 175
60.38556 174
60.40567 201
60.42578 164
60.4459 149
60.46601 175
60.48612 165
60.50624 153
60.52635 176
60.54647 162
60.56658 124
60.58669 135
60.60681 134
60.62692 161
60.64703 133
60.66715 136
60.68726 153
60.70738 142
60.72749 129
60.7476 153
60.76772 124
60.78783 161
60.80794 139
60.82806 152
60.84817 117
60.86828 139
60.8884 160
60.90851 154
60.92863 157
60.94874 150
60.96885 143
60.98897 146
61.00908 146
61.02919 137
61.04931 135
61.06942 132
61.08954 149
61.10965 154
61.12976 152
61.14988 139
61.16999 148
61.1901 148
61.21022 155
61.23033 152
61.25045 141
61.27056 145
61.29067 147
61.31079 146
61.3309 125
61.35101 149
61.37113 139
61.39124 136
61.41135 147
61.43147 133
61.45158 150
61.4717 126
61.49181 138
61.51192 139
61.53204 170
61.55215 154
61.57226 138
61.59238 147
61.61249 122
61.63261 150
61.65272 170
61.67283 136
61.69295 153
61.71306 130
61.73317 145
61.75329 150
61.7734 150
61.79352 147
61.81363 149
61.83374 150
61.85386 157
61.87397 143
61.89408 136
61.9142 144
61.93431 161
61.95442 144
61.97454 145
61.99465 127
62.01477 164
62.03488 139
62.05499 142
62.07511 176
62.09522 152
62.11533 149
62.13545 180
62.15556 141
62.17568 152
62.19579 163
62.2159 184
62.23602 150
62.25613 145
62.27624 154
62.29636 172
62.31647 154
62.33659 129
62.3567 126
62.37681 160
62.39693 162
62.41704 138
62.43715 147
62.45727 144
62.47738 138
62.49749 138
62.51761 152
62.53772 164
62.55784 145
62.57795 135
62.59806 127
62.61818 127
62.63829 139
62.6584 142
62.67852 153
62.69863 138
62.71875 142
62.73886 136
62.75897 140
62.77909 136
62.7992 137
62.81931 127
62.83943 128
62.85954 140
62.87965 127
62.89977 113
62.91988 109
62.94 137
62.96011 118
62.98022 137
63.00034 119
63.02045 133
63.04056 135
63.06068 153
63.08079 152
63.10091 120
63.12102 124
63.14113 135
63.16125 115
63.18136 140
63.20147 123
63.22159 150
63.2417 130
63.26182 139
63.28193 142
63.30204 123
63.32216 129
63.34227 135
63.36238 117
63.3825 124
63.40261 130
63.42272 146
63.44284 139
63.46295 168
63.48307 137
63.50318 153
63.52329 147
63.54341 134
63.56352 117
63.58363 159
63.60375 163
63.62386 161
63.64398 156
63.66409 147
63.6842 151
63.70432 149
63.72443 166
63.74454 167
63.76466 178
63.78477 192
63.80489 229
63.825 243
63.84511 247
63.86523 284
63.88534 344
63.90545 306
63.92557 407
63.94568 425
63.96579 466
63.98591 558
64.00602 566
64.02614 537
64.04625 403
64.06636 385
64.08648 331
64.10659 319
64.1267 326
64.14682 332
64.16693 340
64.18705 336
64.20716 312
64.22727 286
64.24739 217
64.2675 173
64.28761 177
64.30773 157
64.32784 172
64.34796 136
64.36807 140
64.38818 130
64.4083 135
64.42841 133
64.44852 132
64.46864 140
64.48875 136
64.50886 126
64.52898 128
64.54909 125
64.56921 117
64.58932 106
64.60943 116
64.62955 121
64.64966 129
64.66977 138
64.68989 149
64.71 138
64.73012 117
64.75023 149
64.77034 120
64.79046 123
64.81057 118
64.83068 128
64.8508 126
64.87091 136
64.89102 129
64.91114 124
64.93125 143
64.95137 136
64.97148 114
64.99159 110
65.01171 116
65.03182 141
65.05193 137
65.07205 129
65.09216 116
65.11228 122
65.13239 130
65.1525 125
65.17262 134
65.19273 124
65.21284 132
65.23296 138
65.25307 137
65.27319 122
65.2933 145
65.31341 128
65.33353 125
65.35364 123
65.37375 118
65.39387 146
65.41398 151
65.43409 130
65.45421 149
65.47432 138
65.49444 130
65.51455 137
65.53466 141
65.55478 148
65.57489 140
65.595 168
65.61512 160
65.63523 185
65.65535 190
65.67546 206
65.69557 210
65.71569 248
65.7358 222
65.75591 210
65.77603 190
65.79614 222
65.81626 210
65.83637 171
65.85648 177
65.8766 181
65.89671 195
65.91682 181
65.93694 190
65.95705 189
65.97716 171
65.99728 140
66.01739 157
66.03751 140
66.05762 144
66.07773 151
66.09785 131
66.11796 141
66.13807 137
66.15819 149
66.1783 126
66.19842 146
66.21853 122
66.23864 148
66.25876 143
66.27887 121
66.29898 151
66.3191 123
66.33921 136
66.35933 138
66.37944 134
66.39955 129
66.41967 128
66.43978 122
66.45989 124
66.48001 131
66.50012 136
66.52023 129
66.54035 136
66.56046 128
66.58058 162
66.60069 136
66.6208 132
66.64092 136
66.66103 145
66.68114 152
66.70126 133
66.72137 146
66.74149 128
66.7616 152
66.78171 144
66.80183 163
66.82194 152
66.84205 142
66.86217 143
66.88228 129
66.90239 136
66.92251 142
66.94262 130
66.96274 157
66.98285 153
67.00296 150
67.02308 140
67.04319 177
67.0633 146
67.08342 149
67.10353 179
67.12365 145
67.14376 166
67.16387 159
67.18399 166
67.2041 175
67.22421 151
67.24433 180
67.26444 209
67.28456 168
67.30467 179
67.32478 211
67.3449 217
67.36501 202
67.38512 233
67.40524 244
67.42535 250
67.44546 269
67.46558 322
67.48569 329
67.50581 427
67.52592 430
67.54603 513
67.56615 602
67.58626 675
67.60637 831
67.62649 987
67.6466 1103
67.66672 1260
67.68683 1396
67.70694 1418
67.72706 1407
67.74717 1207
67.76728 1106
67.7874 913
67.80751 815
67.82763 855
67.84774 868
67.86785 962
67.88797 1060
67.90808 1103
67.92819 1065
67.94831 1032
67.96842 1049
67.98853 977
68.00865 1139
68.02876 1288
68.04888 1490
68.06899 1738
68.0891 1777
68.10922 1917
68.12933 1913
68.14944 1806
68.16956 1610
68.18967 1490
68.20979 1522
68.2299 1635
68.25001 1714
68.27013 1779
68.29024 1797
68.31035 1680
68.33047 1426
68.35058 1201
68.3707 929
68.39081 731
68.41092 713
68.43104 687
68.45115 710
68.47126 715
68.49138 654
68.51149 524
68.5316 469
68.55172 373
68.57183 290
68.59195 257
68.61206 257
68.63217 221
68.65229 217
68.6724 173
68.69251 194
68.71263 208
68.73274 168
68.75286 155
68.77297 179
68.79308 168
68.8132 141
68.83331 174
68.85342 137
68.87354 146
68.89365 159
68.91376 158
68.93388 147
68.95399 144
68.97411 140
68.99422 147
69.01433 151
69.03445 168
69.05456 158
69.07467 169
69.09479 138
69.1149 130
69.13502 126
69.15513 136
69.17524 141
69.19536 140
69.21547 132
69.23558 119
69.2557 150
69.27581 134
69.29593 138
69.31604 117
69.33615 146
69.35627 141
69.37638 122
69.39649 127
69.41661 136
69.43672 147
69.45683 127
69.47695 131
69.49706 130
69.51718 138
69.53729 116
69.5574 125
69.57752 127
69.59763 125
69.61774 111
69.63786 119
69.65797 127
69.67809 101
69.6982 146
69.71831 114
69.73843 135
69.75854 119
69.77865 126
69.79877 141
69.81888 121
69.839 141
69.85911 135
69.87922 132
69.89934 139
69.91945 150
69.93956 130
69.95968 101
69.97979 112
69.9999 114
70.02002 134
70.04013 117
70.06025 132
70.08036 122
70.10047 124
70.12059 121
70.1407 131
70.16081 132
70.18093 148
70.20104 132
70.22116 137
70.24127 121
70.26138 130
70.2815 107
70.30161 118
70.32172 128
70.34184 131
70.36195 114
70.38207 116
70.40218 134
70.42229 104
70.44241 140
70.46252 129
70.48263 142
70.50275 109
70.52286 140
70.54297 126
70.56309 104
70.5832 115
70.60332 113
70.62343 106
70.64354 131
70.66366 115
70.68377 132
70.70388 109
70.724 128
70.74411 121
70.76423 127
70.78434 119
70.80445 113
70.82457 103
70.84468 120
70.86479 124
70.88491 93
70.90502 138
70.92513 124
70.94525 137
70.96536 129
70.98548 117
71.00559 121
71.0257 137
71.04582 122
71.06593 134
71.08604 119
71.10616 123
71.12627 110
71.14639 120
71.1665 113
71.18661 108
71.20673 119
71.22684 116
71.24695 108
71.26707 121
71.28718 118
71.3073 124
71.32741 111
71.34752 96
71.36764 101
71.38775 107
71.40786 104
71.42798 131
71.44809 119
71.4682 117
71.48832 112
71.50843 139
71.52855 96
71.54866 149
71.56877 112
71.58889 121
71.609 111
71.62911 135
71.64923 116
71.66934 116
71.68946 131
71.70957 116
71.72968 125
71.7498 127
71.76991 133
71.79002 112
71.81014 122
71.83025 135
71.85037 117
71.87048 126
71.89059 109
71.91071 119
71.93082 130
71.95093 119
71.97105 126
71.99116 120
72.01127 139
72.03139 114
72.0515 124
72.07162 115
72.09173 127
72.11184 121
72.13196 129
72.15207 123
72.17218 133
72.1923 140
72.21241 130
72.23253 114
72.25264 126
72.27275 124
72.29287 111
72.31298 127
72.33309 125
72.35321 122
72.37332 129
72.39344 113
72.41355 126
72.43366 109
72.45378 136
72.47389 157
72.494 124
72.51412 123
72.53423 137
72.55434 112
72.57446 132
72.59457 149
72.61469 117
72.6348 118
72.65491 125
72.67503 134
72.69514 133
72.71525 137
72.73537 141
72.75548 139
72.7756 142
72.79571 109
72.81582 135
72.83594 130
72.85605 120
72.87616 127
72.89628 147
72.91639 158
72.9365 134
72.95662 142
72.97673 137
72.99685 136
73.01696 148
73.03707 134
73.05719 134
73.0773 148
73.09741 146
73.11753 151
73.13764 145
73.15776 186
73.17787 196
73.19798 211
73.2181 225
73.23821 210
73.25832 247
73.27844 286
73.29855 305
73.31867 334
73.33878 363
73.35889 418
73.37901 525
73.39912 506
73.41923 546
73.43935 579
73.45946 561
73.47957 495
73.49969 380
73.5198 331
73.53992 334
73.56003 287
73.58014 329
73.60026 330
73.62037 314
73.64048 336
73.6606 334
73.68071 312
73.70083 295
73.72094 210
73.74105 198
73.76117 170
73.78128 165
73.80139 173
73.82151 137
73.84162 144
73.86174 140
73.88185 129
73.90196 119
73.92208 120
73.94219 123
73.9623 118
73.98242 111
74.00253 117
74.02264 139
74.04276 131
74.06287 131
74.08299 119
74.1031 123
74.12321 130
74.14333 141
74.16344 120
74.18355 135
74.20367 113
74.22378 118
74.2439 121
74.26401 124
74.28412 111
74.30424 121
74.32435 105
74.34446 127
74.36458 117
74.38469 114
74.40481 122
74.42492 115
74.44503 129
74.46515 121
74.48526 105
74.50537 131
74.52549 122
74.5456 108
74.56571 107
74.58583 113
74.60594 116
74.62606 113
74.64617 116
74.66628 154
74.6864 115
74.70651 123
74.72662 136
74.74674 94
74.76685 110
74.78697 120
74.80708 117
74.82719 109
74.84731 109
74.86742 120
74.88753 108
74.90765 121
74.92776 116
74.94787 135
74.96799 118
74.9881 146
75.00822 122
