3.00117 20560
3.02128 20279
3.0414 19398
3.06151 19063
3.08162 18214
3.10174 17573
3.12185 17512
3.14197 16625
3.16208 16360
3.18219 15719
3.20231 15409
3.22242 15215
3.24253 14442
3.26265 14152
3.28276 13665
3.30288 13048
3.32299 12761
3.3431 12300
3.36322 12048
3.38333 11514
3.40344 11200
3.42356 10984
3.44367 10446
3.46379 10200
3.4839 9942
3.50401 9321
3.52413 9393
3.54424 8741
3.56435 8622
3.58447 8095
3.60458 8143
3.62469 7565
3.64481 7106
3.66492 7109
3.68504 6816
3.70515 6306
3.72526 6522
3.74538 5813
3.76549 5878
3.7856 5380
3.80572 5408
3.82583 5303
3.84595 4784
3.86606 4688
3.88617 4350
3.90629 4371
3.9264 4269
3.94651 3756
3.96663 3764
3.98674 3596
4.00686 3494
4.02697 3435
4.04708 3184
4.0672 3092
4.08731 2938
4.10742 2787
4.12754 2735
4.14765 2472
4.16776 2474
4.18788 2365
4.20799 2281
4.22811 2321
4.24822 2004
4.26833 2020
4.28845 2054
4.30856 1946
4.32867 1915
4.34879 1726
4.3689 1726
4.38902 1825
4.40913 1667
4.42924 1662
4.44936 1445
4.46947 1502
4.48958 1540
4.5097 1481
4.52981 1464
4.54992 1289
4.57004 1385
4.59015 1391
4.61027 1237
4.63038 1325
4.65049 1209
4.67061 1218
4.69072 1170
4.71083 1187
4.73095 1249
4.75106 1100
4.77118 1084
4.79129 1110
4.8114 1010
4.83152 1063
4.85163 1000
4.87174 1014
4.89186 970
4.91197 941
4.93209 897
4.9522 865
4.97231 874
4.99243 875
5.01254 818
5.03265 815
5.05277 846
5.07288 795
5.09299 777
5.11311 766
5.13322 735
5.15334 728
5.17345 687
5.19356 688
5.21368 667
5.23379 642
5.2539 643
5.27402 633
5.29413 598
5.31425 638
5.33436 579
5.35447 548
5.37459 603
5.3947 579
5.41481 548
5.43493 509
5.45504 466
5.47516 541
5.49527 490
5.51538 470
5.5355 456
5.55561 444
5.57572 460
5.59584 495
5.61595 450
5.63606 408
5.65618 446
5.67629 450
5.69641 444
5.71652 397
5.73663 407
5.75675 408
5.77686 415
5.79697 419
5.81709 406
5.8372 371
5.85732 367
5.87743 363
5.89754 396
5.91766 399
5.93777 375
5.95788 343
5.978 367
5.99811 384
6.01823 382
6.03834 365
6.05845 319
6.07857 360
6.09868 366
6.11879 344
6.13891 359
6.15902 330
6.17913 365
6.19925 315
6.21936 326
6.23948 375
6.25959 321
6.2797 376
6.29982 308
6.31993 352
6.34004 374
6.36016 363
6.38027 328
6.40039 302
6.4205 310
6.44061 333
6.46073 343
6.48084 304
6.50095 296
6.52107 293
6.54118 332
6.56129 314
6.58141 316
6.60152 313
6.62164 306
6.64175 307
6.66186 308
6.68198 314
6.70209 318
6.7222 318
6.74232 302
6.76243 294
6.78255 328
6.80266 306
6.82277 280
6.84289 304
6.863 282
6.88311 301
6.90323 310
6.92334 297
6.94346 294
6.96357 290
6.98368 313
7.0038 316
7.02391 304
7.04402 296
7.06414 300
7.08425 311
7.10436 311
7.12448 322
7.14459 302
7.16471 299
7.18482 244
7.20493 283
7.22505 295
7.24516 284
7.26527 301
7.28539 326
7.3055 318
7.32562 283
7.34573 326
7.36584 287
7.38596 296
7.40607 319
7.42618 294
7.4463 261
7.46641 305
7.48653 292
7.50664 304
7.52675 330
7.54687 321
7.56698 284
7.58709 323
7.60721 301
7.62732 332
7.64743 314
7.66755 324
7.68766 337
7.70778 300
7.72789 329
7.748 314
7.76812 314
7.78823 327
7.80834 326
7.82846 325
7.84857 309
7.86869 315
7.8888 352
7.90891 342
7.92903 350
7.94914 296
7.96925 324
7.98937 330
8.00948 332
8.0296 362
8.04971 310
8.06982 289
8.08994 322
8.11005 338
8.13016 308
8.15028 323
8.17039 334
8.1905 366
8.21062 332
8.23073 323
8.25085 357
8.27096 320
8.29107 369
8.31119 364
8.3313 380
8.35141 381
8.37153 323
8.39164 332
8.41176 368
8.43187 324
8.45198 349
8.4721 380
8.49221 378
8.51232 394
8.53244 384
8.55255 363
8.57266 386
8.59278 369
8.61289 437
8.63301 373
8.65312 374
8.67323 399
8.69335 397
8.71346 363
8.73357 391
8.75369 380
8.7738 415
8.79392 376
8.81403 394
8.83414 436
8.85426 390
8.87437 433
8.89448 394
8.9146 354
8.93471 380
8.95483 347
8.97494 332
8.99505 319
9.01517 346
9.03528 351
9.05539 354
9.07551 324
9.09562 331
9.11573 333
9.13585 300
9.15596 336
9.17608 311
9.19619 320
9.2163 341
9.23642 303
9.25653 330
9.27664 290
9.29676 331
9.31687 327
9.33699 301
9.3571 294
9.37721 280
9.39733 276
9.41744 291
9.43755 272
9.45767 317
9.47778 300
9.4979 275
9.51801 298
9.53812 322
9.55824 291
9.57835 299
9.59846 315
9.61858 327
9.63869 288
9.6588 280
9.67892 304
9.69903 272
9.71915 257
9.73926 284
9.75937 291
9.77949 259
9.7996 292
9.81971 298
9.83983 271
9.85994 304
9.88006 311
9.90017 295
9.92028 283
9.9404 359
9.96051 304
9.98062 292
10.00074 300
10.02085 337
10.04097 256
10.06108 298
10.08119 307
10.10131 264
10.12142 325
10.14153 303
10.16165 284
10.18176 338
10.20187 277
10.22199 309
10.2421 292
10.26222 291
10.28233 272
10.30244 289
10.32256 292
10.34267 287
10.36278 295
10.3829 276
10.40301 298
10.42313 292
10.44324 282
10.46335 268
10.48347 283
10.50358 300
10.52369 279
10.54381 307
10.56392 297
10.58403 279
10.60415 295
10.62426 279
10.64438 306
10.66449 312
10.6846 283
10.70472 271
10.72483 335
10.74494 298
10.76506 288
10.78517 307
10.80529 289
10.8254 309
10.84551 285
10.86563 281
10.88574 274
10.90585 297
10.92597 290
10.94608 266
10.9662 265
10.98631 247
11.00642 258
11.02654 276
11.04665 301
11.06676 284
11.08688 289
11.10699 308
11.1271 283
11.14722 266
11.16733 300
11.18745 256
11.20756 292
11.22767 299
11.24779 300
11.2679 262
11.28801 258
11.30813 301
11.32824 301
11.34836 310
11.36847 320
11.38858 287
11.4087 359
11.42881 310
11.44892 335
11.46904 350
11.48915 339
11.50927 278
11.52938 313
11.54949 293
11.56961 297
11.58972 346
11.60983 324
11.62995 341
11.65006 313
11.67017 339
11.69029 342
11.7104 378
11.73052 332
11.75063 364
11.77074 335
11.79086 345
11.81097 342
11.83108 343
11.8512 363
11.87131 355
11.89143 377
11.91154 355
11.93165 389
11.95177 410
11.97188 394
11.99199 455
12.01211 384
12.03222 452
12.05234 414
12.07245 432
12.09256 424
12.11268 468
12.13279 454
12.1529 455
12.17302 507
12.19313 473
12.21324 500
12.23336 463
12.25347 498
12.27359 489
12.2937 485
12.31381 501
12.33393 475
12.35404 469
12.37415 454
12.39427 400
12.41438 440
12.4345 415
12.45461 369
12.47472 399
12.49484 410
12.51495 393
12.53506 369
12.55518 351
12.57529 330
12.5954 348
12.61552 378
12.63563 325
12.65575 323
12.67586 320
12.69597 298
12.71609 314
12.7362 305
12.75631 300
12.77643 309
12.79654 310
12.81666 295
12.83677 284
12.85688 306
12.877 274
12.89711 315
12.91722 287
12.93734 276
12.95745 276
12.97757 244
12.99768 244
13.01779 253
13.03791 232
13.05802 273
13.07813 280
13.09825 280
13.11836 262
13.13847 253
13.15859 281
13.1787 270
13.19882 256
13.21893 252
13.23904 261
13.25916 270
13.27927 265
13.29938 240
13.3195 251
13.33961 248
13.35973 260
13.37984 260
13.39995 257
13.42007 269
13.44018 248
13.46029 247
13.48041 268
13.50052 248
13.52064 230
13.54075 269
13.56086 232
13.58098 258
13.60109 260
13.6212 263
13.64132 225
13.66143 234
13.68154 244
13.70166 257
13.72177 242
13.74189 284
13.762 245
13.78211 229
13.80223 226
13.82234 244
13.84245 242
13.86257 244
13.88268 234
13.9028 236
13.92291 242
13.94302 243
13.96314 271
13.98325 239
14.00336 270
14.02348 251
14.04359 240
14.06371 257
14.08382 273
14.10393 266
14.12405 234
14.14416 226
14.16427 229
14.18439 217
14.2045 264
14.22461 277
14.24473 235
14.26484 230
14.28496 233
14.30507 226
14.32518 237
14.3453 257
14.36541 219
14.38552 234
14.40564 235
14.42575 229
14.44587 247
14.46598 229
14.48609 201
14.50621 233
14.52632 237
14.54643 249
14.56655 232
14.58666 220
14.60677 217
14.62689 190
14.647 212
14.66712 249
14.68723 254
14.70734 240
14.72746 220
14.74757 208
14.76768 245
14.7878 214
14.80791 214
14.82803 219
14.84814 220
14.86825 240
14.88837 219
14.90848 230
14.92859 256
14.94871 215
14.96882 220
14.98894 220
15.00905 259
15.02916 242
15.04928 237
15.06939 222
15.0895 261
15.10962 238
15.12973 190
15.14984 226
15.16996 220
15.19007 215
15.21019 222
15.2303 224
15.25041 239
15.27053 222
15.29064 256
15.31075 207
15.33087 223
15.35098 263
15.3711 200
15.39121 237
15.41132 229
15.43144 253
15.45155 214
15.47166 255
15.49178 225
15.51189 224
15.53201 243
15.55212 236
15.57223 228
15.59235 218
15.61246 207
15.63257 215
15.65269 217
15.6728 229
15.69291 231
15.71303 244
15.73314 227
15.75326 205
15.77337 212
15.79348 225
15.8136 194
15.83371 213
15.85382 234
15.87394 232
15.89405 248
15.91417 226
15.93428 206
15.95439 230
15.97451 238
15.99462 213
16.01473 223
16.03485 238
16.05496 208
16.07508 197
16.09519 244
16.1153 243
16.13542 203
16.15553 236
16.17564 236
16.19576 250
16.21587 229
16.23598 213
16.2561 223
16.27621 238
16.29633 225
16.31644 181
16.33655 207
16.35667 232
16.37678 205
16.39689 205
16.41701 225
16.43712 212
16.45724 220
16.47735 233
16.49746 195
16.51758 208
16.53769 225
16.5578 232
16.57792 238
16.59803 190
16.61814 222
16.63826 184
16.65837 231
16.67849 198
16.6986 177
16.71871 250
16.73883 219
16.75894 224
16.77905 238
16.79917 242
16.81928 204
16.8394 220
16.85951 228
16.87962 238
16.89974 244
16.91985 213
16.93996 253
16.96008 235
16.98019 218
17.00031 215
17.02042 222
17.04053 223
17.06065 225
17.08076 220
17.10087 232
17.12099 201
17.1411 195
17.16121 195
17.18133 238
17.20144 211
17.22156 250
17.24167 220
17.26178 242
17.2819 221
17.30201 236
17.32212 241
17.34224 260
17.36235 241
17.38247 232
17.40258 229
17.42269 259
17.44281 234
17.46292 252
17.48303 255
17.50315 243
17.52326 258
17.54338 277
17.56349 259
17.5836 255
17.60372 240
17.62383 251
17.64394 248
17.66406 250
17.68417 277
17.70428 250
17.7244 296
17.74451 276
17.76463 280
17.78474 242
17.80485 243
17.82497 243
17.84508 246
17.86519 237
17.88531 248
17.90542 254
17.92554 255
17.94565 246
17.96576 248
17.98588 235
18.00599 272
18.0261 245
18.04622 236
18.06633 205
18.08645 213
18.10656 244
18.12667 232
18.14679 234
18.1669 216
18.18701 247
18.20713 226
18.22724 222
18.24735 195
18.26747 209
18.28758 212
18.3077 249
18.32781 216
18.34792 235
18.36804 220
18.38815 215
18.40826 225
18.42838 251
18.44849 222
18.46861 237
18.48872 251
18.50883 205
18.52895 190
18.54906 217
18.56917 204
18.58929 246
18.6094 222
18.62951 234
18.64963 239
18.66974 214
18.68986 250
18.70997 227
18.73008 234
18.7502 248
18.77031 245
18.79042 209
18.81054 232
18.83065 226
18.85077 224
18.87088 212
18.89099 223
18.91111 251
18.93122 238
18.95133 254
18.97145 232
18.99156 239
19.01168 223
19.03179 228
19.0519 235
19.07202 227
19.09213 212
19.11224 223
19.13236 241
19.15247 247
19.17258 248
19.1927 244
19.21281 253
19.23293 270
19.25304 256
19.27315 234
19.29327 233
19.31338 247
19.33349 274
19.35361 227
19.37372 271
19.39384 274
19.41395 301
19.43406 322
19.45418 365
19.47429 329
19.4944 362
19.51452 389
19.53463 441
19.55475 507
19.57486 489
19.59497 579
19.61509 585
19.6352 676
19.65531 603
19.67543 713
19.69554 714
19.71565 737
19.73577 700
19.75588 764
19.776 771
19.79611 789
19.81622 742
19.83634 781
19.85645 677
19.87656 721
19.89668 669
19.91679 644
19.93691 675
19.95702 656
19.97713 615
19.99725 571
20.01736 578
20.03747 551
20.05759 592
20.0777 593
20.09782 529
20.11793 588
20.13804 535
20.15816 525
20.17827 537
20.19838 571
20.2185 568
20.23861 566
20.25872 557
20.27884 557
20.29895 579
20.31907 612
20.33918 548
20.35929 537
20.37941 523
20.39952 622
20.41963 624
20.43975 622
20.45986 558
20.47998 621
20.50009 646
20.5202 670
20.54032 684
20.56043 764
20.58054 800
20.60066 890
20.62077 1067
20.64088 1242
20.661 1575
20.68111 1939
20.70123 2576
20.72134 3185
20.74145 3802
20.76157 4509
20.78168 4697
20.80179 4802
20.82191 4407
20.84202 3884
20.86214 3242
20.88225 2355
20.90236 1706
20.92248 1275
20.94259 932
20.9627 787
20.98282 735
21.00293 641
21.02305 606
21.04316 586
21.06327 538
21.08339 562
21.1035 508
21.12361 518
21.14373 535
21.16384 508
21.18395 509
21.20407 465
21.22418 476
21.2443 480
21.26441 510
21.28452 480
21.30464 486
21.32475 470
21.34486 461
21.36498 514
21.38509 440
21.40521 471
21.42532 467
21.44543 461
21.46555 447
21.48566 422
21.50577 419
21.52589 450
21.546 426
21.56612 475
21.58623 389
21.60634 397
21.62646 420
21.64657 404
21.66668 367
21.6868 394
21.70691 385
21.72702 395
21.74714 390
21.76725 369
21.78737 369
21.80748 366
21.82759 380
21.84771 369
21.86782 394
21.88793 361
21.90805 380
21.92816 350
21.94828 352
21.96839 398
21.9885 326
22.00862 344
22.02873 406
22.04884 328
22.06896 379
22.08907 337
22.10919 351
22.1293 359
22.14941 356
22.16953 321
22.18964 347
22.20975 354
22.22987 336
22.24998 367
22.27009 344
22.29021 362
22.31032 342
22.33044 352
22.35055 355
22.37066 349
22.39078 363
22.41089 336
22.431 354
22.45112 353
22.47123 384
22.49135 362
22.51146 334
22.53157 342
22.55169 325
22.5718 373
22.59191 371
22.61203 343
22.63214 369
22.65225 367
22.67237 358
22.69248 353
22.7126 362
22.73271 367
22.75282 359
22.77294 382
22.79305 385
22.81316 375
22.83328 366
22.85339 410
22.87351 340
22.89362 327
22.91373 366
22.93385 334
22.95396 314
22.97407 350
22.99419 404
23.0143 367
23.03442 334
23.05453 346
23.07464 325
23.09476 318
23.11487 337
23.13498 319
23.1551 346
23.17521 344
23.19532 334
23.21544 338
23.23555 360
23.25567 325
23.27578 335
23.29589 351
23.31601 341
23.33612 319
23.35623 334
23.37635 322
23.39646 372
23.41658 356
23.43669 330
23.4568 301
23.47692 324
23.49703 372
23.51714 332
23.53726 354
23.55737 357
23.57749 346
23.5976 365
23.61771 366
23.63783 365
23.65794 403
23.67805 371
23.69817 361
23.71828 365
23.73839 382
23.75851 364
23.77862 356
23.79874 359
23.81885 361
23.83896 366
23.85908 367
23.87919 413
23.8993 396
23.91942 429
23.93953 391
23.95965 407
23.97976 383
23.99987 404
24.01999 403
24.0401 398
24.06021 393
24.08033 401
24.10044 399
24.12056 405
24.14067 376
24.16078 378
24.1809 395
24.20101 381
24.22112 391
24.24124 397
24.26135 390
24.28146 403
24.30158 414
24.32169 396
24.34181 389
24.36192 364
24.38203 438
24.40215 425
24.42226 423
24.44237 399
24.46249 411
24.4826 459
24.50272 438
24.52283 406
24.54294 399
24.56306 474
24.58317 474
24.60328 422
24.6234 456
24.64351 448
24.66362 485
24.68374 449
24.70385 492
24.72397 444
24.74408 526
24.76419 478
24.78431 504
24.80442 478
24.82453 507
24.84465 459
24.86476 485
24.88488 460
24.90499 410
24.9251 475
24.94522 505
24.96533 476
24.98544 481
25.00556 446
25.02567 489
25.04579 484
25.0659 461
25.08601 468
25.10613 478
25.12624 492
25.14635 491
25.16647 478
25.18658 464
25.20669 484
25.22681 519
25.24692 481
25.26704 490
25.28715 490
25.30726 467
25.32738 467
25.34749 447
25.3676 440
25.38772 426
25.40783 497
25.42795 424
25.44806 430
25.46817 462
25.48829 404
25.5084 435
25.52851 353
25.54863 412
25.56874 446
25.58886 439
25.60897 474
25.62908 436
25.6492 467
25.66931 474
25.68942 493
25.70954 511
25.72965 568
25.74976 481
25.76988 502
25.78999 490
25.81011 525
25.83022 538
25.85033 548
25.87045 486
25.89056 540
25.91067 541
25.93079 584
25.9509 569
25.97102 603
25.99113 603
26.01124 598
26.03136 649
26.05147 670
26.07158 711
26.0917 719
26.11181 794
26.13193 775
26.15204 834
26.17215 928
26.19227 939
26.21238 1016
26.23249 1116
26.25261 1235
26.27272 1362
26.29283 1526
26.31295 1719
26.33306 2104
26.35318 2549
26.37329 3116
26.3934 3903
26.41352 5029
26.43363 6483
26.45374 8641
26.47386 11255
26.49397 14095
26.51409 17005
26.5342 19664
26.55431 20931
26.57443 21068
26.59454 19727
26.61465 17290
26.63477 14218
26.65488 11138
26.67499 8140
26.69511 5677
26.71522 3908
26.73534 2735
26.75545 2037
26.77556 1683
26.79568 1356
26.81579 1257
26.8359 1122
26.85602 989
26.87613 947
26.89625 866
26.91636 841
26.93647 754
26.95659 692
26.9767 656
26.99681 624
27.01693 536
27.03704 561
27.05716 567
27.07727 582
27.09738 519
27.1175 524
27.13761 516
27.15772 505
27.17784 491
27.19795 450
27.21806 438
27.23818 458
27.25829 465
27.27841 425
27.29852 424
27.31863 430
27.33875 428
27.35886 384
27.37897 425
27.39909 433
27.4192 404
27.43932 402
27.45943 437
27.47954 403
27.49966 419
27.51977 396
27.53988 424
27.56 403
27.58011 364
27.60023 392
27.62034 403
27.64045 394
27.66057 395
27.68068 419
27.70079 396
27.72091 420
27.74102 408
27.76113 382
27.78125 449
27.80136 434
27.82148 435
27.84159 389
27.8617 411
27.88182 387
27.90193 360
27.92204 324
27.94216 344
27.96227 359
27.98239 339
28.0025 358
28.02261 330
28.04273 370
28.06284 374
28.08295 363
28.10307 336
28.12318 335
28.1433 344
28.16341 366
28.18352 351
28.20364 356
28.22375 340
28.24386 290
28.26398 341
28.28409 334
28.3042 337
28.32432 308
28.34443 315
28.36455 351
28.38466 353
28.40477 341
28.42489 329
28.445 312
28.46511 329
28.48523 323
28.50534 314
28.52546 369
28.54557 344
28.56568 329
28.5858 304
28.60591 304
28.62602 310
28.64614 292
28.66625 371
28.68636 326
28.70648 322
28.72659 307
28.74671 329
28.76682 333
28.78693 342
28.80705 338
28.82716 338
28.84727 338
28.86739 322
28.8875 334
28.90762 333
28.92773 313
28.94784 341
28.96796 321
28.98807 349
29.00818 333
29.0283 312
29.04841 356
29.06853 371
29.08864 315
29.10875 326
29.12887 320
29.14898 370
29.16909 345
29.18921 322
29.20932 306
29.22943 308
29.24955 277
29.26966 298
29.28978 297
29.30989 300
29.33 305
29.35012 312
29.37023 321
29.39034 298
29.41046 297
29.43057 293
29.45069 286
29.4708 310
29.49091 290
29.51103 300
29.53114 352
29.55125 266
29.57137 294
29.59148 320
29.6116 329
29.63171 318
29.65182 340
29.67194 314
29.69205 312
29.71216 324
29.73228 323
29.75239 336
29.7725 315
29.79262 318
29.81273 352
29.83285 354
29.85296 319
29.87307 310
29.89319 320
29.9133 305
29.93341 336
29.95353 274
29.97364 325
29.99376 285
30.01387 312
30.03398 286
30.0541 277
30.07421 315
30.09432 295
30.11444 304
30.13455 304
30.15467 313
30.17478 313
30.19489 319
30.21501 287
30.23512 329
30.25523 293
30.27535 294
30.29546 280
30.31557 297
30.33569 262
30.3558 298
30.37592 284
30.39603 265
30.41614 295
30.43626 282
30.45637 289
30.47648 255
30.4966 324
30.51671 263
30.53683 298
30.55694 280
30.57705 259
30.59717 288
30.61728 284
30.63739 294
30.65751 287
30.67762 276
30.69773 264
30.71785 301
30.73796 284
30.75808 280
30.77819 242
30.7983 267
30.81842 252
30.83853 288
30.85864 268
30.87876 268
30.89887 292
30.91899 310
30.9391 281
30.95921 275
30.97933 300
30.99944 291
31.01955 295
31.03967 289
31.05978 277
31.0799 317
31.10001 268
31.12012 290
31.14024 294
31.16035 278
31.18046 317
31.20058 318
31.22069 288
31.2408 300
31.26092 319
31.28103 267
31.30115 294
31.32126 263
31.34137 288
31.36149 265
31.3816 281
31.40171 283
31.42183 288
31.44194 255
31.46206 287
31.48217 247
31.50228 232
31.5224 255
31.54251 261
31.56262 234
31.58274 246
31.60285 282
31.62297 260
31.64308 248
31.66319 271
31.68331 260
31.70342 271
31.72353 270
31.74365 284
31.76376 279
31.78387 256
31.80399 267
31.8241 260
31.84422 295
31.86433 264
31.88444 270
31.90456 257
31.92467 265
31.94478 260
31.9649 256
31.98501 277
32.00513 226
32.02524 232
32.04535 261
32.06547 285
32.08558 249
32.10569 254
32.12581 239
32.14592 233
32.16604 265
32.18615 265
32.20626 242
32.22638 218
32.24649 264
32.2666 244
32.28672 269
32.30683 230
32.32694 234
32.34706 239
32.36717 237
32.38729 232
32.4074 222
32.42751 222
32.44763 262
32.46774 245
32.48785 249
32.50797 256
32.52808 264
32.5482 233
32.56831 246
32.58842 260
32.60854 251
32.62865 223
32.64876 241
32.66888 256
32.68899 286
32.7091 259
32.72922 254
32.74933 235
32.76945 269
32.78956 263
32.80967 242
32.82979 232
32.8499 257
32.87001 250
32.89013 260
32.91024 267
32.93036 233
32.95047 233
32.97058 248
32.9907 247
33.01081 254
33.03092 260
33.05104 260
33.07115 277
33.09127 282
33.11138 293
33.13149 248
33.15161 272
33.17172 271
33.19183 246
33.21195 275
33.23206 227
33.25217 265
33.27229 277
33.2924 299
33.31252 256
33.33263 278
33.35274 247
33.37286 221
33.39297 265
33.41308 256
33.4332 297
33.45331 258
33.47343 262
33.49354 246
33.51365 264
33.53377 241
33.55388 263
33.57399 240
33.59411 260
33.61422 240
33.63434 225
33.65445 288
33.67456 259
33.69468 258
33.71479 247
33.7349 247
33.75502 255
33.77513 228
33.79524 241
33.81536 243
33.83547 220
33.85559 244
33.8757 242
33.89581 248
33.91593 220
33.93604 265
33.95615 259
33.97627 232
33.99638 224
34.0165 258
34.03661 239
34.05672 244
34.07684 222
34.09695 238
34.11706 265
34.13718 266
34.15729 264
34.17741 297
34.19752 290
34.21763 307
34.23775 265
34.25786 311
34.27797 303
34.29809 351
34.3182 345
34.33831 320
34.35843 372
34.37854 389
34.39866 425
34.41877 412
34.43888 470
34.459 447
34.47911 450
34.49922 426
34.51934 442
34.53945 432
34.55957 439
34.57968 426
34.59979 496
34.61991 508
34.64002 467
34.66013 526
34.68025 519
34.70036 568
34.72047 577
34.74059 617
34.7607 613
34.78082 622
34.80093 646
34.82104 611
34.84116 599
34.86127 638
34.88138 600
34.9015 533
34.92161 585
34.94173 548
34.96184 496
34.98195 514
35.00207 530
35.02218 436
35.04229 456
35.06241 450
35.08252 396
35.10264 402
35.12275 326
35.14286 346
35.16298 387
35.18309 327
35.2032 330
35.22332 348
35.24343 378
35.26354 358
35.28366 342
35.30377 372
35.32389 364
35.344 309
35.36411 391
35.38423 338
35.40434 387
35.42445 381
35.44457 349
35.46468 329
35.4848 348
35.50491 381
35.52502 384
35.54514 379
35.56525 369
35.58536 347
35.60548 369
35.62559 333
35.64571 330
35.66582 350
35.68593 372
35.70605 359
35.72616 367
35.74627 362
35.76639 369
35.7865 389
35.80661 407
35.82673 343
35.84684 357
35.86696 374
35.88707 346
35.90718 362
35.9273 423
35.94741 370
35.96752 355
35.98764 371
36.00775 382
36.02787 374
36.04798 404
36.06809 365
36.08821 397
36.10832 381
36.12843 376
36.14855 418
36.16866 429
36.18878 409
36.20889 441
36.229 470
36.24912 524
36.26923 588
36.28934 636
36.30946 704
36.32957 806
36.34968 932
36.3698 1057
36.38991 1243
36.41003 1438
36.43014 1532
36.45025 1675
36.47037 1570
36.49048 1525
36.51059 1395
36.53071 1261
36.55082 1108
36.57094 913
36.59105 811
36.61116 684
36.63128 575
36.65139 479
36.6715 450
36.69162 425
36.71173 417
36.73184 381
36.75196 390
36.77207 361
36.79219 353
36.8123 366
36.83241 389
36.85253 346
36.87264 366
36.89275 345
36.91287 363
36.93298 318
36.9531 337
36.97321 327
36.99332 313
37.01344 332
37.03355 323
37.05366 340
37.07378 327
37.09389 324
37.11401 344
37.13412 362
37.15423 334
37.17435 350
37.19446 337
37.21457 340
37.23469 323
37.2548 321
37.27491 337
37.29503 352
37.31514 374
37.33526 366
37.35537 332
37.37548 338
37.3956 344
37.41571 360
37.43582 364
37.45594 342
37.47605 384
37.49617 380
37.51628 408
37.53639 372
37.55651 351
37.57662 353
37.59673 371
37.61685 383
37.63696 393
37.65708 368
37.67719 409
37.6973 386
37.71742 349
37.73753 357
37.75764 369
37.77776 391
37.79787 362
37.81798 378
37.8381 320
37.85821 349
37.87833 355
37.89844 344
37.91855 335
37.93867 356
37.95878 370
37.97889 351
37.99901 346
38.01912 318
38.03924 354
38.05935 352
38.07946 351
38.09958 367
38.11969 331
38.1398 323
38.15992 380
38.18003 342
38.20015 390
38.22026 357
38.24037 366
38.26049 361
38.2806 332
38.30071 336
38.32083 387
38.34094 348
38.36105 344
38.38117 323
38.40128 375
38.4214 350
38.44151 334
38.46162 366
38.48174 352
38.50185 362
38.52196 320
38.54208 336
38.56219 335
38.58231 314
38.60242 341
38.62253 325
38.64265 310
38.66276 292
38.68287 319
38.70299 272
38.7231 324
38.74321 318
38.76333 307
38.78344 329
38.80356 264
38.82367 314
38.84378 321
38.8639 326
38.88401 330
38.90412 308
38.92424 312
38.94435 332
38.96447 309
38.98458 330
39.00469 340
39.02481 345
39.04492 345
39.06503 328
39.08515 351
39.10526 411
39.12538 371
39.14549 456
39.1656 460
39.18572 520
39.20583 569
39.22594 559
39.24606 749
39.26617 847
39.28628 962
39.3064 1130
39.32651 1245
39.34663 1334
39.36674 1462
39.38685 1530
39.40697 1435
39.42708 1308
39.44719 1164
39.46731 1064
39.48742 929
39.50754 793
39.52765 704
39.54776 600
39.56788 514
39.58799 440
39.6081 370
39.62822 350
39.64833 341
39.66845 304
39.68856 316
39.70867 318
39.72879 317
39.7489 287
39.76901 316
39.78913 309
39.80924 314
39.82935 356
39.84947 338
39.86958 319
39.8897 306
39.90981 342
39.92992 351
39.95004 362
39.97015 359
39.99026 334
40.01038 428
40.03049 479
40.05061 460
40.07072 516
40.09083 549
40.11095 647
40.13106 688
40.15117 721
40.17129 797
40.1914 810
40.21152 779
40.23163 777
40.25174 764
40.27186 677
40.29197 607
40.31208 584
40.3322 473
40.35231 489
40.37242 437
40.39254 396
40.41265 362
40.43277 301
40.45288 304
40.47299 310
40.49311 308
40.51322 284
40.53333 329
40.55345 291
40.57356 347
40.59368 299
40.61379 300
40.6339 254
40.65402 299
40.67413 305
40.69424 308
40.71436 317
40.73447 296
40.75458 304
40.7747 318
40.79481 266
40.81493 292
40.83504 274
40.85515 311
40.87527 286
40.89538 257
40.91549 298
40.93561 308
40.95572 312
40.97584 285
40.99595 311
41.01606 285
41.03618 268
41.05629 277
41.0764 302
41.09652 295
41.11663 276
41.13675 285
41.15686 273
41.17697 327
41.19709 283
41.2172 279
41.23731 290
41.25743 251
41.27754 279
41.29765 289
41.31777 283
41.33788 270
41.358 265
41.37811 285
41.39822 250
41.41834 275
41.43845 252
41.45856 256
41.47868 265
41.49879 276
41.51891 263
41.53902 271
41.55913 219
41.57925 249
41.59936 263
41.61947 238
41.63959 265
41.6597 289
41.67982 311
41.69993 253
41.72004 254
41.74016 283
41.76027 293
41.78038 285
41.8005 273
41.82061 291
41.84072 263
41.86084 304
41.88095 303
41.90107 311
41.92118 311
41.94129 314
41.96141 317
41.98152 310
42.00163 322
42.02175 355
42.04186 290
42.06198 349
42.08209 378
42.1022 344
42.12232 370
42.14243 422
42.16254 449
42.18266 485
42.20277 560
42.22289 558
42.243 654
42.26311 763
42.28323 930
42.30334 891
42.32345 1051
42.34357 1099
42.36368 1088
42.38379 1078
42.40391 972
42.42402 941
42.44414 857
42.46425 716
42.48436 691
42.50448 555
42.52459 510
42.5447 418
42.56482 400
42.58493 343
42.60505 328
42.62516 293
42.64527 285
42.66539 287
42.6855 253
42.70561 285
42.72573 242
42.74584 278
42.76595 267
42.78607 237
42.80618 272
42.8263 224
42.84641 221
42.86652 244
42.88664 252
42.90675 246
42.92686 246
42.94698 240
42.96709 220
42.98721 258
43.00732 255
43.02743 235
43.04755 252
43.06766 233
43.08777 260
43.10789 239
43.128 240
43.14812 259
43.16823 243
43.18834 251
43.20846 222
43.22857 229
43.24868 235
43.2688 252
43.28891 229
43.30902 208
43.32914 230
43.34925 213
43.36937 237
43.38948 219
43.40959 238
43.42971 242
43.44982 237
43.46993 202
43.49005 219
43.51016 234
43.53028 221
43.55039 210
43.5705 224
43.59062 243
43.61073 230
43.63084 221
43.65096 242
43.67107 209
43.69119 223
43.7113 197
43.73141 222
43.75153 222
43.77164 254
43.79175 221
43.81187 216
43.83198 254
43.85209 228
43.87221 218
43.89232 242
43.91244 224
43.93255 218
43.95266 233
43.97278 245
43.99289 217
44.013 232
44.03312 263
44.05323 200
44.07335 234
44.09346 211
44.11357 254
44.13369 210
44.1538 239
44.17391 234
44.19403 242
44.21414 215
44.23426 233
44.25437 214
44.27448 218
44.2946 216
44.31471 220
44.33482 225
44.35494 204
44.37505 200
44.39516 230
44.41528 245
44.43539 229
44.45551 238
44.47562 235
44.49573 217
44.51585 227
44.53596 233
44.55607 250
44.57619 264
44.5963 233
44.61642 238
44.63653 226
44.65664 208
44.67676 236
44.69687 236
44.71698 227
44.7371 255
44.75721 237
44.77732 248
44.79744 244
44.81755 247
44.83767 243
44.85778 241
44.87789 265
44.89801 260
44.91812 275
44.93823 228
44.95835 279
44.97846 281
44.99858 272
45.01869 248
45.0388 255
45.05892 239
45.07903 241
45.09914 256
45.11926 259
45.13937 259
45.15949 274
45.1796 263
45.19971 288
45.21983 279
45.23994 309
45.26005 294
45.28017 294
45.30028 328
45.32039 270
45.34051 288
45.36062 299
45.38074 330
45.40085 319
45.42096 342
45.44108 345
45.46119 364
45.4813 396
45.50142 390
45.52153 433
45.54165 441
45.56176 498
45.58187 574
45.60199 539
45.6221 606
45.64221 696
45.66233 764
45.68244 805
45.70256 830
45.72267 784
45.74278 769
45.7629 673
45.78301 628
45.80312 596
45.82324 558
45.84335 531
45.86346 440
45.88358 408
45.90369 388
45.92381 361
45.94392 308
45.96403 314
45.98415 284
46.00426 271
46.02437 262
46.04449 288
46.0646 248
46.08472 228
46.10483 246
46.12494 251
46.14506 245
46.16517 245
46.18528 270
46.2054 250
46.22551 238
46.24563 249
46.26574 224
46.28585 252
46.30597 248
46.32608 244
46.34619 269
46.36631 242
46.38642 233
46.40653 207
46.42665 220
46.44676 234
46.46688 288
46.48699 224
46.5071 232
46.52722 220
46.54733 221
46.56744 237
46.58756 241
46.60767 254
46.62779 221
46.6479 242
46.66801 238
46.68813 224
46.70824 246
46.72835 224
46.74847 243
46.76858 207
46.78869 238
46.80881 260
46.82892 246
46.84904 201
46.86915 217
46.88926 209
46.90938 211
46.92949 230
46.9496 201
46.96972 226
46.98983 218
47.00995 207
47.03006 232
47.05017 233
47.07029 195
47.0904 200
47.11051 220
47.13063 215
47.15074 213
47.17086 225
47.19097 237
47.21108 188
47.2312 250
47.25131 253
47.27142 221
47.29154 241
47.31165 248
47.33176 205
47.35188 196
47.37199 231
47.39211 246
47.41222 182
47.43233 215
47.45245 205
47.47256 245
47.49267 213
47.51279 225
47.5329 218
47.55302 234
47.57313 217
47.59324 190
47.61336 227
47.63347 218
47.65358 252
47.6737 236
47.69381 241
47.71393 233
47.73404 252
47.75415 242
47.77427 232
47.79438 235
47.81449 257
47.83461 237
47.85472 230
47.87483 239
47.89495 246
47.91506 230
47.93518 223
47.95529 229
47.9754 239
47.99552 222
48.01563 257
48.03574 236
48.05586 214
48.07597 221
48.09609 237
48.1162 230
48.13631 227
48.15643 219
48.17654 226
48.19665 207
48.21677 228
48.23688 237
48.257 210
48.27711 233
48.29722 239
48.31734 205
48.33745 219
48.35756 216
48.37768 229
48.39779 222
48.4179 211
48.43802 247
48.45813 245
48.47825 210
48.49836 250
48.51847 197
48.53859 216
48.5587 204
48.57881 218
48.59893 217
48.61904 210
48.63916 217
48.65927 242
48.67938 231
48.6995 203
48.71961 231
48.73972 219
48.75984 179
48.77995 258
48.80006 236
48.82018 220
48.84029 219
48.86041 216
48.88052 209
48.90063 211
48.92075 224
48.94086 244
48.96097 218
48.98109 224
49.0012 222
49.02132 231
49.04143 204
49.06154 214
49.08166 237
49.10177 256
49.12188 230
49.142 235
49.16211 208
49.18223 266
49.20234 245
49.22245 252
49.24257 240
49.26268 230
49.28279 223
49.30291 216
49.32302 208
49.34313 237
49.36325 241
49.38336 241
49.40348 251
49.42359 264
49.4437 267
49.46382 254
49.48393 220
49.50404 269
49.52416 243
49.54427 267
49.56439 265
49.5845 291
49.60461 289
49.62473 302
49.64484 334
49.66495 317
49.68507 330
49.70518 360
49.7253 366
49.74541 401
49.76552 470
49.78564 502
49.80575 526
49.82586 562
49.84598 666
49.86609 791
49.8862 887
49.90632 1031
49.92643 1228
49.94655 1373
49.96666 1625
49.98677 1820
50.00689 1984
50.027 2123
50.04711 2136
50.06723 2233
50.08734 2030
50.10746 1802
50.12757 1668
50.14768 1511
50.1678 1348
50.18791 1188
50.20802 1074
50.22814 857
50.24825 721
50.26837 580
50.28848 469
50.30859 414
50.32871 350
50.34882 344
50.36893 346
50.38905 310
50.40916 323
50.42927 308
50.44939 291
50.4695 308
50.48962 306
50.50973 297
50.52984 282
50.54996 283
50.57007 262
50.59018 259
50.6103 267
50.63041 256
50.65053 238
50.67064 246
50.69075 252
50.71087 244
50.73098 235
50.75109 221
50.77121 246
50.79132 227
50.81143 215
50.83155 202
50.85166 239
50.87178 237
50.89189 176
50.912 199
50.93212 220
50.95223 175
50.97234 248
50.99246 211
51.01257 176
51.03269 198
51.0528 247
51.07291 213
51.09303 219
51.11314 220
51.13325 220
51.15337 200
51.17348 207
51.1936 222
51.21371 215
51.23382 209
51.25394 210
51.27405 245
51.29416 193
51.31428 201
51.33439 192
51.3545 197
51.37462 210
51.39473 193
51.41485 194
51.43496 211
51.45507 199
51.47519 186
51.4953 204
51.51541 201
51.53553 194
51.55564 214
51.57576 185
51.59587 206
51.61598 195
51.6361 220
51.65621 216
51.67632 213
51.69644 219
51.71655 192
51.73667 209
51.75678 202
51.77689 186
51.79701 194
51.81712 193
51.83723 199
51.85735 208
51.87746 242
51.89757 203
51.91769 182
51.9378 208
51.95792 214
51.97803 179
51.99814 211
52.01826 196
52.03837 213
52.05848 193
52.0786 209
52.09871 208
52.11883 190
52.13894 216
52.15905 193
52.17917 196
52.19928 201
52.21939 229
52.23951 215
52.25962 193
52.27974 191
52.29985 198
52.31996 189
52.34008 216
52.36019 234
52.3803 203
52.40042 200
52.42053 223
52.44064 219
52.46076 197
52.48087 218
52.50099 189
52.5211 206
52.54121 226
52.56133 222
52.58144 201
52.60155 222
52.62167 241
52.64178 201
52.6619 217
52.68201 207
52.70212 222
52.72224 194
52.74235 216
52.76246 209
52.78258 217
52.80269 195
52.8228 199
52.84292 208
52.86303 214
52.88315 227
52.90326 217
52.92337 218
52.94349 213
52.9636 173
52.98371 230
53.00383 211
53.02394 217
53.04406 195
53.06417 222
53.08428 212
53.1044 219
53.12451 212
53.14462 237
53.16474 213
53.18485 238
53.20497 220
53.22508 184
53.24519 228
53.26531 244
53.28542 250
53.30553 231
53.32565 236
53.34576 242
53.36587 265
53.38599 211
53.4061 234
53.42622 259
53.44633 244
53.46644 245
53.48656 238
53.50667 252
53.52678 237
53.5469 263
53.56701 259
53.58713 255
53.60724 264
53.62735 243
53.64747 274
53.66758 283
53.68769 287
53.70781 263
53.72792 261
53.74804 259
53.76815 268
53.78826 265
53.80838 285
53.82849 253
53.8486 290
53.86872 240
53.88883 255
53.90894 274
53.92906 269
53.94917 282
53.96929 266
53.9894 282
54.00951 267
54.02963 277
54.04974 246
54.06985 295
54.08997 273
54.11008 296
54.1302 261
54.15031 287
54.17042 279
54.19054 277
54.21065 301
54.23076 297
54.25088 296
54.27099 291
54.29111 290
54.31122 328
54.33133 289
54.35145 291
54.37156 284
54.39167 310
54.41179 291
54.4319 271
54.45201 356
54.47213 328
54.49224 319
54.51236 337
54.53247 390
54.55258 396
54.5727 388
54.59281 429
54.61292 474
54.63304 514
54.65315 534
54.67327 637
54.69338 656
54.71349 734
54.73361 822
54.75372 828
54.77383 810
54.79395 831
54.81406 784
54.83417 748
54.85429 679
54.8744 670
54.89452 634
54.91463 663
54.93474 556
54.95486 547
54.97497 557
54.99508 507
55.0152 490
55.03531 419
55.05543 414
55.07554 414
55.09565 438
55.11577 461
55.13588 461
55.15599 496
55.17611 513
55.19622 530
55.21634 537
55.23645 517
55.25656 542
55.27668 541
55.29679 528
55.3169 439
55.33702 436
55.35713 396
55.37724 446
55.39736 411
55.41747 377
55.43759 349
55.4577 320
55.47781 297
55.49793 327
55.51804 311
55.53815 297
55.55827 291
55.57838 298
55.5985 316
55.61861 287
55.63872 306
55.65884 271
55.67895 268
55.69906 282
55.71918 252
55.73929 275
55.75941 278
55.77952 271
55.79963 258
55.81975 267
55.83986 291
55.85997 282
55.88009 264
55.9002 272
55.92031 255
55.94043 254
55.96054 274
55.98066 246
56.00077 261
56.02088 285
56.041 282
56.06111 288
56.08122 278
56.10134 287
56.12145 255
56.14157 266
56.16168 256
56.18179 238
56.20191 242
56.22202 273
56.24213 259
56.26225 267
56.28236 225
56.30248 253
56.32259 248
56.3427 251
56.36282 278
56.38293 245
56.40304 247
56.42316 260
56.44327 250
56.46338 238
56.4835 242
56.50361 203
56.52373 238
56.54384 243
56.56395 238
56.58407 252
56.60418 208
56.62429 204
56.64441 246
56.66452 252
56.68464 236
56.70475 219
56.72486 240
56.74498 225
56.76509 247
56.7852 237
56.80532 218
56.82543 236
56.84554 235
56.86566 233
56.88577 223
56.90589 242
56.926 220
56.94611 266
56.96623 224
56.98634 234
57.00645 278
57.02657 235
57.04668 232
57.0668 248
57.08691 276
57.10702 226
57.12714 288
57.14725 245
57.16736 255
57.18748 229
57.20759 272
57.22771 271
57.24782 275
57.26793 248
57.28805 261
57.30816 232
57.32827 258
57.34839 239
57.3685 218
57.38861 248
57.40873 248
57.42884 238
57.44896 194
57.46907 223
57.48918 263
57.5093 237
57.52941 233
57.54952 205
57.56964 239
57.58975 242
57.60987 208
57.62998 214
57.65009 226
57.67021 230
57.69032 247
57.71043 238
57.73055 236
57.75066 208
57.77078 205
57.79089 228
57.811 230
57.83112 201
57.85123 222
57.87134 204
57.89146 194
57.91157 208
57.93168 215
57.9518 192
57.97191 199
57.99203 216
58.01214 196
58.03225 198
58.05237 197
58.07248 222
58.09259 208
58.11271 220
58.13282 236
58.15294 211
58.17305 217
58.19316 228
58.21328 183
58.23339 216
58.2535 203
58.27362 214
58.29373 197
58.31385 215
58.33396 250
58.35407 223
58.37419 227
58.3943 226
58.41441 224
58.43453 222
58.45464 230
58.47475 195
58.49487 234
58.51498 204
58.5351 198
58.55521 224
58.57532 227
58.59544 209
58.61555 200
58.63566 206
58.65578 212
58.67589 223
58.69601 233
58.71612 220
58.73623 198
58.75635 220
58.77646 234
58.79657 209
58.81669 246
58.8368 223
58.85691 213
58.87703 230
58.89714 234
58.91726 230
58.93737 227
58.95748 229
58.9776 221
58.99771 253
59.01782 224
59.03794 221
59.05805 234
59.07817 233
59.09828 245
59.11839 254
59.13851 226
59.15862 226
59.17873 237
59.19885 240
59.21896 247
59.23908 227
59.25919 240
59.2793 241
59.29942 228
59.31953 234
59.33964 247
59.35976 278
59.37987 254
59.39998 284
59.4201 286
59.44021 285
59.46033 284
59.48044 286
59.50055 327
59.52067 333
59.54078 396
59.56089 375
59.58101 384
59.60112 439
59.62124 463
59.64135 526
59.66146 556
59.68158 640
59.70169 715
59.7218 770
59.74192 882
59.76203 1075
59.78215 1169
59.80226 1225
59.82237 1361
59.84249 1446
59.8626 1462
59.88271 1317
59.90283 1225
59.92294 1153
59.94305 1088
59.96317 1013
59.98328 933
60.0034 812
60.02351 845
60.04362 767
60.06374 672
60.08385 546
60.10396 529
60.12408 410
60.14419 387
60.16431 345
60.18442 307
60.20453 282
60.22465 260
60.24476 258
60.26487 258
60.28499 248
60.3051 259
60.32522 247
60.34533 240
60.36544 234
60.38556 220
60.40567 209
60.42578 240
60.4459 226
60.46601 224
60.48612 200
60.50624 234
60.52635 222
60.54647 213
60.56658 236
60.58669 227
60.60681 234
60.62692 211
60.64703 223
60.66715 213
60.68726 233
60.70738 213
60.72749 206
60.7476 249
60.76772 228
60.78783 235
60.80794 250
60.82806 240
60.84817 205
60.86828 219
60.8884 240
60.90851 243
60.92863 239
60.94874 226
60.96885 222
60.98897 226
61.00908 236
61.02919 227
61.04931 274
61.06942 241
61.08954 229
61.10965 226
61.12976 240
61.14988 246
61.16999 241
61.1901 226
61.21022 247
61.23033 237
61.25045 288
61.27056 308
61.29067 263
61.31079 289
61.3309 308
61.35101 274
61.37113 312
61.39124 318
61.41135 299
61.43147 335
61.45158 329
61.4717 334
61.49181 361
61.51192 356
61.53204 337
61.55215 337
61.57226 330
61.59238 348
61.61249 347
61.63261 321
61.65272 351
61.67283 307
61.69295 291
61.71306 280
61.73317 324
61.75329 291
61.7734 308
61.79352 299
61.81363 299
61.83374 291
61.85386 264
61.87397 278
61.89408 285
61.9142 272
61.93431 295
61.95442 283
61.97454 287
61.99465 286
62.01477 321
62.03488 308
62.05499 304
62.07511 345
62.09522 320
62.11533 319
62.13545 336
62.15556 324
62.17568 303
62.19579 319
62.2159 311
62.23602 336
62.25613 329
62.27624 284
62.29636 292
62.31647 312
62.33659 304
62.3567 283
62.37681 276
62.39693 262
62.41704 268
62.43715 301
62.45727 293
62.47738 266
62.49749 276
62.51761 251
62.53772 233
62.55784 276
62.57795 267
62.59806 249
62.61818 227
62.63829 219
62.6584 233
62.67852 251
62.69863 214
62.71875 218
62.73886 219
62.75897 213
62.77909 232
62.7992 226
62.81931 234
62.83943 218
62.85954 207
62.87965 197
62.89977 211
62.91988 239
62.94 196
62.96011 220
62.98022 227
63.00034 177
63.02045 214
63.04056 220
63.06068 203
63.08079 225
63.10091 190
63.12102 202
63.14113 215
63.16125 234
63.18136 206
63.20147 224
63.22159 186
63.2417 218
63.26182 204
63.28193 213
63.30204 216
63.32216 219
63.34227 190
63.36238 242
63.3825 186
63.40261 228
63.42272 215
63.44284 221
63.46295 211
63.48307 226
63.50318 201
63.52329 208
63.54341 209
63.56352 216
63.58363 249
63.60375 241
63.62386 225
63.64398 224
63.66409 234
63.6842 270
63.70432 289
63.72443 281
63.74454 294
63.76466 297
63.78477 296
63.80489 318
63.825 333
63.84511 367
63.86523 370
63.88534 404
63.90545 459
63.92557 443
63.94568 453
63.96579 420
63.98591 395
64.00602 357
64.02614 369
64.04625 341
64.06636 346
64.08648 336
64.10659 285
64.1267 297
64.14682 287
64.16693 304
64.18705 286
64.20716 249
64.22727 242
64.24739 216
64.2675 226
64.28761 250
64.30773 202
64.32784 226
64.34796 195
64.36807 203
64.38818 186
64.4083 209
64.42841 201
64.44852 205
64.46864 183
64.48875 175
64.50886 182
64.52898 200
64.54909 203
64.56921 181
64.58932 195
64.60943 191
64.62955 194
64.64966 187
64.66977 170
64.68989 198
64.71 205
64.73012 202
64.75023 205
64.77034 209
64.79046 193
64.81057 200
64.83068 218
64.8508 155
64.87091 201
64.89102 183
64.91114 170
64.93125 201
64.95137 196
64.97148 190
64.99159 180
65.01171 229
65.03182 182
65.05193 185
65.07205 205
65.09216 191
65.11228 191
65.13239 201
65.1525 188
65.17262 195
65.19273 195
65.21284 216
65.23296 226
65.25307 188
65.27319 205
65.2933 210
65.31341 190
65.33353 199
65.35364 207
65.37375 199
65.39387 229
65.41398 192
65.43409 209
65.45421 202
65.47432 214
65.49444 231
65.51455 232
65.53466 233
65.55478 235
65.57489 240
65.595 221
65.61512 236
65.63523 281
65.65535 247
65.67546 237
65.69557 252
65.71569 249
65.7358 233
65.75591 241
65.77603 232
65.79614 191
65.81626 202
65.83637 233
65.85648 235
65.8766 250
65.89671 212
65.91682 206
65.93694 210
65.95705 189
65.97716 213
65.99728 190
66.01739 181
66.03751 198
66.05762 180
66.07773 178
66.09785 195
66.11796 191
66.13807 197
66.15819 192
66.1783 204
66.19842 199
66.21853 204
66.23864 227
66.25876 180
66.27887 195
66.29898 190
66.3191 181
66.33921 194
66.35933 173
66.37944 203
66.39955 195
66.41967 222
66.43978 205
66.45989 171
66.48001 195
66.50012 200
66.52023 212
66.54035 207
66.56046 193
66.58058 209
66.60069 234
66.6208 217
66.64092 219
66.66103 198
66.68114 203
66.70126 199
66.72137 190
66.74149 228
66.7616 206
66.78171 194
66.80183 207
66.82194 193
66.84205 208
66.86217 193
66.88228 199
66.90239 248
66.92251 226
66.94262 217
66.96274 233
66.98285 214
67.00296 225
67.02308 176
67.04319 216
67.0633 209
67.08342 222
67.10353 222
67.12365 227
67.14376 237
67.16387 235
67.18399 232
67.2041 243
67.22421 246
67.24433 257
67.26444 265
67.28456 255
67.30467 259
67.32478 280
67.3449 320
67.36501 359
67.38512 391
67.40524 351
67.42535 415
67.44546 429
67.46558 497
67.48569 530
67.50581 587
67.52592 626
67.54603 700
67.56615 763
67.58626 839
67.60637 874
67.62649 899
67.6466 921
67.66672 914
67.68683 814
67.70694 796
67.72706 809
67.74717 756
67.76728 727
67.7874 762
67.80751 780
67.82763 782
67.84774 796
67.86785 824
67.88797 879
67.90808 835
67.92819 947
67.94831 912
67.96842 1034
67.98853 1112
68.00865 1228
68.02876 1248
68.04888 1206
68.06899 1249
68.0891 1206
68.10922 1179
68.12933 1127
68.14944 1161
68.16956 1159
68.18967 1119
68.20979 1090
68.2299 1078
68.25001 940
68.27013 890
68.29024 846
68.31035 750
68.33047 630
68.35058 601
68.3707 545
68.39081 538
68.41092 501
68.43104 415
68.45115 424
68.47126 370
68.49138 340
68.51149 286
68.5316 290
68.55172 272
68.57183 272
68.59195 237
68.61206 232
68.63217 222
68.65229 258
68.6724 212
68.69251 240
68.71263 197
68.73274 200
68.75286 229
68.77297 221
68.79308 209
68.8132 232
68.83331 191
68.85342 235
68.87354 219
68.89365 205
68.91376 183
68.93388 215
68.95399 239
68.97411 190
68.99422 227
69.01433 202
69.03445 208
69.05456 205
69.07467 218
69.09479 201
69.1149 233
69.13502 210
69.15513 208
69.17524 201
69.19536 210
69.21547 218
69.23558 198
69.2557 201
69.27581 217
69.29593 214
69.31604 194
69.33615 214
69.35627 210
69.37638 203
69.39649 213
69.41661 211
69.43672 185
69.45683 206
69.47695 201
69.49706 228
69.51718 185
69.53729 195
69.5574 199
69.57752 182
69.59763 202
69.61774 203
69.63786 211
69.65797 208
69.67809 208
69.6982 208
69.71831 229
69.73843 206
69.75854 197
69.77865 205
69.79877 203
69.81888 195
69.839 199
69.85911 192
69.87922 182
69.89934 205
69.91945 216
69.93956 195
69.95968 183
69.97979 225
69.9999 186
70.02002 217
70.04013 189
70.06025 219
70.08036 210
70.10047 199
70.12059 196
70.1407 228
70.16081 204
70.18093 192
70.20104 213
70.22116 211
70.24127 225
70.26138 216
70.2815 204
70.30161 193
70.32172 195
70.34184 200
70.36195 194
70.38207 197
70.40218 181
70.42229 195
70.44241 172
70.46252 184
70.48263 177
70.50275 196
70.52286 182
70.54297 209
70.56309 209
70.5832 186
70.60332 197
70.62343 172
70.64354 173
70.66366 187
70.68377 187
70.70388 201
70.724 187
70.74411 206
70.76423 187
70.78434 187
70.80445 178
70.82457 181
70.84468 177
70.86479 209
70.88491 183
70.90502 167
70.92513 203
70.94525 183
70.96536 224
70.98548 194
71.00559 174
71.0257 189
71.04582 181
71.06593 183
71.08604 199
71.10616 190
71.12627 197
71.14639 196
71.1665 175
71.18661 202
71.20673 199
71.22684 181
71.24695 187
71.26707 184
71.28718 169
71.3073 182
71.32741 184
71.34752 155
71.36764 186
71.38775 183
71.40786 192
71.42798 160
71.44809 181
71.4682 172
71.48832 171
71.50843 187
71.52855 192
71.54866 184
71.56877 193
71.58889 191
71.609 162
71.62911 179
71.64923 167
71.66934 193
71.68946 192
71.70957 183
71.72968 194
71.7498 184
71.76991 195
71.79002 181
71.81014 194
71.83025 204
71.85037 181
71.87048 188
71.89059 186
71.91071 178
71.93082 201
71.95093 204
71.97105 180
71.99116 176
72.01127 197
72.03139 187
72.0515 192
72.07162 176
72.09173 212
72.11184 223
72.13196 194
72.15207 194
72.17218 166
72.1923 195
72.21241 213
72.23253 207
72.25264 202
72.27275 218
72.29287 234
72.31298 209
72.33309 203
72.35321 231
72.37332 206
72.39344 212
72.41355 228
72.43366 218
72.45378 221
72.47389 224
72.494 222
72.51412 246
72.53423 222
72.55434 224
72.57446 224
72.59457 212
72.61469 221
72.6348 206
72.65491 237
72.67503 221
72.69514 240
72.71525 243
72.73537 230
72.75548 244
72.7756 228
72.79571 214
72.81582 229
72.83594 228
72.85605 211
72.87616 199
72.89628 215
72.91639 247
72.9365 224
72.95662 226
72.97673 196
72.99685 227
73.01696 225
73.03707 256
73.05719 218
73.0773 225
73.09741 241
73.11753 257
73.13764 232
73.15776 299
73.17787 297
73.19798 307
73.2181 332
73.23821 351
73.25832 378
73.27844 391
73.29855 416
73.31867 415
73.33878 473
73.35889 430
73.37901 430
73.39912 432
73.41923 368
73.43935 400
73.45946 366
73.47957 349
73.49969 335
73.5198 287
73.53992 303
73.56003 310
73.58014 325
73.60026 340
73.62037 284
73.64048 258
73.6606 274
73.68071 269
73.70083 239
73.72094 226
73.74105 199
73.76117 228
73.78128 204
73.80139 207
73.82151 220
73.84162 198
73.86174 226
73.88185 195
73.90196 177
73.92208 198
73.94219 205
73.9623 227
73.98242 211
74.00253 201
74.02264 225
74.04276 205
74.06287 189
74.08299 196
74.1031 174
74.12321 197
74.14333 195
74.16344 191
74.18355 180
74.20367 187
74.22378 174
74.2439 224
74.26401 188
74.28412 176
74.30424 197
74.32435 162
74.34446 193
74.36458 219
74.38469 170
74.40481 175
74.42492 184
74.44503 202
74.46515 177
74.48526 170
74.50537 186
74.52549 190
74.5456 188
74.56571 167
74.58583 195
74.60594 193
74.62606 198
74.64617 186
74.66628 192
74.6864 208
74.70651 197
74.72662 180
74.74674 200
74.76685 183
74.78697 194
74.80708 189
74.82719 174
74.84731 205
74.86742 208
74.88753 207
74.90765 189
74.92776 208
74.94787 194
74.96799 179
74.9881 191
75.00822 191
