3.00117 25615
3.02128 24535
3.0414 24512
3.06151 23628
3.08162 22760
3.10174 22633
3.12185 21587
3.14197 21280
3.16208 20163
3.18219 20026
3.20231 19710
3.22242 18782
3.24253 18411
3.26265 17774
3.28276 17323
3.30288 16922
3.32299 16080
3.3431 15843
3.36322 15107
3.38333 14729
3.40344 14401
3.42356 13763
3.44367 13519
3.46379 12920
3.4839 12557
3.50401 12150
3.52413 11448
3.54424 11479
3.56435 10819
3.58447 10587
3.60458 10220
3.62469 9590
3.64481 9160
3.66492 8856
3.68504 8916
3.70515 8364
3.72526 8003
3.74538 7664
3.76549 7249
3.7856 7156
3.80572 6951
3.82583 6482
3.84595 6209
3.86606 6099
3.88617 5796
3.90629 5671
3.9264 5219
3.94651 5121
3.96663 4811
3.98674 4664
4.00686 4656
4.02697 4174
4.04708 4213
4.0672 3962
4.08731 3769
4.10742 3573
4.12754 3404
4.14765 3267
4.16776 3191
4.18788 3024
4.20799 3078
4.22811 2644
4.24822 2793
4.26833 2652
4.28845 2515
4.30856 2575
4.32867 2262
4.34879 2255
4.3689 2177
4.38902 2095
4.40913 2150
4.42924 2006
4.44936 1913
4.46947 1996
4.48958 1871
4.5097 1838
4.52981 1684
4.54992 1641
4.57004 1773
4.59015 1651
4.61027 1760
4.63038 1450
4.65049 1546
4.67061 1570
4.69072 1437
4.71083 1395
4.73095 1431
4.75106 1408
4.77118 1383
4.79129 1319
4.8114 1412
4.83152 1221
4.85163 1195
4.87174 1232
4.89186 1138
4.91197 1146
4.93209 1095
4.9522 1086
4.97231 1091
4.99243 1036
5.01254 1073
5.03265 1057
5.05277 1019
5.07288 1047
5.09299 950
5.11311 946
5.13322 955
5.15334 972
5.17345 884
5.19356 958
5.21368 810
5.23379 849
5.2539 909
5.27402 803
5.29413 825
5.31425 797
5.33436 794
5.35447 760
5.37459 818
5.3947 722
5.41481 728
5.43493 708
5.45504 673
5.47516 786
5.49527 707
5.51538 629
5.5355 655
5.55561 608
5.57572 694
5.59584 701
5.61595 619
5.63606 614
5.65618 572
5.67629 602
5.69641 640
5.71652 587
5.73663 556
5.75675 569
5.77686 585
5.79697 588
5.81709 564
5.8372 584
5.85732 580
5.87743 570
5.89754 583
5.91766 506
5.93777 504
5.95788 514
5.978 616
5.99811 541
6.01823 551
6.03834 545
6.05845 517
6.07857 543
6.09868 552
6.11879 523
6.13891 575
6.15902 488
6.17913 541
6.19925 574
6.21936 531
6.23948 535
6.25959 541
6.2797 553
6.29982 475
6.31993 484
6.34004 492
6.36016 498
6.38027 523
6.40039 499
6.4205 500
6.44061 493
6.46073 485
6.48084 525
6.50095 456
6.52107 464
6.54118 461
6.56129 491
6.58141 447
6.60152 441
6.62164 432
6.64175 473
6.66186 489
6.68198 457
6.70209 438
6.7222 523
6.74232 495
6.76243 460
6.78255 484
6.80266 464
6.82277 430
6.84289 450
6.863 480
6.88311 485
6.90323 505
6.92334 450
6.94346 473
6.96357 475
6.98368 462
7.0038 512
7.02391 438
7.04402 462
7.06414 465
7.08425 483
7.10436 446
7.12448 498
7.14459 415
7.16471 453
7.18482 462
7.20493 412
7.22505 444
7.24516 435
7.26527 475
7.28539 436
7.3055 423
7.32562 442
7.34573 466
7.36584 456
7.38596 444
7.40607 476
7.42618 447
7.4463 430
7.46641 459
7.48653 413
7.50664 433
7.52675 422
7.54687 468
7.56698 454
7.58709 449
7.60721 480
7.62732 437
7.64743 439
7.66755 459
7.68766 446
7.70778 428
7.72789 438
7.748 469
7.76812 439
7.78823 438
7.80834 438
7.82846 428
7.84857 381
7.86869 469
7.8888 491
7.90891 417
7.92903 429
7.94914 474
7.96925 445
7.98937 441
8.00948 425
8.0296 450
8.04971 418
8.06982 438
8.08994 412
8.11005 471
8.13016 469
8.15028 401
8.17039 480
8.1905 450
8.21062 400
8.23073 436
8.25085 438
8.27096 490
8.29107 413
8.31119 412
8.3313 424
8.35141 418
8.37153 452
8.39164 411
8.41176 443
8.43187 447
8.45198 383
8.4721 458
8.49221 433
8.51232 477
8.53244 407
8.55255 462
8.57266 470
8.59278 438
8.61289 408
8.63301 456
8.65312 434
8.67323 435
8.69335 432
8.71346 446
8.73357 405
8.75369 450
8.7738 412
8.79392 395
8.81403 421
8.83414 433
8.85426 453
8.87437 431
8.89448 421
8.9146 475
8.93471 429
8.95483 435
8.97494 418
8.99505 419
9.01517 428
9.03528 431
9.05539 467
9.07551 438
9.09562 465
9.11573 457
9.13585 427
9.15596 406
9.17608 428
9.19619 440
9.2163 407
9.23642 436
9.25653 453
9.27664 429
9.29676 433
9.31687 417
9.33699 366
9.3571 442
9.37721 382
9.39733 438
9.41744 421
9.43755 403
9.45767 414
9.47778 440
9.4979 443
9.51801 380
9.53812 375
9.55824 395
9.57835 398
9.59846 437
9.61858 448
9.63869 440
9.6588 408
9.67892 440
9.69903 425
9.71915 425
9.73926 400
9.75937 398
9.77949 402
9.7996 428
9.81971 412
9.83983 399
9.85994 387
9.88006 404
9.90017 403
9.92028 416
9.9404 416
9.96051 430
9.98062 442
10.00074 404
10.02085 424
10.04097 385
10.06108 418
10.08119 428
10.10131 439
10.12142 435
10.14153 429
10.16165 409
10.18176 385
10.20187 404
10.22199 436
10.2421 464
10.26222 436
10.28233 400
10.30244 422
10.32256 395
10.34267 400
10.36278 425
10.3829 434
10.40301 434
10.42313 434
10.44324 431
10.46335 417
10.48347 387
10.50358 419
10.52369 419
10.54381 402
10.56392 408
10.58403 447
10.60415 380
10.62426 387
10.64438 427
10.66449 438
10.6846 427
10.70472 415
10.72483 412
10.74494 387
10.76506 397
10.78517 436
10.80529 422
10.8254 464
10.84551 444
10.86563 404
10.88574 400
10.90585 431
10.92597 429
10.94608 433
10.9662 436
10.98631 438
11.00642 408
11.02654 405
11.04665 433
11.06676 406
11.08688 411
11.10699 423
11.1271 435
11.14722 415
11.16733 458
11.18745 421
11.20756 466
11.22767 431
11.24779 451
11.2679 438
11.28801 445
11.30813 451
11.32824 476
11.34836 480
11.36847 472
11.38858 457
11.4087 394
11.42881 428
11.44892 420
11.46904 438
11.48915 441
11.50927 458
11.52938 466
11.54949 441
11.56961 457
11.58972 453
11.60983 446
11.62995 447
11.65006 448
11.67017 467
11.69029 479
11.7104 477
11.73052 476
11.75063 529
11.77074 492
11.79086 483
11.81097 482
11.83108 537
11.8512 558
11.87131 528
11.89143 547
11.91154 563
11.93165 549
11.95177 614
11.97188 631
11.99199 628
12.01211 649
12.03222 620
12.05234 726
12.07245 672
12.09256 752
12.11268 747
12.13279 828
12.1529 809
12.17302 895
12.19313 944
12.21324 950
12.23336 959
12.25347 930
12.27359 961
12.2937 1066
12.31381 1039
12.33393 1032
12.35404 1008
12.37415 917
12.39427 947
12.41438 883
12.4345 909
12.45461 831
12.47472 796
12.49484 762
12.51495 726
12.53506 704
12.55518 677
12.57529 606
12.5954 645
12.61552 592
12.63563 601
12.65575 554
12.67586 537
12.69597 543
12.71609 502
12.7362 531
12.75631 495
12.77643 507
12.79654 502
12.81666 514
12.83677 475
12.85688 454
12.877 435
12.89711 456
12.91722 438
12.93734 420
12.95745 491
12.97757 470
12.99768 459
13.01779 443
13.03791 411
13.05802 435
13.07813 410
13.09825 447
13.11836 441
13.13847 401
13.15859 436
13.1787 379
13.19882 401
13.21893 442
13.23904 427
13.25916 432
13.27927 439
13.29938 426
13.3195 385
13.33961 372
13.35973 415
13.37984 402
13.39995 366
13.42007 385
13.44018 412
13.46029 426
13.48041 405
13.50052 408
13.52064 372
13.54075 399
13.56086 390
13.58098 393
13.60109 386
13.6212 419
13.64132 386
13.66143 403
13.68154 374
13.70166 389
13.72177 398
13.74189 405
13.762 363
13.78211 413
13.80223 415
13.82234 416
13.84245 378
13.86257 385
13.88268 397
13.9028 372
13.92291 394
13.94302 416
13.96314 369
13.98325 352
14.00336 401
14.02348 399
14.04359 351
14.06371 402
14.08382 395
14.10393 404
14.12405 411
14.14416 368
14.16427 378
14.18439 371
14.2045 360
14.22461 417
14.24473 348
14.26484 414
14.28496 415
14.30507 377
14.32518 375
14.3453 378
14.36541 394
14.38552 342
14.40564 343
14.42575 383
14.44587 395
14.46598 376
14.48609 379
14.50621 352
14.52632 372
14.54643 428
14.56655 371
14.58666 379
14.60677 373
14.62689 376
14.647 388
14.66712 371
14.68723 343
14.70734 391
14.72746 354
14.74757 396
14.76768 337
14.7878 392
14.80791 368
14.82803 361
14.84814 368
14.86825 381
14.88837 372
14.90848 357
14.92859 380
14.94871 420
14.96882 365
14.98894 368
15.00905 369
15.02916 324
15.04928 432
15.06939 353
15.0895 387
15.10962 382
15.12973 375
15.14984 381
15.16996 380
15.19007 374
15.21019 377
15.2303 371
15.25041 383
15.27053 387
15.29064 376
15.31075 347
15.33087 340
15.35098 372
15.3711 341
15.39121 389
15.41132 341
15.43144 353
15.45155 366
15.47166 349
15.49178 376
15.51189 396
15.53201 392
15.55212 342
15.57223 341
15.59235 404
15.61246 376
15.63257 371
15.65269 392
15.6728 348
15.69291 375
15.71303 361
15.73314 430
15.75326 353
15.77337 380
15.79348 361
15.8136 378
15.83371 346
15.85382 364
15.87394 357
15.89405 352
15.91417 346
15.93428 363
15.95439 422
15.97451 393
15.99462 333
16.01473 372
16.03485 393
16.05496 326
16.07508 365
16.09519 408
16.1153 389
16.13542 373
16.15553 379
16.17564 373
16.19576 392
16.21587 392
16.23598 396
16.2561 400
16.27621 380
16.29633 349
16.31644 404
16.33655 382
16.35667 371
16.37678 370
16.39689 364
16.41701 393
16.43712 382
16.45724 342
16.47735 420
16.49746 373
16.51758 387
16.53769 383
16.5578 368
16.57792 375
16.59803 366
16.61814 356
16.63826 385
16.65837 354
16.67849 350
16.6986 345
16.71871 323
16.73883 369
16.75894 375
16.77905 380
16.79917 363
16.81928 361
16.8394 366
16.85951 412
16.87962 364
16.89974 387
16.91985 354
16.93996 375
16.96008 394
16.98019 413
17.00031 323
17.02042 371
17.04053 426
17.06065 351
17.08076 372
17.10087 427
17.12099 366
17.1411 368
17.16121 356
17.18133 419
17.20144 370
17.22156 371
17.24167 366
17.26178 374
17.2819 396
17.30201 377
17.32212 378
17.34224 364
17.36235 396
17.38247 356
17.40258 372
17.42269 374
17.44281 353
17.46292 398
17.48303 382
17.50315 378
17.52326 365
17.54338 364
17.56349 337
17.5836 368
17.60372 418
17.62383 363
17.64394 405
17.66406 402
17.68417 398
17.70428 412
17.7244 381
17.74451 418
17.76463 398
17.78474 380
17.80485 408
17.82497 425
17.84508 402
17.86519 391
17.88531 401
17.90542 418
17.92554 423
17.94565 396
17.96576 408
17.98588 392
18.00599 395
18.0261 387
18.04622 405
18.06633 390
18.08645 400
18.10656 405
18.12667 398
18.14679 382
18.1669 377
18.18701 394
18.20713 423
18.22724 393
18.24735 391
18.26747 418
18.28758 454
18.3077 421
18.32781 381
18.34792 423
18.36804 400
18.38815 411
18.40826 427
18.42838 397
18.44849 414
18.46861 380
18.48872 392
18.50883 385
18.52895 389
18.54906 397
18.56917 389
18.58929 369
18.6094 425
18.62951 397
18.64963 420
18.66974 402
18.68986 407
18.70997 377
18.73008 358
18.7502 408
18.77031 385
18.79042 376
18.81054 381
18.83065 382
18.85077 411
18.87088 408
18.89099 355
18.91111 356
18.93122 390
18.95133 401
18.97145 409
18.99156 362
19.01168 380
19.03179 400
19.0519 419
19.07202 382
19.09213 398
19.11224 388
19.13236 391
19.15247 407
19.17258 401
19.1927 391
19.21281 423
19.23293 374
19.25304 416
19.27315 417
19.29327 402
19.31338 418
19.33349 391
19.35361 424
19.37372 402
19.39384 403
19.41395 418
19.43406 448
19.45418 440
19.47429 418
19.4944 435
19.51452 407
19.53463 486
19.55475 500
19.57486 444
19.59497 498
19.61509 561
19.6352 511
19.65531 542
19.67543 624
19.69554 637
19.71565 657
19.73577 720
19.75588 793
19.776 837
19.79611 879
19.81622 945
19.83634 1010
19.85645 979
19.87656 1019
19.89668 964
19.91679 983
19.93691 989
19.95702 914
19.97713 948
19.99725 850
20.01736 890
20.03747 874
20.05759 900
20.0777 844
20.09782 870
20.11793 834
20.13804 860
20.15816 872
20.17827 818
20.19838 809
20.2185 872
20.23861 765
20.25872 821
20.27884 829
20.29895 793
20.31907 849
20.33918 876
20.35929 836
20.37941 822
20.39952 860
20.41963 862
20.43975 865
20.45986 848
20.47998 833
20.50009 859
20.5202 862
20.54032 876
20.56043 868
20.58054 894
20.60066 954
20.62077 961
20.64088 1052
20.661 1051
20.68111 1267
20.70123 1373
20.72134 1741
20.74145 2152
20.76157 2809
20.78168 3407
20.80179 3976
20.82191 4399
20.84202 4392
20.86214 4173
20.88225 3600
20.90236 2907
20.92248 2191
20.94259 1737
20.9627 1305
20.98282 1182
21.00293 975
21.02305 932
21.04316 867
21.06327 899
21.08339 888
21.1035 893
21.12361 882
21.14373 834
21.16384 843
21.18395 906
21.20407 890
21.22418 814
21.2443 856
21.26441 858
21.28452 880
21.30464 868
21.32475 915
21.34486 822
21.36498 859
21.38509 860
21.40521 870
21.42532 829
21.44543 848
21.46555 812
21.48566 781
21.50577 824
21.52589 805
21.546 818
21.56612 736
21.58623 752
21.60634 751
21.62646 748
21.64657 728
21.66668 735
21.6868 752
21.70691 715
21.72702 691
21.74714 599
21.76725 695
21.78737 744
21.80748 652
21.82759 680
21.84771 707
21.86782 659
21.88793 630
21.90805 615
21.92816 650
21.94828 638
21.96839 623
21.9885 611
22.00862 588
22.02873 647
22.04884 667
22.06896 635
22.08907 610
22.10919 572
22.1293 593
22.14941 640
22.16953 603
22.18964 553
22.20975 579
22.22987 600
22.24998 579
22.27009 560
22.29021 554
22.31032 583
22.33044 598
22.35055 594
22.37066 602
22.39078 556
22.41089 568
22.431 546
22.45112 561
22.47123 607
22.49135 557
22.51146 531
22.53157 540
22.55169 586
22.5718 550
22.59191 572
22.61203 578
22.63214 524
22.65225 509
22.67237 562
22.69248 534
22.7126 578
22.73271 574
22.75282 558
22.77294 590
22.79305 524
22.81316 539
22.83328 597
22.85339 564
22.87351 551
22.89362 546
22.91373 545
22.93385 524
22.95396 504
22.97407 531
22.99419 533
23.0143 526
23.03442 513
23.05453 575
23.07464 516
23.09476 539
23.11487 524
23.13498 515
23.1551 557
23.17521 504
23.19532 504
23.21544 530
23.23555 507
23.25567 538
23.27578 494
23.29589 537
23.31601 536
23.33612 517
23.35623 516
23.37635 479
23.39646 440
23.41658 493
23.43669 537
23.4568 538
23.47692 507
23.49703 494
23.51714 507
23.53726 499
23.55737 521
23.57749 487
23.5976 529
23.61771 497
23.63783 511
23.65794 525
23.67805 500
23.69817 525
23.71828 551
23.73839 553
23.75851 551
23.77862 549
23.79874 588
23.81885 537
23.83896 551
23.85908 507
23.87919 561
23.8993 534
23.91942 639
23.93953 555
23.95965 573
23.97976 560
23.99987 600
24.01999 548
24.0401 617
24.06021 544
24.08033 536
24.10044 570
24.12056 544
24.14067 591
24.16078 571
24.1809 516
24.20101 619
24.22112 586
24.24124 628
24.26135 549
24.28146 564
24.30158 609
24.32169 545
24.34181 518
24.36192 575
24.38203 590
24.40215 624
24.42226 585
24.44237 567
24.46249 581
24.4826 620
24.50272 633
24.52283 634
24.54294 674
24.56306 652
24.58317 661
24.60328 713
24.6234 714
24.64351 774
24.66362 747
24.68374 733
24.70385 826
24.72397 815
24.74408 838
24.76419 830
24.78431 877
24.80442 881
24.82453 947
24.84465 934
24.86476 900
24.88488 923
24.90499 922
24.9251 892
24.94522 888
24.96533 851
24.98544 828
25.00556 834
25.02567 775
25.04579 800
25.0659 751
25.08601 785
25.10613 752
25.12624 678
25.14635 736
25.16647 720
25.18658 668
25.20669 691
25.22681 692
25.24692 684
25.26704 706
25.28715 706
25.30726 640
25.32738 661
25.34749 646
25.3676 624
25.38772 598
25.40783 622
25.42795 569
25.44806 591
25.46817 535
25.48829 598
25.5084 563
25.52851 556
25.54863 586
25.56874 519
25.58886 617
25.60897 553
25.62908 629
25.6492 554
25.66931 629
25.68942 573
25.70954 596
25.72965 672
25.74976 658
25.76988 649
25.78999 605
25.81011 615
25.83022 613
25.85033 633
25.87045 620
25.89056 634
25.91067 705
25.93079 629
25.9509 621
25.97102 664
25.99113 662
26.01124 682
26.03136 648
26.05147 667
26.07158 711
26.0917 734
26.11181 778
26.13193 734
26.15204 810
26.17215 780
26.19227 860
26.21238 886
26.23249 906
26.25261 993
26.27272 1024
26.29283 1052
26.31295 1098
26.33306 1237
26.35318 1376
26.37329 1406
26.3934 1782
26.41352 1941
26.43363 2490
26.45374 3233
26.47386 4304
26.49397 5868
26.51409 7878
26.5342 10692
26.55431 13601
26.57443 16181
26.59454 17920
26.61465 18120
26.63477 16980
26.65488 14959
26.67499 11836
26.69511 8901
26.71522 6404
26.73534 4489
26.75545 2987
26.77556 2170
26.79568 1616
26.81579 1410
26.8359 1221
26.85602 1146
26.87613 1111
26.89625 1001
26.91636 897
26.93647 855
26.95659 827
26.9767 746
26.99681 731
27.01693 722
27.03704 666
27.05716 632
27.07727 640
27.09738 637
27.1175 650
27.13761 571
27.15772 612
27.17784 584
27.19795 598
27.21806 564
27.23818 588
27.25829 566
27.27841 562
27.29852 558
27.31863 599
27.33875 562
27.35886 556
27.37897 558
27.39909 572
27.4192 548
27.43932 585
27.45943 533
27.47954 528
27.49966 550
27.51977 510
27.53988 529
27.56 520
27.58011 519
27.60023 515
27.62034 506
27.64045 551
27.66057 540
27.68068 495
27.70079 541
27.72091 529
27.74102 487
27.76113 506
27.78125 510
27.80136 514
27.82148 511
27.84159 507
27.8617 531
27.88182 473
27.90193 488
27.92204 532
27.94216 526
27.96227 499
27.98239 536
28.0025 489
28.02261 491
28.04273 484
28.06284 490
28.08295 453
28.10307 458
28.12318 478
28.1433 539
28.16341 474
28.18352 447
28.20364 461
28.22375 454
28.24386 486
28.26398 475
28.28409 466
28.3042 476
28.32432 468
28.34443 483
28.36455 470
28.38466 482
28.40477 441
28.42489 470
28.445 435
28.46511 458
28.48523 478
28.50534 472
28.52546 441
28.54557 492
28.56568 489
28.5858 455
28.60591 453
28.62602 481
28.64614 424
28.66625 468
28.68636 465
28.70648 479
28.72659 441
28.74671 415
28.76682 481
28.78693 428
28.80705 427
28.82716 461
28.84727 457
28.86739 449
28.8875 456
28.90762 433
28.92773 438
28.94784 472
28.96796 436
28.98807 436
29.00818 457
29.0283 414
29.04841 456
29.06853 449
29.08864 464
29.10875 441
29.12887 407
29.14898 457
29.16909 425
29.18921 447
29.20932 439
29.22943 447
29.24955 413
29.26966 426
29.28978 409
29.30989 431
29.33 496
29.35012 436
29.37023 445
29.39034 465
29.41046 434
29.43057 431
29.45069 432
29.4708 438
29.49091 446
29.51103 437
29.53114 418
29.55125 418
29.57137 443
29.59148 429
29.6116 457
29.63171 414
29.65182 449
29.67194 448
29.69205 453
29.71216 470
29.73228 467
29.75239 438
29.7725 439
29.79262 449
29.81273 443
29.83285 400
29.85296 433
29.87307 467
29.89319 429
29.9133 437
29.93341 443
29.95353 441
29.97364 414
29.99376 450
30.01387 413
30.03398 438
30.0541 431
30.07421 479
30.09432 446
30.11444 448
30.13455 461
30.15467 467
30.17478 456
30.19489 422
30.21501 467
30.23512 428
30.25523 450
30.27535 471
30.29546 425
30.31557 452
30.33569 404
30.3558 425
30.37592 421
30.39603 453
30.41614 456
30.43626 403
30.45637 423
30.47648 416
30.4966 410
30.51671 450
30.53683 468
30.55694 395
30.57705 427
30.59717 451
30.61728 444
30.63739 431
30.65751 448
30.67762 409
30.69773 453
30.71785 407
30.73796 381
30.75808 429
30.77819 459
30.7983 426
30.81842 406
30.83853 456
30.85864 440
30.87876 442
30.89887 433
30.91899 408
30.9391 438
30.95921 413
30.97933 431
30.99944 399
31.01955 428
31.03967 432
31.05978 422
31.0799 443
31.10001 424
31.12012 431
31.14024 440
31.16035 418
31.18046 435
31.20058 439
31.22069 447
31.2408 409
31.26092 440
31.28103 448
31.30115 419
31.32126 436
31.34137 418
31.36149 387
31.3816 474
31.40171 449
31.42183 407
31.44194 424
31.46206 411
31.48217 419
31.50228 438
31.5224 465
31.54251 410
31.56262 420
31.58274 433
31.60285 407
31.62297 428
31.64308 458
31.66319 421
31.68331 425
31.70342 422
31.72353 439
31.74365 389
31.76376 402
31.78387 389
31.80399 429
31.8241 405
31.84422 406
31.86433 409
31.88444 438
31.90456 423
31.92467 376
31.94478 434
31.9649 428
31.98501 471
32.00513 396
32.02524 406
32.04535 454
32.06547 442
32.08558 427
32.10569 426
32.12581 455
32.14592 423
32.16604 414
32.18615 423
32.20626 416
32.22638 428
32.24649 403
32.2666 446
32.28672 420
32.30683 444
32.32694 465
32.34706 424
32.36717 423
32.38729 531
32.4074 491
32.42751 469
32.44763 475
32.46774 498
32.48785 486
32.50797 452
32.52808 529
32.5482 461
32.56831 467
32.58842 471
32.60854 484
32.62865 462
32.64876 467
32.66888 465
32.68899 447
32.7091 421
32.72922 424
32.74933 468
32.76945 492
32.78956 475
32.80967 478
32.82979 499
32.8499 497
32.87001 452
32.89013 517
32.91024 489
32.93036 513
32.95047 440
32.97058 527
32.9907 511
33.01081 551
33.03092 514
33.05104 539
33.07115 510
33.09127 563
33.11138 534
33.13149 534
33.15161 537
33.17172 545
33.19183 520
33.21195 542
33.23206 538
33.25217 539
33.27229 529
33.2924 533
33.31252 532
33.33263 483
33.35274 503
33.37286 489
33.39297 531
33.41308 525
33.4332 489
33.45331 519
33.47343 527
33.49354 522
33.51365 546
33.53377 497
33.55388 500
33.57399 475
33.59411 443
33.61422 497
33.63434 471
33.65445 493
33.67456 490
33.69468 466
33.71479 450
33.7349 475
33.75502 455
33.77513 471
33.79524 441
33.81536 473
33.83547 467
33.85559 449
33.8757 449
33.89581 404
33.91593 426
33.93604 434
33.95615 426
33.97627 460
33.99638 409
34.0165 450
34.03661 419
34.05672 441
34.07684 428
34.09695 398
34.11706 434
34.13718 372
34.15729 446
34.17741 408
34.19752 397
34.21763 453
34.23775 445
34.25786 419
34.27797 457
34.29809 426
34.3182 412
34.33831 461
34.35843 466
34.37854 440
34.39866 437
34.41877 522
34.43888 453
34.459 437
34.47911 479
34.49922 498
34.51934 464
34.53945 507
34.55957 504
34.57968 542
34.59979 550
34.61991 562
34.64002 527
34.66013 547
34.68025 568
34.70036 577
34.72047 594
34.74059 585
34.7607 662
34.78082 658
34.80093 687
34.82104 686
34.84116 716
34.86127 730
34.88138 809
34.9015 794
34.92161 736
34.94173 694
34.96184 721
34.98195 751
35.00207 729
35.02218 684
35.04229 718
35.06241 750
35.08252 695
35.10264 661
35.12275 648
35.14286 637
35.16298 586
35.18309 647
35.2032 617
35.22332 644
35.24343 651
35.26354 613
35.28366 630
35.30377 634
35.32389 595
35.344 650
35.36411 618
35.38423 639
35.40434 668
35.42445 655
35.44457 642
35.46468 680
35.4848 663
35.50491 663
35.52502 744
35.54514 735
35.56525 702
35.58536 693
35.60548 719
35.62559 722
35.64571 716
35.66582 765
35.68593 711
35.70605 790
35.72616 800
35.74627 811
35.76639 784
35.7865 743
35.80661 745
35.82673 768
35.84684 774
35.86696 719
35.88707 801
35.90718 724
35.9273 726
35.94741 719
35.96752 728
35.98764 668
36.00775 688
36.02787 623
36.04798 715
36.06809 645
36.08821 642
36.10832 584
36.12843 604
36.14855 582
36.16866 661
36.18878 574
36.20889 598
36.229 584
36.24912 662
36.26923 601
36.28934 679
36.30946 660
36.32957 724
36.34968 772
36.3698 852
36.38991 977
36.41003 1054
36.43014 1230
36.45025 1473
36.47037 1502
36.49048 1668
36.51059 1611
36.53071 1532
36.55082 1385
36.57094 1320
36.59105 1208
36.61116 1115
36.63128 867
36.65139 826
36.6715 730
36.69162 720
36.71173 613
36.73184 627
36.75196 608
36.77207 585
36.79219 596
36.8123 616
36.83241 595
36.85253 565
36.87264 566
36.89275 576
36.91287 635
36.93298 573
36.9531 607
36.97321 558
36.99332 598
37.01344 586
37.03355 605
37.05366 571
37.07378 588
37.09389 561
37.11401 579
37.13412 608
37.15423 566
37.17435 556
37.19446 605
37.21457 537
37.23469 566
37.2548 572
37.27491 573
37.29503 505
37.31514 562
37.33526 541
37.35537 522
37.37548 534
37.3956 545
37.41571 534
37.43582 571
37.45594 562
37.47605 571
37.49617 540
37.51628 540
37.53639 561
37.55651 554
37.57662 502
37.59673 531
37.61685 545
37.63696 568
37.65708 563
37.67719 573
37.6973 564
37.71742 557
37.73753 554
37.75764 558
37.77776 527
37.79787 543
37.81798 578
37.8381 554
37.85821 541
37.87833 542
37.89844 548
37.91855 543
37.93867 524
37.95878 565
37.97889 536
37.99901 572
38.01912 546
38.03924 534
38.05935 576
38.07946 551
38.09958 627
38.11969 608
38.1398 572
38.15992 592
38.18003 634
38.20015 618
38.22026 641
38.24037 712
38.26049 667
38.2806 692
38.30071 707
38.32083 686
38.34094 713
38.36105 745
38.38117 720
38.40128 693
38.4214 711
38.44151 674
38.46162 721
38.48174 674
38.50185 654
38.52196 700
38.54208 637
38.56219 631
38.58231 659
38.60242 636
38.62253 599
38.64265 600
38.66276 595
38.68287 578
38.70299 596
38.7231 499
38.74321 530
38.76333 523
38.78344 538
38.80356 532
38.82367 551
38.84378 540
38.8639 566
38.88401 570
38.90412 569
38.92424 583
38.94435 550
38.96447 583
38.98458 559
39.00469 543
39.02481 570
39.04492 598
39.06503 595
39.08515 578
39.10526 608
39.12538 553
39.14549 597
39.1656 591
39.18572 629
39.20583 644
39.22594 692
39.24606 716
39.26617 776
39.28628 818
39.3064 905
39.32651 1008
39.34663 1144
39.36674 1274
39.38685 1467
39.40697 1544
39.42708 1453
39.44719 1425
39.46731 1385
39.48742 1223
39.50754 1171
39.52765 1045
39.54776 930
39.56788 773
39.58799 685
39.6081 652
39.62822 534
39.64833 541
39.66845 487
39.68856 505
39.70867 474
39.72879 459
39.7489 475
39.76901 428
39.78913 491
39.80924 495
39.82935 445
39.84947 473
39.86958 463
39.8897 463
39.90981 470
39.92992 502
39.95004 446
39.97015 488
39.99026 541
40.01038 554
40.03049 581
40.05061 531
40.07072 563
40.09083 569
40.11095 584
40.13106 628
40.15117 733
40.17129 754
40.1914 893
40.21152 901
40.23163 980
40.25174 968
40.27186 971
40.29197 954
40.31208 826
40.3322 785
40.35231 748
40.37242 691
40.39254 653
40.41265 581
40.43277 566
40.45288 542
40.47299 509
40.49311 501
40.51322 515
40.53333 524
40.55345 482
40.57356 504
40.59368 514
40.61379 479
40.6339 495
40.65402 468
40.67413 453
40.69424 474
40.71436 496
40.73447 466
40.75458 532
40.7747 476
40.79481 501
40.81493 497
40.83504 457
40.85515 463
40.87527 493
40.89538 475
40.91549 520
40.93561 489
40.95572 494
40.97584 491
40.99595 508
41.01606 499
41.03618 483
41.05629 452
41.0764 499
41.09652 487
41.11663 484
41.13675 505
41.15686 493
41.17697 480
41.19709 496
41.2172 505
41.23731 448
41.25743 477
41.27754 446
41.29765 465
41.31777 455
41.33788 443
41.358 452
41.37811 457
41.39822 488
41.41834 453
41.43845 430
41.45856 466
41.47868 473
41.49879 464
41.51891 453
41.53902 445
41.55913 469
41.57925 459
41.59936 493
41.61947 471
41.63959 466
41.6597 427
41.67982 432
41.69993 470
41.72004 441
41.74016 429
41.76027 431
41.78038 442
41.8005 428
41.82061 430
41.84072 444
41.86084 441
41.88095 438
41.90107 431
41.92118 478
41.94129 408
41.96141 459
41.98152 415
42.00163 443
42.02175 411
42.04186 443
42.06198 449
42.08209 451
42.1022 467
42.12232 454
42.14243 481
42.16254 458
42.18266 495
42.20277 554
42.22289 538
42.243 552
42.26311 620
42.28323 654
42.30334 759
42.32345 871
42.34357 1009
42.36368 1098
42.38379 1145
42.40391 1118
42.42402 1147
42.44414 1008
42.46425 972
42.48436 855
42.50448 806
42.52459 776
42.5447 634
42.56482 594
42.58493 525
42.60505 531
42.62516 482
42.64527 432
42.66539 422
42.6855 424
42.70561 428
42.72573 420
42.74584 406
42.76595 396
42.78607 415
42.80618 354
42.8263 414
42.84641 402
42.86652 380
42.88664 386
42.90675 421
42.92686 419
42.94698 414
42.96709 377
42.98721 422
43.00732 387
43.02743 360
43.04755 399
43.06766 365
43.08777 381
43.10789 385
43.128 412
43.14812 368
43.16823 445
43.18834 370
43.20846 385
43.22857 389
43.24868 401
43.2688 377
43.28891 392
43.30902 352
43.32914 366
43.34925 379
43.36937 402
43.38948 408
43.40959 403
43.42971 392
43.44982 367
43.46993 363
43.49005 412
43.51016 370
43.53028 372
43.55039 418
43.5705 425
43.59062 393
43.61073 396
43.63084 420
43.65096 398
43.67107 373
43.69119 376
43.7113 373
43.73141 394
43.75153 358
43.77164 405
43.79175 347
43.81187 407
43.83198 420
43.85209 409
43.87221 359
43.89232 392
43.91244 365
43.93255 384
43.95266 404
43.97278 395
43.99289 401
44.013 425
44.03312 414
44.05323 386
44.07335 407
44.09346 391
44.11357 407
44.13369 372
44.1538 380
44.17391 387
44.19403 402
44.21414 420
44.23426 385
44.25437 379
44.27448 430
44.2946 412
44.31471 426
44.33482 395
44.35494 428
44.37505 380
44.39516 362
44.41528 397
44.43539 379
44.45551 385
44.47562 403
44.49573 380
44.51585 374
44.53596 412
44.55607 434
44.57619 388
44.5963 415
44.61642 401
44.63653 391
44.65664 407
44.67676 397
44.69687 367
44.71698 406
44.7371 390
44.75721 396
44.77732 395
44.79744 414
44.81755 426
44.83767 386
44.85778 398
44.87789 438
44.89801 432
44.91812 423
44.93823 421
44.95835 429
44.97846 451
44.99858 413
45.01869 401
45.0388 471
45.05892 394
45.07903 422
45.09914 412
45.11926 435
45.13937 434
45.15949 410
45.1796 447
45.19971 449
45.21983 434
45.23994 486
45.26005 459
45.28017 463
45.30028 436
45.32039 456
45.34051 445
45.36062 471
45.38074 445
45.40085 504
45.42096 507
45.44108 527
45.46119 489
45.4813 493
45.50142 521
45.52153 552
45.54165 536
45.56176 573
45.58187 546
45.60199 582
45.6221 589
45.64221 662
45.66233 708
45.68244 811
45.70256 856
45.72267 898
45.74278 974
45.7629 879
45.78301 847
45.80312 801
45.82324 703
45.84335 689
45.86346 690
45.88358 663
45.90369 626
45.92381 540
45.94392 484
45.96403 497
45.98415 428
46.00426 475
46.02437 462
46.04449 448
46.0646 436
46.08472 462
46.10483 402
46.12494 419
46.14506 405
46.16517 407
46.18528 372
46.2054 413
46.22551 422
46.24563 446
46.26574 411
46.28585 435
46.30597 415
46.32608 431
46.34619 403
46.36631 398
46.38642 397
46.40653 434
46.42665 427
46.44676 453
46.46688 402
46.48699 377
46.5071 454
46.52722 416
46.54733 428
46.56744 431
46.58756 435
46.60767 417
46.62779 411
46.6479 414
46.66801 424
46.68813 395
46.70824 420
46.72835 446
46.74847 409
46.76858 428
46.78869 443
46.80881 418
46.82892 425
46.84904 405
46.86915 448
46.88926 396
46.90938 401
46.92949 425
46.9496 417
46.96972 394
46.98983 412
47.00995 407
47.03006 422
47.05017 404
47.07029 425
47.0904 397
47.11051 390
47.13063 446
47.15074 396
47.17086 414
47.19097 382
47.21108 412
47.2312 413
47.25131 363
47.27142 381
47.29154 397
47.31165 409
47.33176 405
47.35188 425
47.37199 400
47.39211 417
47.41222 378
47.43233 408
47.45245 391
47.47256 408
47.49267 415
47.51279 424
47.5329 403
47.55302 388
47.57313 421
47.59324 393
47.61336 440
47.63347 425
47.65358 371
47.6737 409
47.69381 436
47.71393 410
47.73404 399
47.75415 441
47.77427 429
47.79438 418
47.81449 418
47.83461 424
47.85472 406
47.87483 415
47.89495 413
47.91506 418
47.93518 459
47.95529 457
47.9754 449
47.99552 450
48.01563 408
48.03574 409
48.05586 447
48.07597 363
48.09609 412
48.1162 401
48.13631 419
48.15643 405
48.17654 418
48.19665 391
48.21677 424
48.23688 370
48.257 371
48.27711 410
48.29722 410
48.31734 408
48.33745 383
48.35756 397
48.37768 400
48.39779 422
48.4179 394
48.43802 403
48.45813 392
48.47825 407
48.49836 394
48.51847 422
48.53859 386
48.5587 394
48.57881 383
48.59893 398
48.61904 413
48.63916 432
48.65927 432
48.67938 401
48.6995 410
48.71961 381
48.73972 440
48.75984 413
48.77995 400
48.80006 388
48.82018 408
48.84029 367
48.86041 380
48.88052 398
48.90063 422
48.92075 436
48.94086 372
48.96097 403
48.98109 412
49.0012 409
49.02132 373
49.04143 381
49.06154 383
49.08166 396
49.10177 398
49.12188 416
49.142 404
49.16211 390
49.18223 399
49.20234 441
49.22245 429
49.24257 449
49.26268 414
49.28279 398
49.30291 460
49.32302 427
49.34313 435
49.36325 452
49.38336 442
49.40348 446
49.42359 406
49.4437 449
49.46382 482
49.48393 454
49.50404 503
49.52416 446
49.54427 465
49.56439 423
49.5845 440
49.60461 468
49.62473 465
49.64484 470
49.66495 414
49.68507 435
49.70518 499
49.7253 503
49.74541 488
49.76552 446
49.78564 513
49.80575 532
49.82586 571
49.84598 542
49.86609 640
49.8862 617
49.90632 744
49.92643 804
49.94655 938
49.96666 1060
49.98677 1189
50.00689 1536
50.027 1770
50.04711 1921
50.06723 2141
50.08734 2185
50.10746 2105
50.12757 1819
50.14768 1628
50.1678 1573
50.18791 1421
50.20802 1347
50.22814 1238
50.24825 1078
50.26837 945
50.28848 760
50.30859 675
50.32871 601
50.34882 537
50.36893 476
50.38905 511
50.40916 490
50.42927 452
50.44939 466
50.4695 464
50.48962 438
50.50973 424
50.52984 455
50.54996 463
50.57007 417
50.59018 465
50.6103 476
50.63041 436
50.65053 462
50.67064 422
50.69075 462
50.71087 432
50.73098 432
50.75109 428
50.77121 426
50.79132 413
50.81143 400
50.83155 433
50.85166 414
50.87178 425
50.89189 376
50.912 418
50.93212 397
50.95223 414
50.97234 412
50.99246 432
51.01257 417
51.03269 388
51.0528 407
51.07291 431
51.09303 436
51.11314 387
51.13325 420
51.15337 391
51.17348 433
51.1936 407
51.21371 376
51.23382 350
51.25394 392
51.27405 390
51.29416 378
51.31428 385
51.33439 367
51.3545 440
51.37462 391
51.39473 435
51.41485 387
51.43496 364
51.45507 363
51.47519 397
51.4953 382
51.51541 407
51.53553 359
51.55564 395
51.57576 381
51.59587 391
51.61598 357
51.6361 357
51.65621 366
51.67632 391
51.69644 336
51.71655 371
51.73667 353
51.75678 370
51.77689 376
51.79701 336
51.81712 355
51.83723 377
51.85735 371
51.87746 378
51.89757 368
51.91769 362
51.9378 385
51.95792 351
51.97803 376
51.99814 352
52.01826 379
52.03837 376
52.05848 358
52.0786 379
52.09871 335
52.11883 364
52.13894 388
52.15905 384
52.17917 358
52.19928 405
52.21939 382
52.23951 357
52.25962 388
52.27974 384
52.29985 388
52.31996 369
52.34008 388
52.36019 394
52.3803 365
52.40042 398
52.42053 409
52.44064 378
52.46076 388
52.48087 370
52.50099 404
52.5211 366
52.54121 369
52.56133 367
52.58144 378
52.60155 379
52.62167 352
52.64178 398
52.6619 381
52.68201 375
52.70212 389
52.72224 382
52.74235 377
52.76246 374
52.78258 357
52.80269 371
52.8228 376
52.84292 414
52.86303 423
52.88315 400
52.90326 394
52.92337 422
52.94349 394
52.9636 421
52.98371 381
53.00383 400
53.02394 363
53.04406 359
53.06417 384
53.08428 397
53.1044 398
53.12451 392
53.14462 405
53.16474 365
53.18485 416
53.20497 380
53.22508 400
53.24519 405
53.26531 411
53.28542 450
53.30553 428
53.32565 390
53.34576 427
53.36587 438
53.38599 401
53.4061 407
53.42622 408
53.44633 443
53.46644 451
53.48656 444
53.50667 446
53.52678 428
53.5469 452
53.56701 434
53.58713 464
53.60724 450
53.62735 532
53.64747 499
53.66758 476
53.68769 513
53.70781 455
53.72792 499
53.74804 528
53.76815 497
53.78826 494
53.80838 472
53.82849 494
53.8486 502
53.86872 479
53.88883 483
53.90894 515
53.92906 524
53.94917 482
53.96929 543
53.9894 562
54.00951 539
54.02963 546
54.04974 564
54.06985 507
54.08997 516
54.11008 546
54.1302 500
54.15031 520
54.17042 575
54.19054 567
54.21065 529
54.23076 518
54.25088 532
54.27099 525
54.29111 536
54.31122 522
54.33133 537
54.35145 513
54.37156 519
54.39167 516
54.41179 567
54.4319 527
54.45201 491
54.47213 535
54.49224 517
54.51236 523
54.53247 543
54.55258 573
54.5727 541
54.59281 547
54.61292 558
54.63304 578
54.65315 581
54.67327 652
54.69338 699
54.71349 716
54.73361 764
54.75372 836
54.77383 916
54.79395 1008
54.81406 969
54.83417 1004
54.85429 939
54.8744 776
54.89452 803
54.91463 812
54.93474 751
54.95486 771
54.97497 762
54.99508 722
55.0152 672
55.03531 635
55.05543 606
55.07554 618
55.09565 606
55.11577 598
55.13588 594
55.15599 565
55.17611 637
55.19622 684
55.21634 705
55.23645 705
55.25656 728
55.27668 702
55.29679 679
55.3169 663
55.33702 626
55.35713 610
55.37724 550
55.39736 635
55.41747 584
55.43759 572
55.4577 587
55.47781 542
55.49793 498
55.51804 494
55.53815 501
55.55827 477
55.57838 474
55.5985 439
55.61861 463
55.63872 457
55.65884 468
55.67895 469
55.69906 476
55.71918 469
55.73929 434
55.75941 461
55.77952 514
55.79963 443
55.81975 398
55.83986 450
55.85997 427
55.88009 428
55.9002 485
55.92031 445
55.94043 437
55.96054 471
55.98066 403
56.00077 430
56.02088 441
56.041 442
56.06111 454
56.08122 455
56.10134 405
56.12145 438
56.14157 437
56.16168 454
56.18179 435
56.20191 421
56.22202 433
56.24213 414
56.26225 402
56.28236 436
56.30248 450
56.32259 416
56.3427 452
56.36282 423
56.38293 440
56.40304 451
56.42316 426
56.44327 442
56.46338 444
56.4835 431
56.50361 471
56.52373 450
56.54384 459
56.56395 450
56.58407 421
56.60418 443
56.62429 449
56.64441 404
56.66452 435
56.68464 429
56.70475 401
56.72486 453
56.74498 397
56.76509 421
56.7852 454
56.80532 434
56.82543 426
56.84554 409
56.86566 435
56.88577 378
56.90589 424
56.926 389
56.94611 438
56.96623 418
56.98634 461
57.00645 420
57.02657 388
57.04668 437
57.0668 367
57.08691 424
57.10702 428
57.12714 417
57.14725 414
57.16736 441
57.18748 424
57.20759 414
57.22771 437
57.24782 437
57.26793 430
57.28805 409
57.30816 435
57.32827 428
57.34839 418
57.3685 402
57.38861 416
57.40873 394
57.42884 435
57.44896 420
57.46907 375
57.48918 424
57.5093 398
57.52941 425
57.54952 393
57.56964 434
57.58975 422
57.60987 423
57.62998 388
57.65009 386
57.67021 419
57.69032 434
57.71043 394
57.73055 384
57.75066 366
57.77078 405
57.79089 378
57.811 436
57.83112 400
57.85123 378
57.87134 391
57.89146 415
57.91157 382
57.93168 412
57.9518 383
57.97191 416
57.99203 390
58.01214 396
58.03225 383
58.05237 381
58.07248 367
58.09259 409
58.11271 375
58.13282 398
58.15294 446
58.17305 409
58.19316 384
58.21328 386
58.23339 383
58.2535 387
58.27362 405
58.29373 384
58.31385 379
58.33396 417
58.35407 379
58.37419 403
58.3943 396
58.41441 380
58.43453 392
58.45464 422
58.47475 360
58.49487 396
58.51498 374
58.5351 392
58.55521 406
58.57532 420
58.59544 365
58.61555 362
58.63566 353
58.65578 389
58.67589 376
58.69601 408
58.71612 405
58.73623 364
58.75635 380
58.77646 411
58.79657 354
58.81669 421
58.8368 395
58.85691 400
58.87703 392
58.89714 379
58.91726 412
58.93737 441
58.95748 412
58.9776 414
58.99771 397
59.01782 403
59.03794 419
59.05805 394
59.07817 418
59.09828 390
59.11839 386
59.13851 398
59.15862 391
59.17873 384
59.19885 380
59.21896 396
59.23908 413
59.25919 434
59.2793 422
59.29942 402
59.31953 407
59.33964 408
59.35976 420
59.37987 389
59.39998 447
59.4201 461
59.44021 420
59.46033 424
59.48044 427
59.50055 447
59.52067 478
59.54078 485
59.56089 478
59.58101 481
59.60112 488
59.62124 498
59.64135 519
59.66146 523
59.68158 609
59.70169 578
59.7218 668
59.74192 718
59.76203 807
59.78215 878
59.80226 1000
59.82237 1141
59.84249 1261
59.8626 1394
59.88271 1522
59.90283 1483
59.92294 1391
59.94305 1274
59.96317 1140
59.98328 1027
60.0034 1062
60.02351 1023
60.04362 972
60.06374 934
60.08385 892
60.10396 776
60.12408 742
60.14419 643
60.16431 547
60.18442 505
60.20453 440
60.22465 487
60.24476 444
60.26487 439
60.28499 429
60.3051 454
60.32522 409
60.34533 404
60.36544 398
60.38556 426
60.40567 408
60.42578 402
60.4459 417
60.46601 427
60.48612 402
60.50624 409
60.52635 378
60.54647 413
60.56658 430
60.58669 394
60.60681 386
60.62692 391
60.64703 375
60.66715 387
60.68726 360
60.70738 399
60.72749 382
60.7476 399
60.76772 383
60.78783 403
60.80794 373
60.82806 391
60.84817 388
60.86828 362
60.8884 394
60.90851 414
60.92863 399
60.94874 390
60.96885 407
60.98897 397
61.00908 354
61.02919 399
61.04931 365
61.06942 392
61.08954 385
61.10965 386
61.12976 416
61.14988 351
61.16999 352
61.1901 424
61.21022 380
61.23033 402
61.25045 379
61.27056 415
61.29067 363
61.31079 357
61.3309 417
61.35101 389
61.37113 410
61.39124 391
61.41135 410
61.43147 430
61.45158 417
61.4717 385
61.49181 404
61.51192 420
61.53204 426
61.55215 432
61.57226 434
61.59238 438
61.61249 474
61.63261 420
61.65272 462
61.67283 457
61.69295 450
61.71306 467
61.73317 481
61.75329 473
61.7734 474
61.79352 480
61.81363 439
61.83374 458
61.85386 466
61.87397 456
61.89408 471
61.9142 480
61.93431 531
61.95442 462
61.97454 497
61.99465 453
62.01477 520
62.03488 550
62.05499 538
62.07511 566
62.09522 576
62.11533 563
62.13545 572
62.15556 560
62.17568 610
62.19579 621
62.2159 608
62.23602 573
62.25613 628
62.27624 615
62.29636 569
62.31647 647
62.33659 627
62.3567 589
62.37681 567
62.39693 546
62.41704 530
62.43715 488
62.45727 480
62.47738 518
62.49749 486
62.51761 498
62.53772 503
62.55784 465
62.57795 460
62.59806 450
62.61818 461
62.63829 455
62.6584 465
62.67852 438
62.69863 437
62.71875 490
62.73886 457
62.75897 439
62.77909 404
62.7992 403
62.81931 389
62.83943 414
62.85954 396
62.87965 420
62.89977 455
62.91988 426
62.94 441
62.96011 420
62.98022 407
63.00034 386
63.02045 445
63.04056 400
63.06068 406
63.08079 428
63.10091 411
63.12102 373
63.14113 400
63.16125 408
63.18136 417
63.20147 387
63.22159 425
63.2417 416
63.26182 413
63.28193 419
63.30204 419
63.32216 432
63.34227 390
63.36238 384
63.3825 418
63.40261 419
63.42272 380
63.44284 414
63.46295 438
63.48307 408
63.50318 446
63.52329 419
63.54341 423
63.56352 381
63.58363 429
63.60375 400
63.62386 432
63.64398 396
63.66409 422
63.6842 425
63.70432 470
63.72443 436
63.74454 441
63.76466 460
63.78477 480
63.80489 432
63.825 482
63.84511 506
63.86523 499
63.88534 518
63.90545 527
63.92557 602
63.94568 619
63.96579 631
63.98591 652
64.00602 609
64.02614 591
64.04625 597
64.06636 581
64.08648 518
64.10659 495
64.1267 606
64.14682 516
64.16693 514
64.18705 490
64.20716 491
64.22727 460
64.24739 459
64.2675 426
64.28761 442
64.30773 437
64.32784 403
64.34796 435
64.36807 413
64.38818 426
64.4083 367
64.42841 396
64.44852 376
64.46864 400
64.48875 372
64.50886 416
64.52898 383
64.54909 405
64.56921 370
64.58932 413
64.60943 394
64.62955 376
64.64966 383
64.66977 383
64.68989 353
64.71 396
64.73012 386
64.75023 396
64.77034 390
64.79046 408
64.81057 375
64.83068 423
64.8508 386
64.87091 381
64.89102 420
64.91114 380
64.93125 390
64.95137 367
64.97148 376
64.99159 401
65.01171 390
65.03182 375
65.05193 375
65.07205 366
65.09216 339
65.11228 382
65.13239 374
65.1525 338
65.17262 385
65.19273 383
65.21284 404
65.23296 368
65.25307 365
65.27319 373
65.2933 366
65.31341 365
65.33353 412
65.35364 416
65.37375 368
65.39387 379
65.41398 370
65.43409 364
65.45421 345
65.47432 348
65.49444 378
65.51455 373
65.53466 377
65.55478 419
65.57489 378
65.595 347
65.61512 373
65.63523 391
65.65535 408
65.67546 436
65.69557 420
65.71569 416
65.7358 399
65.75591 423
65.77603 380
65.79614 408
65.81626 393
65.83637 382
65.85648 430
65.8766 364
65.89671 367
65.91682 384
65.93694 359
65.95705 398
65.97716 386
65.99728 400
66.01739 350
66.03751 363
66.05762 347
66.07773 367
66.09785 351
66.11796 370
66.13807 377
66.15819 337
66.1783 368
66.19842 408
66.21853 368
66.23864 361
66.25876 393
66.27887 383
66.29898 376
66.3191 361
66.33921 381
66.35933 364
66.37944 363
66.39955 362
66.41967 370
66.43978 349
66.45989 380
66.48001 313
66.50012 353
66.52023 323
66.54035 359
66.56046 348
66.58058 368
66.60069 349
66.6208 381
66.64092 383
66.66103 385
66.68114 363
66.70126 346
66.72137 368
66.74149 358
66.7616 373
66.78171 369
66.80183 401
66.82194 398
66.84205 365
66.86217 341
66.88228 345
66.90239 395
66.92251 393
66.94262 350
66.96274 373
66.98285 394
67.00296 370
67.02308 388
67.04319 424
67.0633 385
67.08342 387
67.10353 407
67.12365 364
67.14376 365
67.16387 364
67.18399 384
67.2041 402
67.22421 428
67.24433 376
67.26444 413
67.28456 456
67.30467 404
67.32478 412
67.3449 425
67.36501 395
67.38512 444
67.40524 450
67.42535 504
67.44546 486
67.46558 500
67.48569 499
67.50581 517
67.52592 587
67.54603 580
67.56615 711
67.58626 795
67.60637 809
67.62649 947
67.6466 967
67.66672 1004
67.68683 1001
67.70694 965
67.72706 887
67.74717 789
67.76728 792
67.7874 719
67.80751 742
67.82763 772
67.84774 861
67.86785 819
67.88797 816
67.90808 834
67.92819 820
67.94831 865
67.96842 859
67.98853 938
68.00865 1012
68.02876 1149
68.04888 1261
68.06899 1318
68.0891 1260
68.10922 1257
68.12933 1118
68.14944 1106
68.16956 992
68.18967 1053
68.20979 1130
68.2299 1191
68.25001 1208
68.27013 1167
68.29024 1089
68.31035 942
68.33047 870
68.35058 779
68.3707 676
68.39081 658
68.41092 678
68.43104 676
68.45115 578
68.47126 594
68.49138 561
68.51149 499
68.5316 467
68.55172 475
68.57183 428
68.59195 426
68.61206 417
68.63217 408
68.65229 399
68.6724 363
68.69251 407
68.71263 397
68.73274 368
68.75286 395
68.77297 359
68.79308 355
68.8132 374
68.83331 391
68.85342 340
68.87354 386
68.89365 353
68.91376 352
68.93388 371
68.95399 364
68.97411 389
68.99422 373
69.01433 390
69.03445 375
69.05456 358
69.07467 384
69.09479 374
69.1149 396
69.13502 359
69.15513 375
69.17524 382
69.19536 365
69.21547 370
69.23558 368
69.2557 368
69.27581 359
69.29593 368
69.31604 374
69.33615 388
69.35627 381
69.37638 374
69.39649 372
69.41661 360
69.43672 338
69.45683 362
69.47695 361
69.49706 361
69.51718 365
69.53729 346
69.5574 377
69.57752 349
69.59763 376
69.61774 383
69.63786 377
69.65797 396
69.67809 364
69.6982 362
69.71831 342
69.73843 361
69.75854 343
69.77865 378
69.79877 366
69.81888 357
69.839 380
69.85911 385
69.87922 355
69.89934 362
69.91945 391
69.93956 369
69.95968 367
69.97979 376
69.9999 378
70.02002 377
70.04013 374
70.06025 340
70.08036 348
70.10047 398
70.12059 415
70.1407 362
70.16081 365
70.18093 367
70.20104 343
70.22116 373
70.24127 367
70.26138 331
70.2815 382
70.30161 390
70.32172 364
70.34184 367
70.36195 350
70.38207 358
70.40218 356
70.42229 369
70.44241 368
70.46252 357
70.48263 344
70.50275 327
70.52286 381
70.54297 335
70.56309 391
70.5832 355
70.60332 351
70.62343 368
70.64354 379
70.66366 345
70.68377 357
70.70388 378
70.724 371
70.74411 388
70.76423 332
70.78434 339
70.80445 332
70.82457 363
70.84468 367
70.86479 330
70.88491 376
70.90502 360
70.92513 321
70.94525 353
70.96536 343
70.98548 337
71.00559 357
71.0257 363
71.04582 346
71.06593 366
71.08604 351
71.10616 378
71.12627 346
71.14639 322
71.1665 378
71.18661 335
71.20673 351
71.22684 365
71.24695 331
71.26707 354
71.28718 359
71.3073 325
71.32741 359
71.34752 371
71.36764 345
71.38775 338
71.40786 362
71.42798 341
71.44809 370
71.4682 350
71.48832 359
71.50843 348
71.52855 393
71.54866 350
71.56877 343
71.58889 369
71.609 351
71.62911 343
71.64923 372
71.66934 373
71.68946 404
71.70957 379
71.72968 344
71.7498 352
71.76991 357
71.79002 370
71.81014 328
71.83025 384
71.85037 360
71.87048 354
71.89059 351
71.91071 348
71.93082 358
71.95093 332
71.97105 353
71.99116 352
72.01127 395
72.03139 344
72.0515 381
72.07162 379
72.09173 399
72.11184 398
72.13196 341
72.15207 389
72.17218 360
72.1923 363
72.21241 374
72.23253 417
72.25264 351
72.27275 367
72.29287 388
72.31298 339
72.33309 318
72.35321 393
72.37332 347
72.39344 357
72.41355 383
72.43366 361
72.45378 342
72.47389 375
72.494 377
72.51412 384
72.53423 388
72.55434 356
72.57446 343
72.59457 351
72.61469 355
72.6348 373
72.65491 355
72.67503 347
72.69514 397
72.71525 385
72.73537 349
72.75548 395
72.7756 364
72.79571 376
72.81582 369
72.83594 349
72.85605 360
72.87616 370
72.89628 393
72.91639 361
72.9365 373
72.95662 367
72.97673 377
72.99685 371
73.01696 368
73.03707 369
73.05719 348
73.0773 379
73.09741 380
73.11753 399
73.13764 393
73.15776 422
73.17787 445
73.19798 453
73.2181 411
73.23821 422
73.25832 431
73.27844 448
73.29855 469
73.31867 549
73.33878 548
73.35889 562
73.37901 598
73.39912 598
73.41923 622
73.43935 576
73.45946 522
73.47957 518
73.49969 475
73.5198 482
73.53992 495
73.56003 467
73.58014 505
73.60026 516
73.62037 494
73.64048 458
73.6606 451
73.68071 432
73.70083 409
73.72094 425
73.74105 380
73.76117 396
73.78128 429
73.80139 354
73.82151 343
73.84162 346
73.86174 374
73.88185 359
73.90196 322
73.92208 345
73.94219 358
73.9623 369
73.98242 398
74.00253 343
74.02264 348
74.04276 340
74.06287 362
74.08299 353
74.1031 369
74.12321 382
74.14333 361
74.16344 376
74.18355 383
74.20367 383
74.22378 359
74.2439 375
74.26401 377
74.28412 369
74.30424 348
74.32435 328
74.34446 341
74.36458 360
74.38469 334
74.40481 358
74.42492 336
74.44503 344
74.46515 352
74.48526 342
74.50537 338
74.52549 398
74.5456 331
74.56571 337
74.58583 348
74.60594 352
74.62606 349
74.64617 329
74.66628 354
74.6864 351
74.70651 333
74.72662 333
74.74674 369
74.76685 341
74.78697 365
74.80708 362
74.82719 359
74.84731 349
74.86742 368
74.88753 326
74.90765 361
74.92776 384
74.94787 350
74.96799 346
74.9881 348
75.00822 372
