3.00117 20698
3.02128 20051
3.0414 19249
3.06151 18885
3.08162 18307
3.10174 17852
3.12185 17616
3.14197 16783
3.16208 16263
3.18219 15964
3.20231 15152
3.22242 15342
3.24253 14334
3.26265 13930
3.28276 13937
3.30288 13123
3.32299 13028
3.3431 12338
3.36322 12078
3.38333 11880
3.40344 11207
3.42356 11060
3.44367 10648
3.46379 10183
3.4839 9875
3.50401 9542
3.52413 9273
3.54424 8761
3.56435 8468
3.58447 8221
3.60458 7669
3.62469 7623
3.64481 7380
3.66492 7159
3.68504 6901
3.70515 6498
3.72526 6620
3.74538 5981
3.76549 5895
3.7856 5785
3.80572 5430
3.82583 5283
3.84595 4973
3.86606 4714
3.88617 4716
3.90629 4468
3.9264 4391
3.94651 4078
3.96663 3863
3.98674 3877
4.00686 3565
4.02697 3621
4.04708 3239
4.0672 3149
4.08731 3075
4.10742 2957
4.12754 2985
4.14765 2590
4.16776 2717
4.18788 2561
4.20799 2406
4.22811 2500
4.24822 2291
4.26833 2148
4.28845 2120
4.30856 2030
4.32867 2030
4.34879 1851
4.3689 1931
4.38902 1952
4.40913 1805
4.42924 1925
4.44936 1680
4.46947 1637
4.48958 1740
4.5097 1659
4.52981 1650
4.54992 1524
4.57004 1521
4.59015 1607
4.61027 1576
4.63038 1528
4.65049 1418
4.67061 1439
4.69072 1472
4.71083 1408
4.73095 1315
4.75106 1338
4.77118 1316
4.79129 1268
4.8114 1298
4.83152 1187
4.85163 1226
4.87174 1185
4.89186 1244
4.91197 1143
4.93209 1129
4.9522 1131
4.97231 1033
4.99243 1112
5.01254 1123
5.03265 1084
5.05277 1079
5.07288 970
5.09299 1025
5.11311 1068
5.13322 999
5.15334 1025
5.17345 962
5.19356 966
5.21368 931
5.23379 933
5.2539 887
5.27402 895
5.29413 920
5.31425 942
5.33436 863
5.35447 913
5.37459 851
5.3947 801
5.41481 888
5.43493 768
5.45504 846
5.47516 749
5.49527 779
5.51538 772
5.5355 751
5.55561 749
5.57572 755
5.59584 773
5.61595 802
5.63606 718
5.65618 747
5.67629 749
5.69641 752
5.71652 757
5.73663 740
5.75675 751
5.77686 705
5.79697 729
5.81709 741
5.8372 718
5.85732 723
5.87743 745
5.89754 717
5.91766 692
5.93777 725
5.95788 641
5.978 688
5.99811 726
6.01823 700
6.03834 679
6.05845 740
6.07857 695
6.09868 733
6.11879 707
6.13891 665
6.15902 686
6.17913 693
6.19925 728
6.21936 677
6.23948 646
6.25959 681
6.2797 680
6.29982 669
6.31993 653
6.34004 658
6.36016 631
6.38027 668
6.40039 653
6.4205 645
6.44061 650
6.46073 628
6.48084 600
6.50095 610
6.52107 600
6.54118 673
6.56129 646
6.58141 654
6.60152 615
6.62164 666
6.64175 619
6.66186 636
6.68198 646
6.70209 644
6.7222 601
6.74232 614
6.76243 640
6.78255 617
6.80266 645
6.82277 603
6.84289 617
6.863 603
6.88311 610
6.90323 602
6.92334 634
6.94346 618
6.96357 575
6.98368 605
7.0038 666
7.02391 629
7.04402 622
7.06414 635
7.08425 603
7.10436 615
7.12448 624
7.14459 612
7.16471 596
7.18482 620
7.20493 595
7.22505 637
7.24516 612
7.26527 563
7.28539 618
7.3055 599
7.32562 647
7.34573 587
7.36584 593
7.38596 574
7.40607 655
7.42618 604
7.4463 587
7.46641 565
7.48653 614
7.50664 564
7.52675 573
7.54687 552
7.56698 685
7.58709 624
7.60721 575
7.62732 575
7.64743 567
7.66755 564
7.68766 610
7.70778 602
7.72789 563
7.748 659
7.76812 583
7.78823 588
7.80834 632
7.82846 585
7.84857 571
7.86869 613
7.8888 590
7.90891 608
7.92903 638
7.94914 586
7.96925 653
7.98937 603
8.00948 574
8.0296 633
8.04971 614
8.06982 568
8.08994 603
8.11005 585
8.13016 608
8.15028 578
8.17039 599
8.1905 612
8.21062 629
8.23073 644
8.25085 644
8.27096 597
8.29107 580
8.31119 582
8.3313 589
8.35141 583
8.37153 580
8.39164 625
8.41176 652
8.43187 579
8.45198 642
8.4721 639
8.49221 609
8.51232 557
8.53244 616
8.55255 602
8.57266 647
8.59278 626
8.61289 704
8.63301 621
8.65312 617
8.67323 636
8.69335 632
8.71346 639
8.73357 649
8.75369 660
8.7738 662
8.79392 663
8.81403 573
8.83414 652
8.85426 643
8.87437 618
8.89448 593
8.9146 605
8.93471 642
8.95483 603
8.97494 689
8.99505 651
9.01517 576
9.03528 594
9.05539 612
9.07551 575
9.09562 575
9.11573 579
9.13585 575
9.15596 641
9.17608 593
9.19619 558
9.2163 536
9.23642 525
9.25653 590
9.27664 559
9.29676 571
9.31687 561
9.33699 565
9.3571 548
9.37721 589
9.39733 568
9.41744 590
9.43755 559
9.45767 577
9.47778 586
9.4979 558
9.51801 578
9.53812 598
9.55824 590
9.57835 573
9.59846 570
9.61858 599
9.63869 556
9.6588 492
9.67892 597
9.69903 572
9.71915 613
9.73926 523
9.75937 519
9.77949 591
9.7996 582
9.81971 534
9.83983 603
9.85994 586
9.88006 566
9.90017 589
9.92028 553
9.9404 550
9.96051 541
9.98062 601
10.00074 550
10.02085 565
10.04097 568
10.06108 548
10.08119 537
10.10131 565
10.12142 538
10.14153 547
10.16165 565
10.18176 552
10.20187 577
10.22199 556
10.2421 506
10.26222 533
10.28233 579
10.30244 590
10.32256 588
10.34267 521
10.36278 592
10.3829 612
10.40301 561
10.42313 582
10.44324 574
10.46335 590
10.48347 591
10.50358 561
10.52369 593
10.54381 591
10.56392 535
10.58403 559
10.60415 593
10.62426 571
10.64438 538
10.66449 574
10.6846 570
10.70472 537
10.72483 541
10.74494 587
10.76506 560
10.78517 573
10.80529 547
10.8254 545
10.84551 529
10.86563 506
10.88574 549
10.90585 555
10.92597 560
10.94608 562
10.9662 539
10.98631 547
11.00642 604
11.02654 581
11.04665 573
11.06676 534
11.08688 524
11.10699 556
11.1271 573
11.14722 591
11.16733 575
11.18745 537
11.20756 562
11.22767 567
11.24779 511
11.2679 567
11.28801 593
11.30813 563
11.32824 597
11.34836 593
11.36847 571
11.38858 590
11.4087 533
11.42881 542
11.44892 530
11.46904 567
11.48915 592
11.50927 552
11.52938 593
11.54949 544
11.56961 546
11.58972 537
11.60983 543
11.62995 569
11.65006 575
11.67017 605
11.69029 517
11.7104 587
11.73052 541
11.75063 530
11.77074 564
11.79086 551
11.81097 569
11.83108 577
11.8512 561
11.87131 640
11.89143 582
11.91154 602
11.93165 551
11.95177 611
11.97188 627
11.99199 636
12.01211 652
12.03222 573
12.05234 563
12.07245 592
12.09256 630
12.11268 558
12.13279 622
12.1529 623
12.17302 593
12.19313 723
12.21324 588
12.23336 613
12.25347 643
12.27359 671
12.2937 654
12.31381 671
12.33393 631
12.35404 624
12.37415 592
12.39427 594
12.41438 604
12.4345 608
12.45461 612
12.47472 685
12.49484 605
12.51495 607
12.53506 588
12.55518 568
12.57529 608
12.5954 527
12.61552 582
12.63563 592
12.65575 588
12.67586 565
12.69597 572
12.71609 538
12.7362 611
12.75631 564
12.77643 586
12.79654 570
12.81666 562
12.83677 602
12.85688 546
12.877 549
12.89711 544
12.91722 546
12.93734 578
12.95745 564
12.97757 591
12.99768 588
13.01779 562
13.03791 522
13.05802 581
13.07813 592
13.09825 561
13.11836 561
13.13847 576
13.15859 560
13.1787 543
13.19882 582
13.21893 607
13.23904 541
13.25916 601
13.27927 576
13.29938 549
13.3195 546
13.33961 573
13.35973 554
13.37984 508
13.39995 549
13.42007 549
13.44018 549
13.46029 552
13.48041 531
13.50052 509
13.52064 557
13.54075 506
13.56086 541
13.58098 518
13.60109 587
13.6212 597
13.64132 549
13.66143 513
13.68154 543
13.70166 567
13.72177 490
13.74189 498
13.762 491
13.78211 513
13.80223 529
13.82234 532
13.84245 576
13.86257 551
13.88268 540
13.9028 573
13.92291 556
13.94302 582
13.96314 544
13.98325 552
14.00336 550
14.02348 542
14.04359 558
14.06371 563
14.08382 515
14.10393 565
14.12405 559
14.14416 530
14.16427 541
14.18439 555
14.2045 530
14.22461 551
14.24473 521
14.26484 561
14.28496 524
14.30507 537
14.32518 531
14.3453 558
14.36541 524
14.38552 492
14.40564 516
14.42575 550
14.44587 581
14.46598 583
14.48609 523
14.50621 536
14.52632 542
14.54643 524
14.56655 516
14.58666 550
14.60677 521
14.62689 508
14.647 503
14.66712 551
14.68723 533
14.70734 565
14.72746 542
14.74757 527
14.76768 521
14.7878 540
14.80791 540
14.82803 500
14.84814 526
14.86825 523
14.88837 548
14.90848 550
14.92859 537
14.94871 493
14.96882 589
14.98894 544
15.00905 554
15.02916 580
15.04928 540
15.06939 515
15.0895 524
15.10962 543
15.12973 543
15.14984 527
15.16996 540
15.19007 576
15.21019 508
15.2303 573
15.25041 511
15.27053 521
15.29064 578
15.31075 522
15.33087 563
15.35098 545
15.3711 517
15.39121 571
15.41132 532
15.43144 546
15.45155 552
15.47166 508
15.49178 471
15.51189 523
15.53201 533
15.55212 544
15.57223 526
15.59235 559
15.61246 562
15.63257 519
15.65269 541
15.6728 544
15.69291 557
15.71303 546
15.73314 523
15.75326 577
15.77337 567
15.79348 573
15.8136 549
15.83371 547
15.85382 513
15.87394 506
15.89405 597
15.91417 509
15.93428 541
15.95439 563
15.97451 491
15.99462 526
16.01473 560
16.03485 566
16.05496 536
16.07508 493
16.09519 543
16.1153 528
16.13542 515
16.15553 543
16.17564 546
16.19576 591
16.21587 544
16.23598 540
16.2561 546
16.27621 502
16.29633 495
16.31644 559
16.33655 535
16.35667 560
16.37678 497
16.39689 531
16.41701 570
16.43712 531
16.45724 561
16.47735 499
16.49746 533
16.51758 503
16.53769 500
16.5578 548
16.57792 559
16.59803 568
16.61814 567
16.63826 516
16.65837 546
16.67849 504
16.6986 502
16.71871 537
16.73883 528
16.75894 525
16.77905 562
16.79917 531
16.81928 532
16.8394 526
16.85951 554
16.87962 541
16.89974 536
16.91985 534
16.93996 560
16.96008 536
16.98019 544
17.00031 548
17.02042 542
17.04053 539
17.06065 558
17.08076 546
17.10087 530
17.12099 552
17.1411 536
17.16121 539
17.18133 555
17.20144 537
17.22156 528
17.24167 545
17.26178 525
17.2819 595
17.30201 518
17.32212 508
17.34224 569
17.36235 543
17.38247 525
17.40258 551
17.42269 577
17.44281 572
17.46292 520
17.48303 524
17.50315 561
17.52326 567
17.54338 549
17.56349 561
17.5836 511
17.60372 527
17.62383 573
17.64394 526
17.66406 579
17.68417 566
17.70428 557
17.7244 571
17.74451 581
17.76463 558
17.78474 581
17.80485 554
17.82497 602
17.84508 592
17.86519 554
17.88531 627
17.90542 545
17.92554 594
17.94565 563
17.96576 599
17.98588 560
18.00599 632
18.0261 564
18.04622 538
18.06633 599
18.08645 569
18.10656 538
18.12667 581
18.14679 563
18.1669 525
18.18701 597
18.20713 549
18.22724 499
18.24735 563
18.26747 573
18.28758 514
18.3077 576
18.32781 502
18.34792 554
18.36804 559
18.38815 549
18.40826 542
18.42838 586
18.44849 527
18.46861 566
18.48872 535
18.50883 512
18.52895 551
18.54906 577
18.56917 578
18.58929 566
18.6094 551
18.62951 550
18.64963 568
18.66974 563
18.68986 568
18.70997 517
18.73008 553
18.7502 599
18.77031 582
18.79042 570
18.81054 573
18.83065 570
18.85077 573
18.87088 532
18.89099 558
18.91111 541
18.93122 566
18.95133 573
18.97145 551
18.99156 566
19.01168 528
19.03179 555
19.0519 569
19.07202 537
19.09213 553
19.11224 538
19.13236 555
19.15247 546
19.17258 545
19.1927 607
19.21281 578
19.23293 574
19.25304 617
19.27315 665
19.29327 592
19.31338 609
19.33349 574
19.35361 624
19.37372 640
19.39384 617
19.41395 624
19.43406 617
19.45418 627
19.47429 624
19.4944 636
19.51452 673
19.53463 601
19.55475 662
19.57486 623
19.59497 648
19.61509 725
19.6352 668
19.65531 721
19.67543 660
19.69554 736
19.71565 751
19.73577 742
19.75588 761
19.776 767
19.79611 795
19.81622 855
19.83634 833
19.85645 821
19.87656 788
19.89668 780
19.91679 786
19.93691 763
19.95702 733
19.97713 727
19.99725 726
20.01736 749
20.03747 716
20.05759 718
20.0777 709
20.09782 738
20.11793 727
20.13804 679
20.15816 704
20.17827 686
20.19838 739
20.2185 768
20.23861 732
20.25872 722
20.27884 728
20.29895 693
20.31907 701
20.33918 714
20.35929 743
20.37941 744
20.39952 728
20.41963 724
20.43975 711
20.45986 700
20.47998 687
20.50009 685
20.5202 718
20.54032 735
20.56043 749
20.58054 783
20.60066 742
20.62077 777
20.64088 745
20.661 758
20.68111 799
20.70123 921
20.72134 1122
20.74145 1193
20.76157 1506
20.78168 1809
20.80179 2133
20.82191 2472
20.84202 2578
20.86214 2464
20.88225 2110
20.90236 1812
20.92248 1343
20.94259 1156
20.9627 983
20.98282 874
21.00293 834
21.02305 851
21.04316 758
21.06327 843
21.08339 802
21.1035 811
21.12361 842
21.14373 837
21.16384 880
21.18395 816
21.20407 836
21.22418 833
21.2443 807
21.26441 836
21.28452 833
21.30464 835
21.32475 825
21.34486 848
21.36498 836
21.38509 721
21.40521 808
21.42532 753
21.44543 757
21.46555 743
21.48566 727
21.50577 717
21.52589 689
21.546 694
21.56612 697
21.58623 710
21.60634 719
21.62646 716
21.64657 672
21.66668 653
21.6868 689
21.70691 666
21.72702 660
21.74714 645
21.76725 662
21.78737 621
21.80748 614
21.82759 647
21.84771 672
21.86782 685
21.88793 676
21.90805 633
21.92816 694
21.94828 661
21.96839 705
21.9885 689
22.00862 760
22.02873 702
22.04884 700
22.06896 661
22.08907 740
22.10919 713
22.1293 655
22.14941 648
22.16953 643
22.18964 648
22.20975 691
22.22987 605
22.24998 659
22.27009 619
22.29021 624
22.31032 620
22.33044 631
22.35055 666
22.37066 638
22.39078 637
22.41089 644
22.431 612
22.45112 675
22.47123 621
22.49135 664
22.51146 605
22.53157 702
22.55169 596
22.5718 562
22.59191 644
22.61203 646
22.63214 629
22.65225 677
22.67237 665
22.69248 640
22.7126 629
22.73271 608
22.75282 610
22.77294 582
22.79305 601
22.81316 632
22.83328 672
22.85339 634
22.87351 629
22.89362 594
22.91373 617
22.93385 640
22.95396 655
22.97407 664
22.99419 616
23.0143 676
23.03442 609
23.05453 632
23.07464 610
23.09476 712
23.11487 656
23.13498 613
23.1551 564
23.17521 647
23.19532 606
23.21544 667
23.23555 667
23.25567 636
23.27578 637
23.29589 668
23.31601 617
23.33612 619
23.35623 639
23.37635 590
23.39646 643
23.41658 670
23.43669 611
23.4568 675
23.47692 653
23.49703 614
23.51714 666
23.53726 651
23.55737 689
23.57749 680
23.5976 711
23.61771 660
23.63783 657
23.65794 631
23.67805 635
23.69817 675
23.71828 663
23.73839 661
23.75851 634
23.77862 680
23.79874 662
23.81885 683
23.83896 664
23.85908 658
23.87919 663
23.8993 689
23.91942 724
23.93953 696
23.95965 716
23.97976 709
23.99987 702
24.01999 769
24.0401 705
24.06021 727
24.08033 746
24.10044 774
24.12056 774
24.14067 803
24.16078 745
24.1809 755
24.20101 777
24.22112 734
24.24124 723
24.26135 743
24.28146 745
24.30158 700
24.32169 687
24.34181 703
24.36192 618
24.38203 699
24.40215 656
24.42226 699
24.44237 678
24.46249 701
24.4826 667
24.50272 658
24.52283 629
24.54294 688
24.56306 632
24.58317 632
24.60328 669
24.6234 705
24.64351 658
24.66362 679
24.68374 713
24.70385 660
24.72397 672
24.74408 692
24.76419 684
24.78431 674
24.80442 717
24.82453 685
24.84465 716
24.86476 732
24.88488 721
24.90499 684
24.9251 689
24.94522 688
24.96533 740
24.98544 670
25.00556 680
25.02567 721
25.04579 648
25.0659 656
25.08601 672
25.10613 676
25.12624 652
25.14635 707
25.16647 631
25.18658 683
25.20669 657
25.22681 657
25.24692 677
25.26704 612
25.28715 683
25.30726 704
25.32738 599
25.34749 703
25.3676 683
25.38772 639
25.40783 702
25.42795 726
25.44806 704
25.46817 707
25.48829 646
25.5084 674
25.52851 662
25.54863 643
25.56874 651
25.58886 680
25.60897 724
25.62908 669
25.6492 657
25.66931 682
25.68942 683
25.70954 731
25.72965 729
25.74976 719
25.76988 709
25.78999 679
25.81011 681
25.83022 686
25.85033 675
25.87045 715
25.89056 666
25.91067 726
25.93079 701
25.9509 686
25.97102 649
25.99113 686
26.01124 710
26.03136 741
26.05147 677
26.07158 667
26.0917 758
26.11181 766
26.13193 754
26.15204 752
26.17215 848
26.19227 862
26.21238 786
26.23249 850
26.25261 872
26.27272 898
26.29283 887
26.31295 976
26.33306 912
26.35318 986
26.37329 1006
26.3934 1079
26.41352 1131
26.43363 1325
26.45374 1497
26.47386 1858
26.49397 2351
26.51409 3360
26.5342 4708
26.55431 6251
26.57443 7812
26.59454 9193
26.61465 9459
26.63477 9190
26.65488 7903
26.67499 6392
26.69511 5050
26.71522 3569
26.73534 2511
26.75545 1704
26.77556 1335
26.79568 1122
26.81579 1090
26.8359 942
26.85602 984
26.87613 910
26.89625 873
26.91636 821
26.93647 816
26.95659 810
26.9767 766
26.99681 764
27.01693 752
27.03704 811
27.05716 714
27.07727 768
27.09738 721
27.1175 699
27.13761 693
27.15772 674
27.17784 666
27.19795 663
27.21806 657
27.23818 652
27.25829 663
27.27841 638
27.29852 711
27.31863 676
27.33875 716
27.35886 733
27.37897 711
27.39909 761
27.4192 750
27.43932 743
27.45943 732
27.47954 738
27.49966 729
27.51977 727
27.53988 666
27.56 676
27.58011 755
27.60023 692
27.62034 680
27.64045 723
27.66057 717
27.68068 684
27.70079 675
27.72091 680
27.74102 681
27.76113 703
27.78125 705
27.80136 739
27.82148 740
27.84159 710
27.8617 685
27.88182 689
27.90193 687
27.92204 735
27.94216 703
27.96227 709
27.98239 729
28.0025 687
28.02261 689
28.04273 681
28.06284 638
28.08295 626
28.10307 614
28.12318 635
28.1433 618
28.16341 629
28.18352 619
28.20364 642
28.22375 598
28.24386 648
28.26398 595
28.28409 602
28.3042 635
28.32432 621
28.34443 611
28.36455 653
28.38466 610
28.40477 620
28.42489 614
28.445 628
28.46511 654
28.48523 618
28.50534 665
28.52546 627
28.54557 653
28.56568 588
28.5858 629
28.60591 586
28.62602 601
28.64614 596
28.66625 605
28.68636 693
28.70648 606
28.72659 628
28.74671 589
28.76682 595
28.78693 624
28.80705 664
28.82716 644
28.84727 581
28.86739 618
28.8875 604
28.90762 594
28.92773 588
28.94784 584
28.96796 607
28.98807 618
29.00818 651
29.0283 594
29.04841 604
29.06853 563
29.08864 564
29.10875 614
29.12887 620
29.14898 545
29.16909 651
29.18921 617
29.20932 615
29.22943 602
29.24955 630
29.26966 652
29.28978 618
29.30989 637
29.33 586
29.35012 624
29.37023 590
29.39034 595
29.41046 609
29.43057 552
29.45069 592
29.4708 538
29.49091 649
29.51103 651
29.53114 584
29.55125 640
29.57137 588
29.59148 568
29.6116 553
29.63171 618
29.65182 613
29.67194 582
29.69205 627
29.71216 635
29.73228 614
29.75239 644
29.7725 582
29.79262 648
29.81273 641
29.83285 608
29.85296 633
29.87307 631
29.89319 589
29.9133 628
29.93341 598
29.95353 617
29.97364 605
29.99376 630
30.01387 704
30.03398 652
30.0541 597
30.07421 658
30.09432 645
30.11444 636
30.13455 665
30.15467 620
30.17478 675
30.19489 657
30.21501 647
30.23512 635
30.25523 625
30.27535 630
30.29546 626
30.31557 679
30.33569 666
30.3558 612
30.37592 634
30.39603 575
30.41614 640
30.43626 640
30.45637 603
30.47648 593
30.4966 600
30.51671 652
30.53683 639
30.55694 582
30.57705 612
30.59717 660
30.61728 586
30.63739 599
30.65751 614
30.67762 579
30.69773 615
30.71785 643
30.73796 603
30.75808 603
30.77819 589
30.7983 575
30.81842 579
30.83853 613
30.85864 650
30.87876 617
30.89887 604
30.91899 621
30.9391 642
30.95921 652
30.97933 630
30.99944 592
31.01955 607
31.03967 611
31.05978 594
31.0799 545
31.10001 616
31.12012 620
31.14024 626
31.16035 606
31.18046 639
31.20058 643
31.22069 602
31.2408 625
31.26092 645
31.28103 585
31.30115 605
31.32126 579
31.34137 595
31.36149 606
31.3816 601
31.40171 612
31.42183 575
31.44194 571
31.46206 615
31.48217 571
31.50228 638
31.5224 569
31.54251 597
31.56262 591
31.58274 614
31.60285 616
31.62297 587
31.64308 617
31.66319 602
31.68331 632
31.70342 567
31.72353 545
31.74365 589
31.76376 602
31.78387 644
31.80399 526
31.8241 638
31.84422 554
31.86433 647
31.88444 607
31.90456 611
31.92467 561
31.94478 587
31.9649 600
31.98501 618
32.00513 628
32.02524 609
32.04535 608
32.06547 643
32.08558 634
32.10569 640
32.12581 636
32.14592 635
32.16604 623
32.18615 610
32.20626 602
32.22638 639
32.24649 616
32.2666 597
32.28672 604
32.30683 625
32.32694 608
32.34706 637
32.36717 624
32.38729 609
32.4074 589
32.42751 608
32.44763 661
32.46774 643
32.48785 617
32.50797 640
32.52808 652
32.5482 668
32.56831 668
32.58842 583
32.60854 674
32.62865 663
32.64876 669
32.66888 654
32.68899 669
32.7091 694
32.72922 699
32.74933 652
32.76945 648
32.78956 660
32.80967 674
32.82979 731
32.8499 710
32.87001 717
32.89013 732
32.91024 762
32.93036 785
32.95047 759
32.97058 745
32.9907 796
33.01081 855
33.03092 853
33.05104 865
33.07115 854
33.09127 880
33.11138 1017
33.13149 957
33.15161 941
33.17172 945
33.19183 898
33.21195 899
33.23206 825
33.25217 823
33.27229 787
33.2924 803
33.31252 757
33.33263 764
33.35274 822
33.37286 749
33.39297 756
33.41308 760
33.4332 790
33.45331 705
33.47343 732
33.49354 726
33.51365 703
33.53377 646
33.55388 686
33.57399 647
33.59411 653
33.61422 648
33.63434 673
33.65445 717
33.67456 636
33.69468 629
33.71479 640
33.7349 686
33.75502 637
33.77513 635
33.79524 633
33.81536 696
33.83547 668
33.85559 641
33.8757 617
33.89581 593
33.91593 640
33.93604 674
33.95615 670
33.97627 685
33.99638 666
34.0165 669
34.03661 629
34.05672 649
34.07684 653
34.09695 632
34.11706 651
34.13718 663
34.15729 666
34.17741 661
34.19752 778
34.21763 683
34.23775 694
34.25786 713
34.27797 701
34.29809 693
34.3182 706
34.33831 748
34.35843 639
34.37854 657
34.39866 726
34.41877 714
34.43888 712
34.459 691
34.47911 694
34.49922 680
34.51934 706
34.53945 712
34.55957 686
34.57968 734
34.59979 742
34.61991 743
34.64002 688
34.66013 698
34.68025 748
34.70036 722
34.72047 726
34.74059 714
34.7607 726
34.78082 742
34.80093 768
34.82104 766
34.84116 840
34.86127 833
34.88138 786
34.9015 813
34.92161 790
34.94173 799
34.96184 833
34.98195 788
35.00207 782
35.02218 763
35.04229 776
35.06241 780
35.08252 767
35.10264 744
35.12275 747
35.14286 732
35.16298 736
35.18309 737
35.2032 715
35.22332 779
35.24343 709
35.26354 778
35.28366 738
35.30377 771
35.32389 822
35.344 805
35.36411 743
35.38423 811
35.40434 798
35.42445 815
35.44457 837
35.46468 882
35.4848 895
35.50491 939
35.52502 927
35.54514 971
35.56525 1032
35.58536 996
35.60548 1030
35.62559 1017
35.64571 982
35.66582 987
35.68593 935
35.70605 971
35.72616 940
35.74627 904
35.76639 868
35.7865 876
35.80661 852
35.82673 852
35.84684 855
35.86696 828
35.88707 815
35.90718 746
35.9273 834
35.94741 831
35.96752 754
35.98764 791
36.00775 755
36.02787 813
36.04798 761
36.06809 760
36.08821 750
36.10832 723
36.12843 721
36.14855 755
36.16866 751
36.18878 676
36.20889 683
36.229 761
36.24912 686
36.26923 702
36.28934 710
36.30946 712
36.32957 725
36.34968 730
36.3698 820
36.38991 785
36.41003 919
36.43014 1017
36.45025 1166
36.47037 1239
36.49048 1240
36.51059 1317
36.53071 1285
36.55082 1170
36.57094 1114
36.59105 1007
36.61116 1007
36.63128 944
36.65139 927
36.6715 811
36.69162 793
36.71173 839
36.73184 834
36.75196 769
36.77207 816
36.79219 743
36.8123 793
36.83241 719
36.85253 788
36.87264 822
36.89275 749
36.91287 769
36.93298 781
36.9531 756
36.97321 796
36.99332 690
37.01344 794
37.03355 753
37.05366 742
37.07378 701
37.09389 697
37.11401 669
37.13412 673
37.15423 678
37.17435 694
37.19446 688
37.21457 671
37.23469 658
37.2548 692
37.27491 652
37.29503 649
37.31514 661
37.33526 701
37.35537 648
37.37548 713
37.3956 716
37.41571 666
37.43582 629
37.45594 673
37.47605 693
37.49617 644
37.51628 659
37.53639 623
37.55651 685
37.57662 605
37.59673 665
37.61685 641
37.63696 635
37.65708 613
37.67719 658
37.6973 664
37.71742 664
37.73753 635
37.75764 631
37.77776 619
37.79787 643
37.81798 617
37.8381 582
37.85821 648
37.87833 642
37.89844 659
37.91855 641
37.93867 627
37.95878 647
37.97889 621
37.99901 627
38.01912 641
38.03924 602
38.05935 609
38.07946 634
38.09958 636
38.11969 606
38.1398 594
38.15992 603
38.18003 652
38.20015 613
38.22026 671
38.24037 599
38.26049 650
38.2806 653
38.30071 701
38.32083 646
38.34094 650
38.36105 665
38.38117 671
38.40128 640
38.4214 654
38.44151 673
38.46162 626
38.48174 662
38.50185 649
38.52196 636
38.54208 625
38.56219 603
38.58231 624
38.60242 604
38.62253 616
38.64265 637
38.66276 588
38.68287 577
38.70299 620
38.7231 617
38.74321 601
38.76333 575
38.78344 611
38.80356 642
38.82367 623
38.84378 632
38.8639 631
38.88401 627
38.90412 617
38.92424 685
38.94435 598
38.96447 579
38.98458 622
39.00469 630
39.02481 637
39.04492 664
39.06503 606
39.08515 625
39.10526 612
39.12538 662
39.14549 677
39.1656 657
39.18572 705
39.20583 625
39.22594 668
39.24606 726
39.26617 661
39.28628 677
39.3064 782
39.32651 792
39.34663 919
39.36674 987
39.38685 1060
39.40697 1113
39.42708 1167
39.44719 1145
39.46731 1086
39.48742 1042
39.50754 932
39.52765 946
39.54776 869
39.56788 833
39.58799 731
39.6081 668
39.62822 672
39.64833 643
39.66845 660
39.68856 638
39.70867 609
39.72879 640
39.7489 610
39.76901 646
39.78913 685
39.80924 666
39.82935 627
39.84947 641
39.86958 611
39.8897 673
39.90981 600
39.92992 625
39.95004 614
39.97015 660
39.99026 646
40.01038 654
40.03049 645
40.05061 696
40.07072 664
40.09083 652
40.11095 678
40.13106 722
40.15117 732
40.17129 751
40.1914 775
40.21152 841
40.23163 851
40.25174 934
40.27186 862
40.29197 881
40.31208 794
40.3322 807
40.35231 738
40.37242 739
40.39254 733
40.41265 670
40.43277 651
40.45288 641
40.47299 634
40.49311 618
40.51322 622
40.53333 660
40.55345 643
40.57356 644
40.59368 653
40.61379 604
40.6339 685
40.65402 635
40.67413 688
40.69424 637
40.71436 666
40.73447 716
40.75458 710
40.7747 688
40.79481 683
40.81493 675
40.83504 689
40.85515 645
40.87527 697
40.89538 638
40.91549 697
40.93561 719
40.95572 701
40.97584 670
40.99595 678
41.01606 655
41.03618 596
41.05629 647
41.0764 661
41.09652 680
41.11663 644
41.13675 679
41.15686 660
41.17697 615
41.19709 695
41.2172 668
41.23731 664
41.25743 660
41.27754 673
41.29765 645
41.31777 680
41.33788 649
41.358 647
41.37811 637
41.39822 676
41.41834 632
41.43845 642
41.45856 635
41.47868 667
41.49879 587
41.51891 632
41.53902 675
41.55913 620
41.57925 639
41.59936 569
41.61947 624
41.63959 670
41.6597 616
41.67982 598
41.69993 565
41.72004 579
41.74016 604
41.76027 624
41.78038 644
41.8005 640
41.82061 688
41.84072 582
41.86084 651
41.88095 610
41.90107 593
41.92118 591
41.94129 610
41.96141 630
41.98152 630
42.00163 614
42.02175 634
42.04186 573
42.06198 635
42.08209 564
42.1022 607
42.12232 562
42.14243 631
42.16254 579
42.18266 647
42.20277 577
42.22289 653
42.243 659
42.26311 681
42.28323 679
42.30334 710
42.32345 734
42.34357 829
42.36368 853
42.38379 936
42.40391 982
42.42402 954
42.44414 943
42.46425 869
42.48436 828
42.50448 782
42.52459 749
42.5447 742
42.56482 698
42.58493 668
42.60505 625
42.62516 656
42.64527 615
42.66539 576
42.6855 571
42.70561 601
42.72573 588
42.74584 627
42.76595 622
42.78607 593
42.80618 614
42.8263 574
42.84641 573
42.86652 553
42.88664 595
42.90675 603
42.92686 588
42.94698 595
42.96709 561
42.98721 555
43.00732 573
43.02743 555
43.04755 577
43.06766 560
43.08777 554
43.10789 565
43.128 565
43.14812 621
43.16823 581
43.18834 535
43.20846 585
43.22857 590
43.24868 564
43.2688 614
43.28891 611
43.30902 597
43.32914 570
43.34925 540
43.36937 573
43.38948 530
43.40959 583
43.42971 630
43.44982 584
43.46993 596
43.49005 586
43.51016 602
43.53028 637
43.55039 596
43.5705 594
43.59062 600
43.61073 601
43.63084 563
43.65096 593
43.67107 581
43.69119 583
43.7113 599
43.73141 575
43.75153 659
43.77164 554
43.79175 568
43.81187 595
43.83198 601
43.85209 612
43.87221 557
43.89232 590
43.91244 550
43.93255 582
43.95266 619
43.97278 548
43.99289 557
44.013 554
44.03312 552
44.05323 603
44.07335 588
44.09346 529
44.11357 606
44.13369 610
44.1538 590
44.17391 609
44.19403 565
44.21414 560
44.23426 550
44.25437 569
44.27448 563
44.2946 570
44.31471 564
44.33482 527
44.35494 605
44.37505 540
44.39516 570
44.41528 588
44.43539 578
44.45551 587
44.47562 565
44.49573 541
44.51585 526
44.53596 586
44.55607 597
44.57619 575
44.5963 570
44.61642 544
44.63653 570
44.65664 616
44.67676 589
44.69687 606
44.71698 565
44.7371 619
44.75721 549
44.77732 591
44.79744 611
44.81755 568
44.83767 580
44.85778 594
44.87789 601
44.89801 557
44.91812 589
44.93823 608
44.95835 604
44.97846 608
44.99858 611
45.01869 573
45.0388 582
45.05892 589
45.07903 572
45.09914 571
45.11926 576
45.13937 588
45.15949 603
45.1796 541
45.19971 568
45.21983 609
45.23994 560
45.26005 571
45.28017 578
45.30028 599
45.32039 618
45.34051 602
45.36062 625
45.38074 613
45.40085 618
45.42096 571
45.44108 666
45.46119 604
45.4813 600
45.50142 637
45.52153 561
45.54165 573
45.56176 610
45.58187 615
45.60199 591
45.6221 613
45.64221 658
45.66233 665
45.68244 770
45.70256 782
45.72267 770
45.74278 834
45.7629 831
45.78301 814
45.80312 755
45.82324 763
45.84335 741
45.86346 736
45.88358 680
45.90369 659
45.92381 641
45.94392 627
45.96403 602
45.98415 637
46.00426 599
46.02437 566
46.04449 580
46.0646 608
46.08472 550
46.10483 608
46.12494 579
46.14506 539
46.16517 568
46.18528 568
46.2054 615
46.22551 535
46.24563 586
46.26574 608
46.28585 621
46.30597 579
46.32608 550
46.34619 612
46.36631 576
46.38642 604
46.40653 578
46.42665 582
46.44676 591
46.46688 517
46.48699 573
46.5071 585
46.52722 546
46.54733 582
46.56744 544
46.58756 550
46.60767 582
46.62779 564
46.6479 592
46.66801 577
46.68813 595
46.70824 553
46.72835 564
46.74847 573
46.76858 571
46.78869 577
46.80881 607
46.82892 581
46.84904 573
46.86915 561
46.88926 595
46.90938 584
46.92949 568
46.9496 580
46.96972 565
46.98983 598
47.00995 588
47.03006 559
47.05017 576
47.07029 579
47.0904 576
47.11051 602
47.13063 588
47.15074 585
47.17086 542
47.19097 531
47.21108 560
47.2312 578
47.25131 589
47.27142 574
47.29154 584
47.31165 562
47.33176 552
47.35188 596
47.37199 547
47.39211 584
47.41222 572
47.43233 569
47.45245 556
47.47256 554
47.49267 623
47.51279 560
47.5329 572
47.55302 552
47.57313 584
47.59324 565
47.61336 593
47.63347 592
47.65358 568
47.6737 559
47.69381 579
47.71393 545
47.73404 573
47.75415 586
47.77427 543
47.79438 609
47.81449 575
47.83461 575
47.85472 608
47.87483 615
47.89495 555
47.91506 537
47.93518 574
47.95529 557
47.9754 606
47.99552 601
48.01563 602
48.03574 575
48.05586 575
48.07597 595
48.09609 580
48.1162 580
48.13631 578
48.15643 598
48.17654 597
48.19665 576
48.21677 590
48.23688 603
48.257 551
48.27711 626
48.29722 566
48.31734 589
48.33745 588
48.35756 570
48.37768 563
48.39779 555
48.4179 514
48.43802 568
48.45813 572
48.47825 537
48.49836 587
48.51847 572
48.53859 605
48.5587 546
48.57881 614
48.59893 557
48.61904 580
48.63916 597
48.65927 566
48.67938 533
48.6995 583
48.71961 588
48.73972 597
48.75984 544
48.77995 607
48.80006 574
48.82018 547
48.84029 592
48.86041 571
48.88052 572
48.90063 618
48.92075 608
48.94086 608
48.96097 551
48.98109 560
49.0012 561
49.02132 608
49.04143 600
49.06154 599
49.08166 582
49.10177 598
49.12188 624
49.142 605
49.16211 649
49.18223 609
49.20234 625
49.22245 614
49.24257 609
49.26268 629
49.28279 627
49.30291 606
49.32302 652
49.34313 708
49.36325 675
49.38336 676
49.40348 732
49.42359 671
49.4437 632
49.46382 649
49.48393 692
49.50404 676
49.52416 637
49.54427 664
49.56439 623
49.5845 638
49.60461 657
49.62473 576
49.64484 636
49.66495 683
49.68507 661
49.70518 654
49.7253 674
49.74541 647
49.76552 657
49.78564 641
49.80575 598
49.82586 672
49.84598 661
49.86609 648
49.8862 661
49.90632 675
49.92643 736
49.94655 790
49.96666 805
49.98677 928
50.00689 1002
50.027 1088
50.04711 1284
50.06723 1443
50.08734 1412
50.10746 1494
50.12757 1403
50.14768 1234
50.1678 1108
50.18791 1080
50.20802 1054
50.22814 1012
50.24825 958
50.26837 894
50.28848 796
50.30859 714
50.32871 656
50.34882 668
50.36893 641
50.38905 660
50.40916 651
50.42927 601
50.44939 583
50.4695 620
50.48962 585
50.50973 600
50.52984 620
50.54996 592
50.57007 631
50.59018 613
50.6103 586
50.63041 585
50.65053 605
50.67064 590
50.69075 624
50.71087 630
50.73098 611
50.75109 580
50.77121 596
50.79132 521
50.81143 576
50.83155 572
50.85166 588
50.87178 607
50.89189 588
50.912 593
50.93212 546
50.95223 597
50.97234 550
50.99246 586
51.01257 596
51.03269 587
51.0528 612
51.07291 624
51.09303 605
51.11314 620
51.13325 594
51.15337 545
51.17348 599
51.1936 567
51.21371 605
51.23382 564
51.25394 627
51.27405 556
51.29416 535
51.31428 564
51.33439 553
51.3545 560
51.37462 543
51.39473 560
51.41485 557
51.43496 541
51.45507 602
51.47519 561
51.4953 518
51.51541 513
51.53553 552
51.55564 595
51.57576 541
51.59587 527
51.61598 581
51.6361 569
51.65621 592
51.67632 582
51.69644 563
51.71655 550
51.73667 610
51.75678 560
51.77689 553
51.79701 555
51.81712 507
51.83723 562
51.85735 580
51.87746 547
51.89757 546
51.91769 547
51.9378 535
51.95792 563
51.97803 557
51.99814 569
52.01826 552
52.03837 560
52.05848 564
52.0786 547
52.09871 525
52.11883 561
52.13894 602
52.15905 576
52.17917 563
52.19928 582
52.21939 571
52.23951 530
52.25962 550
52.27974 544
52.29985 554
52.31996 538
52.34008 562
52.36019 571
52.3803 565
52.40042 589
52.42053 599
52.44064 564
52.46076 570
52.48087 567
52.50099 528
52.5211 607
52.54121 518
52.56133 588
52.58144 592
52.60155 563
52.62167 539
52.64178 589
52.6619 613
52.68201 585
52.70212 534
52.72224 571
52.74235 561
52.76246 584
52.78258 618
52.80269 615
52.8228 606
52.84292 617
52.86303 576
52.88315 585
52.90326 574
52.92337 567
52.94349 581
52.9636 579
52.98371 612
53.00383 538
53.02394 593
53.04406 642
53.06417 620
53.08428 581
53.1044 596
53.12451 629
53.14462 627
53.16474 623
53.18485 620
53.20497 627
53.22508 596
53.24519 626
53.26531 638
53.28542 665
53.30553 633
53.32565 641
53.34576 604
53.36587 618
53.38599 669
53.4061 657
53.42622 664
53.44633 662
53.46644 602
53.48656 687
53.50667 613
53.52678 696
53.5469 628
53.56701 702
53.58713 657
53.60724 694
53.62735 660
53.64747 691
53.66758 693
53.68769 646
53.70781 678
53.72792 663
53.74804 648
53.76815 701
53.78826 608
53.80838 714
53.82849 680
53.8486 687
53.86872 719
53.88883 690
53.90894 690
53.92906 735
53.94917 698
53.96929 754
53.9894 715
54.00951 784
54.02963 734
54.04974 735
54.06985 763
54.08997 725
54.11008 730
54.1302 705
54.15031 733
54.17042 728
54.19054 712
54.21065 745
54.23076 682
54.25088 672
54.27099 701
54.29111 734
54.31122 671
54.33133 657
54.35145 721
54.37156 668
54.39167 694
54.41179 694
54.4319 658
54.45201 663
54.47213 679
54.49224 657
54.51236 626
54.53247 639
54.55258 645
54.5727 666
54.59281 639
54.61292 691
54.63304 670
54.65315 670
54.67327 724
54.69338 679
54.71349 709
54.73361 758
54.75372 770
54.77383 823
54.79395 864
54.81406 908
54.83417 919
54.85429 893
54.8744 812
54.89452 751
54.91463 791
54.93474 794
54.95486 750
54.97497 759
54.99508 739
55.0152 672
55.03531 704
55.05543 688
55.07554 686
55.09565 652
55.11577 710
55.13588 665
55.15599 660
55.17611 630
55.19622 697
55.21634 726
55.23645 682
55.25656 686
55.27668 726
55.29679 756
55.3169 733
55.33702 723
55.35713 704
55.37724 671
55.39736 681
55.41747 600
55.43759 681
55.4577 663
55.47781 678
55.49793 611
55.51804 593
55.53815 627
55.55827 586
55.57838 613
55.5985 650
55.61861 620
55.63872 599
55.65884 592
55.67895 602
55.69906 588
55.71918 619
55.73929 597
55.75941 593
55.77952 566
55.79963 621
55.81975 571
55.83986 634
55.85997 566
55.88009 608
55.9002 597
55.92031 553
55.94043 572
55.96054 565
55.98066 609
56.00077 577
56.02088 567
56.041 574
56.06111 638
56.08122 591
56.10134 589
56.12145 580
56.14157 565
56.16168 624
56.18179 624
56.20191 591
56.22202 577
56.24213 605
56.26225 610
56.28236 599
56.30248 573
56.32259 580
56.3427 581
56.36282 613
56.38293 585
56.40304 576
56.42316 592
56.44327 600
56.46338 578
56.4835 547
56.50361 563
56.52373 596
56.54384 588
56.56395 603
56.58407 598
56.60418 564
56.62429 579
56.64441 638
56.66452 618
56.68464 569
56.70475 593
56.72486 610
56.74498 595
56.76509 592
56.7852 556
56.80532 600
56.82543 579
56.84554 613
56.86566 576
56.88577 589
56.90589 576
56.926 544
56.94611 640
56.96623 580
56.98634 611
57.00645 604
57.02657 578
57.04668 562
57.0668 602
57.08691 583
57.10702 634
57.12714 606
57.14725 639
57.16736 647
57.18748 628
57.20759 559
57.22771 648
57.24782 618
57.26793 634
57.28805 634
57.30816 593
57.32827 556
57.34839 608
57.3685 598
57.38861 597
57.40873 605
57.42884 580
57.44896 594
57.46907 603
57.48918 576
57.5093 608
57.52941 647
57.54952 650
57.56964 629
57.58975 589
57.60987 605
57.62998 616
57.65009 599
57.67021 604
57.69032 590
57.71043 572
57.73055 656
57.75066 589
57.77078 571
57.79089 590
57.811 579
57.83112 605
57.85123 583
57.87134 557
57.89146 573
57.91157 564
57.93168 602
57.9518 589
57.97191 574
57.99203 597
58.01214 582
58.03225 602
58.05237 594
58.07248 595
58.09259 545
58.11271 580
58.13282 584
58.15294 615
58.17305 598
58.19316 565
58.21328 591
58.23339 545
58.2535 579
58.27362 560
58.29373 522
58.31385 580
58.33396 572
58.35407 550
58.37419 542
58.3943 539
58.41441 562
58.43453 583
58.45464 590
58.47475 564
58.49487 566
58.51498 575
58.5351 609
58.55521 583
58.57532 566
58.59544 561
58.61555 567
58.63566 553
58.65578 560
58.67589 570
58.69601 600
58.71612 576
58.73623 589
58.75635 571
58.77646 517
58.79657 590
58.81669 575
58.8368 593
58.85691 543
58.87703 575
58.89714 580
58.91726 594
58.93737 568
58.95748 582
58.9776 551
58.99771 628
59.01782 601
59.03794 608
59.05805 583
59.07817 599
59.09828 628
59.11839 595
59.13851 601
59.15862 617
59.17873 599
59.19885 521
59.21896 598
59.23908 607
59.25919 629
59.2793 625
59.29942 553
59.31953 603
59.33964 569
59.35976 565
59.37987 575
59.39998 551
59.4201 585
59.44021 610
59.46033 580
59.48044 610
59.50055 602
59.52067 585
59.54078 610
59.56089 567
59.58101 579
59.60112 602
59.62124 617
59.64135 599
59.66146 622
59.68158 629
59.70169 678
59.7218 672
59.74192 699
59.76203 699
59.78215 756
59.80226 799
59.82237 859
59.84249 961
59.8626 1077
59.88271 1147
59.90283 1162
59.92294 1130
59.94305 1084
59.96317 984
59.98328 898
60.0034 917
60.02351 855
60.04362 921
60.06374 874
60.08385 856
60.10396 792
60.12408 750
60.14419 651
60.16431 648
60.18442 687
60.20453 617
60.22465 639
60.24476 595
60.26487 632
60.28499 617
60.3051 584
60.32522 615
60.34533 624
60.36544 609
60.38556 589
60.40567 612
60.42578 606
60.4459 610
60.46601 600
60.48612 580
60.50624 611
60.52635 616
60.54647 617
60.56658 597
60.58669 583
60.60681 587
60.62692 590
60.64703 580
60.66715 534
60.68726 586
60.70738 574
60.72749 603
60.7476 550
60.76772 575
60.78783 609
60.80794 602
60.82806 580
60.84817 626
60.86828 553
60.8884 583
60.90851 561
60.92863 572
60.94874 632
60.96885 573
60.98897 565
61.00908 602
61.02919 652
61.04931 571
61.06942 611
61.08954 573
61.10965 586
61.12976 571
61.14988 542
61.16999 616
61.1901 566
61.21022 611
61.23033 602
61.25045 568
61.27056 619
61.29067 600
61.31079 619
61.3309 641
61.35101 612
61.37113 600
61.39124 628
61.41135 636
61.43147 629
61.45158 629
61.4717 634
61.49181 644
61.51192 616
61.53204 645
61.55215 651
61.57226 640
61.59238 661
61.61249 630
61.63261 630
61.65272 671
61.67283 600
61.69295 606
61.71306 650
61.73317 638
61.75329 618
61.7734 665
61.79352 659
61.81363 697
61.83374 653
61.85386 622
61.87397 661
61.89408 631
61.9142 645
61.93431 646
61.95442 634
61.97454 599
61.99465 580
62.01477 628
62.03488 633
62.05499 601
62.07511 607
62.09522 649
62.11533 698
62.13545 638
62.15556 687
62.17568 659
62.19579 711
62.2159 656
62.23602 633
62.25613 719
62.27624 645
62.29636 668
62.31647 670
62.33659 701
62.3567 722
62.37681 721
62.39693 608
62.41704 671
62.43715 615
62.45727 698
62.47738 655
62.49749 660
62.51761 636
62.53772 668
62.55784 621
62.57795 634
62.59806 675
62.61818 653
62.63829 641
62.6584 661
62.67852 634
62.69863 598
62.71875 617
62.73886 646
62.75897 649
62.77909 620
62.7992 625
62.81931 631
62.83943 596
62.85954 596
62.87965 631
62.89977 590
62.91988 610
62.94 596
62.96011 623
62.98022 603
63.00034 606
63.02045 605
63.04056 605
63.06068 641
63.08079 564
63.10091 603
63.12102 601
63.14113 565
63.16125 606
63.18136 597
63.20147 595
63.22159 572
63.2417 590
63.26182 598
63.28193 579
63.30204 532
63.32216 582
63.34227 589
63.36238 603
63.3825 561
63.40261 565
63.42272 545
63.44284 662
63.46295 634
63.48307 606
63.50318 609
63.52329 635
63.54341 620
63.56352 624
63.58363 562
63.60375 648
63.62386 600
63.64398 621
63.66409 608
63.6842 633
63.70432 612
63.72443 600
63.74454 645
63.76466 684
63.78477 618
63.80489 617
63.825 634
63.84511 693
63.86523 643
63.88534 683
63.90545 746
63.92557 751
63.94568 760
63.96579 765
63.98591 721
64.00602 695
64.02614 710
64.04625 720
64.06636 739
64.08648 753
64.10659 673
64.1267 682
64.14682 734
64.16693 706
64.18705 744
64.20716 658
64.22727 605
64.24739 664
64.2675 622
64.28761 610
64.30773 613
64.32784 611
64.34796 587
64.36807 592
64.38818 608
64.4083 658
64.42841 616
64.44852 631
64.46864 589
64.48875 577
64.50886 571
64.52898 575
64.54909 593
64.56921 598
64.58932 615
64.60943 548
64.62955 585
64.64966 573
64.66977 576
64.68989 596
64.71 533
64.73012 606
64.75023 565
64.77034 570
64.79046 572
64.81057 592
64.83068 561
64.8508 591
64.87091 605
64.89102 554
64.91114 566
64.93125 539
64.95137 564
64.97148 564
64.99159 604
65.01171 576
65.03182 560
65.05193 569
65.07205 556
65.09216 554
65.11228 597
65.13239 594
65.1525 569
65.17262 568
65.19273 576
65.21284 588
65.23296 540
65.25307 528
65.27319 564
65.2933 515
65.31341 537
65.33353 552
65.35364 558
65.37375 582
65.39387 537
65.41398 568
65.43409 594
65.45421 586
65.47432 530
65.49444 533
65.51455 563
65.53466 593
65.55478 566
65.57489 582
65.595 597
65.61512 554
65.63523 561
65.65535 539
65.67546 541
65.69557 551
65.71569 584
65.7358 554
65.75591 575
65.77603 631
65.79614 569
65.81626 599
65.83637 575
65.85648 534
65.8766 566
65.89671 626
65.91682 560
65.93694 569
65.95705 577
65.97716 559
65.99728 581
66.01739 579
66.03751 548
66.05762 571
66.07773 603
66.09785 566
66.11796 562
66.13807 545
66.15819 596
66.1783 521
66.19842 563
66.21853 528
66.23864 507
66.25876 550
66.27887 540
66.29898 591
66.3191 582
66.33921 550
66.35933 530
66.37944 549
66.39955 581
66.41967 557
66.43978 579
66.45989 564
66.48001 555
66.50012 559
66.52023 546
66.54035 519
66.56046 507
66.58058 561
66.60069 560
66.6208 565
66.64092 565
66.66103 542
66.68114 554
66.70126 587
66.72137 560
66.74149 532
66.7616 528
66.78171 551
66.80183 548
66.82194 565
66.84205 523
66.86217 583
66.88228 538
66.90239 555
66.92251 546
66.94262 570
66.96274 589
66.98285 544
67.00296 596
67.02308 550
67.04319 494
67.0633 573
67.08342 564
67.10353 598
67.12365 517
67.14376 563
67.16387 566
67.18399 571
67.2041 558
67.22421 531
67.24433 571
67.26444 555
67.28456 546
67.30467 581
67.32478 566
67.3449 561
67.36501 599
67.38512 563
67.40524 576
67.42535 564
67.44546 551
67.46558 546
67.48569 655
67.50581 612
67.52592 633
67.54603 622
67.56615 639
67.58626 688
67.60637 729
67.62649 796
67.6466 880
67.66672 852
67.68683 836
67.70694 951
67.72706 805
67.74717 762
67.76728 752
67.7874 753
67.80751 688
67.82763 727
67.84774 740
67.86785 783
67.88797 771
67.90808 755
67.92819 755
67.94831 719
67.96842 798
67.98853 757
68.00865 830
68.02876 889
68.04888 897
68.06899 973
68.0891 979
68.10922 993
68.12933 958
68.14944 937
68.16956 913
68.18967 882
68.20979 899
68.2299 949
68.25001 1028
68.27013 1009
68.29024 986
68.31035 890
68.33047 816
68.35058 811
68.3707 728
68.39081 731
68.41092 746
68.43104 681
68.45115 697
68.47126 724
68.49138 700
68.51149 646
68.5316 615
68.55172 616
68.57183 567
68.59195 577
68.61206 599
68.63217 531
68.65229 555
68.6724 559
68.69251 582
68.71263 577
68.73274 587
68.75286 581
68.77297 550
68.79308 593
68.8132 572
68.83331 576
68.85342 579
68.87354 562
68.89365 540
68.91376 570
68.93388 583
68.95399 564
68.97411 580
68.99422 580
69.01433 602
69.03445 559
69.05456 543
69.07467 568
69.09479 563
69.1149 602
69.13502 543
69.15513 566
69.17524 579
69.19536 550
69.21547 538
69.23558 571
69.2557 559
69.27581 564
69.29593 589
69.31604 535
69.33615 572
69.35627 528
69.37638 540
69.39649 561
69.41661 579
69.43672 590
69.45683 584
69.47695 551
69.49706 563
69.51718 581
69.53729 592
69.5574 577
69.57752 564
69.59763 599
69.61774 545
69.63786 555
69.65797 541
69.67809 560
69.6982 541
69.71831 589
69.73843 577
69.75854 552
69.77865 550
69.79877 534
69.81888 567
69.839 559
69.85911 541
69.87922 553
69.89934 574
69.91945 560
69.93956 577
69.95968 563
69.97979 569
69.9999 556
70.02002 570
70.04013 519
70.06025 564
70.08036 557
70.10047 542
70.12059 555
70.1407 585
70.16081 539
70.18093 574
70.20104 566
70.22116 529
70.24127 569
70.26138 578
70.2815 521
70.30161 552
70.32172 535
70.34184 552
70.36195 559
70.38207 583
70.40218 537
70.42229 555
70.44241 535
70.46252 533
70.48263 557
70.50275 534
70.52286 553
70.54297 507
70.56309 565
70.5832 540
70.60332 555
70.62343 548
70.64354 530
70.66366 565
70.68377 517
70.70388 563
70.724 533
70.74411 613
70.76423 540
70.78434 521
70.80445 499
70.82457 540
70.84468 554
70.86479 555
70.88491 588
70.90502 537
70.92513 560
70.94525 567
70.96536 525
70.98548 530
71.00559 536
71.0257 541
71.04582 557
71.06593 557
71.08604 510
71.10616 510
71.12627 598
71.14639 611
71.1665 546
71.18661 571
71.20673 536
71.22684 580
71.24695 571
71.26707 568
71.28718 571
71.3073 577
71.32741 561
71.34752 583
71.36764 535
71.38775 578
71.40786 558
71.42798 539
71.44809 566
71.4682 604
71.48832 559
71.50843 589
71.52855 549
71.54866 586
71.56877 551
71.58889 569
71.609 584
71.62911 593
71.64923 585
71.66934 582
71.68946 617
71.70957 548
71.72968 599
71.7498 551
71.76991 560
71.79002 575
71.81014 593
71.83025 563
71.85037 562
71.87048 562
71.89059 541
71.91071 583
71.93082 600
71.95093 581
71.97105 566
71.99116 592
72.01127 567
72.03139 535
72.0515 566
72.07162 572
72.09173 598
72.11184 558
72.13196 569
72.15207 579
72.17218 594
72.1923 572
72.21241 574
72.23253 564
72.25264 564
72.27275 544
72.29287 573
72.31298 541
72.33309 578
72.35321 563
72.37332 546
72.39344 611
72.41355 574
72.43366 525
72.45378 566
72.47389 545
72.494 556
72.51412 578
72.53423 596
72.55434 564
72.57446 543
72.59457 589
72.61469 571
72.6348 533
72.65491 546
72.67503 552
72.69514 541
72.71525 573
72.73537 604
72.75548 552
72.7756 547
72.79571 581
72.81582 551
72.83594 529
72.85605 586
72.87616 532
72.89628 596
72.91639 600
72.9365 548
72.95662 528
72.97673 546
72.99685 572
73.01696 566
73.03707 562
73.05719 564
73.0773 594
73.09741 584
73.11753 583
73.13764 561
73.15776 583
73.17787 545
73.19798 571
73.2181 593
73.23821 534
73.25832 579
73.27844 627
73.29855 580
73.31867 583
73.33878 669
73.35889 647
73.37901 652
73.39912 721
73.41923 616
73.43935 707
73.45946 621
73.47957 598
73.49969 590
73.5198 598
73.53992 599
73.56003 617
73.58014 618
73.60026 611
73.62037 618
73.64048 581
73.6606 620
73.68071 547
73.70083 569
73.72094 582
73.74105 543
73.76117 570
73.78128 581
73.80139 543
73.82151 567
73.84162 544
73.86174 545
73.88185 584
73.90196 558
73.92208 572
73.94219 538
73.9623 528
73.98242 577
74.00253 559
74.02264 533
74.04276 536
74.06287 561
74.08299 579
74.1031 533
74.12321 519
74.14333 573
74.16344 525
74.18355 526
74.20367 545
74.22378 568
74.2439 544
74.26401 499
74.28412 526
74.30424 547
74.32435 554
74.34446 512
74.36458 532
74.38469 554
74.40481 557
74.42492 516
74.44503 547
74.46515 467
74.48526 536
74.50537 523
74.52549 482
74.5456 525
74.56571 501
74.58583 545
74.60594 504
74.62606 561
74.64617 545
74.66628 514
74.6864 501
74.70651 571
74.72662 521
74.74674 574
74.76685 497
74.78697 545
74.80708 517
74.82719 574
74.84731 517
74.86742 520
74.88753 537
74.90765 539
74.92776 532
74.94787 534
74.96799 556
74.9881 491
75.00822 544
