3.00117 18985
3.02128 18702
3.0414 17873
3.06151 17893
3.08162 17332
3.10174 16738
3.12185 16187
3.14197 15850
3.16208 15378
3.18219 15003
3.20231 14248
3.22242 14480
3.24253 13544
3.26265 13509
3.28276 12832
3.30288 12265
3.32299 12089
3.3431 11749
3.36322 11527
3.38333 10877
3.40344 10358
3.42356 10268
3.44367 9863
3.46379 9559
3.4839 9129
3.50401 8805
3.52413 8670
3.54424 8105
3.56435 7994
3.58447 7640
3.60458 7362
3.62469 7229
3.64481 6596
3.66492 6717
3.68504 6253
3.70515 6038
3.72526 5945
3.74538 5565
3.76549 5337
3.7856 5219
3.80572 4906
3.82583 4865
3.84595 4577
3.86606 4373
3.88617 4163
3.90629 3872
3.9264 3949
3.94651 3525
3.96663 3600
3.98674 3410
4.00686 3156
4.02697 3100
4.04708 2949
4.0672 2814
4.08731 2538
4.10742 2518
4.12754 2519
4.14765 2464
4.16776 2326
4.18788 2200
4.20799 2147
4.22811 2103
4.24822 1963
4.26833 1923
4.28845 1724
4.30856 1702
4.32867 1757
4.34879 1706
4.3689 1707
4.38902 1606
4.40913 1505
4.42924 1549
4.44936 1506
4.46947 1379
4.48958 1388
4.5097 1330
4.52981 1380
4.54992 1403
4.57004 1201
4.59015 1172
4.61027 1211
4.63038 1164
4.65049 1137
4.67061 1065
4.69072 1066
4.71083 1036
4.73095 978
4.75106 1027
4.77118 975
4.79129 955
4.8114 923
4.83152 957
4.85163 926
4.87174 854
4.89186 884
4.91197 806
4.93209 865
4.9522 823
4.97231 774
4.99243 791
5.01254 744
5.03265 724
5.05277 806
5.07288 713
5.09299 711
5.11311 676
5.13322 653
5.15334 687
5.17345 578
5.19356 591
5.21368 554
5.23379 589
5.2539 643
5.27402 564
5.29413 557
5.31425 531
5.33436 540
5.35447 559
5.37459 528
5.3947 465
5.41481 476
5.43493 425
5.45504 471
5.47516 446
5.49527 434
5.51538 432
5.5355 429
5.55561 417
5.57572 406
5.59584 385
5.61595 363
5.63606 385
5.65618 355
5.67629 372
5.69641 387
5.71652 389
5.73663 349
5.75675 351
5.77686 369
5.79697 344
5.81709 333
5.8372 315
5.85732 322
5.87743 305
5.89754 312
5.91766 293
5.93777 348
5.95788 290
5.978 308
5.99811 306
6.01823 317
6.03834 292
6.05845 291
6.07857 294
6.09868 277
6.11879 298
6.13891 283
6.15902 268
6.17913 261
6.19925 289
6.21936 275
6.23948 266
6.25959 261
6.2797 282
6.29982 271
6.31993 279
6.34004 271
6.36016 253
6.38027 242
6.40039 274
6.4205 237
6.44061 219
6.46073 270
6.48084 244
6.50095 239
6.52107 255
6.54118 258
6.56129 249
6.58141 253
6.60152 249
6.62164 247
6.64175 225
6.66186 251
6.68198 229
6.70209 245
6.7222 232
6.74232 213
6.76243 238
6.78255 230
6.80266 264
6.82277 214
6.84289 240
6.863 272
6.88311 249
6.90323 231
6.92334 267
6.94346 257
6.96357 229
6.98368 253
7.0038 210
7.02391 243
7.04402 241
7.06414 233
7.08425 233
7.10436 244
7.12448 228
7.14459 209
7.16471 200
7.18482 254
7.20493 231
7.22505 221
7.24516 253
7.26527 241
7.28539 220
7.3055 241
7.32562 263
7.34573 245
7.36584 263
7.38596 233
7.40607 227
7.42618 232
7.4463 228
7.46641 229
7.48653 223
7.50664 239
7.52675 222
7.54687 232
7.56698 225
7.58709 231
7.60721 239
7.62732 244
7.64743 236
7.66755 216
7.68766 227
7.70778 229
7.72789 229
7.748 238
7.76812 223
7.78823 238
7.80834 250
7.82846 233
7.84857 223
7.86869 201
7.8888 213
7.90891 221
7.92903 283
7.94914 239
7.96925 266
7.98937 236
8.00948 237
8.0296 217
8.04971 221
8.06982 224
8.08994 236
8.11005 222
8.13016 221
8.15028 235
8.17039 241
8.1905 248
8.21062 232
8.23073 232
8.25085 229
8.27096 233
8.29107 276
8.31119 212
8.3313 265
8.35141 248
8.37153 239
8.39164 264
8.41176 231
8.43187 267
8.45198 255
8.4721 265
8.49221 271
8.51232 266
8.53244 240
8.55255 255
8.57266 242
8.59278 269
8.61289 274
8.63301 243
8.65312 296
8.67323 270
8.69335 263
8.71346 241
8.73357 226
8.75369 290
8.7738 279
8.79392 250
8.81403 279
8.83414 282
8.85426 282
8.87437 267
8.89448 281
8.9146 265
8.93471 233
8.95483 278
8.97494 258
8.99505 264
9.01517 255
9.03528 226
9.05539 239
9.07551 252
9.09562 244
9.11573 255
9.13585 244
9.15596 256
9.17608 247
9.19619 244
9.2163 266
9.23642 212
9.25653 230
9.27664 243
9.29676 217
9.31687 237
9.33699 217
9.3571 224
9.37721 225
9.39733 262
9.41744 222
9.43755 230
9.45767 240
9.47778 255
9.4979 245
9.51801 244
9.53812 239
9.55824 231
9.57835 264
9.59846 269
9.61858 227
9.63869 237
9.6588 253
9.67892 241
9.69903 219
9.71915 258
9.73926 248
9.75937 239
9.77949 239
9.7996 228
9.81971 248
9.83983 250
9.85994 244
9.88006 221
9.90017 221
9.92028 221
9.9404 248
9.96051 260
9.98062 212
10.00074 214
10.02085 214
10.04097 223
10.06108 204
10.08119 260
10.10131 241
10.12142 204
10.14153 248
10.16165 254
10.18176 217
10.20187 263
10.22199 242
10.2421 288
10.26222 215
10.28233 258
10.30244 237
10.32256 249
10.34267 236
10.36278 247
10.3829 213
10.40301 273
10.42313 256
10.44324 241
10.46335 232
10.48347 278
10.50358 250
10.52369 234
10.54381 238
10.56392 258
10.58403 244
10.60415 231
10.62426 236
10.64438 233
10.66449 232
10.6846 273
10.70472 264
10.72483 254
10.74494 237
10.76506 239
10.78517 254
10.80529 231
10.8254 263
10.84551 242
10.86563 265
10.88574 252
10.90585 266
10.92597 240
10.94608 240
10.9662 247
10.98631 261
11.00642 229
11.02654 267
11.04665 221
11.06676 265
11.08688 253
11.10699 247
11.1271 256
11.14722 255
11.16733 237
11.18745 246
11.20756 265
11.22767 231
11.24779 230
11.2679 237
11.28801 234
11.30813 243
11.32824 228
11.34836 242
11.36847 255
11.38858 246
11.4087 225
11.42881 254
11.44892 261
11.46904 281
11.48915 301
11.50927 240
11.52938 260
11.54949 255
11.56961 269
11.58972 253
11.60983 255
11.62995 261
11.65006 268
11.67017 262
11.69029 269
11.7104 267
11.73052 298
11.75063 280
11.77074 271
11.79086 309
11.81097 274
11.83108 266
11.8512 306
11.87131 272
11.89143 300
11.91154 305
11.93165 292
11.95177 334
11.97188 312
11.99199 348
12.01211 323
12.03222 340
12.05234 343
12.07245 330
12.09256 379
12.11268 380
12.13279 329
12.1529 371
12.17302 368
12.19313 357
12.21324 434
12.23336 362
12.25347 399
12.27359 394
12.2937 388
12.31381 346
12.33393 369
12.35404 391
12.37415 354
12.39427 374
12.41438 328
12.4345 351
12.45461 349
12.47472 332
12.49484 310
12.51495 283
12.53506 332
12.55518 300
12.57529 273
12.5954 299
12.61552 278
12.63563 280
12.65575 284
12.67586 270
12.69597 293
12.71609 321
12.7362 271
12.75631 251
12.77643 280
12.79654 281
12.81666 256
12.83677 233
12.85688 237
12.877 257
12.89711 275
12.91722 245
12.93734 259
12.95745 245
12.97757 252
12.99768 253
13.01779 271
13.03791 264
13.05802 271
13.07813 247
13.09825 284
13.11836 317
13.13847 284
13.15859 309
13.1787 259
13.19882 330
13.21893 274
13.23904 257
13.25916 277
13.27927 270
13.29938 253
13.3195 288
13.33961 278
13.35973 214
13.37984 257
13.39995 265
13.42007 249
13.44018 239
13.46029 261
13.48041 265
13.50052 281
13.52064 268
13.54075 280
13.56086 306
13.58098 380
13.60109 406
13.6212 411
13.64132 360
13.66143 417
13.68154 344
13.70166 286
13.72177 235
13.74189 239
13.762 220
13.78211 256
13.80223 227
13.82234 226
13.84245 227
13.86257 225
13.88268 248
13.9028 227
13.92291 238
13.94302 223
13.96314 243
13.98325 241
14.00336 253
14.02348 225
14.04359 205
14.06371 206
14.08382 210
14.10393 211
14.12405 232
14.14416 201
14.16427 206
14.18439 226
14.2045 215
14.22461 190
14.24473 200
14.26484 207
14.28496 207
14.30507 166
14.32518 196
14.3453 212
14.36541 194
14.38552 218
14.40564 196
14.42575 251
14.44587 221
14.46598 212
14.48609 201
14.50621 191
14.52632 185
14.54643 195
14.56655 205
14.58666 192
14.60677 209
14.62689 212
14.647 203
14.66712 209
14.68723 221
14.70734 215
14.72746 203
14.74757 207
14.76768 237
14.7878 215
14.80791 237
14.82803 252
14.84814 232
14.86825 256
14.88837 250
14.90848 226
14.92859 291
14.94871 290
14.96882 281
14.98894 275
15.00905 272
15.02916 285
15.04928 290
15.06939 251
15.0895 261
15.10962 233
15.12973 233
15.14984 265
15.16996 272
15.19007 246
15.21019 240
15.2303 240
15.25041 241
15.27053 240
15.29064 221
15.31075 203
15.33087 190
15.35098 227
15.3711 205
15.39121 193
15.41132 210
15.43144 216
15.45155 192
15.47166 194
15.49178 198
15.51189 207
15.53201 233
15.55212 211
15.57223 230
15.59235 213
15.61246 202
15.63257 213
15.65269 229
15.6728 161
15.69291 205
15.71303 214
15.73314 192
15.75326 186
15.77337 195
15.79348 224
15.8136 206
15.83371 211
15.85382 214
15.87394 179
15.89405 224
15.91417 219
15.93428 188
15.95439 174
15.97451 185
15.99462 186
16.01473 190
16.03485 196
16.05496 204
16.07508 241
16.09519 199
16.1153 204
16.13542 187
16.15553 191
16.17564 185
16.19576 178
16.21587 175
16.23598 203
16.2561 201
16.27621 190
16.29633 190
16.31644 214
16.33655 216
16.35667 164
16.37678 190
16.39689 207
16.41701 209
16.43712 179
16.45724 174
16.47735 190
16.49746 212
16.51758 170
16.53769 183
16.5578 186
16.57792 177
16.59803 208
16.61814 205
16.63826 187
16.65837 188
16.67849 189
16.6986 193
16.71871 199
16.73883 225
16.75894 206
16.77905 185
16.79917 190
16.81928 175
16.8394 207
16.85951 218
16.87962 194
16.89974 164
16.91985 168
16.93996 228
16.96008 220
16.98019 187
17.00031 197
17.02042 198
17.04053 199
17.06065 195
17.08076 196
17.10087 181
17.12099 205
17.1411 207
17.16121 192
17.18133 184
17.20144 162
17.22156 184
17.24167 193
17.26178 188
17.2819 199
17.30201 214
17.32212 197
17.34224 197
17.36235 194
17.38247 187
17.40258 183
17.42269 185
17.44281 190
17.46292 190
17.48303 180
17.50315 210
17.52326 183
17.54338 197
17.56349 222
17.5836 185
17.60372 209
17.62383 192
17.64394 193
17.66406 191
17.68417 197
17.70428 189
17.7244 157
17.74451 211
17.76463 194
17.78474 166
17.80485 175
17.82497 169
17.84508 182
17.86519 207
17.88531 187
17.90542 176
17.92554 174
17.94565 174
17.96576 176
17.98588 169
18.00599 187
18.0261 180
18.04622 196
18.06633 189
18.08645 200
18.10656 178
18.12667 181
18.14679 182
18.1669 194
18.18701 204
18.20713 209
18.22724 212
18.24735 190
18.26747 191
18.28758 200
18.3077 203
18.32781 178
18.34792 188
18.36804 174
18.38815 174
18.40826 177
18.42838 214
18.44849 168
18.46861 180
18.48872 187
18.50883 192
18.52895 192
18.54906 218
18.56917 168
18.58929 171
18.6094 183
18.62951 181
18.64963 200
18.66974 208
18.68986 192
18.70997 189
18.73008 227
18.7502 205
18.77031 219
18.79042 194
18.81054 173
18.83065 220
18.85077 189
18.87088 186
18.89099 164
18.91111 199
18.93122 196
18.95133 212
18.97145 200
18.99156 202
19.01168 210
19.03179 209
19.0519 203
19.07202 209
19.09213 201
19.11224 192
19.13236 188
19.15247 214
19.17258 206
19.1927 206
19.21281 220
19.23293 238
19.25304 240
19.27315 264
19.29327 258
19.31338 232
19.33349 243
19.35361 243
19.37372 239
19.39384 221
19.41395 254
19.43406 191
19.45418 184
19.47429 231
19.4944 207
19.51452 244
19.53463 238
19.55475 213
19.57486 238
19.59497 226
19.61509 258
19.6352 254
19.65531 301
19.67543 266
19.69554 258
19.71565 273
19.73577 300
19.75588 304
19.776 339
19.79611 328
19.81622 363
19.83634 392
19.85645 415
19.87656 383
19.89668 424
19.91679 426
19.93691 446
19.95702 412
19.97713 408
19.99725 394
20.01736 360
20.03747 412
20.05759 367
20.0777 377
20.09782 362
20.11793 402
20.13804 381
20.15816 404
20.17827 401
20.19838 392
20.2185 364
20.23861 376
20.25872 388
20.27884 378
20.29895 357
20.31907 394
20.33918 368
20.35929 406
20.37941 410
20.39952 390
20.41963 427
20.43975 421
20.45986 419
20.47998 435
20.50009 432
20.5202 457
20.54032 449
20.56043 418
20.58054 471
20.60066 454
20.62077 470
20.64088 567
20.661 606
20.68111 677
20.70123 940
20.72134 1141
20.74145 1511
20.76157 1992
20.78168 2640
20.80179 3365
20.82191 3841
20.84202 4065
20.86214 3662
20.88225 3144
20.90236 2512
20.92248 2070
20.94259 1731
20.9627 1577
20.98282 1540
21.00293 1458
21.02305 1383
21.04316 1291
21.06327 1083
21.08339 916
21.1035 737
21.12361 598
21.14373 574
21.16384 464
21.18395 402
21.20407 420
21.22418 409
21.2443 407
21.26441 368
21.28452 342
21.30464 338
21.32475 377
21.34486 359
21.36498 371
21.38509 341
21.40521 334
21.42532 361
21.44543 322
21.46555 336
21.48566 338
21.50577 323
21.52589 349
21.546 318
21.56612 315
21.58623 323
21.60634 281
21.62646 322
21.64657 269
21.66668 281
21.6868 313
21.70691 344
21.72702 274
21.74714 292
21.76725 299
21.78737 295
21.80748 309
21.82759 303
21.84771 270
21.86782 308
21.88793 320
21.90805 338
21.92816 325
21.94828 398
21.96839 360
21.9885 417
22.00862 355
22.02873 357
22.04884 341
22.06896 325
22.08907 321
22.10919 302
22.1293 327
22.14941 323
22.16953 348
22.18964 341
22.20975 382
22.22987 391
22.24998 378
22.27009 454
22.29021 453
22.31032 424
22.33044 435
22.35055 472
22.37066 397
22.39078 423
22.41089 443
22.431 373
22.45112 392
22.47123 407
22.49135 371
22.51146 379
22.53157 338
22.55169 368
22.5718 358
22.59191 376
22.61203 351
22.63214 348
22.65225 332
22.67237 310
22.69248 314
22.7126 301
22.73271 301
22.75282 275
22.77294 288
22.79305 259
22.81316 283
22.83328 303
22.85339 307
22.87351 289
22.89362 310
22.91373 320
22.93385 323
22.95396 359
22.97407 388
22.99419 388
23.0143 441
23.03442 417
23.05453 425
23.07464 467
23.09476 468
23.11487 442
23.13498 523
23.1551 540
23.17521 578
23.19532 549
23.21544 598
23.23555 571
23.25567 517
23.27578 551
23.29589 567
23.31601 461
23.33612 479
23.35623 474
23.37635 478
23.39646 426
23.41658 486
23.43669 464
23.4568 492
23.47692 486
23.49703 449
23.51714 424
23.53726 431
23.55737 477
23.57749 472
23.5976 434
23.61771 438
23.63783 512
23.65794 453
23.67805 493
23.69817 474
23.71828 515
23.73839 450
23.75851 461
23.77862 516
23.79874 488
23.81885 516
23.83896 551
23.85908 582
23.87919 576
23.8993 621
23.91942 630
23.93953 644
23.95965 592
23.97976 543
23.99987 501
24.01999 497
24.0401 459
24.06021 426
24.08033 405
24.10044 396
24.12056 379
24.14067 393
24.16078 375
24.1809 391
24.20101 407
24.22112 413
24.24124 418
24.26135 395
24.28146 425
24.30158 420
24.32169 425
24.34181 476
24.36192 416
24.38203 448
24.40215 437
24.42226 418
24.44237 417
24.46249 432
24.4826 371
24.50272 401
24.52283 419
24.54294 397
24.56306 422
24.58317 394
24.60328 417
24.6234 495
24.64351 441
24.66362 492
24.68374 508
24.70385 457
24.72397 471
24.74408 495
24.76419 530
24.78431 513
24.80442 495
24.82453 495
24.84465 470
24.86476 467
24.88488 453
24.90499 485
24.9251 426
24.94522 404
24.96533 466
24.98544 400
25.00556 426
25.02567 404
25.04579 374
25.0659 383
25.08601 403
25.10613 370
25.12624 355
25.14635 373
25.16647 369
25.18658 366
25.20669 403
25.22681 371
25.24692 370
25.26704 396
25.28715 384
25.30726 385
25.32738 400
25.34749 419
25.3676 425
25.38772 475
25.40783 543
25.42795 554
25.44806 673
25.46817 775
25.48829 792
25.5084 857
25.52851 979
25.54863 1086
25.56874 1136
25.58886 1051
25.60897 1013
25.62908 942
25.6492 903
25.66931 806
25.68942 651
25.70954 596
25.72965 541
25.74976 474
25.76988 426
25.78999 444
25.81011 404
25.83022 409
25.85033 426
25.87045 442
25.89056 372
25.91067 395
25.93079 381
25.9509 387
25.97102 400
25.99113 389
26.01124 421
26.03136 503
26.05147 468
26.07158 457
26.0917 515
26.11181 528
26.13193 509
26.15204 555
26.17215 554
26.19227 618
26.21238 712
26.23249 699
26.25261 755
26.27272 846
26.29283 937
26.31295 935
26.33306 1093
26.35318 1233
26.37329 1360
26.3934 1604
26.41352 1824
26.43363 2253
26.45374 2835
26.47386 3550
26.49397 4893
26.51409 6666
26.5342 9179
26.55431 11959
26.57443 14008
26.59454 15846
26.61465 16070
26.63477 15402
26.65488 12990
26.67499 10160
26.69511 7610
26.71522 5565
26.73534 3683
26.75545 2442
26.77556 1647
26.79568 1310
26.81579 1221
26.8359 1203
26.85602 1064
26.87613 1086
26.89625 1070
26.91636 1072
26.93647 1153
26.95659 1230
26.9767 1377
26.99681 1363
27.01693 1543
27.03704 1496
27.05716 1489
27.07727 1444
27.09738 1312
27.1175 1128
27.13761 1093
27.15772 981
27.17784 873
27.19795 815
27.21806 915
27.23818 860
27.25829 914
27.27841 1003
27.29852 1114
27.31863 1274
27.33875 1456
27.35886 1627
27.37897 2013
27.39909 2256
27.4192 2339
27.43932 2444
27.45943 2396
27.47954 2122
27.49966 1936
27.51977 1576
27.53988 1215
27.56 981
27.58011 774
27.60023 657
27.62034 570
27.64045 485
27.66057 508
27.68068 497
27.70079 480
27.72091 445
27.74102 442
27.76113 425
27.78125 428
27.80136 383
27.82148 391
27.84159 452
27.8617 487
27.88182 505
27.90193 507
27.92204 418
27.94216 430
27.96227 486
27.98239 539
28.0025 463
28.02261 424
28.04273 419
28.06284 433
28.08295 348
28.10307 315
28.12318 298
28.1433 323
28.16341 303
28.18352 309
28.20364 300
28.22375 288
28.24386 346
28.26398 341
28.28409 288
28.3042 273
28.32432 288
28.34443 288
28.36455 266
28.38466 256
28.40477 243
28.42489 252
28.445 245
28.46511 284
28.48523 262
28.50534 310
28.52546 250
28.54557 267
28.56568 256
28.5858 272
28.60591 322
28.62602 273
28.64614 252
28.66625 241
28.68636 254
28.70648 287
28.72659 261
28.74671 273
28.76682 256
28.78693 256
28.80705 243
28.82716 233
28.84727 265
28.86739 258
28.8875 230
28.90762 244
28.92773 221
28.94784 247
28.96796 225
28.98807 249
29.00818 253
29.0283 252
29.04841 250
29.06853 248
29.08864 279
29.10875 282
29.12887 262
29.14898 252
29.16909 288
29.18921 263
29.20932 258
29.22943 289
29.24955 314
29.26966 322
29.28978 346
29.30989 320
29.33 349
29.35012 352
29.37023 417
29.39034 411
29.41046 434
29.43057 405
29.45069 444
29.4708 462
29.49091 492
29.51103 429
29.53114 440
29.55125 429
29.57137 418
29.59148 435
29.6116 435
29.63171 420
29.65182 407
29.67194 393
29.69205 398
29.71216 410
29.73228 345
29.75239 371
29.7725 382
29.79262 417
29.81273 395
29.83285 400
29.85296 403
29.87307 395
29.89319 390
29.9133 400
29.93341 440
29.95353 437
29.97364 468
29.99376 454
30.01387 479
30.03398 504
30.0541 510
30.07421 499
30.09432 540
30.11444 539
30.13455 555
30.15467 568
30.17478 542
30.19489 519
30.21501 516
30.23512 463
30.25523 416
30.27535 384
30.29546 368
30.31557 354
30.33569 349
30.3558 306
30.37592 311
30.39603 359
30.41614 346
30.43626 307
30.45637 307
30.47648 270
30.4966 334
30.51671 352
30.53683 314
30.55694 334
30.57705 347
30.59717 350
30.61728 387
30.63739 431
30.65751 528
30.67762 556
30.69773 604
30.71785 658
30.73796 724
30.75808 673
30.77819 740
30.7983 661
30.81842 631
30.83853 639
30.85864 530
30.87876 557
30.89887 427
30.91899 449
30.9391 350
30.95921 312
30.97933 308
30.99944 290
31.01955 240
31.03967 241
31.05978 239
31.0799 272
31.10001 226
31.12012 254
31.14024 223
31.16035 228
31.18046 242
31.20058 219
31.22069 233
31.2408 212
31.26092 238
31.28103 255
31.30115 244
31.32126 235
31.34137 235
31.36149 214
31.3816 218
31.40171 234
31.42183 250
31.44194 208
31.46206 198
31.48217 204
31.50228 231
31.5224 231
31.54251 232
31.56262 244
31.58274 212
31.60285 216
31.62297 240
31.64308 224
31.66319 210
31.68331 207
31.70342 221
31.72353 227
31.74365 201
31.76376 270
31.78387 231
31.80399 223
31.8241 230
31.84422 205
31.86433 212
31.88444 242
31.90456 235
31.92467 220
31.94478 221
31.9649 268
31.98501 238
32.00513 278
32.02524 274
32.04535 283
32.06547 291
32.08558 315
32.10569 300
32.12581 318
32.14592 355
32.16604 369
32.18615 371
32.20626 373
32.22638 349
32.24649 378
32.2666 350
32.28672 356
32.30683 371
32.32694 356
32.34706 417
32.36717 394
32.38729 362
32.4074 399
32.42751 381
32.44763 367
32.46774 345
32.48785 325
32.50797 307
32.52808 286
32.5482 290
32.56831 257
32.58842 268
32.60854 253
32.62865 236
32.64876 206
32.66888 243
32.68899 234
32.7091 244
32.72922 212
32.74933 251
32.76945 239
32.78956 251
32.80967 250
32.82979 223
32.8499 267
32.87001 211
32.89013 236
32.91024 240
32.93036 244
32.95047 216
32.97058 227
32.9907 246
33.01081 243
33.03092 274
33.05104 268
33.07115 262
33.09127 268
33.11138 259
33.13149 262
33.15161 262
33.17172 250
33.19183 257
33.21195 238
33.23206 242
33.25217 248
33.27229 236
33.2924 264
33.31252 232
33.33263 238
33.35274 230
33.37286 244
33.39297 201
33.41308 209
33.4332 254
33.45331 229
33.47343 218
33.49354 204
33.51365 197
33.53377 229
33.55388 218
33.57399 236
33.59411 206
33.61422 211
33.63434 182
33.65445 236
33.67456 228
33.69468 182
33.71479 240
33.7349 222
33.75502 222
33.77513 221
33.79524 217
33.81536 225
33.83547 240
33.85559 242
33.8757 216
33.89581 224
33.91593 251
33.93604 216
33.95615 237
33.97627 248
33.99638 251
34.0165 262
34.03661 270
34.05672 272
34.07684 345
34.09695 313
34.11706 364
34.13718 400
34.15729 401
34.17741 398
34.19752 442
34.21763 442
34.23775 440
34.25786 417
34.27797 413
34.29809 400
34.3182 372
34.33831 399
34.35843 373
34.37854 397
34.39866 366
34.41877 388
34.43888 408
34.459 378
34.47911 371
34.49922 373
34.51934 385
34.53945 397
34.55957 398
34.57968 391
34.59979 400
34.61991 385
34.64002 420
34.66013 420
34.68025 394
34.70036 363
34.72047 351
34.74059 370
34.7607 385
34.78082 395
34.80093 431
34.82104 370
34.84116 411
34.86127 405
34.88138 473
34.9015 441
34.92161 430
34.94173 444
34.96184 415
34.98195 434
35.00207 401
35.02218 406
35.04229 422
35.06241 451
35.08252 415
35.10264 442
35.12275 408
35.14286 434
35.16298 459
35.18309 449
35.2032 416
35.22332 411
35.24343 426
35.26354 432
35.28366 407
35.30377 485
35.32389 422
35.344 430
35.36411 466
35.38423 486
35.40434 452
35.42445 471
35.44457 500
35.46468 502
35.4848 446
35.50491 444
35.52502 502
35.54514 466
35.56525 443
35.58536 412
35.60548 404
35.62559 412
35.64571 411
35.66582 396
35.68593 371
35.70605 404
35.72616 381
35.74627 395
35.76639 348
35.7865 347
35.80661 364
35.82673 371
35.84684 346
35.86696 344
35.88707 318
35.90718 348
35.9273 313
35.94741 307
35.96752 336
35.98764 323
36.00775 334
36.02787 281
36.04798 290
36.06809 272
36.08821 256
36.10832 290
36.12843 279
36.14855 300
36.16866 289
36.18878 267
36.20889 303
36.229 283
36.24912 314
36.26923 292
36.28934 338
36.30946 343
36.32957 391
36.34968 399
36.3698 513
36.38991 592
36.41003 745
36.43014 894
36.45025 1022
36.47037 1124
36.49048 1200
36.51059 1253
36.53071 1226
36.55082 1037
36.57094 891
36.59105 805
36.61116 714
36.63128 625
36.65139 487
36.6715 384
36.69162 411
36.71173 318
36.73184 348
36.75196 330
36.77207 305
36.79219 317
36.8123 329
36.83241 359
36.85253 347
36.87264 333
36.89275 369
36.91287 345
36.93298 377
36.9531 340
36.97321 359
36.99332 341
37.01344 358
37.03355 357
37.05366 344
37.07378 326
37.09389 333
37.11401 317
37.13412 287
37.15423 320
37.17435 311
37.19446 321
37.21457 289
37.23469 290
37.2548 305
37.27491 286
37.29503 295
37.31514 297
37.33526 286
37.35537 294
37.37548 275
37.3956 253
37.41571 277
37.43582 295
37.45594 273
37.47605 276
37.49617 300
37.51628 293
37.53639 256
37.55651 311
37.57662 310
37.59673 302
37.61685 289
37.63696 274
37.65708 270
37.67719 293
37.6973 255
37.71742 272
37.73753 258
37.75764 253
37.77776 268
37.79787 277
37.81798 252
37.8381 291
37.85821 208
37.87833 253
37.89844 268
37.91855 257
37.93867 253
37.95878 251
37.97889 241
37.99901 277
38.01912 258
38.03924 224
38.05935 251
38.07946 256
38.09958 262
38.11969 262
38.1398 258
38.15992 258
38.18003 294
38.20015 259
38.22026 297
38.24037 301
38.26049 277
38.2806 316
38.30071 252
38.32083 296
38.34094 260
38.36105 320
38.38117 273
38.40128 333
38.4214 349
38.44151 362
38.46162 386
38.48174 369
38.50185 369
38.52196 389
38.54208 380
38.56219 372
38.58231 344
38.60242 343
38.62253 345
38.64265 335
38.66276 281
38.68287 269
38.70299 277
38.7231 264
38.74321 242
38.76333 244
38.78344 261
38.80356 255
38.82367 272
38.84378 226
38.8639 245
38.88401 237
38.90412 249
38.92424 256
38.94435 275
38.96447 247
38.98458 242
39.00469 255
39.02481 230
39.04492 275
39.06503 283
39.08515 275
39.10526 274
39.12538 276
39.14549 288
39.1656 309
39.18572 299
39.20583 329
39.22594 353
39.24606 345
39.26617 440
39.28628 458
39.3064 482
39.32651 630
39.34663 739
39.36674 893
39.38685 1116
39.40697 1172
39.42708 1225
39.44719 1237
39.46731 1036
39.48742 900
39.50754 778
39.52765 680
39.54776 649
39.56788 564
39.58799 428
39.6081 343
39.62822 269
39.64833 267
39.66845 288
39.68856 260
39.70867 264
39.72879 245
39.7489 233
39.76901 192
39.78913 207
39.80924 249
39.82935 244
39.84947 234
39.86958 206
39.8897 240
39.90981 211
39.92992 234
39.95004 259
39.97015 252
39.99026 231
40.01038 258
40.03049 252
40.05061 274
40.07072 284
40.09083 348
40.11095 356
40.13106 386
40.15117 437
40.17129 477
40.1914 564
40.21152 604
40.23163 629
40.25174 675
40.27186 689
40.29197 614
40.31208 541
40.3322 492
40.35231 437
40.37242 409
40.39254 398
40.41265 351
40.43277 301
40.45288 305
40.47299 253
40.49311 235
40.51322 269
40.53333 222
40.55345 239
40.57356 262
40.59368 232
40.61379 237
40.6339 234
40.65402 260
40.67413 243
40.69424 240
40.71436 231
40.73447 250
40.75458 241
40.7747 239
40.79481 245
40.81493 210
40.83504 217
40.85515 242
40.87527 205
40.89538 228
40.91549 228
40.93561 250
40.95572 201
40.97584 235
40.99595 220
41.01606 240
41.03618 246
41.05629 229
41.0764 235
41.09652 266
41.11663 219
41.13675 234
41.15686 229
41.17697 223
41.19709 236
41.2172 248
41.23731 251
41.25743 226
41.27754 254
41.29765 248
41.31777 254
41.33788 238
41.358 275
41.37811 262
41.39822 259
41.41834 231
41.43845 257
41.45856 262
41.47868 253
41.49879 259
41.51891 272
41.53902 256
41.55913 276
41.57925 310
41.59936 296
41.61947 326
41.63959 361
41.6597 392
41.67982 454
41.69993 514
41.72004 565
41.74016 570
41.76027 564
41.78038 570
41.8005 586
41.82061 518
41.84072 488
41.86084 423
41.88095 427
41.90107 398
41.92118 332
41.94129 294
41.96141 293
41.98152 274
42.00163 263
42.02175 291
42.04186 240
42.06198 235
42.08209 236
42.1022 259
42.12232 297
42.14243 290
42.16254 250
42.18266 291
42.20277 317
42.22289 324
42.243 330
42.26311 356
42.28323 443
42.30334 500
42.32345 569
42.34357 701
42.36368 819
42.38379 906
42.40391 920
42.42402 906
42.44414 788
42.46425 739
42.48436 645
42.50448 658
42.52459 632
42.5447 558
42.56482 457
42.58493 401
42.60505 332
42.62516 330
42.64527 345
42.66539 291
42.6855 288
42.70561 324
42.72573 323
42.74584 307
42.76595 315
42.78607 313
42.80618 270
42.8263 283
42.84641 261
42.86652 248
42.88664 245
42.90675 248
42.92686 243
42.94698 241
42.96709 248
42.98721 246
43.00732 240
43.02743 235
43.04755 199
43.06766 203
43.08777 200
43.10789 220
43.128 195
43.14812 206
43.16823 224
43.18834 201
43.20846 199
43.22857 206
43.24868 210
43.2688 210
43.28891 198
43.30902 186
43.32914 208
43.34925 218
43.36937 188
43.38948 195
43.40959 209
43.42971 228
43.44982 227
43.46993 241
43.49005 219
43.51016 237
43.53028 212
43.55039 253
43.5705 228
43.59062 223
43.61073 217
43.63084 214
43.65096 206
43.67107 214
43.69119 218
43.7113 221
43.73141 187
43.75153 214
43.77164 209
43.79175 198
43.81187 202
43.83198 201
43.85209 204
43.87221 192
43.89232 220
43.91244 206
43.93255 205
43.95266 238
43.97278 203
43.99289 229
44.013 214
44.03312 234
44.05323 237
44.07335 240
44.09346 256
44.11357 214
44.13369 238
44.1538 250
44.17391 247
44.19403 245
44.21414 267
44.23426 210
44.25437 237
44.27448 197
44.2946 214
44.31471 215
44.33482 205
44.35494 212
44.37505 204
44.39516 203
44.41528 188
44.43539 218
44.45551 228
44.47562 214
44.49573 222
44.51585 204
44.53596 231
44.55607 219
44.57619 216
44.5963 233
44.61642 215
44.63653 221
44.65664 213
44.67676 217
44.69687 234
44.71698 219
44.7371 227
44.75721 222
44.77732 202
44.79744 204
44.81755 211
44.83767 187
44.85778 212
44.87789 201
44.89801 220
44.91812 220
44.93823 234
44.95835 205
44.97846 222
44.99858 215
45.01869 227
45.0388 221
45.05892 192
45.07903 236
45.09914 213
45.11926 221
45.13937 241
45.15949 202
45.1796 248
45.19971 214
45.21983 209
45.23994 216
45.26005 245
45.28017 224
45.30028 237
45.32039 223
45.34051 250
45.36062 265
45.38074 280
45.40085 267
45.42096 294
45.44108 342
45.46119 325
45.4813 318
45.50142 361
45.52153 339
45.54165 386
45.56176 372
45.58187 369
45.60199 434
45.6221 449
45.64221 505
45.66233 529
45.68244 584
45.70256 733
45.72267 673
45.74278 685
45.7629 715
45.78301 657
45.80312 596
45.82324 532
45.84335 489
45.86346 488
45.88358 437
45.90369 384
45.92381 333
45.94392 336
45.96403 291
45.98415 257
46.00426 264
46.02437 224
46.04449 238
46.0646 251
46.08472 218
46.10483 244
46.12494 266
46.14506 246
46.16517 250
46.18528 272
46.2054 259
46.22551 233
46.24563 254
46.26574 252
46.28585 249
46.30597 221
46.32608 214
46.34619 242
46.36631 198
46.38642 215
46.40653 216
46.42665 237
46.44676 211
46.46688 209
46.48699 211
46.5071 195
46.52722 228
46.54733 196
46.56744 206
46.58756 198
46.60767 200
46.62779 178
46.6479 215
46.66801 211
46.68813 216
46.70824 224
46.72835 193
46.74847 210
46.76858 226
46.78869 215
46.80881 220
46.82892 231
46.84904 216
46.86915 205
46.88926 228
46.90938 248
46.92949 220
46.9496 248
46.96972 260
46.98983 243
47.00995 296
47.03006 290
47.05017 291
47.07029 320
47.0904 303
47.11051 290
47.13063 303
47.15074 291
47.17086 269
47.19097 277
47.21108 290
47.2312 284
47.25131 266
47.27142 256
47.29154 253
47.31165 270
47.33176 244
47.35188 273
47.37199 285
47.39211 268
47.41222 273
47.43233 294
47.45245 272
47.47256 267
47.49267 259
47.51279 237
47.5329 258
47.55302 239
47.57313 238
47.59324 231
47.61336 234
47.63347 218
47.65358 240
47.6737 223
47.69381 241
47.71393 203
47.73404 234
47.75415 173
47.77427 210
47.79438 225
47.81449 202
47.83461 217
47.85472 214
47.87483 222
47.89495 211
47.91506 212
47.93518 208
47.95529 207
47.9754 211
47.99552 198
48.01563 238
48.03574 198
48.05586 211
48.07597 205
48.09609 179
48.1162 191
48.13631 222
48.15643 213
48.17654 211
48.19665 241
48.21677 204
48.23688 207
48.257 203
48.27711 221
48.29722 216
48.31734 211
48.33745 203
48.35756 229
48.37768 193
48.39779 166
48.4179 192
48.43802 201
48.45813 198
48.47825 213
48.49836 198
48.51847 227
48.53859 204
48.5587 200
48.57881 198
48.59893 225
48.61904 208
48.63916 219
48.65927 258
48.67938 266
48.6995 271
48.71961 277
48.73972 256
48.75984 275
48.77995 272
48.80006 303
48.82018 309
48.84029 317
48.86041 323
48.88052 319
48.90063 312
48.92075 322
48.94086 321
48.96097 295
48.98109 337
49.0012 336
49.02132 310
49.04143 302
49.06154 285
49.08166 284
49.10177 230
49.12188 306
49.142 263
49.16211 255
49.18223 260
49.20234 238
49.22245 218
49.24257 223
49.26268 236
49.28279 224
49.30291 235
49.32302 222
49.34313 220
49.36325 232
49.38336 210
49.40348 253
49.42359 224
49.4437 218
49.46382 211
49.48393 212
49.50404 208
49.52416 226
49.54427 220
49.56439 237
49.5845 248
49.60461 250
49.62473 262
49.64484 229
49.66495 256
49.68507 236
49.70518 271
49.7253 264
49.74541 256
49.76552 291
49.78564 293
49.80575 317
49.82586 327
49.84598 387
49.86609 390
49.8862 412
49.90632 490
49.92643 556
49.94655 619
49.96666 782
49.98677 950
50.00689 1085
50.027 1285
50.04711 1491
50.06723 1736
50.08734 1773
50.10746 1806
50.12757 1690
50.14768 1391
50.1678 1226
50.18791 1101
50.20802 1038
50.22814 1005
50.24825 932
50.26837 810
50.28848 624
50.30859 508
50.32871 429
50.34882 430
50.36893 443
50.38905 429
50.40916 466
50.42927 474
50.44939 502
50.4695 544
50.48962 595
50.50973 639
50.52984 638
50.54996 578
50.57007 562
50.59018 518
50.6103 503
50.63041 511
50.65053 492
50.67064 450
50.69075 445
50.71087 412
50.73098 427
50.75109 381
50.77121 348
50.79132 410
50.81143 370
50.83155 313
50.85166 338
50.87178 294
50.89189 308
50.912 269
50.93212 308
50.95223 267
50.97234 276
50.99246 260
51.01257 253
51.03269 252
51.0528 224
51.07291 245
51.09303 239
51.11314 246
51.13325 220
51.15337 203
51.17348 208
51.1936 202
51.21371 220
51.23382 217
51.25394 220
51.27405 214
51.29416 192
51.31428 213
51.33439 204
51.3545 194
51.37462 229
51.39473 219
51.41485 218
51.43496 196
51.45507 194
51.47519 199
51.4953 191
51.51541 211
51.53553 196
51.55564 177
51.57576 197
51.59587 201
51.61598 181
51.6361 213
51.65621 184
51.67632 190
51.69644 208
51.71655 195
51.73667 177
51.75678 200
51.77689 199
51.79701 191
51.81712 191
51.83723 218
51.85735 189
51.87746 186
51.89757 195
51.91769 196
51.9378 180
51.95792 182
51.97803 173
51.99814 185
52.01826 200
52.03837 143
52.05848 200
52.0786 190
52.09871 187
52.11883 171
52.13894 215
52.15905 196
52.17917 206
52.19928 194
52.21939 172
52.23951 170
52.25962 194
52.27974 199
52.29985 201
52.31996 235
52.34008 219
52.36019 190
52.3803 191
52.40042 175
52.42053 204
52.44064 212
52.46076 208
52.48087 226
52.50099 177
52.5211 218
52.54121 187
52.56133 183
52.58144 197
52.60155 214
52.62167 237
52.64178 214
52.6619 211
52.68201 188
52.70212 221
52.72224 213
52.74235 199
52.76246 204
52.78258 232
52.80269 202
52.8228 208
52.84292 216
52.86303 208
52.88315 227
52.90326 216
52.92337 201
52.94349 189
52.9636 215
52.98371 207
53.00383 213
53.02394 216
53.04406 217
53.06417 189
53.08428 203
53.1044 212
53.12451 170
53.14462 210
53.16474 225
53.18485 173
53.20497 186
53.22508 227
53.24519 174
53.26531 205
53.28542 195
53.30553 203
53.32565 208
53.34576 219
53.36587 206
53.38599 218
53.4061 203
53.42622 219
53.44633 217
53.46644 185
53.48656 208
53.50667 203
53.52678 218
53.5469 217
53.56701 208
53.58713 205
53.60724 214
53.62735 212
53.64747 228
53.66758 232
53.68769 226
53.70781 194
53.72792 203
53.74804 186
53.76815 227
53.78826 219
53.80838 230
53.82849 206
53.8486 216
53.86872 240
53.88883 209
53.90894 222
53.92906 211
53.94917 237
53.96929 224
53.9894 242
54.00951 210
54.02963 211
54.04974 209
54.06985 235
54.08997 234
54.11008 250
54.1302 262
54.15031 273
54.17042 252
54.19054 229
54.21065 258
54.23076 236
54.25088 255
54.27099 250
54.29111 225
54.31122 247
54.33133 257
54.35145 242
54.37156 248
54.39167 233
54.41179 250
54.4319 224
54.45201 236
54.47213 270
54.49224 242
54.51236 242
54.53247 254
54.55258 219
54.5727 262
54.59281 258
54.61292 277
54.63304 298
54.65315 285
54.67327 391
54.69338 337
54.71349 395
54.73361 458
54.75372 522
54.77383 642
54.79395 683
54.81406 649
54.83417 694
54.85429 580
54.8744 546
54.89452 496
54.91463 513
54.93474 537
54.95486 446
54.97497 450
54.99508 447
55.0152 425
55.03531 347
55.05543 290
55.07554 276
55.09565 312
55.11577 286
55.13588 300
55.15599 295
55.17611 332
55.19622 370
55.21634 388
55.23645 382
55.25656 424
55.27668 460
55.29679 441
55.3169 395
55.33702 381
55.35713 323
55.37724 352
55.39736 375
55.41747 380
55.43759 382
55.4577 373
55.47781 299
55.49793 295
55.51804 294
55.53815 254
55.55827 243
55.57838 225
55.5985 253
55.61861 249
55.63872 264
55.65884 243
55.67895 253
55.69906 234
55.71918 195
55.73929 276
55.75941 244
55.77952 239
55.79963 228
55.81975 217
55.83986 227
55.85997 201
55.88009 205
55.9002 203
55.92031 235
55.94043 180
55.96054 193
55.98066 210
56.00077 199
56.02088 196
56.041 225
56.06111 200
56.08122 218
56.10134 220
56.12145 209
56.14157 197
56.16168 195
56.18179 214
56.20191 195
56.22202 199
56.24213 217
56.26225 178
56.28236 198
56.30248 182
56.32259 208
56.3427 215
56.36282 177
56.38293 200
56.40304 210
56.42316 218
56.44327 211
56.46338 204
56.4835 209
56.50361 193
56.52373 174
56.54384 224
56.56395 209
56.58407 243
56.60418 232
56.62429 238
56.64441 217
56.66452 213
56.68464 215
56.70475 253
56.72486 248
56.74498 237
56.76509 217
56.7852 212
56.80532 221
56.82543 198
56.84554 227
56.86566 235
56.88577 228
56.90589 210
56.926 177
56.94611 210
56.96623 208
56.98634 185
57.00645 197
57.02657 197
57.04668 218
57.0668 222
57.08691 217
57.10702 215
57.12714 227
57.14725 246
57.16736 244
57.18748 221
57.20759 263
57.22771 222
57.24782 234
57.26793 248
57.28805 223
57.30816 245
57.32827 245
57.34839 234
57.3685 253
57.38861 207
57.40873 215
57.42884 202
57.44896 216
57.46907 202
57.48918 215
57.5093 226
57.52941 204
57.54952 212
57.56964 230
57.58975 218
57.60987 220
57.62998 216
57.65009 177
57.67021 219
57.69032 188
57.71043 210
57.73055 193
57.75066 183
57.77078 196
57.79089 192
57.811 196
57.83112 209
57.85123 173
57.87134 213
57.89146 200
57.91157 182
57.93168 201
57.9518 207
57.97191 202
57.99203 194
58.01214 198
58.03225 186
58.05237 209
58.07248 191
58.09259 203
58.11271 216
58.13282 213
58.15294 216
58.17305 192
58.19316 212
58.21328 171
58.23339 201
58.2535 230
58.27362 184
58.29373 216
58.31385 200
58.33396 215
58.35407 200
58.37419 206
58.3943 201
58.41441 219
58.43453 208
58.45464 240
58.47475 234
58.49487 215
58.51498 235
58.5351 266
58.55521 245
58.57532 249
58.59544 232
58.61555 242
58.63566 273
58.65578 255
58.67589 226
58.69601 211
58.71612 236
58.73623 233
58.75635 212
58.77646 217
58.79657 218
58.81669 210
58.8368 203
58.85691 201
58.87703 211
58.89714 200
58.91726 196
58.93737 207
58.95748 181
58.9776 194
58.99771 188
59.01782 204
59.03794 182
59.05805 172
59.07817 180
59.09828 183
59.11839 197
59.13851 190
59.15862 197
59.17873 194
59.19885 216
59.21896 194
59.23908 160
59.25919 193
59.2793 201
59.29942 198
59.31953 235
59.33964 205
59.35976 204
59.37987 228
59.39998 211
59.4201 223
59.44021 221
59.46033 246
59.48044 237
59.50055 271
59.52067 251
59.54078 267
59.56089 260
59.58101 293
59.60112 285
59.62124 291
59.64135 292
59.66146 290
59.68158 324
59.70169 345
59.7218 377
59.74192 452
59.76203 488
59.78215 576
59.80226 730
59.82237 821
59.84249 1025
59.8626 1031
59.88271 1135
59.90283 1166
59.92294 1177
59.94305 1023
59.96317 876
59.98328 786
60.0034 743
60.02351 676
60.04362 792
60.06374 717
60.08385 667
60.10396 602
60.12408 473
60.14419 384
60.16431 341
60.18442 294
60.20453 259
60.22465 258
60.24476 260
60.26487 245
60.28499 246
60.3051 226
60.32522 215
60.34533 245
60.36544 228
60.38556 265
60.40567 234
60.42578 240
60.4459 234
60.46601 240
60.48612 236
60.50624 216
60.52635 217
60.54647 209
60.56658 213
60.58669 221
60.60681 186
60.62692 218
60.64703 237
60.66715 220
60.68726 216
60.70738 219
60.72749 269
60.7476 204
60.76772 227
60.78783 230
60.80794 240
60.82806 241
60.84817 220
60.86828 180
60.8884 227
60.90851 211
60.92863 218
60.94874 201
60.96885 235
60.98897 211
61.00908 245
61.02919 236
61.04931 223
61.06942 223
61.08954 266
61.10965 241
61.12976 264
61.14988 256
61.16999 266
61.1901 267
61.21022 274
61.23033 265
61.25045 270
61.27056 250
61.29067 247
61.31079 270
61.3309 267
61.35101 248
61.37113 241
61.39124 229
61.41135 213
61.43147 225
61.45158 257
61.4717 241
61.49181 244
61.51192 265
61.53204 223
61.55215 217
61.57226 223
61.59238 215
61.61249 240
61.63261 241
61.65272 209
61.67283 207
61.69295 218
61.71306 244
61.73317 234
61.75329 213
61.7734 230
61.79352 246
61.81363 225
61.83374 220
61.85386 197
61.87397 211
61.89408 233
61.9142 213
61.93431 239
61.95442 249
61.97454 226
61.99465 216
62.01477 229
62.03488 249
62.05499 238
62.07511 240
62.09522 255
62.11533 257
62.13545 262
62.15556 241
62.17568 264
62.19579 255
62.2159 270
62.23602 273
62.25613 293
62.27624 290
62.29636 294
62.31647 298
62.33659 267
62.3567 258
62.37681 279
62.39693 278
62.41704 275
62.43715 301
62.45727 281
62.47738 243
62.49749 272
62.51761 277
62.53772 253
62.55784 252
62.57795 279
62.59806 242
62.61818 249
62.63829 267
62.6584 271
62.67852 248
62.69863 253
62.71875 245
62.73886 241
62.75897 277
62.77909 241
62.7992 263
62.81931 259
62.83943 274
62.85954 282
62.87965 257
62.89977 255
62.91988 267
62.94 265
62.96011 259
62.98022 258
63.00034 288
63.02045 283
63.04056 271
63.06068 261
63.08079 252
63.10091 255
63.12102 227
63.14113 233
63.16125 255
63.18136 235
63.20147 213
63.22159 231
63.2417 231
63.26182 215
63.28193 220
63.30204 202
63.32216 236
63.34227 237
63.36238 218
63.3825 200
63.40261 220
63.42272 241
63.44284 246
63.46295 227
63.48307 222
63.50318 230
63.52329 244
63.54341 218
63.56352 247
63.58363 254
63.60375 241
63.62386 225
63.64398 252
63.66409 261
63.6842 246
63.70432 279
63.72443 288
63.74454 287
63.76466 308
63.78477 302
63.80489 260
63.825 287
63.84511 313
63.86523 392
63.88534 382
63.90545 425
63.92557 455
63.94568 426
63.96579 469
63.98591 447
64.00602 475
64.02614 430
64.04625 412
64.06636 354
64.08648 342
64.10659 348
64.1267 347
64.14682 348
64.16693 328
64.18705 324
64.20716 297
64.22727 264
64.24739 250
64.2675 250
64.28761 248
64.30773 245
64.32784 225
64.34796 217
64.36807 214
64.38818 210
64.4083 188
64.42841 199
64.44852 215
64.46864 202
64.48875 190
64.50886 213
64.52898 209
64.54909 201
64.56921 206
64.58932 220
64.60943 183
64.62955 197
64.64966 209
64.66977 183
64.68989 181
64.71 224
64.73012 199
64.75023 204
64.77034 192
64.79046 189
64.81057 197
64.83068 210
64.8508 208
64.87091 197
64.89102 223
64.91114 206
64.93125 206
64.95137 244
64.97148 211
64.99159 203
65.01171 175
65.03182 212
65.05193 251
65.07205 228
65.09216 233
65.11228 238
65.13239 214
65.1525 210
65.17262 258
65.19273 248
65.21284 246
65.23296 243
65.25307 242
65.27319 244
65.2933 269
65.31341 238
65.33353 233
65.35364 207
65.37375 227
65.39387 229
65.41398 236
65.43409 218
65.45421 217
65.47432 207
65.49444 181
65.51455 236
65.53466 226
65.55478 199
65.57489 204
65.595 204
65.61512 198
65.63523 226
65.65535 199
65.67546 222
65.69557 240
65.71569 254
65.7358 256
65.75591 210
65.77603 226
65.79614 216
65.81626 210
65.83637 195
65.85648 193
65.8766 174
65.89671 217
65.91682 229
65.93694 208
65.95705 210
65.97716 193
65.99728 195
66.01739 192
66.03751 218
66.05762 202
66.07773 234
66.09785 226
66.11796 197
66.13807 227
66.15819 197
66.1783 228
66.19842 252
66.21853 227
66.23864 244
66.25876 225
66.27887 250
66.29898 231
66.3191 222
66.33921 242
66.35933 243
66.37944 251
66.39955 236
66.41967 260
66.43978 225
66.45989 235
66.48001 217
66.50012 208
66.52023 225
66.54035 194
66.56046 190
66.58058 172
66.60069 188
66.6208 181
66.64092 181
66.66103 183
66.68114 222
66.70126 184
66.72137 168
66.74149 203
66.7616 206
66.78171 208
66.80183 195
66.82194 191
66.84205 194
66.86217 200
66.88228 208
66.90239 196
66.92251 212
66.94262 183
66.96274 224
66.98285 229
67.00296 185
67.02308 189
67.04319 197
67.0633 216
67.08342 200
67.10353 196
67.12365 203
67.14376 185
67.16387 214
67.18399 213
67.2041 215
67.22421 203
67.24433 232
67.26444 235
67.28456 231
67.30467 214
67.32478 252
67.3449 230
67.36501 252
67.38512 285
67.40524 285
67.42535 268
67.44546 280
67.46558 268
67.48569 278
67.50581 309
67.52592 335
67.54603 394
67.56615 448
67.58626 510
67.60637 561
67.62649 659
67.6466 678
67.66672 756
67.68683 790
67.70694 758
67.72706 720
67.74717 645
67.76728 526
67.7874 533
67.80751 532
67.82763 527
67.84774 610
67.86785 626
67.88797 619
67.90808 592
67.92819 620
67.94831 627
67.96842 610
67.98853 651
68.00865 719
68.02876 811
68.04888 885
68.06899 923
68.0891 1066
68.10922 985
68.12933 958
68.14944 874
68.16956 804
68.18967 765
68.20979 888
68.2299 941
68.25001 889
68.27013 961
68.29024 880
68.31035 778
68.33047 626
68.35058 531
68.3707 516
68.39081 449
68.41092 436
68.43104 504
68.45115 453
68.47126 406
68.49138 326
68.51149 315
68.5316 282
68.55172 259
68.57183 263
68.59195 231
68.61206 258
68.63217 218
68.65229 232
68.6724 198
68.69251 229
68.71263 211
68.73274 187
68.75286 230
68.77297 188
68.79308 202
68.8132 173
68.83331 199
68.85342 191
68.87354 216
68.89365 213
68.91376 197
68.93388 198
68.95399 196
68.97411 228
68.99422 194
69.01433 185
69.03445 199
69.05456 190
69.07467 200
69.09479 177
69.1149 175
69.13502 185
69.15513 183
69.17524 183
69.19536 159
69.21547 164
69.23558 194
69.2557 188
69.27581 184
69.29593 166
69.31604 188
69.33615 178
69.35627 161
69.37638 164
69.39649 171
69.41661 184
69.43672 172
69.45683 186
69.47695 193
69.49706 154
69.51718 178
69.53729 163
69.5574 179
69.57752 162
69.59763 191
69.61774 198
69.63786 187
69.65797 200
69.67809 185
69.6982 178
69.71831 178
69.73843 183
69.75854 168
69.77865 185
69.79877 170
69.81888 184
69.839 193
69.85911 187
69.87922 185
69.89934 198
69.91945 178
69.93956 173
69.95968 162
69.97979 175
69.9999 196
70.02002 214
70.04013 206
70.06025 191
70.08036 184
70.10047 180
70.12059 181
70.1407 191
70.16081 187
70.18093 198
70.20104 171
70.22116 166
70.24127 195
70.26138 180
70.2815 212
70.30161 200
70.32172 198
70.34184 190
70.36195 168
70.38207 173
70.40218 190
70.42229 178
70.44241 183
70.46252 194
70.48263 205
70.50275 180
70.52286 193
70.54297 201
70.56309 226
70.5832 196
70.60332 194
70.62343 208
70.64354 199
70.66366 164
70.68377 190
70.70388 220
70.724 227
70.74411 193
70.76423 196
70.78434 170
70.80445 194
70.82457 185
70.84468 160
70.86479 189
70.88491 170
70.90502 196
70.92513 181
70.94525 188
70.96536 170
70.98548 200
71.00559 172
71.0257 196
71.04582 183
71.06593 181
71.08604 164
71.10616 194
71.12627 176
71.14639 153
71.1665 164
71.18661 151
71.20673 169
71.22684 192
71.24695 204
71.26707 186
71.28718 182
71.3073 208
71.32741 188
71.34752 178
71.36764 193
71.38775 191
71.40786 179
71.42798 227
71.44809 228
71.4682 255
71.48832 202
71.50843 218
71.52855 214
71.54866 218
71.56877 217
71.58889 220
71.609 218
71.62911 221
71.64923 188
71.66934 200
71.68946 209
71.70957 201
71.72968 207
71.7498 216
71.76991 230
71.79002 226
71.81014 180
71.83025 185
71.85037 199
71.87048 213
71.89059 176
71.91071 193
71.93082 194
71.95093 211
71.97105 188
71.99116 215
72.01127 203
72.03139 198
72.0515 225
72.07162 222
72.09173 201
72.11184 219
72.13196 219
72.15207 224
72.17218 233
72.1923 216
72.21241 208
72.23253 242
72.25264 244
72.27275 246
72.29287 229
72.31298 240
72.33309 244
72.35321 195
72.37332 201
72.39344 196
72.41355 180
72.43366 203
72.45378 236
72.47389 192
72.494 202
72.51412 226
72.53423 209
72.55434 212
72.57446 207
72.59457 183
72.61469 183
72.6348 215
72.65491 195
72.67503 199
72.69514 186
72.71525 240
72.73537 212
72.75548 208
72.7756 181
72.79571 218
72.81582 225
72.83594 211
72.85605 210
72.87616 209
72.89628 205
72.91639 207
72.9365 213
72.95662 212
72.97673 213
72.99685 232
73.01696 206
73.03707 247
73.05719 213
73.0773 246
73.09741 226
73.11753 229
73.13764 242
73.15776 252
73.17787 234
73.19798 260
73.2181 254
73.23821 247
73.25832 289
73.27844 321
73.29855 336
73.31867 334
73.33878 363
73.35889 400
73.37901 424
73.39912 400
73.41923 404
73.43935 369
73.45946 344
73.47957 318
73.49969 287
73.5198 307
73.53992 276
73.56003 304
73.58014 330
73.60026 299
73.62037 303
73.64048 292
73.6606 288
73.68071 289
73.70083 272
73.72094 217
73.74105 211
73.76117 220
73.78128 200
73.80139 210
73.82151 190
73.84162 209
73.86174 195
73.88185 227
73.90196 229
73.92208 246
73.94219 210
73.9623 203
73.98242 210
74.00253 196
74.02264 231
74.04276 183
74.06287 185
74.08299 174
74.1031 193
74.12321 207
74.14333 220
74.16344 208
74.18355 189
74.20367 196
74.22378 190
74.2439 196
74.26401 200
74.28412 204
74.30424 191
74.32435 208
74.34446 197
74.36458 230
74.38469 212
74.40481 200
74.42492 211
74.44503 216
74.46515 193
74.48526 212
74.50537 193
74.52549 217
74.5456 203
74.56571 214
74.58583 209
74.60594 228
74.62606 204
74.64617 197
74.66628 225
74.6864 197
74.70651 231
74.72662 214
74.74674 205
74.76685 185
74.78697 215
74.80708 242
74.82719 212
74.84731 190
74.86742 204
74.88753 220
74.90765 189
74.92776 240
74.94787 195
74.96799 233
74.9881 217
75.00822 232
