3.00117 20925
3.02128 20695
3.0414 20091
3.06151 19410
3.08162 18890
3.10174 18056
3.12185 17826
3.14197 17112
3.16208 16763
3.18219 16208
3.20231 15660
3.22242 15629
3.24253 14727
3.26265 14459
3.28276 13872
3.30288 13489
3.32299 13184
3.3431 12589
3.36322 12302
3.38333 11833
3.40344 11329
3.42356 11185
3.44367 10773
3.46379 10537
3.4839 10277
3.50401 9544
3.52413 9571
3.54424 9071
3.56435 8881
3.58447 8255
3.60458 8007
3.62469 7864
3.64481 7485
3.66492 7317
3.68504 6848
3.70515 6771
3.72526 6566
3.74538 6202
3.76549 6084
3.7856 6009
3.80572 5461
3.82583 5483
3.84595 4953
3.86606 4953
3.88617 4635
3.90629 4402
3.9264 4427
3.94651 4177
3.96663 3926
3.98674 3742
4.00686 3562
4.02697 3606
4.04708 3305
4.0672 3162
4.08731 3050
4.10742 2895
4.12754 2928
4.14765 2689
4.16776 2603
4.18788 2406
4.20799 2306
4.22811 2416
4.24822 2244
4.26833 2149
4.28845 2046
4.30856 1852
4.32867 2032
4.34879 1979
4.3689 1759
4.38902 1800
4.40913 1712
4.42924 1671
4.44936 1628
4.46947 1491
4.48958 1524
4.5097 1548
4.52981 1451
4.54992 1483
4.57004 1363
4.59015 1379
4.61027 1363
4.63038 1349
4.65049 1310
4.67061 1196
4.69072 1186
4.71083 1226
4.73095 1148
4.75106 1239
4.77118 1069
4.79129 1064
4.8114 1090
4.83152 1028
4.85163 1058
4.87174 977
4.89186 1032
4.91197 991
4.93209 963
4.9522 940
4.97231 881
4.99243 894
5.01254 835
5.03265 893
5.05277 871
5.07288 812
5.09299 822
5.11311 754
5.13322 772
5.15334 779
5.17345 669
5.19356 763
5.21368 725
5.23379 702
5.2539 693
5.27402 656
5.29413 594
5.31425 689
5.33436 635
5.35447 596
5.37459 576
5.3947 555
5.41481 553
5.43493 538
5.45504 517
5.47516 504
5.49527 571
5.51538 565
5.5355 494
5.55561 519
5.57572 514
5.59584 443
5.61595 461
5.63606 475
5.65618 419
5.67629 452
5.69641 429
5.71652 465
5.73663 455
5.75675 422
5.77686 448
5.79697 422
5.81709 455
5.8372 436
5.85732 423
5.87743 387
5.89754 394
5.91766 377
5.93777 396
5.95788 432
5.978 384
5.99811 400
6.01823 359
6.03834 380
6.05845 362
6.07857 358
6.09868 353
6.11879 355
6.13891 371
6.15902 336
6.17913 347
6.19925 331
6.21936 318
6.23948 371
6.25959 325
6.2797 324
6.29982 345
6.31993 355
6.34004 319
6.36016 322
6.38027 343
6.40039 345
6.4205 331
6.44061 362
6.46073 349
6.48084 367
6.50095 342
6.52107 314
6.54118 320
6.56129 315
6.58141 336
6.60152 368
6.62164 334
6.64175 320
6.66186 312
6.68198 336
6.70209 336
6.7222 305
6.74232 275
6.76243 333
6.78255 347
6.80266 336
6.82277 307
6.84289 343
6.863 330
6.88311 310
6.90323 291
6.92334 297
6.94346 325
6.96357 324
6.98368 293
7.0038 292
7.02391 345
7.04402 300
7.06414 304
7.08425 317
7.10436 303
7.12448 323
7.14459 335
7.16471 319
7.18482 311
7.20493 284
7.22505 307
7.24516 288
7.26527 286
7.28539 328
7.3055 321
7.32562 286
7.34573 302
7.36584 317
7.38596 298
7.40607 310
7.42618 318
7.4463 308
7.46641 291
7.48653 306
7.50664 270
7.52675 308
7.54687 317
7.56698 325
7.58709 310
7.60721 297
7.62732 327
7.64743 318
7.66755 364
7.68766 324
7.70778 290
7.72789 303
7.748 302
7.76812 359
7.78823 339
7.80834 331
7.82846 346
7.84857 319
7.86869 356
7.8888 338
7.90891 300
7.92903 318
7.94914 330
7.96925 346
7.98937 349
8.00948 351
8.0296 405
8.04971 294
8.06982 353
8.08994 367
8.11005 398
8.13016 383
8.15028 383
8.17039 363
8.1905 407
8.21062 369
8.23073 372
8.25085 399
8.27096 389
8.29107 413
8.31119 418
8.3313 421
8.35141 422
8.37153 378
8.39164 385
8.41176 403
8.43187 419
8.45198 430
8.4721 448
8.49221 470
8.51232 475
8.53244 461
8.55255 547
8.57266 466
8.59278 498
8.61289 549
8.63301 485
8.65312 520
8.67323 520
8.69335 524
8.71346 562
8.73357 578
8.75369 663
8.7738 639
8.79392 704
8.81403 673
8.83414 643
8.85426 668
8.87437 636
8.89448 593
8.9146 507
8.93471 492
8.95483 517
8.97494 502
8.99505 446
9.01517 444
9.03528 392
9.05539 376
9.07551 370
9.09562 403
9.11573 413
9.13585 359
9.15596 361
9.17608 353
9.19619 378
9.2163 379
9.23642 348
9.25653 333
9.27664 342
9.29676 342
9.31687 333
9.33699 342
9.3571 325
9.37721 337
9.39733 314
9.41744 336
9.43755 325
9.45767 347
9.47778 335
9.4979 319
9.51801 308
9.53812 311
9.55824 323
9.57835 269
9.59846 328
9.61858 300
9.63869 306
9.6588 316
9.67892 317
9.69903 286
9.71915 309
9.73926 305
9.75937 312
9.77949 322
9.7996 306
9.81971 273
9.83983 292
9.85994 258
9.88006 282
9.90017 288
9.92028 325
9.9404 299
9.96051 293
9.98062 283
10.00074 292
10.02085 316
10.04097 297
10.06108 322
10.08119 286
10.10131 332
10.12142 285
10.14153 302
10.16165 273
10.18176 284
10.20187 265
10.22199 274
10.2421 300
10.26222 287
10.28233 294
10.30244 287
10.32256 282
10.34267 273
10.36278 260
10.3829 316
10.40301 268
10.42313 303
10.44324 292
10.46335 276
10.48347 274
10.50358 291
10.52369 303
10.54381 263
10.56392 286
10.58403 287
10.60415 249
10.62426 303
10.64438 304
10.66449 308
10.6846 298
10.70472 288
10.72483 251
10.74494 258
10.76506 295
10.78517 269
10.80529 285
10.8254 315
10.84551 307
10.86563 282
10.88574 284
10.90585 266
10.92597 305
10.94608 291
10.9662 312
10.98631 276
11.00642 311
11.02654 278
11.04665 318
11.06676 269
11.08688 310
11.10699 299
11.1271 300
11.14722 307
11.16733 309
11.18745 269
11.20756 299
11.22767 267
11.24779 291
11.2679 272
11.28801 281
11.30813 322
11.32824 326
11.34836 299
11.36847 282
11.38858 294
11.4087 299
11.42881 304
11.44892 282
11.46904 299
11.48915 333
11.50927 338
11.52938 340
11.54949 302
11.56961 304
11.58972 294
11.60983 312
11.62995 305
11.65006 295
11.67017 324
11.69029 351
11.7104 344
11.73052 327
11.75063 341
11.77074 299
11.79086 355
11.81097 366
11.83108 388
11.8512 345
11.87131 325
11.89143 337
11.91154 347
11.93165 326
11.95177 397
11.97188 379
11.99199 380
12.01211 383
12.03222 399
12.05234 430
12.07245 399
12.09256 393
12.11268 470
12.13279 465
12.1529 492
12.17302 448
12.19313 460
12.21324 479
12.23336 472
12.25347 509
12.27359 498
12.2937 482
12.31381 463
12.33393 450
12.35404 479
12.37415 507
12.39427 481
12.41438 433
12.4345 432
12.45461 385
12.47472 385
12.49484 361
12.51495 379
12.53506 371
12.55518 342
12.57529 331
12.5954 324
12.61552 327
12.63563 356
12.65575 354
12.67586 325
12.69597 335
12.71609 324
12.7362 308
12.75631 314
12.77643 294
12.79654 302
12.81666 288
12.83677 295
12.85688 259
12.877 270
12.89711 254
12.91722 263
12.93734 256
12.95745 281
12.97757 279
12.99768 255
13.01779 283
13.03791 282
13.05802 296
13.07813 295
13.09825 293
13.11836 273
13.13847 271
13.15859 244
13.1787 240
13.19882 265
13.21893 248
13.23904 233
13.25916 266
13.27927 271
13.29938 266
13.3195 245
13.33961 269
13.35973 268
13.37984 265
13.39995 236
13.42007 254
13.44018 286
13.46029 276
13.48041 268
13.50052 287
13.52064 265
13.54075 248
13.56086 267
13.58098 270
13.60109 223
13.6212 278
13.64132 264
13.66143 237
13.68154 244
13.70166 257
13.72177 228
13.74189 243
13.762 287
13.78211 219
13.80223 231
13.82234 266
13.84245 257
13.86257 252
13.88268 225
13.9028 214
13.92291 244
13.94302 254
13.96314 251
13.98325 255
14.00336 253
14.02348 240
14.04359 230
14.06371 279
14.08382 249
14.10393 224
14.12405 258
14.14416 258
14.16427 250
14.18439 246
14.2045 260
14.22461 245
14.24473 250
14.26484 240
14.28496 248
14.30507 243
14.32518 232
14.3453 246
14.36541 253
14.38552 233
14.40564 238
14.42575 244
14.44587 221
14.46598 212
14.48609 264
14.50621 235
14.52632 227
14.54643 241
14.56655 247
14.58666 244
14.60677 232
14.62689 225
14.647 227
14.66712 268
14.68723 232
14.70734 230
14.72746 223
14.74757 209
14.76768 235
14.7878 240
14.80791 222
14.82803 236
14.84814 251
14.86825 243
14.88837 225
14.90848 207
14.92859 262
14.94871 253
14.96882 213
14.98894 269
15.00905 239
15.02916 231
15.04928 223
15.06939 234
15.0895 244
15.10962 230
15.12973 286
15.14984 247
15.16996 230
15.19007 235
15.21019 235
15.2303 225
15.25041 252
15.27053 229
15.29064 242
15.31075 240
15.33087 243
15.35098 252
15.3711 218
15.39121 234
15.41132 227
15.43144 252
15.45155 253
15.47166 268
15.49178 229
15.51189 246
15.53201 237
15.55212 261
15.57223 240
15.59235 239
15.61246 235
15.63257 215
15.65269 236
15.6728 240
15.69291 237
15.71303 243
15.73314 251
15.75326 212
15.77337 228
15.79348 194
15.8136 238
15.83371 230
15.85382 226
15.87394 180
15.89405 227
15.91417 241
15.93428 221
15.95439 249
15.97451 277
15.99462 238
16.01473 241
16.03485 222
16.05496 217
16.07508 236
16.09519 240
16.1153 239
16.13542 218
16.15553 257
16.17564 242
16.19576 227
16.21587 231
16.23598 210
16.2561 194
16.27621 258
16.29633 193
16.31644 242
16.33655 229
16.35667 200
16.37678 239
16.39689 228
16.41701 229
16.43712 210
16.45724 237
16.47735 207
16.49746 228
16.51758 249
16.53769 247
16.5578 229
16.57792 275
16.59803 237
16.61814 234
16.63826 233
16.65837 262
16.67849 242
16.6986 240
16.71871 223
16.73883 238
16.75894 258
16.77905 218
16.79917 219
16.81928 232
16.8394 214
16.85951 209
16.87962 215
16.89974 243
16.91985 228
16.93996 232
16.96008 228
16.98019 214
17.00031 208
17.02042 240
17.04053 235
17.06065 225
17.08076 244
17.10087 281
17.12099 237
17.1411 217
17.16121 218
17.18133 220
17.20144 239
17.22156 220
17.24167 229
17.26178 239
17.2819 265
17.30201 263
17.32212 238
17.34224 244
17.36235 216
17.38247 238
17.40258 254
17.42269 240
17.44281 248
17.46292 284
17.48303 273
17.50315 266
17.52326 259
17.54338 293
17.56349 248
17.5836 266
17.60372 255
17.62383 308
17.64394 295
17.66406 322
17.68417 297
17.70428 327
17.7244 377
17.74451 348
17.76463 343
17.78474 313
17.80485 304
17.82497 321
17.84508 335
17.86519 313
17.88531 313
17.90542 292
17.92554 257
17.94565 296
17.96576 255
17.98588 258
18.00599 250
18.0261 255
18.04622 252
18.06633 248
18.08645 269
18.10656 271
18.12667 251
18.14679 249
18.1669 246
18.18701 244
18.20713 242
18.22724 245
18.24735 235
18.26747 250
18.28758 243
18.3077 244
18.32781 241
18.34792 231
18.36804 236
18.38815 239
18.40826 248
18.42838 205
18.44849 243
18.46861 236
18.48872 238
18.50883 273
18.52895 244
18.54906 221
18.56917 207
18.58929 266
18.6094 257
18.62951 220
18.64963 219
18.66974 233
18.68986 242
18.70997 260
18.73008 250
18.7502 234
18.77031 236
18.79042 229
18.81054 207
18.83065 252
18.85077 235
18.87088 248
18.89099 226
18.91111 223
18.93122 239
18.95133 239
18.97145 253
18.99156 289
19.01168 232
19.03179 235
19.0519 246
19.07202 220
19.09213 254
19.11224 260
19.13236 239
19.15247 249
19.17258 231
19.1927 278
19.21281 246
19.23293 270
19.25304 250
19.27315 273
19.29327 260
19.31338 269
19.33349 308
19.35361 283
19.37372 298
19.39384 256
19.41395 310
19.43406 344
19.45418 391
19.47429 355
19.4944 435
19.51452 413
19.53463 570
19.55475 637
19.57486 727
19.59497 711
19.61509 851
19.6352 888
19.65531 995
19.67543 1041
19.69554 1002
19.71565 1004
19.73577 988
19.75588 1024
19.776 1076
19.79611 992
19.81622 979
19.83634 1023
19.85645 905
19.87656 881
19.89668 787
19.91679 801
19.93691 756
19.95702 684
19.97713 684
19.99725 688
20.01736 637
20.03747 640
20.05759 582
20.0777 585
20.09782 588
20.11793 585
20.13804 626
20.15816 577
20.17827 576
20.19838 587
20.2185 587
20.23861 578
20.25872 599
20.27884 564
20.29895 615
20.31907 576
20.33918 579
20.35929 603
20.37941 623
20.39952 587
20.41963 606
20.43975 627
20.45986 581
20.47998 651
20.50009 601
20.5202 638
20.54032 675
20.56043 667
20.58054 699
20.60066 716
20.62077 725
20.64088 879
20.661 1014
20.68111 1227
20.70123 1436
20.72134 1838
20.74145 2292
20.76157 2810
20.78168 3411
20.80179 3676
20.82191 3752
20.84202 3632
20.86214 3106
20.88225 2538
20.90236 1895
20.92248 1391
20.94259 1093
20.9627 810
20.98282 651
21.00293 662
21.02305 633
21.04316 533
21.06327 527
21.08339 521
21.1035 486
21.12361 527
21.14373 529
21.16384 494
21.18395 465
21.20407 496
21.22418 469
21.2443 495
21.26441 456
21.28452 486
21.30464 444
21.32475 465
21.34486 492
21.36498 509
21.38509 469
21.40521 429
21.42532 465
21.44543 429
21.46555 495
21.48566 454
21.50577 480
21.52589 507
21.546 454
21.56612 482
21.58623 459
21.60634 445
21.62646 443
21.64657 434
21.66668 438
21.6868 406
21.70691 376
21.72702 431
21.74714 420
21.76725 389
21.78737 390
21.80748 388
21.82759 419
21.84771 394
21.86782 386
21.88793 401
21.90805 402
21.92816 382
21.94828 353
21.96839 380
21.9885 380
22.00862 383
22.02873 403
22.04884 384
22.06896 371
22.08907 366
22.10919 396
22.1293 338
22.14941 358
22.16953 372
22.18964 401
22.20975 379
22.22987 383
22.24998 366
22.27009 353
22.29021 386
22.31032 378
22.33044 409
22.35055 373
22.37066 394
22.39078 394
22.41089 405
22.431 407
22.45112 405
22.47123 362
22.49135 366
22.51146 380
22.53157 374
22.55169 384
22.5718 379
22.59191 395
22.61203 397
22.63214 428
22.65225 404
22.67237 398
22.69248 384
22.7126 416
22.73271 410
22.75282 436
22.77294 465
22.79305 435
22.81316 453
22.83328 459
22.85339 432
22.87351 457
22.89362 452
22.91373 410
22.93385 451
22.95396 412
22.97407 413
22.99419 437
23.0143 406
23.03442 395
23.05453 370
23.07464 345
23.09476 352
23.11487 387
23.13498 365
23.1551 394
23.17521 422
23.19532 404
23.21544 365
23.23555 371
23.25567 362
23.27578 369
23.29589 400
23.31601 379
23.33612 384
23.35623 370
23.37635 360
23.39646 382
23.41658 395
23.43669 393
23.4568 344
23.47692 396
23.49703 392
23.51714 368
23.53726 406
23.55737 420
23.57749 402
23.5976 352
23.61771 406
23.63783 445
23.65794 429
23.67805 446
23.69817 427
23.71828 466
23.73839 483
23.75851 435
23.77862 477
23.79874 439
23.81885 454
23.83896 455
23.85908 455
23.87919 464
23.8993 454
23.91942 417
23.93953 485
23.95965 496
23.97976 431
23.99987 430
24.01999 464
24.0401 473
24.06021 481
24.08033 443
24.10044 501
24.12056 444
24.14067 480
24.16078 445
24.1809 486
24.20101 472
24.22112 530
24.24124 486
24.26135 493
24.28146 477
24.30158 532
24.32169 510
24.34181 525
24.36192 514
24.38203 532
24.40215 486
24.42226 479
24.44237 481
24.46249 504
24.4826 466
24.50272 456
24.52283 488
24.54294 489
24.56306 522
24.58317 474
24.60328 470
24.6234 496
24.64351 482
24.66362 493
24.68374 485
24.70385 478
24.72397 530
24.74408 522
24.76419 504
24.78431 506
24.80442 542
24.82453 512
24.84465 535
24.86476 541
24.88488 470
24.90499 532
24.9251 523
24.94522 481
24.96533 492
24.98544 465
25.00556 467
25.02567 465
25.04579 480
25.0659 469
25.08601 477
25.10613 529
25.12624 510
25.14635 516
25.16647 545
25.18658 478
25.20669 519
25.22681 513
25.24692 499
25.26704 518
25.28715 556
25.30726 539
25.32738 541
25.34749 509
25.3676 527
25.38772 528
25.40783 524
25.42795 488
25.44806 512
25.46817 523
25.48829 483
25.5084 514
25.52851 492
25.54863 461
25.56874 473
25.58886 467
25.60897 478
25.62908 492
25.6492 454
25.66931 502
25.68942 480
25.70954 482
25.72965 508
25.74976 489
25.76988 480
25.78999 529
25.81011 511
25.83022 525
25.85033 513
25.87045 489
25.89056 522
25.91067 559
25.93079 502
25.9509 560
25.97102 530
25.99113 564
26.01124 566
26.03136 554
26.05147 553
26.07158 681
26.0917 638
26.11181 673
26.13193 653
26.15204 663
26.17215 738
26.19227 833
26.21238 867
26.23249 941
26.25261 965
26.27272 1027
26.29283 1110
26.31295 1269
26.33306 1304
26.35318 1639
26.37329 1883
26.3934 2398
26.41352 2836
26.43363 3768
26.45374 4745
26.47386 6137
26.49397 7980
26.51409 10258
26.5342 12356
26.55431 14380
26.57443 16347
26.59454 16664
26.61465 16204
26.63477 14237
26.65488 11813
26.67499 9030
26.69511 6898
26.71522 4773
26.73534 3248
26.75545 2284
26.77556 1815
26.79568 1545
26.81579 1384
26.8359 1149
26.85602 1035
26.87613 996
26.89625 958
26.91636 873
26.93647 822
26.95659 707
26.9767 682
26.99681 652
27.01693 670
27.03704 609
27.05716 574
27.07727 568
27.09738 551
27.1175 534
27.13761 566
27.15772 517
27.17784 528
27.19795 511
27.21806 520
27.23818 478
27.25829 464
27.27841 449
27.29852 513
27.31863 469
27.33875 458
27.35886 474
27.37897 467
27.39909 462
27.4192 447
27.43932 442
27.45943 479
27.47954 472
27.49966 449
27.51977 447
27.53988 443
27.56 427
27.58011 463
27.60023 410
27.62034 432
27.64045 417
27.66057 440
27.68068 464
27.70079 486
27.72091 448
27.74102 480
27.76113 489
27.78125 485
27.80136 501
27.82148 499
27.84159 455
27.8617 491
27.88182 462
27.90193 441
27.92204 422
27.94216 417
27.96227 391
27.98239 353
28.0025 373
28.02261 352
28.04273 407
28.06284 420
28.08295 399
28.10307 411
28.12318 379
28.1433 358
28.16341 381
28.18352 357
28.20364 386
28.22375 374
28.24386 388
28.26398 368
28.28409 360
28.3042 363
28.32432 334
28.34443 377
28.36455 392
28.38466 361
28.40477 361
28.42489 368
28.445 413
28.46511 402
28.48523 376
28.50534 380
28.52546 393
28.54557 373
28.56568 377
28.5858 382
28.60591 372
28.62602 349
28.64614 376
28.66625 403
28.68636 385
28.70648 399
28.72659 422
28.74671 392
28.76682 377
28.78693 361
28.80705 362
28.82716 417
28.84727 409
28.86739 397
28.8875 397
28.90762 390
28.92773 430
28.94784 381
28.96796 426
28.98807 405
29.00818 401
29.0283 447
29.04841 399
29.06853 432
29.08864 400
29.10875 405
29.12887 405
29.14898 444
29.16909 401
29.18921 395
29.20932 352
29.22943 377
29.24955 376
29.26966 363
29.28978 378
29.30989 382
29.33 389
29.35012 366
29.37023 330
29.39034 336
29.41046 364
29.43057 361
29.45069 402
29.4708 370
29.49091 377
29.51103 328
29.53114 355
29.55125 355
29.57137 384
29.59148 394
29.6116 400
29.63171 403
29.65182 395
29.67194 363
29.69205 368
29.71216 358
29.73228 408
29.75239 403
29.7725 436
29.79262 450
29.81273 447
29.83285 455
29.85296 459
29.87307 378
29.89319 405
29.9133 386
29.93341 401
29.95353 420
29.97364 337
29.99376 364
30.01387 345
30.03398 350
30.0541 319
30.07421 312
30.09432 344
30.11444 338
30.13455 383
30.15467 312
30.17478 357
30.19489 354
30.21501 341
30.23512 350
30.25523 293
30.27535 358
30.29546 324
30.31557 334
30.33569 315
30.3558 347
30.37592 342
30.39603 336
30.41614 319
30.43626 333
30.45637 329
30.47648 348
30.4966 339
30.51671 357
30.53683 339
30.55694 385
30.57705 334
30.59717 330
30.61728 323
30.63739 299
30.65751 363
30.67762 326
30.69773 312
30.71785 320
30.73796 335
30.75808 324
30.77819 317
30.7983 299
30.81842 311
30.83853 331
30.85864 336
30.87876 308
30.89887 330
30.91899 366
30.9391 345
30.95921 324
30.97933 317
30.99944 336
31.01955 320
31.03967 345
31.05978 360
31.0799 341
31.10001 349
31.12012 379
31.14024 345
31.16035 372
31.18046 406
31.20058 370
31.22069 350
31.2408 365
31.26092 342
31.28103 346
31.30115 342
31.32126 331
31.34137 348
31.36149 317
31.3816 322
31.40171 304
31.42183 331
31.44194 297
31.46206 287
31.48217 282
31.50228 290
31.5224 319
31.54251 293
31.56262 313
31.58274 290
31.60285 288
31.62297 305
31.64308 316
31.66319 261
31.68331 314
31.70342 336
31.72353 314
31.74365 317
31.76376 312
31.78387 285
31.80399 292
31.8241 334
31.84422 314
31.86433 313
31.88444 290
31.90456 315
31.92467 339
31.94478 324
31.9649 328
31.98501 335
32.00513 319
32.02524 290
32.04535 298
32.06547 330
32.08558 308
32.10569 291
32.12581 286
32.14592 293
32.16604 275
32.18615 273
32.20626 274
32.22638 263
32.24649 264
32.2666 250
32.28672 265
32.30683 255
32.32694 267
32.34706 281
32.36717 278
32.38729 298
32.4074 266
32.42751 279
32.44763 271
32.46774 284
32.48785 258
32.50797 292
32.52808 282
32.5482 276
32.56831 292
32.58842 244
32.60854 229
32.62865 279
32.64876 254
32.66888 294
32.68899 265
32.7091 265
32.72922 254
32.74933 280
32.76945 267
32.78956 276
32.80967 283
32.82979 298
32.8499 301
32.87001 282
32.89013 299
32.91024 263
32.93036 272
32.95047 295
32.97058 294
32.9907 286
33.01081 298
33.03092 329
33.05104 300
33.07115 301
33.09127 300
33.11138 299
33.13149 298
33.15161 291
33.17172 278
33.19183 304
33.21195 271
33.23206 307
33.25217 273
33.27229 295
33.2924 265
33.31252 298
33.33263 307
33.35274 294
33.37286 291
33.39297 328
33.41308 283
33.4332 318
33.45331 322
33.47343 283
33.49354 270
33.51365 284
33.53377 280
33.55388 271
33.57399 273
33.59411 297
33.61422 265
33.63434 272
33.65445 254
33.67456 255
33.69468 244
33.71479 258
33.7349 255
33.75502 232
33.77513 261
33.79524 242
33.81536 242
33.83547 258
33.85559 288
33.8757 257
33.89581 274
33.91593 264
33.93604 255
33.95615 267
33.97627 278
33.99638 293
34.0165 240
34.03661 272
34.05672 264
34.07684 273
34.09695 258
34.11706 278
34.13718 284
34.15729 324
34.17741 294
34.19752 324
34.21763 331
34.23775 388
34.25786 383
34.27797 426
34.29809 409
34.3182 491
34.33831 501
34.35843 539
34.37854 575
34.39866 595
34.41877 636
34.43888 637
34.459 653
34.47911 654
34.49922 684
34.51934 699
34.53945 734
34.55957 679
34.57968 691
34.59979 683
34.61991 709
34.64002 739
34.66013 748
34.68025 793
34.70036 829
34.72047 858
34.74059 892
34.7607 905
34.78082 977
34.80093 996
34.82104 1030
34.84116 1042
34.86127 1024
34.88138 984
34.9015 981
34.92161 851
34.94173 746
34.96184 808
34.98195 710
35.00207 605
35.02218 606
35.04229 577
35.06241 538
35.08252 479
35.10264 462
35.12275 464
35.14286 432
35.16298 432
35.18309 455
35.2032 418
35.22332 401
35.24343 353
35.26354 394
35.28366 377
35.30377 353
35.32389 369
35.344 405
35.36411 387
35.38423 400
35.40434 333
35.42445 388
35.44457 350
35.46468 364
35.4848 360
35.50491 378
35.52502 371
35.54514 397
35.56525 339
35.58536 401
35.60548 349
35.62559 368
35.64571 342
35.66582 367
35.68593 389
35.70605 395
35.72616 384
35.74627 367
35.76639 395
35.7865 384
35.80661 386
35.82673 427
35.84684 393
35.86696 414
35.88707 430
35.90718 431
35.9273 407
35.94741 424
35.96752 383
35.98764 410
36.00775 402
36.02787 391
36.04798 369
36.06809 373
36.08821 376
36.10832 382
36.12843 416
36.14855 412
36.16866 412
36.18878 416
36.20889 404
36.229 439
36.24912 513
36.26923 490
36.28934 523
36.30946 574
36.32957 637
36.34968 715
36.3698 767
36.38991 901
36.41003 1046
36.43014 1159
36.45025 1228
36.47037 1349
36.49048 1376
36.51059 1218
36.53071 1217
36.55082 1007
36.57094 976
36.59105 824
36.61116 724
36.63128 642
36.65139 590
36.6715 461
36.69162 453
36.71173 430
36.73184 407
36.75196 394
36.77207 377
36.79219 374
36.8123 364
36.83241 375
36.85253 351
36.87264 324
36.89275 335
36.91287 357
36.93298 404
36.9531 362
36.97321 382
36.99332 347
37.01344 346
37.03355 360
37.05366 344
37.07378 371
37.09389 335
37.11401 368
37.13412 357
37.15423 355
37.17435 399
37.19446 354
37.21457 357
37.23469 394
37.2548 424
37.27491 391
37.29503 426
37.31514 451
37.33526 432
37.35537 450
37.37548 454
37.3956 416
37.41571 464
37.43582 422
37.45594 447
37.47605 475
37.49617 471
37.51628 479
37.53639 465
37.55651 456
37.57662 470
37.59673 453
37.61685 507
37.63696 481
37.65708 480
37.67719 466
37.6973 399
37.71742 451
37.73753 455
37.75764 420
37.77776 451
37.79787 402
37.81798 412
37.8381 400
37.85821 352
37.87833 331
37.89844 365
37.91855 367
37.93867 361
37.95878 354
37.97889 357
37.99901 391
38.01912 382
38.03924 368
38.05935 354
38.07946 353
38.09958 371
38.11969 368
38.1398 366
38.15992 397
38.18003 363
38.20015 374
38.22026 363
38.24037 369
38.26049 368
38.2806 358
38.30071 389
38.32083 375
38.34094 385
38.36105 347
38.38117 396
38.40128 387
38.4214 372
38.44151 355
38.46162 357
38.48174 350
38.50185 327
38.52196 365
38.54208 359
38.56219 339
38.58231 309
38.60242 306
38.62253 284
38.64265 295
38.66276 313
38.68287 305
38.70299 325
38.7231 338
38.74321 330
38.76333 287
38.78344 312
38.80356 306
38.82367 341
38.84378 312
38.8639 296
38.88401 338
38.90412 310
38.92424 299
38.94435 334
38.96447 324
38.98458 342
39.00469 332
39.02481 315
39.04492 342
39.06503 364
39.08515 343
39.10526 382
39.12538 361
39.14549 407
39.1656 430
39.18572 445
39.20583 459
39.22594 478
39.24606 511
39.26617 543
39.28628 695
39.3064 779
39.32651 858
39.34663 1007
39.36674 1082
39.38685 1252
39.40697 1149
39.42708 1171
39.44719 1060
39.46731 990
39.48742 948
39.50754 811
39.52765 702
39.54776 642
39.56788 547
39.58799 474
39.6081 395
39.62822 379
39.64833 355
39.66845 387
39.68856 351
39.70867 372
39.72879 376
39.7489 387
39.76901 352
39.78913 378
39.80924 383
39.82935 395
39.84947 380
39.86958 410
39.8897 432
39.90981 406
39.92992 420
39.95004 409
39.97015 408
39.99026 420
40.01038 418
40.03049 405
40.05061 441
40.07072 435
40.09083 520
40.11095 518
40.13106 530
40.15117 625
40.17129 652
40.1914 638
40.21152 706
40.23163 727
40.25174 688
40.27186 648
40.29197 631
40.31208 571
40.3322 518
40.35231 478
40.37242 478
40.39254 447
40.41265 381
40.43277 381
40.45288 346
40.47299 349
40.49311 307
40.51322 348
40.53333 351
40.55345 306
40.57356 311
40.59368 314
40.61379 330
40.6339 337
40.65402 343
40.67413 335
40.69424 345
40.71436 330
40.73447 301
40.75458 371
40.7747 316
40.79481 324
40.81493 347
40.83504 324
40.85515 312
40.87527 293
40.89538 356
40.91549 365
40.93561 354
40.95572 367
40.97584 340
40.99595 337
41.01606 340
41.03618 339
41.05629 314
41.0764 316
41.09652 335
41.11663 303
41.13675 291
41.15686 334
41.17697 323
41.19709 308
41.2172 289
41.23731 306
41.25743 266
41.27754 310
41.29765 277
41.31777 298
41.33788 309
41.358 304
41.37811 295
41.39822 270
41.41834 279
41.43845 292
41.45856 297
41.47868 307
41.49879 305
41.51891 284
41.53902 295
41.55913 248
41.57925 284
41.59936 299
41.61947 295
41.63959 314
41.6597 319
41.67982 329
41.69993 277
41.72004 331
41.74016 312
41.76027 333
41.78038 331
41.8005 358
41.82061 359
41.84072 346
41.86084 339
41.88095 366
41.90107 368
41.92118 388
41.94129 355
41.96141 344
41.98152 373
42.00163 388
42.02175 350
42.04186 400
42.06198 384
42.08209 418
42.1022 393
42.12232 409
42.14243 416
42.16254 409
42.18266 448
42.20277 497
42.22289 578
42.243 559
42.26311 598
42.28323 662
42.30334 760
42.32345 804
42.34357 864
42.36368 929
42.38379 963
42.40391 955
42.42402 868
42.44414 838
42.46425 756
42.48436 715
42.50448 588
42.52459 548
42.5447 493
42.56482 453
42.58493 385
42.60505 369
42.62516 325
42.64527 293
42.66539 307
42.6855 301
42.70561 306
42.72573 312
42.74584 295
42.76595 296
42.78607 261
42.80618 281
42.8263 273
42.84641 279
42.86652 256
42.88664 282
42.90675 286
42.92686 284
42.94698 260
42.96709 273
42.98721 282
43.00732 258
43.02743 254
43.04755 253
43.06766 242
43.08777 265
43.10789 264
43.128 248
43.14812 257
43.16823 209
43.18834 234
43.20846 247
43.22857 254
43.24868 242
43.2688 257
43.28891 233
43.30902 265
43.32914 259
43.34925 242
43.36937 243
43.38948 286
43.40959 237
43.42971 258
43.44982 266
43.46993 246
43.49005 258
43.51016 234
43.53028 264
43.55039 256
43.5705 259
43.59062 237
43.61073 249
43.63084 268
43.65096 254
43.67107 244
43.69119 231
43.7113 249
43.73141 247
43.75153 257
43.77164 257
43.79175 249
43.81187 266
43.83198 259
43.85209 263
43.87221 253
43.89232 288
43.91244 258
43.93255 273
43.95266 246
43.97278 215
43.99289 237
44.013 266
44.03312 251
44.05323 247
44.07335 244
44.09346 228
44.11357 251
44.13369 248
44.1538 273
44.17391 248
44.19403 248
44.21414 230
44.23426 241
44.25437 259
44.27448 269
44.2946 257
44.31471 269
44.33482 285
44.35494 243
44.37505 253
44.39516 235
44.41528 245
44.43539 276
44.45551 273
44.47562 240
44.49573 254
44.51585 248
44.53596 271
44.55607 250
44.57619 265
44.5963 274
44.61642 272
44.63653 279
44.65664 251
44.67676 246
44.69687 288
44.71698 280
44.7371 273
44.75721 258
44.77732 265
44.79744 280
44.81755 256
44.83767 282
44.85778 280
44.87789 287
44.89801 270
44.91812 258
44.93823 279
44.95835 273
44.97846 312
44.99858 287
45.01869 283
45.0388 269
45.05892 300
45.07903 303
45.09914 315
45.11926 292
45.13937 298
45.15949 285
45.1796 330
45.19971 331
45.21983 320
45.23994 340
45.26005 343
45.28017 356
45.30028 361
45.32039 369
45.34051 369
45.36062 365
45.38074 379
45.40085 405
45.42096 401
45.44108 416
45.46119 376
45.4813 397
45.50142 412
45.52153 431
45.54165 445
45.56176 445
45.58187 437
45.60199 484
45.6221 533
45.64221 536
45.66233 634
45.68244 647
45.70256 684
45.72267 685
45.74278 719
45.7629 630
45.78301 605
45.80312 574
45.82324 525
45.84335 536
45.86346 489
45.88358 461
45.90369 424
45.92381 363
45.94392 348
45.96403 362
45.98415 343
46.00426 292
46.02437 279
46.04449 294
46.0646 291
46.08472 303
46.10483 320
46.12494 265
46.14506 277
46.16517 298
46.18528 260
46.2054 274
46.22551 288
46.24563 259
46.26574 293
46.28585 278
46.30597 270
46.32608 264
46.34619 265
46.36631 279
46.38642 284
46.40653 300
46.42665 234
46.44676 273
46.46688 293
46.48699 283
46.5071 260
46.52722 247
46.54733 275
46.56744 253
46.58756 270
46.60767 260
46.62779 245
46.6479 291
46.66801 227
46.68813 222
46.70824 233
46.72835 243
46.74847 231
46.76858 246
46.78869 225
46.80881 243
46.82892 239
46.84904 226
46.86915 227
46.88926 244
46.90938 240
46.92949 241
46.9496 230
46.96972 215
46.98983 239
47.00995 239
47.03006 230
47.05017 220
47.07029 229
47.0904 239
47.11051 224
47.13063 242
47.15074 226
47.17086 227
47.19097 197
47.21108 191
47.2312 240
47.25131 212
47.27142 203
47.29154 243
47.31165 233
47.33176 231
47.35188 208
47.37199 238
47.39211 223
47.41222 234
47.43233 232
47.45245 213
47.47256 216
47.49267 207
47.51279 226
47.5329 244
47.55302 224
47.57313 225
47.59324 251
47.61336 219
47.63347 219
47.65358 215
47.6737 205
47.69381 237
47.71393 246
47.73404 222
47.75415 265
47.77427 212
47.79438 236
47.81449 247
47.83461 241
47.85472 247
47.87483 238
47.89495 241
47.91506 224
47.93518 242
47.95529 248
47.9754 236
47.99552 244
48.01563 223
48.03574 243
48.05586 236
48.07597 202
48.09609 226
48.1162 218
48.13631 223
48.15643 213
48.17654 254
48.19665 209
48.21677 233
48.23688 260
48.257 195
48.27711 207
48.29722 240
48.31734 252
48.33745 204
48.35756 250
48.37768 245
48.39779 221
48.4179 220
48.43802 241
48.45813 239
48.47825 225
48.49836 245
48.51847 233
48.53859 218
48.5587 234
48.57881 236
48.59893 204
48.61904 211
48.63916 235
48.65927 207
48.67938 217
48.6995 239
48.71961 231
48.73972 238
48.75984 227
48.77995 232
48.80006 225
48.82018 207
48.84029 225
48.86041 231
48.88052 211
48.90063 219
48.92075 243
48.94086 221
48.96097 210
48.98109 199
49.0012 226
49.02132 279
49.04143 224
49.06154 248
49.08166 225
49.10177 224
49.12188 224
49.142 226
49.16211 249
49.18223 245
49.20234 223
49.22245 230
49.24257 256
49.26268 248
49.28279 245
49.30291 234
49.32302 233
49.34313 255
49.36325 227
49.38336 230
49.40348 261
49.42359 242
49.4437 259
49.46382 231
49.48393 256
49.50404 247
49.52416 243
49.54427 266
49.56439 284
49.5845 253
49.60461 292
49.62473 250
49.64484 294
49.66495 277
49.68507 323
49.70518 295
49.7253 343
49.74541 356
49.76552 355
49.78564 386
49.80575 401
49.82586 443
49.84598 506
49.86609 518
49.8862 585
49.90632 657
49.92643 800
49.94655 923
49.96666 1093
49.98677 1203
50.00689 1404
50.027 1610
50.04711 1638
50.06723 1746
50.08734 1682
50.10746 1504
50.12757 1432
50.14768 1242
50.1678 1109
50.18791 1049
50.20802 1004
50.22814 837
50.24825 737
50.26837 620
50.28848 475
50.30859 439
50.32871 354
50.34882 342
50.36893 318
50.38905 279
50.40916 274
50.42927 281
50.44939 264
50.4695 276
50.48962 253
50.50973 277
50.52984 257
50.54996 247
50.57007 261
50.59018 264
50.6103 279
50.63041 279
50.65053 235
50.67064 258
50.69075 236
50.71087 260
50.73098 218
50.75109 245
50.77121 248
50.79132 223
50.81143 236
50.83155 220
50.85166 202
50.87178 208
50.89189 226
50.912 250
50.93212 223
50.95223 215
50.97234 206
50.99246 193
51.01257 230
51.03269 197
51.0528 186
51.07291 190
51.09303 215
51.11314 223
51.13325 200
51.15337 207
51.17348 196
51.1936 223
51.21371 187
51.23382 215
51.25394 194
51.27405 227
51.29416 209
51.31428 201
51.33439 204
51.3545 205
51.37462 225
51.39473 202
51.41485 197
51.43496 210
51.45507 221
51.47519 217
51.4953 210
51.51541 224
51.53553 180
51.55564 232
51.57576 197
51.59587 240
51.61598 204
51.6361 215
51.65621 209
51.67632 199
51.69644 183
51.71655 211
51.73667 190
51.75678 211
51.77689 215
51.79701 211
51.81712 210
51.83723 212
51.85735 225
51.87746 225
51.89757 210
51.91769 226
51.9378 208
51.95792 213
51.97803 228
51.99814 243
52.01826 203
52.03837 212
52.05848 230
52.0786 203
52.09871 201
52.11883 223
52.13894 240
52.15905 201
52.17917 226
52.19928 233
52.21939 226
52.23951 222
52.25962 193
52.27974 200
52.29985 203
52.31996 211
52.34008 230
52.36019 205
52.3803 215
52.40042 245
52.42053 211
52.44064 214
52.46076 213
52.48087 235
52.50099 197
52.5211 227
52.54121 234
52.56133 239
52.58144 221
52.60155 232
52.62167 194
52.64178 208
52.6619 215
52.68201 220
52.70212 217
52.72224 233
52.74235 215
52.76246 208
52.78258 251
52.80269 237
52.8228 215
52.84292 236
52.86303 258
52.88315 261
52.90326 244
52.92337 226
52.94349 246
52.9636 261
52.98371 214
53.00383 243
53.02394 233
53.04406 251
53.06417 212
53.08428 244
53.1044 210
53.12451 227
53.14462 259
53.16474 222
53.18485 234
53.20497 235
53.22508 235
53.24519 263
53.26531 274
53.28542 241
53.30553 254
53.32565 266
53.34576 258
53.36587 245
53.38599 283
53.4061 256
53.42622 261
53.44633 267
53.46644 253
53.48656 264
53.50667 275
53.52678 294
53.5469 272
53.56701 279
53.58713 275
53.60724 289
53.62735 283
53.64747 285
53.66758 295
53.68769 294
53.70781 284
53.72792 290
53.74804 302
53.76815 280
53.78826 347
53.80838 288
53.82849 280
53.8486 279
53.86872 266
53.88883 296
53.90894 296
53.92906 299
53.94917 290
53.96929 310
53.9894 273
54.00951 285
54.02963 306
54.04974 273
54.06985 261
54.08997 279
54.11008 278
54.1302 289
54.15031 272
54.17042 273
54.19054 299
54.21065 289
54.23076 289
54.25088 332
54.27099 278
54.29111 290
54.31122 320
54.33133 290
54.35145 284
54.37156 289
54.39167 326
54.41179 292
54.4319 327
54.45201 317
54.47213 324
54.49224 355
54.51236 347
54.53247 337
54.55258 370
54.5727 360
54.59281 409
54.61292 439
54.63304 446
54.65315 461
54.67327 486
54.69338 551
54.71349 550
54.73361 692
54.75372 689
54.77383 712
54.79395 725
54.81406 690
54.83417 685
54.85429 640
54.8744 632
54.89452 588
54.91463 583
54.93474 607
54.95486 567
54.97497 546
54.99508 532
55.0152 493
55.03531 435
55.05543 445
55.07554 479
55.09565 477
55.11577 426
55.13588 451
55.15599 427
55.17611 524
55.19622 496
55.21634 517
55.23645 504
55.25656 528
55.27668 524
55.29679 471
55.3169 489
55.33702 449
55.35713 439
55.37724 438
55.39736 401
55.41747 451
55.43759 420
55.4577 394
55.47781 405
55.49793 368
55.51804 360
55.53815 380
55.55827 310
55.57838 344
55.5985 348
55.61861 374
55.63872 357
55.65884 381
55.67895 332
55.69906 357
55.71918 376
55.73929 351
55.75941 367
55.77952 313
55.79963 373
55.81975 342
55.83986 349
55.85997 335
55.88009 338
55.9002 323
55.92031 346
55.94043 316
55.96054 326
55.98066 320
56.00077 318
56.02088 307
56.041 322
56.06111 303
56.08122 327
56.10134 333
56.12145 310
56.14157 304
56.16168 311
56.18179 309
56.20191 318
56.22202 309
56.24213 316
56.26225 314
56.28236 296
56.30248 303
56.32259 278
56.3427 284
56.36282 270
56.38293 294
56.40304 294
56.42316 269
56.44327 314
56.46338 281
56.4835 275
56.50361 273
56.52373 300
56.54384 289
56.56395 260
56.58407 307
56.60418 248
56.62429 258
56.64441 280
56.66452 296
56.68464 280
56.70475 279
56.72486 237
56.74498 251
56.76509 261
56.7852 250
56.80532 266
56.82543 250
56.84554 266
56.86566 233
56.88577 266
56.90589 273
56.926 249
56.94611 252
56.96623 289
56.98634 226
57.00645 224
57.02657 257
57.04668 278
57.0668 256
57.08691 267
57.10702 234
57.12714 273
57.14725 282
57.16736 264
57.18748 265
57.20759 286
57.22771 249
57.24782 270
57.26793 259
57.28805 297
57.30816 305
57.32827 269
57.34839 247
57.3685 222
57.38861 254
57.40873 249
57.42884 263
57.44896 237
57.46907 249
57.48918 222
57.5093 248
57.52941 263
57.54952 259
57.56964 267
57.58975 210
57.60987 275
57.62998 232
57.65009 255
57.67021 252
57.69032 273
57.71043 255
57.73055 250
57.75066 229
57.77078 251
57.79089 238
57.811 240
57.83112 249
57.85123 257
57.87134 228
57.89146 216
57.91157 228
57.93168 230
57.9518 227
57.97191 222
57.99203 202
58.01214 226
58.03225 257
58.05237 244
58.07248 242
58.09259 231
58.11271 246
58.13282 217
58.15294 233
58.17305 232
58.19316 250
58.21328 231
58.23339 223
58.2535 221
58.27362 239
58.29373 222
58.31385 251
58.33396 211
58.35407 232
58.37419 226
58.3943 247
58.41441 213
58.43453 228
58.45464 217
58.47475 250
58.49487 218
58.51498 221
58.5351 241
58.55521 240
58.57532 237
58.59544 239
58.61555 249
58.63566 248
58.65578 225
58.67589 245
58.69601 221
58.71612 233
58.73623 226
58.75635 241
58.77646 239
58.79657 238
58.81669 251
58.8368 235
58.85691 251
58.87703 242
58.89714 224
58.91726 233
58.93737 247
58.95748 242
58.9776 249
58.99771 218
59.01782 248
59.03794 247
59.05805 243
59.07817 236
59.09828 249
59.11839 268
59.13851 252
59.15862 266
59.17873 218
59.19885 245
59.21896 264
59.23908 267
59.25919 250
59.2793 257
59.29942 270
59.31953 273
59.33964 239
59.35976 278
59.37987 273
59.39998 290
59.4201 261
59.44021 268
59.46033 253
59.48044 293
59.50055 305
59.52067 318
59.54078 284
59.56089 319
59.58101 346
59.60112 365
59.62124 377
59.64135 392
59.66146 451
59.68158 520
59.70169 574
59.7218 582
59.74192 677
59.76203 732
59.78215 804
59.80226 909
59.82237 1021
59.84249 1043
59.8626 1130
59.88271 1088
59.90283 1069
59.92294 958
59.94305 933
59.96317 854
59.98328 750
60.0034 756
60.02351 755
60.04362 681
60.06374 661
60.08385 617
60.10396 504
60.12408 444
60.14419 414
60.16431 370
60.18442 321
60.20453 297
60.22465 304
60.24476 284
60.26487 280
60.28499 259
60.3051 242
60.32522 308
60.34533 239
60.36544 259
60.38556 256
60.40567 253
60.42578 241
60.4459 269
60.46601 238
60.48612 277
60.50624 250
60.52635 243
60.54647 244
60.56658 264
60.58669 228
60.60681 279
60.62692 280
60.64703 259
60.66715 261
60.68726 244
60.70738 290
60.72749 264
60.7476 245
60.76772 263
60.78783 297
60.80794 250
60.82806 270
60.84817 267
60.86828 283
60.8884 277
60.90851 273
60.92863 252
60.94874 262
60.96885 270
60.98897 263
61.00908 275
61.02919 243
61.04931 268
61.06942 291
61.08954 249
61.10965 292
61.12976 263
61.14988 292
61.16999 298
61.1901 314
61.21022 306
61.23033 312
61.25045 352
61.27056 327
61.29067 399
61.31079 405
61.3309 377
61.35101 421
61.37113 448
61.39124 426
61.41135 449
61.43147 469
61.45158 501
61.4717 483
61.49181 504
61.51192 480
61.53204 511
61.55215 462
61.57226 459
61.59238 477
61.61249 461
61.63261 414
61.65272 418
61.67283 429
61.69295 415
61.71306 363
61.73317 381
61.75329 369
61.7734 339
61.79352 327
61.81363 353
61.83374 341
61.85386 323
61.87397 320
61.89408 310
61.9142 338
61.93431 318
61.95442 288
61.97454 304
61.99465 328
62.01477 313
62.03488 316
62.05499 298
62.07511 310
62.09522 336
62.11533 325
62.13545 320
62.15556 305
62.17568 335
62.19579 331
62.2159 314
62.23602 305
62.25613 319
62.27624 290
62.29636 312
62.31647 316
62.33659 309
62.3567 341
62.37681 297
62.39693 299
62.41704 287
62.43715 306
62.45727 266
62.47738 275
62.49749 290
62.51761 263
62.53772 275
62.55784 272
62.57795 249
62.59806 242
62.61818 246
62.63829 243
62.6584 240
62.67852 253
62.69863 232
62.71875 219
62.73886 245
62.75897 238
62.77909 235
62.7992 223
62.81931 229
62.83943 207
62.85954 232
62.87965 219
62.89977 252
62.91988 217
62.94 223
62.96011 206
62.98022 195
63.00034 197
63.02045 235
63.04056 228
63.06068 222
63.08079 225
63.10091 231
63.12102 206
63.14113 209
63.16125 216
63.18136 212
63.20147 220
63.22159 209
63.2417 191
63.26182 212
63.28193 213
63.30204 192
63.32216 200
63.34227 226
63.36238 213
63.3825 206
63.40261 241
63.42272 215
63.44284 217
63.46295 222
63.48307 206
63.50318 222
63.52329 222
63.54341 220
63.56352 229
63.58363 240
63.60375 231
63.62386 224
63.64398 243
63.66409 244
63.6842 268
63.70432 229
63.72443 271
63.74454 236
63.76466 259
63.78477 293
63.80489 280
63.825 286
63.84511 304
63.86523 327
63.88534 344
63.90545 354
63.92557 379
63.94568 366
63.96579 343
63.98591 332
64.00602 349
64.02614 334
64.04625 338
64.06636 274
64.08648 319
64.10659 283
64.1267 295
64.14682 247
64.16693 289
64.18705 279
64.20716 264
64.22727 267
64.24739 221
64.2675 211
64.28761 225
64.30773 209
64.32784 209
64.34796 224
64.36807 218
64.38818 194
64.4083 201
64.42841 189
64.44852 206
64.46864 197
64.48875 223
64.50886 227
64.52898 217
64.54909 221
64.56921 226
64.58932 203
64.60943 200
64.62955 211
64.64966 209
64.66977 200
64.68989 204
64.71 231
64.73012 195
64.75023 178
64.77034 202
64.79046 216
64.81057 207
64.83068 203
64.8508 186
64.87091 188
64.89102 189
64.91114 230
64.93125 198
64.95137 215
64.97148 190
64.99159 193
65.01171 209
65.03182 210
65.05193 214
65.07205 200
65.09216 203
65.11228 187
65.13239 224
65.1525 205
65.17262 189
65.19273 220
65.21284 207
65.23296 215
65.25307 196
65.27319 187
65.2933 180
65.31341 203
65.33353 199
65.35364 228
65.37375 207
65.39387 205
65.41398 212
65.43409 199
65.45421 221
65.47432 220
65.49444 216
65.51455 202
65.53466 207
65.55478 221
65.57489 221
65.595 228
65.61512 237
65.63523 230
65.65535 219
65.67546 237
65.69557 227
65.71569 251
65.7358 240
65.75591 225
65.77603 221
65.79614 245
65.81626 233
65.83637 228
65.85648 225
65.8766 214
65.89671 205
65.91682 202
65.93694 220
65.95705 214
65.97716 199
65.99728 217
66.01739 192
66.03751 224
66.05762 229
66.07773 202
66.09785 221
66.11796 209
66.13807 204
66.15819 234
66.1783 219
66.19842 189
66.21853 174
66.23864 218
66.25876 184
66.27887 200
66.29898 189
66.3191 187
66.33921 191
66.35933 205
66.37944 204
66.39955 203
66.41967 218
66.43978 191
66.45989 183
66.48001 204
66.50012 178
66.52023 177
66.54035 177
66.56046 190
66.58058 189
66.60069 220
66.6208 206
66.64092 201
66.66103 176
66.68114 206
66.70126 227
66.72137 182
66.74149 215
66.7616 196
66.78171 193
66.80183 204
66.82194 210
66.84205 187
66.86217 211
66.88228 191
66.90239 186
66.92251 195
66.94262 206
66.96274 192
66.98285 205
67.00296 205
67.02308 219
67.04319 193
67.0633 218
67.08342 213
67.10353 190
67.12365 202
67.14376 236
67.16387 232
67.18399 225
67.2041 258
67.22421 220
67.24433 246
67.26444 254
67.28456 259
67.30467 254
67.32478 249
67.3449 283
67.36501 306
67.38512 286
67.40524 322
67.42535 334
67.44546 361
67.46558 345
67.48569 383
67.50581 405
67.52592 464
67.54603 488
67.56615 529
67.58626 610
67.60637 648
67.62649 704
67.6466 698
67.66672 721
67.68683 680
67.70694 662
67.72706 670
67.74717 602
67.76728 636
67.7874 609
67.80751 598
67.82763 611
67.84774 630
67.86785 616
67.88797 647
67.90808 680
67.92819 649
67.94831 699
67.96842 762
67.98853 812
68.00865 870
68.02876 900
68.04888 905
68.06899 917
68.0891 946
68.10922 929
68.12933 877
68.14944 907
68.16956 837
68.18967 787
68.20979 879
68.2299 883
68.25001 828
68.27013 801
68.29024 758
68.31035 654
68.33047 592
68.35058 525
68.3707 508
68.39081 455
68.41092 421
68.43104 443
68.45115 375
68.47126 349
68.49138 352
68.51149 335
68.5316 274
68.55172 300
68.57183 278
68.59195 248
68.61206 242
68.63217 243
68.65229 257
68.6724 230
68.69251 259
68.71263 253
68.73274 199
68.75286 281
68.77297 229
68.79308 216
68.8132 220
68.83331 225
68.85342 248
68.87354 204
68.89365 220
68.91376 233
68.93388 231
68.95399 219
68.97411 257
68.99422 222
69.01433 229
69.03445 177
69.05456 191
69.07467 225
69.09479 242
69.1149 254
69.13502 241
69.15513 210
69.17524 236
69.19536 207
69.21547 214
69.23558 207
69.2557 197
69.27581 239
69.29593 230
69.31604 247
69.33615 222
69.35627 252
69.37638 233
69.39649 240
69.41661 231
69.43672 222
69.45683 245
69.47695 239
69.49706 241
69.51718 236
69.53729 236
69.5574 230
69.57752 249
69.59763 215
69.61774 232
69.63786 218
69.65797 218
69.67809 232
69.6982 203
69.71831 237
69.73843 253
69.75854 239
69.77865 217
69.79877 211
69.81888 232
69.839 244
69.85911 224
69.87922 199
69.89934 219
69.91945 219
69.93956 234
69.95968 226
69.97979 226
69.9999 196
70.02002 204
70.04013 245
70.06025 235
70.08036 239
70.10047 235
70.12059 266
70.1407 224
70.16081 253
70.18093 279
70.20104 198
70.22116 236
70.24127 217
70.26138 210
70.2815 226
70.30161 197
70.32172 231
70.34184 208
70.36195 227
70.38207 210
70.40218 205
70.42229 199
70.44241 231
70.46252 185
70.48263 194
70.50275 209
70.52286 199
70.54297 197
70.56309 208
70.5832 199
70.60332 209
70.62343 214
70.64354 223
70.66366 195
70.68377 215
70.70388 210
70.724 181
70.74411 192
70.76423 220
70.78434 197
70.80445 186
70.82457 187
70.84468 217
70.86479 190
70.88491 188
70.90502 212
70.92513 201
70.94525 216
70.96536 210
70.98548 203
71.00559 194
71.0257 184
71.04582 187
71.06593 195
71.08604 197
71.10616 203
71.12627 198
71.14639 190
71.1665 186
71.18661 174
71.20673 210
71.22684 199
71.24695 188
71.26707 202
71.28718 192
71.3073 183
71.32741 201
71.34752 197
71.36764 217
71.38775 230
71.40786 202
71.42798 187
71.44809 195
71.4682 209
71.48832 188
71.50843 202
71.52855 178
71.54866 190
71.56877 202
71.58889 203
71.609 217
71.62911 211
71.64923 183
71.66934 201
71.68946 201
71.70957 209
71.72968 203
71.7498 205
71.76991 188
71.79002 199
71.81014 184
71.83025 211
71.85037 199
71.87048 189
71.89059 209
71.91071 200
71.93082 228
71.95093 217
71.97105 213
71.99116 194
72.01127 217
72.03139 207
72.0515 207
72.07162 209
72.09173 212
72.11184 192
72.13196 225
72.15207 229
72.17218 208
72.1923 227
72.21241 222
72.23253 261
72.25264 225
72.27275 252
72.29287 267
72.31298 235
72.33309 246
72.35321 260
72.37332 231
72.39344 235
72.41355 275
72.43366 256
72.45378 314
72.47389 273
72.494 265
72.51412 279
72.53423 275
72.55434 262
72.57446 287
72.59457 297
72.61469 250
72.6348 268
72.65491 280
72.67503 262
72.69514 290
72.71525 291
72.73537 291
72.75548 262
72.7756 274
72.79571 281
72.81582 272
72.83594 243
72.85605 259
72.87616 281
72.89628 271
72.91639 278
72.9365 227
72.95662 293
72.97673 245
72.99685 252
73.01696 245
73.03707 241
73.05719 255
73.0773 255
73.09741 265
73.11753 250
73.13764 270
73.15776 273
73.17787 307
73.19798 311
73.2181 290
73.23821 288
73.25832 315
73.27844 330
73.29855 334
73.31867 337
73.33878 387
73.35889 395
73.37901 383
73.39912 343
73.41923 383
73.43935 354
73.45946 329
73.47957 306
73.49969 333
73.5198 321
73.53992 294
73.56003 307
73.58014 332
73.60026 310
73.62037 316
73.64048 274
73.6606 268
73.68071 257
73.70083 254
73.72094 259
73.74105 252
73.76117 238
73.78128 226
73.80139 218
73.82151 219
73.84162 203
73.86174 208
73.88185 218
73.90196 227
73.92208 187
73.94219 211
73.9623 211
73.98242 195
74.00253 231
74.02264 233
74.04276 225
74.06287 248
74.08299 220
74.1031 225
74.12321 211
74.14333 209
74.16344 209
74.18355 212
74.20367 213
74.22378 203
74.2439 203
74.26401 199
74.28412 205
74.30424 232
74.32435 221
74.34446 207
74.36458 204
74.38469 184
74.40481 201
74.42492 208
74.44503 190
74.46515 214
74.48526 197
74.50537 180
74.52549 196
74.5456 199
74.56571 202
74.58583 211
74.60594 201
74.62606 196
74.64617 194
74.66628 186
74.6864 209
74.70651 192
74.72662 197
74.74674 217
74.76685 194
74.78697 193
74.80708 188
74.82719 221
74.84731 178
74.86742 193
74.88753 184
74.90765 218
74.92776 190
74.94787 176
74.96799 194
74.9881 201
75.00822 195
