3.00117 34639
3.02128 34159
3.0414 33493
3.06151 32708
3.08162 32484
3.10174 31725
3.12185 31237
3.14197 30154
3.16208 29535
3.18219 28834
3.20231 28491
3.22242 27651
3.24253 27060
3.26265 26295
3.28276 25929
3.30288 25056
3.32299 24822
3.3431 24299
3.36322 23942
3.38333 23363
3.40344 22480
3.42356 22018
3.44367 21587
3.46379 21109
3.4839 20467
3.50401 19823
3.52413 19800
3.54424 18807
3.56435 18553
3.58447 17927
3.60458 17804
3.62469 17260
3.64481 16294
3.66492 16324
3.68504 15781
3.70515 15348
3.72526 15041
3.74538 14543
3.76549 14266
3.7856 13732
3.80572 13391
3.82583 12781
3.84595 12667
3.86606 12191
3.88617 12154
3.90629 11449
3.9264 11233
3.94651 10945
3.96663 10506
3.98674 10333
4.00686 9859
4.02697 9680
4.04708 9449
4.0672 9012
4.08731 8839
4.10742 8478
4.12754 8232
4.14765 8205
4.16776 7853
4.18788 7678
4.20799 7394
4.22811 7097
4.24822 6839
4.26833 6484
4.28845 6427
4.30856 6227
4.32867 6054
4.34879 5926
4.3689 5592
4.38902 5449
4.40913 5162
4.42924 5215
4.44936 5066
4.46947 4758
4.48958 4802
4.5097 4625
4.52981 4282
4.54992 4291
4.57004 4083
4.59015 3904
4.61027 3887
4.63038 3733
4.65049 3681
4.67061 3566
4.69072 3518
4.71083 3367
4.73095 3208
4.75106 3222
4.77118 3098
4.79129 3073
4.8114 2987
4.83152 2841
4.85163 2853
4.87174 2653
4.89186 2566
4.91197 2539
4.93209 2503
4.9522 2324
4.97231 2320
4.99243 2246
5.01254 2291
5.03265 2220
5.05277 2119
5.07288 2064
5.09299 2044
5.11311 1895
5.13322 1905
5.15334 1980
5.17345 1856
5.19356 1740
5.21368 1634
5.23379 1597
5.2539 1586
5.27402 1576
5.29413 1497
5.31425 1507
5.33436 1509
5.35447 1411
5.37459 1358
5.3947 1320
5.41481 1301
5.43493 1219
5.45504 1240
5.47516 1171
5.49527 1181
5.51538 1149
5.5355 1148
5.55561 1054
5.57572 1021
5.59584 1094
5.61595 1040
5.63606 998
5.65618 922
5.67629 897
5.69641 866
5.71652 910
5.73663 969
5.75675 883
5.77686 876
5.79697 863
5.81709 861
5.8372 887
5.85732 836
5.87743 807
5.89754 738
5.91766 792
5.93777 820
5.95788 702
5.978 753
5.99811 799
6.01823 740
6.03834 685
6.05845 757
6.07857 759
6.09868 784
6.11879 754
6.13891 701
6.15902 745
6.17913 720
6.19925 708
6.21936 721
6.23948 700
6.25959 674
6.2797 690
6.29982 717
6.31993 710
6.34004 684
6.36016 683
6.38027 661
6.40039 713
6.4205 658
6.44061 666
6.46073 672
6.48084 642
6.50095 660
6.52107 661
6.54118 680
6.56129 675
6.58141 627
6.60152 701
6.62164 651
6.64175 641
6.66186 645
6.68198 636
6.70209 631
6.7222 642
6.74232 576
6.76243 662
6.78255 637
6.80266 602
6.82277 572
6.84289 597
6.863 587
6.88311 591
6.90323 603
6.92334 604
6.94346 575
6.96357 617
6.98368 591
7.0038 572
7.02391 616
7.04402 619
7.06414 565
7.08425 630
7.10436 653
7.12448 586
7.14459 547
7.16471 582
7.18482 572
7.20493 593
7.22505 560
7.24516 570
7.26527 586
7.28539 564
7.3055 562
7.32562 575
7.34573 586
7.36584 612
7.38596 591
7.40607 630
7.42618 584
7.4463 578
7.46641 562
7.48653 581
7.50664 593
7.52675 566
7.54687 548
7.56698 535
7.58709 541
7.60721 581
7.62732 572
7.64743 608
7.66755 594
7.68766 568
7.70778 538
7.72789 595
7.748 556
7.76812 523
7.78823 556
7.80834 546
7.82846 525
7.84857 540
7.86869 596
7.8888 573
7.90891 545
7.92903 535
7.94914 575
7.96925 588
7.98937 539
8.00948 579
8.0296 576
8.04971 523
8.06982 521
8.08994 560
8.11005 541
8.13016 488
8.15028 529
8.17039 547
8.1905 552
8.21062 532
8.23073 580
8.25085 526
8.27096 563
8.29107 558
8.31119 546
8.3313 561
8.35141 547
8.37153 572
8.39164 505
8.41176 544
8.43187 556
8.45198 568
8.4721 562
8.49221 513
8.51232 516
8.53244 474
8.55255 510
8.57266 554
8.59278 580
8.61289 520
8.63301 536
8.65312 534
8.67323 575
8.69335 553
8.71346 533
8.73357 538
8.75369 554
8.7738 497
8.79392 565
8.81403 532
8.83414 535
8.85426 548
8.87437 595
8.89448 549
8.9146 555
8.93471 569
8.95483 574
8.97494 558
8.99505 526
9.01517 536
9.03528 557
9.05539 524
9.07551 515
9.09562 574
9.11573 536
9.13585 555
9.15596 545
9.17608 530
9.19619 524
9.2163 550
9.23642 542
9.25653 495
9.27664 498
9.29676 532
9.31687 531
9.33699 520
9.3571 525
9.37721 516
9.39733 545
9.41744 563
9.43755 549
9.45767 505
9.47778 543
9.4979 520
9.51801 489
9.53812 538
9.55824 522
9.57835 542
9.59846 531
9.61858 543
9.63869 524
9.6588 525
9.67892 558
9.69903 566
9.71915 485
9.73926 489
9.75937 544
9.77949 555
9.7996 519
9.81971 524
9.83983 492
9.85994 536
9.88006 497
9.90017 529
9.92028 511
9.9404 573
9.96051 543
9.98062 515
10.00074 520
10.02085 535
10.04097 555
10.06108 518
10.08119 567
10.10131 514
10.12142 471
10.14153 522
10.16165 466
10.18176 528
10.20187 546
10.22199 520
10.2421 511
10.26222 553
10.28233 530
10.30244 514
10.32256 522
10.34267 543
10.36278 491
10.3829 493
10.40301 519
10.42313 502
10.44324 548
10.46335 534
10.48347 479
10.50358 546
10.52369 532
10.54381 480
10.56392 552
10.58403 516
10.60415 516
10.62426 499
10.64438 509
10.66449 537
10.6846 538
10.70472 503
10.72483 523
10.74494 543
10.76506 593
10.78517 536
10.80529 528
10.8254 530
10.84551 505
10.86563 521
10.88574 543
10.90585 554
10.92597 532
10.94608 550
10.9662 531
10.98631 550
11.00642 539
11.02654 536
11.04665 522
11.06676 517
11.08688 492
11.10699 512
11.1271 511
11.14722 538
11.16733 510
11.18745 517
11.20756 543
11.22767 553
11.24779 509
11.2679 554
11.28801 496
11.30813 526
11.32824 545
11.34836 501
11.36847 547
11.38858 542
11.4087 568
11.42881 485
11.44892 523
11.46904 549
11.48915 535
11.50927 559
11.52938 595
11.54949 533
11.56961 570
11.58972 530
11.60983 593
11.62995 558
11.65006 545
11.67017 541
11.69029 566
11.7104 611
11.73052 549
11.75063 617
11.77074 591
11.79086 630
11.81097 636
11.83108 562
11.8512 650
11.87131 625
11.89143 602
11.91154 583
11.93165 610
11.95177 690
11.97188 601
11.99199 663
12.01211 632
12.03222 654
12.05234 670
12.07245 650
12.09256 714
12.11268 697
12.13279 721
12.1529 760
12.17302 711
12.19313 793
12.21324 790
12.23336 780
12.25347 859
12.27359 905
12.2937 903
12.31381 872
12.33393 826
12.35404 832
12.37415 750
12.39427 834
12.41438 753
12.4345 719
12.45461 771
12.47472 695
12.49484 703
12.51495 673
12.53506 704
12.55518 640
12.57529 641
12.5954 610
12.61552 580
12.63563 589
12.65575 533
12.67586 546
12.69597 567
12.71609 549
12.7362 583
12.75631 571
12.77643 549
12.79654 542
12.81666 568
12.83677 520
12.85688 510
12.877 541
12.89711 513
12.91722 498
12.93734 503
12.95745 523
12.97757 526
12.99768 558
13.01779 521
13.03791 527
13.05802 506
13.07813 527
13.09825 503
13.11836 526
13.13847 506
13.15859 504
13.1787 485
13.19882 537
13.21893 554
13.23904 494
13.25916 485
13.27927 501
13.29938 492
13.3195 474
13.33961 501
13.35973 468
13.37984 529
13.39995 498
13.42007 522
13.44018 535
13.46029 528
13.48041 480
13.50052 502
13.52064 497
13.54075 503
13.56086 519
13.58098 480
13.60109 494
13.6212 519
13.64132 486
13.66143 504
13.68154 468
13.70166 489
13.72177 461
13.74189 475
13.762 512
13.78211 529
13.80223 534
13.82234 467
13.84245 537
13.86257 474
13.88268 479
13.9028 530
13.92291 525
13.94302 514
13.96314 531
13.98325 474
14.00336 512
14.02348 494
14.04359 497
14.06371 507
14.08382 509
14.10393 466
14.12405 484
14.14416 482
14.16427 480
14.18439 468
14.2045 486
14.22461 504
14.24473 416
14.26484 512
14.28496 513
14.30507 525
14.32518 525
14.3453 515
14.36541 486
14.38552 510
14.40564 519
14.42575 545
14.44587 533
14.46598 526
14.48609 508
14.50621 481
14.52632 472
14.54643 533
14.56655 490
14.58666 445
14.60677 531
14.62689 442
14.647 483
14.66712 497
14.68723 461
14.70734 413
14.72746 507
14.74757 484
14.76768 536
14.7878 488
14.80791 535
14.82803 459
14.84814 511
14.86825 517
14.88837 460
14.90848 516
14.92859 523
14.94871 545
14.96882 449
14.98894 489
15.00905 486
15.02916 509
15.04928 470
15.06939 507
15.0895 513
15.10962 527
15.12973 518
15.14984 545
15.16996 501
15.19007 468
15.21019 564
15.2303 497
15.25041 522
15.27053 456
15.29064 551
15.31075 482
15.33087 453
15.35098 474
15.3711 473
15.39121 504
15.41132 537
15.43144 497
15.45155 496
15.47166 535
15.49178 476
15.51189 503
15.53201 483
15.55212 513
15.57223 502
15.59235 460
15.61246 503
15.63257 500
15.65269 506
15.6728 493
15.69291 492
15.71303 496
15.73314 502
15.75326 489
15.77337 449
15.79348 481
15.8136 519
15.83371 507
15.85382 489
15.87394 509
15.89405 475
15.91417 481
15.93428 504
15.95439 474
15.97451 475
15.99462 505
16.01473 525
16.03485 490
16.05496 534
16.07508 483
16.09519 489
16.1153 479
16.13542 506
16.15553 466
16.17564 551
16.19576 523
16.21587 526
16.23598 506
16.2561 466
16.27621 534
16.29633 477
16.31644 477
16.33655 501
16.35667 513
16.37678 481
16.39689 479
16.41701 490
16.43712 470
16.45724 508
16.47735 481
16.49746 510
16.51758 511
16.53769 474
16.5578 512
16.57792 497
16.59803 431
16.61814 486
16.63826 502
16.65837 493
16.67849 468
16.6986 469
16.71871 522
16.73883 499
16.75894 479
16.77905 502
16.79917 529
16.81928 470
16.8394 479
16.85951 503
16.87962 470
16.89974 509
16.91985 447
16.93996 485
16.96008 532
16.98019 540
17.00031 489
17.02042 465
17.04053 510
17.06065 485
17.08076 523
17.10087 519
17.12099 546
17.1411 504
17.16121 479
17.18133 503
17.20144 500
17.22156 467
17.24167 491
17.26178 467
17.2819 524
17.30201 459
17.32212 489
17.34224 509
17.36235 511
17.38247 536
17.40258 516
17.42269 483
17.44281 548
17.46292 494
17.48303 527
17.50315 519
17.52326 558
17.54338 491
17.56349 497
17.5836 515
17.60372 502
17.62383 559
17.64394 536
17.66406 508
17.68417 506
17.70428 512
17.7244 513
17.74451 522
17.76463 543
17.78474 507
17.80485 568
17.82497 489
17.84508 533
17.86519 516
17.88531 535
17.90542 564
17.92554 549
17.94565 543
17.96576 552
17.98588 501
18.00599 508
18.0261 553
18.04622 531
18.06633 536
18.08645 542
18.10656 526
18.12667 513
18.14679 549
18.1669 507
18.18701 553
18.20713 559
18.22724 530
18.24735 585
18.26747 567
18.28758 579
18.3077 571
18.32781 565
18.34792 545
18.36804 548
18.38815 567
18.40826 546
18.42838 511
18.44849 532
18.46861 514
18.48872 491
18.50883 500
18.52895 531
18.54906 517
18.56917 473
18.58929 494
18.6094 509
18.62951 539
18.64963 537
18.66974 528
18.68986 490
18.70997 475
18.73008 521
18.7502 508
18.77031 491
18.79042 547
18.81054 558
18.83065 485
18.85077 472
18.87088 542
18.89099 477
18.91111 493
18.93122 527
18.95133 555
18.97145 485
18.99156 488
19.01168 533
19.03179 539
19.0519 516
19.07202 507
19.09213 488
19.11224 537
19.13236 540
19.15247 501
19.17258 513
19.1927 543
19.21281 518
19.23293 533
19.25304 505
19.27315 549
19.29327 579
19.31338 536
19.33349 577
19.35361 574
19.37372 563
19.39384 520
19.41395 568
19.43406 576
19.45418 602
19.47429 558
19.4944 598
19.51452 553
19.53463 590
19.55475 566
19.57486 613
19.59497 604
19.61509 633
19.6352 658
19.65531 679
19.67543 697
19.69554 768
19.71565 742
19.73577 794
19.75588 851
19.776 843
19.79611 840
19.81622 923
19.83634 862
19.85645 889
19.87656 864
19.89668 895
19.91679 890
19.93691 869
19.95702 866
19.97713 896
19.99725 856
20.01736 841
20.03747 793
20.05759 781
20.0777 779
20.09782 786
20.11793 766
20.13804 811
20.15816 840
20.17827 851
20.19838 748
20.2185 813
20.23861 805
20.25872 770
20.27884 861
20.29895 747
20.31907 819
20.33918 843
20.35929 905
20.37941 800
20.39952 828
20.41963 808
20.43975 755
20.45986 869
20.47998 821
20.50009 886
20.5202 842
20.54032 807
20.56043 844
20.58054 834
20.60066 875
20.62077 840
20.64088 894
20.661 915
20.68111 1079
20.70123 1150
20.72134 1389
20.74145 1546
20.76157 1761
20.78168 2098
20.80179 2275
20.82191 2159
20.84202 2157
20.86214 1883
20.88225 1633
20.90236 1389
20.92248 1174
20.94259 1024
20.9627 939
20.98282 907
21.00293 871
21.02305 830
21.04316 787
21.06327 793
21.08339 818
21.1035 806
21.12361 822
21.14373 810
21.16384 834
21.18395 777
21.20407 765
21.22418 784
21.2443 784
21.26441 836
21.28452 843
21.30464 850
21.32475 842
21.34486 818
21.36498 867
21.38509 806
21.40521 827
21.42532 840
21.44543 825
21.46555 761
21.48566 840
21.50577 750
21.52589 810
21.546 799
21.56612 784
21.58623 742
21.60634 757
21.62646 736
21.64657 767
21.66668 751
21.6868 753
21.70691 694
21.72702 703
21.74714 709
21.76725 690
21.78737 711
21.80748 702
21.82759 673
21.84771 710
21.86782 678
21.88793 731
21.90805 718
21.92816 691
21.94828 668
21.96839 722
21.9885 672
22.00862 707
22.02873 697
22.04884 685
22.06896 650
22.08907 599
22.10919 654
22.1293 669
22.14941 667
22.16953 702
22.18964 721
22.20975 648
22.22987 656
22.24998 646
22.27009 626
22.29021 641
22.31032 614
22.33044 648
22.35055 654
22.37066 616
22.39078 665
22.41089 601
22.431 604
22.45112 667
22.47123 626
22.49135 613
22.51146 659
22.53157 642
22.55169 641
22.5718 647
22.59191 601
22.61203 581
22.63214 662
22.65225 625
22.67237 605
22.69248 604
22.7126 613
22.73271 620
22.75282 619
22.77294 587
22.79305 599
22.81316 619
22.83328 557
22.85339 595
22.87351 635
22.89362 585
22.91373 642
22.93385 646
22.95396 644
22.97407 613
22.99419 645
23.0143 602
23.03442 636
23.05453 635
23.07464 633
23.09476 658
23.11487 608
23.13498 637
23.1551 578
23.17521 646
23.19532 627
23.21544 562
23.23555 581
23.25567 595
23.27578 620
23.29589 570
23.31601 579
23.33612 574
23.35623 565
23.37635 590
23.39646 572
23.41658 614
23.43669 626
23.4568 570
23.47692 616
23.49703 581
23.51714 594
23.53726 614
23.55737 636
23.57749 590
23.5976 553
23.61771 637
23.63783 621
23.65794 583
23.67805 587
23.69817 623
23.71828 585
23.73839 646
23.75851 635
23.77862 636
23.79874 617
23.81885 655
23.83896 626
23.85908 635
23.87919 652
23.8993 594
23.91942 672
23.93953 662
23.95965 671
23.97976 640
23.99987 717
24.01999 674
24.0401 678
24.06021 604
24.08033 718
24.10044 682
24.12056 673
24.14067 718
24.16078 648
24.1809 682
24.20101 646
24.22112 718
24.24124 707
24.26135 705
24.28146 664
24.30158 641
24.32169 671
24.34181 740
24.36192 696
24.38203 641
24.40215 684
24.42226 680
24.44237 696
24.46249 629
24.4826 693
24.50272 757
24.52283 672
24.54294 714
24.56306 679
24.58317 715
24.60328 746
24.6234 709
24.64351 719
24.66362 735
24.68374 750
24.70385 778
24.72397 798
24.74408 816
24.76419 848
24.78431 833
24.80442 816
24.82453 792
24.84465 818
24.86476 834
24.88488 874
24.90499 763
24.9251 816
24.94522 798
24.96533 770
24.98544 797
25.00556 741
25.02567 770
25.04579 743
25.0659 773
25.08601 765
25.10613 767
25.12624 750
25.14635 772
25.16647 739
25.18658 740
25.20669 777
25.22681 822
25.24692 810
25.26704 753
25.28715 786
25.30726 749
25.32738 731
25.34749 715
25.3676 709
25.38772 704
25.40783 641
25.42795 671
25.44806 715
25.46817 655
25.48829 621
25.5084 671
25.52851 640
25.54863 648
25.56874 638
25.58886 654
25.60897 627
25.62908 671
25.6492 657
25.66931 643
25.68942 639
25.70954 645
25.72965 641
25.74976 703
25.76988 681
25.78999 656
25.81011 665
25.83022 641
25.85033 602
25.87045 691
25.89056 638
25.91067 650
25.93079 622
25.9509 643
25.97102 653
25.99113 658
26.01124 665
26.03136 695
26.05147 609
26.07158 706
26.0917 684
26.11181 692
26.13193 723
26.15204 747
26.17215 769
26.19227 768
26.21238 713
26.23249 774
26.25261 819
26.27272 866
26.29283 874
26.31295 948
26.33306 961
26.35318 1032
26.37329 1141
26.3934 1305
26.41352 1618
26.43363 1797
26.45374 2403
26.47386 3128
26.49397 4051
26.51409 4819
26.5342 5839
26.55431 6725
26.57443 7294
26.59454 7118
26.61465 6783
26.63477 6086
26.65488 4980
26.67499 3722
26.69511 2903
26.71522 2130
26.73534 1637
26.75545 1195
26.77556 1076
26.79568 938
26.81579 893
26.8359 837
26.85602 821
26.87613 808
26.89625 770
26.91636 775
26.93647 699
26.95659 710
26.9767 707
26.99681 647
27.01693 629
27.03704 641
27.05716 641
27.07727 611
27.09738 631
27.1175 662
27.13761 644
27.15772 612
27.17784 653
27.19795 611
27.21806 646
27.23818 629
27.25829 640
27.27841 643
27.29852 635
27.31863 644
27.33875 671
27.35886 655
27.37897 646
27.39909 630
27.4192 670
27.43932 590
27.45943 608
27.47954 615
27.49966 648
27.51977 613
27.53988 642
27.56 602
27.58011 578
27.60023 596
27.62034 637
27.64045 572
27.66057 574
27.68068 587
27.70079 588
27.72091 587
27.74102 563
27.76113 609
27.78125 604
27.80136 541
27.82148 592
27.84159 635
27.8617 582
27.88182 605
27.90193 641
27.92204 574
27.94216 586
27.96227 608
27.98239 610
28.0025 565
28.02261 596
28.04273 562
28.06284 573
28.08295 558
28.10307 549
28.12318 585
28.1433 559
28.16341 558
28.18352 567
28.20364 573
28.22375 552
28.24386 592
28.26398 560
28.28409 572
28.3042 593
28.32432 509
28.34443 563
28.36455 559
28.38466 588
28.40477 599
28.42489 550
28.445 565
28.46511 526
28.48523 573
28.50534 548
28.52546 519
28.54557 602
28.56568 547
28.5858 567
28.60591 481
28.62602 550
28.64614 540
28.66625 585
28.68636 566
28.70648 549
28.72659 574
28.74671 499
28.76682 572
28.78693 570
28.80705 542
28.82716 524
28.84727 507
28.86739 584
28.8875 552
28.90762 534
28.92773 529
28.94784 579
28.96796 597
28.98807 566
29.00818 565
29.0283 567
29.04841 533
29.06853 539
29.08864 520
29.10875 568
29.12887 578
29.14898 592
29.16909 599
29.18921 596
29.20932 605
29.22943 664
29.24955 692
29.26966 719
29.28978 717
29.30989 750
29.33 738
29.35012 784
29.37023 728
29.39034 685
29.41046 698
29.43057 662
29.45069 632
29.4708 610
29.49091 609
29.51103 587
29.53114 565
29.55125 626
29.57137 536
29.59148 540
29.6116 587
29.63171 527
29.65182 552
29.67194 557
29.69205 533
29.71216 573
29.73228 559
29.75239 558
29.7725 563
29.79262 555
29.81273 546
29.83285 539
29.85296 557
29.87307 498
29.89319 526
29.9133 563
29.93341 487
29.95353 552
29.97364 545
29.99376 539
30.01387 548
30.03398 560
30.0541 544
30.07421 541
30.09432 545
30.11444 556
30.13455 534
30.15467 526
30.17478 581
30.19489 557
30.21501 511
30.23512 592
30.25523 556
30.27535 532
30.29546 576
30.31557 541
30.33569 573
30.3558 555
30.37592 560
30.39603 605
30.41614 535
30.43626 573
30.45637 541
30.47648 573
30.4966 520
30.51671 564
30.53683 536
30.55694 541
30.57705 518
30.59717 556
30.61728 542
30.63739 522
30.65751 562
30.67762 522
30.69773 522
30.71785 498
30.73796 529
30.75808 527
30.77819 538
30.7983 544
30.81842 544
30.83853 562
30.85864 581
30.87876 557
30.89887 550
30.91899 550
30.9391 548
30.95921 518
30.97933 543
30.99944 545
31.01955 508
31.03967 533
31.05978 550
31.0799 540
31.10001 585
31.12012 530
31.14024 559
31.16035 529
31.18046 530
31.20058 535
31.22069 488
31.2408 570
31.26092 543
31.28103 543
31.30115 555
31.32126 528
31.34137 506
31.36149 564
31.3816 526
31.40171 522
31.42183 540
31.44194 495
31.46206 525
31.48217 518
31.50228 542
31.5224 503
31.54251 560
31.56262 551
31.58274 518
31.60285 550
31.62297 510
31.64308 503
31.66319 547
31.68331 491
31.70342 526
31.72353 539
31.74365 489
31.76376 559
31.78387 553
31.80399 552
31.8241 551
31.84422 583
31.86433 551
31.88444 525
31.90456 547
31.92467 534
31.94478 510
31.9649 473
31.98501 531
32.00513 488
32.02524 548
32.04535 533
32.06547 562
32.08558 551
32.10569 529
32.12581 524
32.14592 550
32.16604 536
32.18615 558
32.20626 578
32.22638 566
32.24649 530
32.2666 553
32.28672 532
32.30683 535
32.32694 550
32.34706 595
32.36717 536
32.38729 525
32.4074 551
32.42751 566
32.44763 522
32.46774 546
32.48785 529
32.50797 589
32.52808 585
32.5482 588
32.56831 549
32.58842 584
32.60854 604
32.62865 604
32.64876 542
32.66888 592
32.68899 587
32.7091 619
32.72922 574
32.74933 622
32.76945 570
32.78956 579
32.80967 614
32.82979 637
32.8499 651
32.87001 613
32.89013 632
32.91024 652
32.93036 715
32.95047 701
32.97058 675
32.9907 717
33.01081 721
33.03092 691
33.05104 726
33.07115 738
33.09127 756
33.11138 780
33.13149 756
33.15161 787
33.17172 756
33.19183 760
33.21195 733
33.23206 753
33.25217 734
33.27229 704
33.2924 747
33.31252 684
33.33263 734
33.35274 740
33.37286 714
33.39297 695
33.41308 652
33.4332 737
33.45331 707
33.47343 706
33.49354 652
33.51365 686
33.53377 653
33.55388 668
33.57399 649
33.59411 688
33.61422 649
33.63434 662
33.65445 612
33.67456 624
33.69468 653
33.71479 629
33.7349 605
33.75502 628
33.77513 586
33.79524 589
33.81536 610
33.83547 578
33.85559 628
33.8757 585
33.89581 625
33.91593 595
33.93604 599
33.95615 599
33.97627 586
33.99638 544
34.0165 581
34.03661 589
34.05672 621
34.07684 537
34.09695 615
34.11706 588
34.13718 628
34.15729 588
34.17741 571
34.19752 564
34.21763 569
34.23775 588
34.25786 603
34.27797 624
34.29809 520
34.3182 570
34.33831 603
34.35843 554
34.37854 561
34.39866 576
34.41877 580
34.43888 590
34.459 570
34.47911 609
34.49922 579
34.51934 591
34.53945 584
34.55957 604
34.57968 618
34.59979 665
34.61991 629
34.64002 665
34.66013 606
34.68025 671
34.70036 674
34.72047 640
34.74059 709
34.7607 650
34.78082 687
34.80093 668
34.82104 700
34.84116 747
34.86127 706
34.88138 725
34.9015 781
34.92161 709
34.94173 772
34.96184 740
34.98195 698
35.00207 726
35.02218 655
35.04229 659
35.06241 716
35.08252 704
35.10264 725
35.12275 684
35.14286 675
35.16298 657
35.18309 738
35.2032 672
35.22332 656
35.24343 673
35.26354 733
35.28366 697
35.30377 726
35.32389 748
35.344 717
35.36411 712
35.38423 724
35.40434 790
35.42445 729
35.44457 739
35.46468 817
35.4848 729
35.50491 813
35.52502 798
35.54514 815
35.56525 855
35.58536 845
35.60548 855
35.62559 877
35.64571 885
35.66582 882
35.68593 891
35.70605 862
35.72616 912
35.74627 904
35.76639 965
35.7865 915
35.80661 895
35.82673 914
35.84684 877
35.86696 891
35.88707 873
35.90718 865
35.9273 880
35.94741 888
35.96752 850
35.98764 827
36.00775 798
36.02787 719
36.04798 795
36.06809 748
36.08821 770
36.10832 750
36.12843 720
36.14855 702
36.16866 694
36.18878 678
36.20889 715
36.229 708
36.24912 699
36.26923 698
36.28934 679
36.30946 741
36.32957 757
36.34968 776
36.3698 847
36.38991 896
36.41003 1016
36.43014 970
36.45025 1032
36.47037 1025
36.49048 1114
36.51059 1097
36.53071 1011
36.55082 917
36.57094 851
36.59105 871
36.61116 846
36.63128 788
36.65139 751
36.6715 687
36.69162 693
36.71173 689
36.73184 682
36.75196 622
36.77207 661
36.79219 659
36.8123 648
36.83241 619
36.85253 683
36.87264 629
36.89275 653
36.91287 655
36.93298 612
36.9531 669
36.97321 664
36.99332 695
37.01344 674
37.03355 712
37.05366 629
37.07378 665
37.09389 655
37.11401 695
37.13412 690
37.15423 663
37.17435 615
37.19446 612
37.21457 657
37.23469 687
37.2548 620
37.27491 630
37.29503 631
37.31514 667
37.33526 630
37.35537 672
37.37548 630
37.3956 639
37.41571 654
37.43582 644
37.45594 634
37.47605 703
37.49617 676
37.51628 635
37.53639 626
37.55651 598
37.57662 678
37.59673 683
37.61685 677
37.63696 644
37.65708 665
37.67719 678
37.6973 666
37.71742 695
37.73753 659
37.75764 607
37.77776 611
37.79787 590
37.81798 620
37.8381 613
37.85821 614
37.87833 669
37.89844 620
37.91855 617
37.93867 644
37.95878 613
37.97889 590
37.99901 642
38.01912 633
38.03924 618
38.05935 661
38.07946 610
38.09958 647
38.11969 628
38.1398 656
38.15992 697
38.18003 608
38.20015 607
38.22026 581
38.24037 682
38.26049 636
38.2806 713
38.30071 664
38.32083 691
38.34094 673
38.36105 666
38.38117 656
38.40128 714
38.4214 680
38.44151 711
38.46162 740
38.48174 688
38.50185 677
38.52196 669
38.54208 643
38.56219 697
38.58231 633
38.60242 582
38.62253 672
38.64265 618
38.66276 621
38.68287 627
38.70299 609
38.7231 614
38.74321 602
38.76333 553
38.78344 632
38.80356 582
38.82367 608
38.84378 577
38.8639 601
38.88401 637
38.90412 593
38.92424 617
38.94435 591
38.96447 602
38.98458 615
39.00469 616
39.02481 600
39.04492 606
39.06503 667
39.08515 606
39.10526 654
39.12538 632
39.14549 651
39.1656 681
39.18572 654
39.20583 664
39.22594 740
39.24606 700
39.26617 748
39.28628 815
39.3064 833
39.32651 931
39.34663 937
39.36674 951
39.38685 1010
39.40697 977
39.42708 995
39.44719 931
39.46731 894
39.48742 851
39.50754 753
39.52765 753
39.54776 703
39.56788 623
39.58799 583
39.6081 532
39.62822 599
39.64833 549
39.66845 580
39.68856 589
39.70867 560
39.72879 546
39.7489 542
39.76901 539
39.78913 549
39.80924 558
39.82935 560
39.84947 576
39.86958 561
39.8897 577
39.90981 576
39.92992 550
39.95004 559
39.97015 564
39.99026 605
40.01038 582
40.03049 582
40.05061 605
40.07072 622
40.09083 660
40.11095 630
40.13106 655
40.15117 682
40.17129 699
40.1914 746
40.21152 796
40.23163 748
40.25174 725
40.27186 693
40.29197 730
40.31208 702
40.3322 702
40.35231 659
40.37242 582
40.39254 614
40.41265 604
40.43277 606
40.45288 563
40.47299 557
40.49311 495
40.51322 569
40.53333 566
40.55345 563
40.57356 622
40.59368 597
40.61379 580
40.6339 562
40.65402 573
40.67413 579
40.69424 588
40.71436 595
40.73447 582
40.75458 659
40.7747 572
40.79481 639
40.81493 591
40.83504 614
40.85515 650
40.87527 601
40.89538 612
40.91549 612
40.93561 601
40.95572 636
40.97584 616
40.99595 578
41.01606 628
41.03618 590
41.05629 641
41.0764 627
41.09652 578
41.11663 630
41.13675 608
41.15686 613
41.17697 644
41.19709 611
41.2172 628
41.23731 606
41.25743 590
41.27754 552
41.29765 608
41.31777 555
41.33788 567
41.358 648
41.37811 525
41.39822 573
41.41834 550
41.43845 565
41.45856 539
41.47868 594
41.49879 557
41.51891 603
41.53902 568
41.55913 579
41.57925 572
41.59936 601
41.61947 593
41.63959 542
41.6597 557
41.67982 548
41.69993 619
41.72004 547
41.74016 543
41.76027 599
41.78038 573
41.8005 539
41.82061 584
41.84072 570
41.86084 526
41.88095 549
41.90107 531
41.92118 516
41.94129 556
41.96141 527
41.98152 533
42.00163 570
42.02175 559
42.04186 574
42.06198 561
42.08209 559
42.1022 548
42.12232 581
42.14243 563
42.16254 595
42.18266 557
42.20277 595
42.22289 639
42.243 578
42.26311 642
42.28323 683
42.30334 744
42.32345 762
42.34357 808
42.36368 816
42.38379 831
42.40391 826
42.42402 726
42.44414 763
42.46425 725
42.48436 693
42.50448 644
42.52459 632
42.5447 571
42.56482 545
42.58493 560
42.60505 553
42.62516 495
42.64527 535
42.66539 509
42.6855 550
42.70561 513
42.72573 520
42.74584 537
42.76595 499
42.78607 527
42.80618 501
42.8263 514
42.84641 542
42.86652 527
42.88664 540
42.90675 474
42.92686 522
42.94698 500
42.96709 539
42.98721 541
43.00732 508
43.02743 535
43.04755 546
43.06766 541
43.08777 544
43.10789 527
43.128 547
43.14812 552
43.16823 535
43.18834 527
43.20846 522
43.22857 501
43.24868 507
43.2688 542
43.28891 507
43.30902 474
43.32914 500
43.34925 517
43.36937 539
43.38948 508
43.40959 494
43.42971 527
43.44982 508
43.46993 496
43.49005 482
43.51016 567
43.53028 510
43.55039 523
43.5705 527
43.59062 545
43.61073 508
43.63084 523
43.65096 512
43.67107 510
43.69119 485
43.7113 550
43.73141 494
43.75153 539
43.77164 537
43.79175 505
43.81187 512
43.83198 506
43.85209 495
43.87221 480
43.89232 515
43.91244 464
43.93255 466
43.95266 524
43.97278 500
43.99289 522
44.013 511
44.03312 535
44.05323 519
44.07335 533
44.09346 562
44.11357 495
44.13369 472
44.1538 486
44.17391 509
44.19403 477
44.21414 505
44.23426 496
44.25437 515
44.27448 513
44.2946 534
44.31471 500
44.33482 500
44.35494 504
44.37505 489
44.39516 550
44.41528 499
44.43539 515
44.45551 529
44.47562 519
44.49573 503
44.51585 452
44.53596 478
44.55607 489
44.57619 510
44.5963 487
44.61642 494
44.63653 498
44.65664 518
44.67676 494
44.69687 524
44.71698 483
44.7371 514
44.75721 529
44.77732 497
44.79744 516
44.81755 475
44.83767 492
44.85778 523
44.87789 498
44.89801 499
44.91812 529
44.93823 495
44.95835 533
44.97846 497
44.99858 556
45.01869 519
45.0388 496
45.05892 516
45.07903 534
45.09914 524
45.11926 494
45.13937 465
45.15949 564
45.1796 477
45.19971 549
45.21983 521
45.23994 538
45.26005 541
45.28017 532
45.30028 518
45.32039 564
45.34051 543
45.36062 553
45.38074 547
45.40085 574
45.42096 569
45.44108 549
45.46119 543
45.4813 577
45.50142 596
45.52153 539
45.54165 534
45.56176 544
45.58187 615
45.60199 633
45.6221 603
45.64221 666
45.66233 671
45.68244 697
45.70256 674
45.72267 679
45.74278 693
45.7629 662
45.78301 672
45.80312 676
45.82324 642
45.84335 586
45.86346 527
45.88358 605
45.90369 585
45.92381 553
45.94392 518
45.96403 514
45.98415 527
46.00426 526
46.02437 518
46.04449 548
46.0646 515
46.08472 524
46.10483 474
46.12494 498
46.14506 528
46.16517 532
46.18528 496
46.2054 506
46.22551 503
46.24563 539
46.26574 500
46.28585 486
46.30597 525
46.32608 512
46.34619 507
46.36631 496
46.38642 514
46.40653 475
46.42665 515
46.44676 520
46.46688 536
46.48699 474
46.5071 510
46.52722 522
46.54733 512
46.56744 483
46.58756 518
46.60767 511
46.62779 520
46.6479 499
46.66801 528
46.68813 509
46.70824 502
46.72835 476
46.74847 554
46.76858 510
46.78869 537
46.80881 505
46.82892 497
46.84904 526
46.86915 497
46.88926 469
46.90938 509
46.92949 465
46.9496 513
46.96972 512
46.98983 472
47.00995 476
47.03006 465
47.05017 487
47.07029 505
47.0904 558
47.11051 462
47.13063 526
47.15074 502
47.17086 525
47.19097 484
47.21108 484
47.2312 493
47.25131 511
47.27142 578
47.29154 508
47.31165 555
47.33176 546
47.35188 521
47.37199 518
47.39211 494
47.41222 506
47.43233 538
47.45245 504
47.47256 541
47.49267 497
47.51279 497
47.5329 519
47.55302 526
47.57313 527
47.59324 480
47.61336 534
47.63347 525
47.65358 479
47.6737 501
47.69381 486
47.71393 517
47.73404 491
47.75415 493
47.77427 511
47.79438 531
47.81449 540
47.83461 496
47.85472 498
47.87483 534
47.89495 483
47.91506 502
47.93518 513
47.95529 525
47.9754 516
47.99552 555
48.01563 515
48.03574 519
48.05586 542
48.07597 510
48.09609 512
48.1162 468
48.13631 504
48.15643 553
48.17654 523
48.19665 541
48.21677 484
48.23688 479
48.257 509
48.27711 488
48.29722 504
48.31734 569
48.33745 524
48.35756 526
48.37768 518
48.39779 520
48.4179 512
48.43802 536
48.45813 482
48.47825 549
48.49836 518
48.51847 493
48.53859 514
48.5587 527
48.57881 558
48.59893 514
48.61904 498
48.63916 522
48.65927 503
48.67938 521
48.6995 484
48.71961 496
48.73972 494
48.75984 516
48.77995 524
48.80006 514
48.82018 532
48.84029 519
48.86041 551
48.88052 512
48.90063 529
48.92075 498
48.94086 494
48.96097 525
48.98109 477
49.0012 538
49.02132 534
49.04143 576
49.06154 501
49.08166 507
49.10177 512
49.12188 524
49.142 528
49.16211 509
49.18223 517
49.20234 493
49.22245 566
49.24257 511
49.26268 544
49.28279 550
49.30291 549
49.32302 492
49.34313 551
49.36325 549
49.38336 535
49.40348 554
49.42359 563
49.4437 562
49.46382 539
49.48393 513
49.50404 563
49.52416 541
49.54427 573
49.56439 550
49.5845 575
49.60461 543
49.62473 555
49.64484 563
49.66495 589
49.68507 600
49.70518 591
49.7253 576
49.74541 567
49.76552 554
49.78564 576
49.80575 540
49.82586 621
49.84598 657
49.86609 677
49.8862 691
49.90632 722
49.92643 761
49.94655 855
49.96666 857
49.98677 977
50.00689 1080
50.027 1182
50.04711 1161
50.06723 1125
50.08734 1102
50.10746 1101
50.12757 1005
50.14768 1013
50.1678 932
50.18791 832
50.20802 846
50.22814 759
50.24825 667
50.26837 652
50.28848 597
50.30859 560
50.32871 555
50.34882 560
50.36893 525
50.38905 504
50.40916 531
50.42927 537
50.44939 563
50.4695 534
50.48962 518
50.50973 523
50.52984 542
50.54996 510
50.57007 540
50.59018 513
50.6103 480
50.63041 516
50.65053 499
50.67064 501
50.69075 485
50.71087 501
50.73098 486
50.75109 488
50.77121 496
50.79132 474
50.81143 512
50.83155 528
50.85166 546
50.87178 485
50.89189 509
50.912 516
50.93212 515
50.95223 545
50.97234 513
50.99246 469
51.01257 506
51.03269 505
51.0528 508
51.07291 488
51.09303 498
51.11314 446
51.13325 494
51.15337 514
51.17348 474
51.1936 470
51.21371 495
51.23382 491
51.25394 494
51.27405 496
51.29416 462
51.31428 433
51.33439 504
51.3545 485
51.37462 486
51.39473 457
51.41485 441
51.43496 429
51.45507 465
51.47519 502
51.4953 477
51.51541 488
51.53553 497
51.55564 473
51.57576 501
51.59587 479
51.61598 498
51.6361 461
51.65621 447
51.67632 520
51.69644 451
51.71655 488
51.73667 462
51.75678 440
51.77689 496
51.79701 476
51.81712 498
51.83723 455
51.85735 501
51.87746 480
51.89757 501
51.91769 491
51.9378 445
51.95792 471
51.97803 476
51.99814 508
52.01826 492
52.03837 480
52.05848 471
52.0786 520
52.09871 503
52.11883 493
52.13894 455
52.15905 471
52.17917 455
52.19928 445
52.21939 478
52.23951 482
52.25962 487
52.27974 463
52.29985 497
52.31996 489
52.34008 476
52.36019 483
52.3803 504
52.40042 448
52.42053 460
52.44064 460
52.46076 495
52.48087 486
52.50099 478
52.5211 477
52.54121 473
52.56133 468
52.58144 444
52.60155 506
52.62167 477
52.64178 488
52.6619 480
52.68201 464
52.70212 479
52.72224 468
52.74235 503
52.76246 478
52.78258 454
52.80269 482
52.8228 463
52.84292 496
52.86303 512
52.88315 481
52.90326 479
52.92337 478
52.94349 451
52.9636 504
52.98371 480
53.00383 517
53.02394 472
53.04406 496
53.06417 485
53.08428 504
53.1044 533
53.12451 466
53.14462 489
53.16474 516
53.18485 496
53.20497 519
53.22508 541
53.24519 501
53.26531 486
53.28542 474
53.30553 485
53.32565 529
53.34576 518
53.36587 518
53.38599 551
53.4061 499
53.42622 544
53.44633 530
53.46644 519
53.48656 532
53.50667 551
53.52678 509
53.5469 518
53.56701 561
53.58713 552
53.60724 537
53.62735 562
53.64747 607
53.66758 584
53.68769 573
53.70781 578
53.72792 545
53.74804 559
53.76815 608
53.78826 600
53.80838 603
53.82849 603
53.8486 604
53.86872 606
53.88883 610
53.90894 614
53.92906 632
53.94917 628
53.96929 618
53.9894 630
54.00951 639
54.02963 654
54.04974 591
54.06985 659
54.08997 624
54.11008 612
54.1302 665
54.15031 661
54.17042 652
54.19054 653
54.21065 640
54.23076 655
54.25088 647
54.27099 644
54.29111 649
54.31122 642
54.33133 675
54.35145 697
54.37156 682
54.39167 656
54.41179 634
54.4319 613
54.45201 639
54.47213 655
54.49224 639
54.51236 620
54.53247 678
54.55258 644
54.5727 624
54.59281 656
54.61292 629
54.63304 677
54.65315 664
54.67327 669
54.69338 685
54.71349 713
54.73361 712
54.75372 780
54.77383 817
54.79395 810
54.81406 799
54.83417 760
54.85429 730
54.8744 700
54.89452 708
54.91463 708
54.93474 645
54.95486 673
54.97497 643
54.99508 618
55.0152 627
55.03531 611
55.05543 588
55.07554 600
55.09565 624
55.11577 586
55.13588 619
55.15599 628
55.17611 641
55.19622 653
55.21634 655
55.23645 649
55.25656 657
55.27668 620
55.29679 637
55.3169 628
55.33702 606
55.35713 576
55.37724 587
55.39736 601
55.41747 627
55.43759 545
55.4577 612
55.47781 573
55.49793 565
55.51804 539
55.53815 545
55.55827 504
55.57838 551
55.5985 550
55.61861 517
55.63872 556
55.65884 518
55.67895 561
55.69906 543
55.71918 540
55.73929 522
55.75941 583
55.77952 537
55.79963 488
55.81975 505
55.83986 539
55.85997 517
55.88009 564
55.9002 502
55.92031 467
55.94043 467
55.96054 536
55.98066 512
56.00077 515
56.02088 535
56.041 507
56.06111 508
56.08122 501
56.10134 533
56.12145 507
56.14157 503
56.16168 513
56.18179 528
56.20191 468
56.22202 538
56.24213 495
56.26225 493
56.28236 492
56.30248 483
56.32259 504
56.3427 465
56.36282 514
56.38293 501
56.40304 531
56.42316 514
56.44327 523
56.46338 510
56.4835 466
56.50361 492
56.52373 520
56.54384 482
56.56395 530
56.58407 498
56.60418 497
56.62429 512
56.64441 514
56.66452 524
56.68464 483
56.70475 504
56.72486 473
56.74498 503
56.76509 511
56.7852 510
56.80532 476
56.82543 500
56.84554 518
56.86566 516
56.88577 519
56.90589 489
56.926 483
56.94611 508
56.96623 483
56.98634 503
57.00645 509
57.02657 521
57.04668 474
57.0668 469
57.08691 502
57.10702 536
57.12714 484
57.14725 531
57.16736 532
57.18748 463
57.20759 514
57.22771 520
57.24782 545
57.26793 471
57.28805 520
57.30816 479
57.32827 488
57.34839 540
57.3685 506
57.38861 468
57.40873 513
57.42884 526
57.44896 532
57.46907 504
57.48918 551
57.5093 467
57.52941 509
57.54952 502
57.56964 456
57.58975 504
57.60987 506
57.62998 515
57.65009 532
57.67021 506
57.69032 483
57.71043 507
57.73055 460
57.75066 460
57.77078 472
57.79089 513
57.811 471
57.83112 492
57.85123 520
57.87134 460
57.89146 494
57.91157 482
57.93168 494
57.9518 472
57.97191 505
57.99203 521
58.01214 495
58.03225 575
58.05237 486
58.07248 462
58.09259 532
58.11271 482
58.13282 466
58.15294 492
58.17305 483
58.19316 498
58.21328 536
58.23339 502
58.2535 480
58.27362 495
58.29373 469
58.31385 509
58.33396 495
58.35407 443
58.37419 437
58.3943 497
58.41441 471
58.43453 495
58.45464 484
58.47475 489
58.49487 486
58.51498 472
58.5351 462
58.55521 455
58.57532 466
58.59544 459
58.61555 481
58.63566 481
58.65578 482
58.67589 479
58.69601 458
58.71612 484
58.73623 468
58.75635 473
58.77646 445
58.79657 494
58.81669 510
58.8368 470
58.85691 480
58.87703 528
58.89714 511
58.91726 463
58.93737 479
58.95748 477
58.9776 456
58.99771 473
59.01782 483
59.03794 454
59.05805 489
59.07817 483
59.09828 503
59.11839 515
59.13851 508
59.15862 474
59.17873 527
59.19885 454
59.21896 511
59.23908 472
59.25919 533
59.2793 472
59.29942 455
59.31953 479
59.33964 497
59.35976 499
59.37987 489
59.39998 483
59.4201 485
59.44021 474
59.46033 481
59.48044 504
59.50055 490
59.52067 523
59.54078 523
59.56089 527
59.58101 495
59.60112 534
59.62124 582
59.64135 584
59.66146 572
59.68158 585
59.70169 614
59.7218 678
59.74192 678
59.76203 695
59.78215 756
59.80226 793
59.82237 877
59.84249 924
59.8626 916
59.88271 938
59.90283 883
59.92294 847
59.94305 770
59.96317 753
59.98328 673
60.0034 734
60.02351 749
60.04362 756
60.06374 630
60.08385 613
60.10396 597
60.12408 592
60.14419 557
60.16431 570
60.18442 533
60.20453 487
60.22465 543
60.24476 503
60.26487 503
60.28499 516
60.3051 486
60.32522 497
60.34533 513
60.36544 467
60.38556 481
60.40567 478
60.42578 498
60.4459 483
60.46601 505
60.48612 506
60.50624 488
60.52635 515
60.54647 461
60.56658 468
60.58669 487
60.60681 495
60.62692 509
60.64703 505
60.66715 476
60.68726 465
60.70738 527
60.72749 468
60.7476 474
60.76772 484
60.78783 482
60.80794 466
60.82806 488
60.84817 476
60.86828 502
60.8884 464
60.90851 445
60.92863 518
60.94874 469
60.96885 536
60.98897 461
61.00908 488
61.02919 476
61.04931 500
61.06942 505
61.08954 470
61.10965 499
61.12976 476
61.14988 472
61.16999 503
61.1901 499
61.21022 459
61.23033 484
61.25045 501
61.27056 493
61.29067 487
61.31079 515
61.3309 476
61.35101 492
61.37113 482
61.39124 553
61.41135 469
61.43147 530
61.45158 506
61.4717 500
61.49181 476
61.51192 536
61.53204 521
61.55215 509
61.57226 510
61.59238 499
61.61249 533
61.63261 529
61.65272 539
61.67283 523
61.69295 485
61.71306 518
61.73317 557
61.75329 532
61.7734 577
61.79352 567
61.81363 561
61.83374 588
61.85386 523
61.87397 555
61.89408 545
61.9142 561
61.93431 544
61.95442 544
61.97454 573
61.99465 548
62.01477 619
62.03488 572
62.05499 558
62.07511 579
62.09522 610
62.11533 619
62.13545 615
62.15556 630
62.17568 608
62.19579 599
62.2159 620
62.23602 657
62.25613 642
62.27624 672
62.29636 653
62.31647 607
62.33659 662
62.3567 577
62.37681 624
62.39693 611
62.41704 580
62.43715 624
62.45727 591
62.47738 586
62.49749 609
62.51761 565
62.53772 593
62.55784 579
62.57795 566
62.59806 535
62.61818 597
62.63829 603
62.6584 598
62.67852 548
62.69863 566
62.71875 548
62.73886 522
62.75897 544
62.77909 551
62.7992 561
62.81931 540
62.83943 531
62.85954 539
62.87965 537
62.89977 535
62.91988 499
62.94 542
62.96011 555
62.98022 564
63.00034 545
63.02045 532
63.04056 579
63.06068 543
63.08079 525
63.10091 521
63.12102 557
63.14113 526
63.16125 568
63.18136 507
63.20147 517
63.22159 569
63.2417 529
63.26182 548
63.28193 518
63.30204 497
63.32216 520
63.34227 506
63.36238 513
63.3825 512
63.40261 534
63.42272 509
63.44284 522
63.46295 482
63.48307 534
63.50318 515
63.52329 532
63.54341 523
63.56352 561
63.58363 547
63.60375 521
63.62386 519
63.64398 490
63.66409 494
63.6842 476
63.70432 555
63.72443 527
63.74454 566
63.76466 555
63.78477 561
63.80489 570
63.825 621
63.84511 572
63.86523 604
63.88534 636
63.90545 586
63.92557 578
63.94568 606
63.96579 627
63.98591 593
64.00602 603
64.02614 628
64.04625 585
64.06636 567
64.08648 604
64.10659 570
64.1267 547
64.14682 599
64.16693 590
64.18705 605
64.20716 551
64.22727 549
64.24739 555
64.2675 545
64.28761 513
64.30773 568
64.32784 525
64.34796 557
64.36807 536
64.38818 533
64.4083 492
64.42841 549
64.44852 513
64.46864 542
64.48875 565
64.50886 542
64.52898 554
64.54909 528
64.56921 485
64.58932 502
64.60943 512
64.62955 532
64.64966 521
64.66977 517
64.68989 542
64.71 526
64.73012 550
64.75023 496
64.77034 507
64.79046 503
64.81057 480
64.83068 514
64.8508 522
64.87091 482
64.89102 521
64.91114 541
64.93125 479
64.95137 494
64.97148 472
64.99159 452
65.01171 492
65.03182 526
65.05193 499
65.07205 494
65.09216 479
65.11228 485
65.13239 468
65.1525 489
65.17262 455
65.19273 441
65.21284 471
65.23296 476
65.25307 460
65.27319 458
65.2933 490
65.31341 463
65.33353 541
65.35364 487
65.37375 490
65.39387 502
65.41398 454
65.43409 470
65.45421 505
65.47432 455
65.49444 423
65.51455 490
65.53466 487
65.55478 474
65.57489 490
65.595 440
65.61512 510
65.63523 508
65.65535 493
65.67546 497
65.69557 499
65.71569 468
65.7358 482
65.75591 475
65.77603 517
65.79614 501
65.81626 501
65.83637 465
65.85648 515
65.8766 488
65.89671 491
65.91682 495
65.93694 455
65.95705 500
65.97716 452
65.99728 449
66.01739 461
66.03751 474
66.05762 478
66.07773 458
66.09785 441
66.11796 468
66.13807 467
66.15819 467
66.1783 494
66.19842 455
66.21853 451
66.23864 442
66.25876 454
66.27887 468
66.29898 463
66.3191 453
66.33921 439
66.35933 492
66.37944 488
66.39955 462
66.41967 447
66.43978 445
66.45989 457
66.48001 459
66.50012 420
66.52023 431
66.54035 483
66.56046 466
66.58058 462
66.60069 425
66.6208 465
66.64092 508
66.66103 466
66.68114 469
66.70126 454
66.72137 472
66.74149 485
66.7616 484
66.78171 458
66.80183 484
66.82194 483
66.84205 484
66.86217 441
66.88228 471
66.90239 473
66.92251 472
66.94262 450
66.96274 484
66.98285 469
67.00296 467
67.02308 466
67.04319 420
67.0633 452
67.08342 467
67.10353 489
67.12365 489
67.14376 457
67.16387 483
67.18399 479
67.2041 487
67.22421 500
67.24433 456
67.26444 485
67.28456 465
67.30467 490
67.32478 487
67.3449 459
67.36501 512
67.38512 510
67.40524 488
67.42535 536
67.44546 546
67.46558 521
67.48569 556
67.50581 557
67.52592 586
67.54603 573
67.56615 674
67.58626 648
67.60637 715
67.62649 664
67.6466 755
67.66672 731
67.68683 700
67.70694 706
67.72706 667
67.74717 690
67.76728 632
67.7874 606
67.80751 661
67.82763 647
67.84774 677
67.86785 642
67.88797 668
67.90808 645
67.92819 659
67.94831 707
67.96842 710
67.98853 749
68.00865 756
68.02876 793
68.04888 806
68.06899 803
68.0891 796
68.10922 788
68.12933 798
68.14944 846
68.16956 737
68.18967 782
68.20979 850
68.2299 804
68.25001 793
68.27013 722
68.29024 721
68.31035 689
68.33047 628
68.35058 618
68.3707 622
68.39081 594
68.41092 599
68.43104 569
68.45115 519
68.47126 544
68.49138 521
68.51149 492
68.5316 485
68.55172 494
68.57183 490
68.59195 481
68.61206 440
68.63217 452
68.65229 478
68.6724 437
68.69251 448
68.71263 481
68.73274 477
68.75286 465
68.77297 489
68.79308 450
68.8132 474
68.83331 471
68.85342 490
68.87354 429
68.89365 475
68.91376 448
68.93388 468
68.95399 448
68.97411 466
68.99422 516
69.01433 437
69.03445 466
69.05456 475
69.07467 444
69.09479 443
69.1149 473
69.13502 463
69.15513 433
69.17524 454
69.19536 463
69.21547 425
69.23558 412
69.2557 450
69.27581 475
69.29593 463
69.31604 465
69.33615 488
69.35627 486
69.37638 459
69.39649 456
69.41661 485
69.43672 432
69.45683 436
69.47695 479
69.49706 457
69.51718 420
69.53729 441
69.5574 447
69.57752 436
69.59763 460
69.61774 436
69.63786 479
69.65797 482
69.67809 452
69.6982 470
69.71831 459
69.73843 479
69.75854 440
69.77865 449
69.79877 410
69.81888 457
69.839 422
69.85911 423
69.87922 418
69.89934 456
69.91945 459
69.93956 433
69.95968 435
69.97979 473
69.9999 450
70.02002 445
70.04013 436
70.06025 458
70.08036 449
70.10047 450
70.12059 510
70.1407 436
70.16081 461
70.18093 463
70.20104 476
70.22116 476
70.24127 451
70.26138 489
70.2815 469
70.30161 402
70.32172 449
70.34184 443
70.36195 439
70.38207 440
70.40218 463
70.42229 484
70.44241 456
70.46252 469
70.48263 454
70.50275 434
70.52286 486
70.54297 460
70.56309 483
70.5832 445
70.60332 441
70.62343 411
70.64354 450
70.66366 446
70.68377 455
70.70388 440
70.724 433
70.74411 447
70.76423 446
70.78434 443
70.80445 420
70.82457 433
70.84468 428
70.86479 427
70.88491 421
70.90502 440
70.92513 475
70.94525 463
70.96536 477
70.98548 451
71.00559 426
71.0257 456
71.04582 420
71.06593 448
71.08604 445
71.10616 447
71.12627 445
71.14639 431
71.1665 419
71.18661 471
71.20673 448
71.22684 446
71.24695 431
71.26707 477
71.28718 481
71.3073 435
71.32741 459
71.34752 477
71.36764 447
71.38775 455
71.40786 459
71.42798 442
71.44809 456
71.4682 408
71.48832 430
71.50843 470
71.52855 460
71.54866 467
71.56877 439
71.58889 453
71.609 461
71.62911 430
71.64923 426
71.66934 455
71.68946 452
71.70957 435
71.72968 501
71.7498 445
71.76991 504
71.79002 391
71.81014 473
71.83025 480
71.85037 503
71.87048 471
71.89059 462
71.91071 451
71.93082 451
71.95093 473
71.97105 454
71.99116 446
72.01127 471
72.03139 474
72.0515 439
72.07162 458
72.09173 443
72.11184 426
72.13196 486
72.15207 433
72.17218 478
72.1923 486
72.21241 436
72.23253 465
72.25264 443
72.27275 442
72.29287 441
72.31298 480
72.33309 448
72.35321 441
72.37332 447
72.39344 474
72.41355 451
72.43366 484
72.45378 469
72.47389 444
72.494 487
72.51412 491
72.53423 456
72.55434 454
72.57446 463
72.59457 488
72.61469 494
72.6348 446
72.65491 493
72.67503 468
72.69514 447
72.71525 447
72.73537 443
72.75548 461
72.7756 461
72.79571 510
72.81582 490
72.83594 423
72.85605 426
72.87616 480
72.89628 502
72.91639 495
72.9365 455
72.95662 489
72.97673 449
72.99685 442
73.01696 468
73.03707 490
73.05719 440
73.0773 501
73.09741 476
73.11753 495
73.13764 445
73.15776 488
73.17787 479
73.19798 476
73.2181 488
73.23821 493
73.25832 500
73.27844 478
73.29855 522
73.31867 537
73.33878 527
73.35889 547
73.37901 549
73.39912 552
73.41923 544
73.43935 525
73.45946 533
73.47957 530
73.49969 527
73.5198 544
73.53992 510
73.56003 521
73.58014 459
73.60026 486
73.62037 519
73.64048 497
73.6606 509
73.68071 440
73.70083 457
73.72094 459
73.74105 465
73.76117 427
73.78128 484
73.80139 455
73.82151 492
73.84162 457
73.86174 449
73.88185 467
73.90196 451
73.92208 474
73.94219 476
73.9623 452
73.98242 443
74.00253 427
74.02264 444
74.04276 445
74.06287 454
74.08299 429
74.1031 422
74.12321 418
74.14333 434
74.16344 470
74.18355 449
74.20367 406
74.22378 421
74.2439 411
74.26401 414
74.28412 428
74.30424 471
74.32435 438
74.34446 415
74.36458 455
74.38469 450
74.40481 421
74.42492 429
74.44503 418
74.46515 433
74.48526 430
74.50537 486
74.52549 427
74.5456 402
74.56571 461
74.58583 452
74.60594 421
74.62606 427
74.64617 397
74.66628 440
74.6864 401
74.70651 470
74.72662 412
74.74674 466
74.76685 393
74.78697 424
74.80708 443
74.82719 433
74.84731 462
74.86742 434
74.88753 413
74.90765 433
74.92776 447
74.94787 464
74.96799 464
74.9881 465
75.00822 461
