3.00117 24902.0851266041
3.02128 24223.5771907209
3.0414 23648
3.06151 22876.6970625554
3.08162 22491.6821190208
3.10174 22085.0317595556
3.12185 21576.1897882642
3.14197 20967.4215149032
3.16208 19872.8145392926
3.18219 19569.9816627497
3.20231 19471.736222159
3.22242 18662.3651762823
3.24253 18349.5789492622
3.26265 17790.8973038725
3.28276 16971.9249329089
3.30288 16740.4422901341
3.32299 16044.267273515
3.3431 15791
3.36322 15248.1721631745
3.38333 14513.6285691936
3.40344 14539.4099575206
3.42356 13835.1887102828
3.44367 13475.7486404855
3.46379 12793.2575485527
3.4839 12611
3.50401 12423.7462628426
3.52413 11776.3400892024
3.54424 11575.4763429503
3.56435 11118.1918807092
3.58447 10731.5222915648
3.60458 10327.488806222
3.62469 9908.07650778843
3.64481 9927.95441963617
3.66492 9554.46286406779
3.68504 9071.36924279658
3.70515 8864.35132689756
3.72526 8513.62210900095
3.74538 8196.4888098696
3.76549 7635.17690122402
3.7856 7531
3.80572 7317.73398077443
3.82583 7046.5514583555
3.84595 6699.0424404111
3.86606 6354.46600090105
3.88617 6204.24135394521
3.90629 5957.15408041028
3.9264 5668
3.94651 5559.97398556429
3.96663 5452.65842547965
3.98674 5174.62596081512
4.00686 5062.37769364931
4.02697 4749.48985232734
4.04708 4499.18561936032
4.0672 4327
4.08731 4162.97331461081
4.10742 4159.90611333489
4.12754 3943.54911550325
4.14765 3794.23668516616
4.16776 3674.39859901024
4.18788 3440.16401283847
4.20799 3375.01878789709
4.22811 3284.92575794759
4.24822 3096.80156859486
4.26833 2902.70287780817
4.28845 2737.7984215559
4.30856 2711.10257727027
4.32867 2625.07597163029
4.34879 2614.01802223781
4.3689 2498
4.38902 2342.964361673
4.40913 2402.06130555072
4.42924 2338.71908964122
4.44936 2199.16702643176
4.46947 2150.13178793877
4.48958 2037.04832740888
4.5097 2072
4.52981 2057.95962768804
4.54992 1968.96759964614
4.57004 1966.87770178968
4.59015 1860.11879755107
4.61027 1912.86417382165
4.63038 1942.07003000291
4.65049 1807.06315490409
4.67061 1736.98165476978
4.69072 1703.96558059103
4.71083 1698.08711257561
4.73095 1731.71403351359
4.75106 1526.22530963062
4.77118 1567.92290309935
4.79129 1589.00394120266
4.8114 1571
4.83152 1499.88826879412
4.85163 1404.98193678038
4.87174 1458.07031961087
4.89186 1444.02430782915
4.91197 1457.97997674564
4.93209 1414.06533885152
4.9522 1266
4.97231 1307.03265133793
4.99243 1313.91804894632
5.01254 1258.01360366384
5.03265 1299.04326397995
5.05277 1217.08961188311
5.07288 1206.02154323037
5.09299 1156.01804282286
5.11311 1155.00680159717
5.13322 1143.94575109469
5.15334 1069.89908427663
5.17345 1057.99946528757
5.19356 1067.90973753989
5.21368 1110.02532174877
5.23379 1040.01354470484
5.2539 1062
5.27402 1007.97052010499
5.29413 1013.97692752881
5.31425 993.11550628721
5.33436 1071.99305419808
5.35447 970.193658928446
5.37459 922.965916292782
5.3947 1020
5.41481 931.968703291608
5.43493 944.027566654865
5.45504 921.917878697421
5.47516 892.018121659093
5.49527 892.017761658778
5.51538 867.018091994565
5.5355 867
5.55561 858.978028371617
5.57572 814.008036206208
5.59584 860.02996449765
5.61595 817.146568367254
5.63606 786.002239630496
5.65618 797.993902346929
5.67629 789.007141393428
5.69641 770.985221300566
5.71652 752.022094200236
5.73663 802.050854534755
5.75675 791.903452238656
5.77686 760.009150108869
5.79697 773.994681536636
5.81709 745.027117043202
5.8372 707
5.85732 745.000200538463
5.87743 703.964710933705
5.89754 732.110912112614
5.91766 758.074348878839
5.93777 681.088798169857
5.95788 680.95616185966
5.978 712
5.99811 650.980993625826
6.01823 665.053617160209
6.03834 675.939073406215
6.05845 633.022897817693
6.07857 674.903622223623
6.09868 717.994226242721
6.11879 688.024160988219
6.13891 652.996780470002
6.15902 654.975596680825
6.17913 619.003703706071
6.19925 640.932270549252
6.21936 592.943590150369
6.23948 679.969233921826
6.25959 627.024743668787
6.2797 629
6.29982 633.007632751814
6.31993 635.963140998449
6.34004 611.049804197099
6.36016 658.019143137128
6.38027 595.051957294392
6.40039 605.005213831044
6.4205 579
6.44061 654.021153145953
6.46073 633.94928628743
6.48084 636.078852283655
6.50095 668.05614803488
6.52107 603.072157998256
6.54118 599.988288222417
6.56129 597.008348019975
6.58141 597.023097838587
6.60152 645.97819611295
6.62164 577.968132908884
6.64175 621.029130868411
6.66186 577.066927774223
6.68198 581.994052864991
6.70209 572.002634030237
6.7222 571
6.74232 544.995608206054
6.76243 582.102544671049
6.78255 638.021323773037
6.80266 603.079429625655
6.82277 572.069613521537
6.84289 522.00815110605
6.863 552
6.88311 597.016397082208
6.90323 603.958168139385
6.92334 573.014004661496
6.94346 604.994553789368
6.96357 565.062855241828
6.98368 549.999356244885
7.0038 559
7.02391 575.995782218578
7.04402 550.988468398609
7.06414 576.109512794027
7.08425 612.063920230121
7.10436 553.042656615711
7.12448 586.964296825333
7.14459 586.011492039285
7.16471 564.995318765824
7.18482 567.00375509342
7.20493 557.960088438987
7.22505 527.965508191502
7.24516 536.96175799517
7.26527 543.026847021268
7.28539 528.985619175542
7.3055 571
7.32562 515.987222993987
7.34573 564.066427223369
7.36584 581.058987178815
7.38596 607.068000098113
7.40607 536.041909283611
7.42618 578.938290149886
7.4463 582
7.46641 510.029515639043
7.48653 636.010133027653
7.50664 515.861250564438
7.52675 554.927715114956
7.54687 525.028544355526
7.56698 544.982764138188
7.58709 540.002546274357
7.60721 551.010523578542
7.62732 583.049283401968
7.64743 612.950249416347
7.66755 544.924029315499
7.68766 560.006336137863
7.70778 520.031329095121
7.72789 531.977579928594
7.748 574
7.76812 560.989489001967
7.78823 560.985377222456
7.80834 543.997373747154
7.82846 557.988060545523
7.84857 545.029441251718
7.86869 535.996556402942
7.8888 543
7.90891 512.990114651106
7.92903 525.059098517394
7.94914 548.939217484482
7.96925 490.054830617012
7.98937 527.916517314298
8.00948 550.021639726519
8.0296 517
8.04971 548.011216804185
8.06982 534.965575139185
8.08994 512.015694821915
8.11005 536.015703455075
8.13016 536.917371838813
8.15028 581.037442668542
8.17039 487.020196071918
8.1905 528
8.21062 522.985226138169
8.23073 536.063723826056
8.25085 572.985280932377
8.27096 536.037728913608
8.29107 556.949364343933
8.31119 573.002876220006
8.3313 560
8.35141 555.980934060828
8.37153 506.994085414071
8.39164 552.084842717762
8.41176 563.991621061508
8.43187 565.030962922957
8.45198 533.013996249657
8.4721 535
8.49221 513.003244375753
8.51232 538.999095255446
8.53244 504.946170737417
8.55255 523.841337506243
8.57266 578.01841522685
8.59278 527.016969450181
8.61289 563.982439718906
8.63301 560.988992456484
8.65312 540.98431778277
8.67323 523.961445541109
8.69335 513.087529847473
8.71346 566.972466973479
8.73357 538.023803877707
8.75369 549.002103434516
8.7738 519
8.79392 523.022666319261
8.81403 544.01195712784
8.83414 535.96824055841
8.85426 530.966568537798
8.87437 559.968981760391
8.89448 566.991878593487
8.9146 573
8.93471 549.999330327552
8.95483 577.047628630045
8.97494 588.981236297677
8.99505 560.111517638753
9.01517 533.96406727183
9.03528 569.024671755385
9.05539 509.998296257896
9.07551 563.997924168427
9.09562 499.983091760834
9.11573 544.018637452191
9.13585 509.991855580492
9.15596 543.998688493522
9.17608 503.020272665692
9.19619 530.97924189417
9.2163 547
9.23642 530.013530265465
9.25653 551.963091643705
9.27664 488.924275466278
9.29676 503.934613158196
9.31687 523.982637235862
9.33699 535.991709382817
9.3571 549
9.37721 524.981858526185
9.39733 492.971915228815
9.41744 484.983756567682
9.43755 488.902335399486
9.45767 542.9629029677
9.47778 530.015346446508
9.4979 523
9.51801 490.995599609042
9.53812 514.031501108641
9.55824 532.010261002357
9.57835 540.063899603707
9.59846 560.047571326769
9.61858 506.031955956182
9.63869 509.998877523794
9.6588 498
9.67892 515.016277836842
9.69903 511.966210473256
9.71915 491.005397958062
9.73926 515.948615647736
9.75937 518.036727022706
9.77949 500.986176741476
9.7996 554
9.81971 525.980991429418
9.83983 514.017266396132
9.85994 523.97209931641
9.88006 494.030326198777
9.90017 498.004113551116
9.92028 485.9976803797
9.9404 512
9.96051 543.013588511454
9.98062 543.951582776977
10.00074 477.944714223001
10.02085 499.930951579972
10.04097 502.016716280207
10.06108 497.988937015948
10.08119 516.994205352663
10.10131 508.987715364672
10.12142 490.006118827069
10.14153 511.009251554535
10.16165 498.989851764646
10.18176 518.932502888663
10.20187 541.008580702739
10.22199 515.011284338852
10.2421 507
10.26222 513.038581098871
10.28233 541.933473363461
10.30244 462.978292706161
10.32256 525.920779060677
10.34267 511.006986032033
10.36278 534.994262051263
10.3829 520
10.40301 540.988659343232
10.42313 488.984158582148
10.44324 535.095046639626
10.46335 540.068261714456
10.48347 515.992757550503
10.50358 537.001172222532
10.52369 516.000005533336
10.54381 539.003548578435
10.56392 523.995406627242
10.58403 523.949804474174
10.60415 476.995052680731
10.62426 518.947234613258
10.64438 511.002250453707
10.66449 523.002725327403
10.6846 511
10.70472 558.013443723983
10.72483 535.994749554513
10.74494 551.965635998623
10.76506 509.016135389843
10.78517 537.988054300056
10.80529 523.98938767787
10.8254 578
10.84551 555.984183845394
10.86563 545.002416660779
10.88574 550.014641166022
10.90585 541.106408946278
10.92597 509.934428083531
10.94608 582.010410164724
10.9662 493
10.98631 527.027722473347
11.00642 543.982604999922
11.02654 539.100016878394
11.04665 599.046689015899
11.06676 514.10014463221
11.08688 532.978648039649
11.10699 523.004250469113
11.1271 522
11.14722 495.005726931623
11.16733 530.032044800336
11.18745 533.055327631648
11.20756 566.005109635904
11.22767 525.053954939461
11.24779 527.983566444812
11.2679 555
11.28801 537.009133411578
11.30813 591.060794824659
11.32824 592.972932735218
11.34836 580.038165364212
11.36847 561.008177850783
11.38858 581.95329856381
11.4087 611
11.42881 547.990401524666
11.44892 594.0584765686
11.46904 614.970248986117
11.48915 581.093615056836
11.50927 557.012183267679
11.52938 571.957099393396
11.54949 619.987776571756
11.56961 609.986407203153
11.58972 598.018694984227
11.60983 628.009349114273
11.62995 604.942598872175
11.65006 606.954167501019
11.67017 643.928459681019
11.69029 676.003884769487
11.7104 642
11.73052 637.984211154715
11.75063 612.998465151568
11.77074 641.058161461818
11.79086 656.968426319712
11.81097 668.017847129285
11.83108 660.956132424669
11.8512 713
11.87131 646.014823329715
11.89143 747.018845425523
11.91154 664.951752531938
11.93165 735.873416698368
11.95177 726.990159600797
11.97188 769.975516360364
11.99199 746.02381204837
12.01211 723.012910598896
12.03222 788.069828100467
12.05234 823.992383717014
12.07245 781.817618549504
12.09256 727.981141180419
12.11268 796.919531965406
12.13279 841.995527715002
12.1529 847
12.17302 883.98388021567
12.19313 822.939121391721
12.21324 839.089063828074
12.23336 873.971262939727
12.25347 866.032738317372
12.27359 852.994838941182
12.2937 882
12.31381 898.005531308442
12.33393 916.043557807967
12.35404 925.912566479724
12.37415 842.185518467053
12.39427 805.029792002211
12.41438 793.98978717857
12.4345 793
12.45461 712.987892625756
12.47472 739.995741734998
12.49484 698.998608605096
12.51495 749.908577977008
12.53506 735.07651102405
12.55518 692.056498100638
12.57529 656.984280509196
12.5954 716
12.61552 639.909062293432
12.63563 597.009905269881
12.65575 623.035046376244
12.67586 605.077298814319
12.69597 573.012818252421
12.71609 584.993539747354
12.7362 593
12.75631 609.997762553157
12.77643 579.943720878741
12.79654 569.064643246811
12.81666 592.111601050063
12.83677 501.018258753463
12.85688 562.982765263664
12.877 507
12.89711 523.008738179355
12.91722 518.001357723529
12.93734 538.043908321652
12.95745 530.132733441814
12.97757 476.987194440945
12.99768 534.966612106695
13.01779 514.015725386874
13.03791 495.988007984373
13.05802 474.00797366479
13.07813 513.064527463121
13.09825 518.885099859747
13.11836 472.957058822925
13.13847 533.992207354381
13.15859 476.016360201218
13.1787 498
13.19882 480.974712890924
13.21893 472.008106266615
13.23904 480.001486899335
13.25916 473.010686193499
13.27927 478.973505173999
13.29938 496.993738554463
13.3195 478
13.33961 447.013516017198
13.35973 495.986828282291
13.37984 446.009281543695
13.39995 503.965423002847
13.42007 444.098834624796
13.44018 432.962269654136
13.46029 482.984424812116
13.48041 492.006929501422
13.50052 510.997035299348
13.52064 486.965930420394
13.54075 491.029035204004
13.56086 494.017004347792
13.58098 487.986612824427
13.60109 531.965869341973
13.6212 585
13.64132 546.964363599897
13.66143 554.070795958425
13.68154 588.944533039492
13.70166 512.121868668323
13.72177 507.954488580763
13.74189 525.010910100043
13.762 487
13.78211 506.995313430428
13.80223 475.010936994453
13.82234 509.978972285568
13.84245 456.054051672737
13.86257 481.979666479487
13.88268 466.002642673986
13.9028 483
13.92291 465.000044970377
13.94302 475.978892537758
13.96314 429.959482721406
13.98325 441.998105725914
14.00336 429.965342322562
14.02348 466.995794113925
14.04359 430.016990216811
14.06371 434.016605018067
14.08382 454.975707251153
14.10393 411.997208408167
14.12405 455.080232787712
14.14416 447.044233164463
14.16427 438.987244431655
14.18439 444.010482640891
14.2045 424
14.22461 482.005882724703
14.24473 443.972829368047
14.26484 466.026570416559
14.28496 448.045800553046
14.30507 443.980931161404
14.32518 460.98925618483
14.3453 455
14.36541 443.013402927272
14.38552 481.996217388114
14.40564 444.988260076124
14.42575 466.050882523135
14.44587 413.01200473903
14.46598 453.983814030714
14.48609 427.007387518391
14.50621 444.006503804488
14.52632 438.998478339794
14.54643 442.985185700443
14.56655 422.982954851148
14.58666 436.961638416873
14.60677 440.028805920735
14.62689 413.006917330618
14.647 418
14.66712 417.993354534882
14.68723 417.022157360556
14.70734 441.032634627473
14.72746 434.058365243581
14.74757 407.001551790417
14.76768 426.987791535948
14.7878 421
14.80791 418.993842623063
14.82803 400.99324169048
14.84814 417.049082018901
14.86825 442.92163944594
14.88837 459.03732909215
14.90848 420.99719424561
14.92859 460.990302014065
14.94871 440.989695838432
14.96882 441.003436074694
14.98894 433.971850296382
15.00905 417.960419776237
15.02916 413.964597791108
15.04928 449.959470765588
15.06939 480.989920144716
15.0895 476
15.10962 433.01076503194
15.12973 486.045913060232
15.14984 465.929879845199
15.16996 463.912388837635
15.19007 512.999723139173
15.21019 467.01756401919
15.2303 462
15.25041 438.999554482159
15.27053 468.050168221217
15.29064 471.930854073474
15.31075 434.983763694639
15.33087 473.977951567055
15.35098 447.029245263101
15.3711 443
15.39121 448.998148104125
15.41132 433.97819726174
15.43144 421.014755548329
15.45155 435.011825011034
15.47166 431.911467914881
15.49178 494.993730185584
15.51189 432.034517878064
15.53201 416.017047246771
15.55212 459.013252871366
15.57223 438.972037154292
15.59235 441.019264395559
15.61246 435.047962000911
15.63257 412.992961530089
15.65269 443.984085697617
15.6728 439
15.69291 384.003416371496
15.71303 444.063197782233
15.73314 435.958901422033
15.75326 418.074509595261
15.77337 393.933324376039
15.79348 463.006698957579
15.8136 391
15.83371 444.027254973319
15.85382 437.94817579755
15.87394 388.977176997309
15.89405 420.88383365276
15.91417 443.020182831983
15.93428 424.980474259435
15.95439 462.004062431711
15.97451 406.979706921973
15.99462 410.015429079306
16.01473 418.017536114685
16.03485 432.008731818419
16.05496 431.968065839607
16.07508 454.00179902288
16.09519 433.002834424405
16.1153 447
16.13542 423.964646527208
16.15553 405.018873756857
16.17564 435.036112815079
16.19576 433.002582655147
16.21587 444.974725874474
16.23598 441.042192868318
16.2561 397
16.27621 447.012326395437
16.29633 432.999855846623
16.31644 462.04153437651
16.33655 453.057941985485
16.35667 428.04425540531
16.37678 400.01699552439
16.39689 403.987118038184
16.41701 435.009168719666
16.43712 428.975429335465
16.45724 401.962818141821
16.47735 403.053780185892
16.49746 427.980013549387
16.51758 426.990094778329
16.53769 434.015865932929
16.5578 381
16.57792 413.049768614987
16.59803 434.973231369573
16.61814 406.001068956196
16.63826 432.980821134727
16.65837 410.04060250596
16.67849 411.982022534792
16.6986 445
16.71871 402.993375740385
16.73883 428.022079820549
16.75894 417.997848876889
16.77905 429.018587978026
16.79917 407.002906217383
16.81928 428.984981069784
16.8394 428
16.85951 436.995206030793
16.87962 424.021784799692
16.89974 472.054122379971
16.91985 454.100847683635
16.93996 429.982086531513
16.96008 448.013719341495
16.98019 402.018748223811
17.00031 397.005720858691
17.02042 396.976745921291
17.04053 379.041748638975
17.06065 448.161297633384
17.08076 455.118228683075
17.10087 385.024450307061
17.12099 425.981386430131
17.1411 420
17.16121 410.013892677942
17.18133 453.023332219178
17.20144 435.974607389292
17.22156 449.947818082516
17.24167 462.021177226088
17.26178 430.029111345487
17.2819 422
17.30201 436.001242551462
17.32212 424.987849481822
17.34224 432.068555911206
17.36235 459.058801918239
17.38247 403.040145225207
17.40258 432.947332989659
17.42269 461.005417668085
17.44281 435.999888279041
17.46292 449.978961834862
17.48303 412.018910272309
17.50315 464.031820412587
17.52326 425.04939845614
17.54338 435.997410980759
17.56349 419.001770007886
17.5836 436
17.60372 423.972310289578
17.62383 413.045957089596
17.64394 468.073497369622
17.66406 456.098251834984
17.68417 421.966353091068
17.70428 471.993255517154
17.7244 430
17.74451 445.006820772298
17.76463 437.991731094415
17.78474 450.046928023016
17.80485 466.012156186344
17.82497 452.99277240053
17.84508 463.023470928223
17.86519 425.995681001741
17.88531 461.992867399665
17.90542 408.997509646259
17.92554 462.048987622862
17.94565 435.961351887364
17.96576 451.985034585366
17.98588 452.963718843259
18.00599 500.004736841034
18.0261 443
18.04622 451.978430502066
18.06633 397.969665631093
18.08645 429.085468770342
18.10656 439.982852186817
18.12667 454.986757726674
18.14679 445.014439133086
18.1669 420
18.18701 442.005409886471
18.20713 429.976357259139
18.22724 430.033020239366
18.24735 451.962031484618
18.26747 442.062371481504
18.28758 399.006870696107
18.3077 434
18.32781 451.992595112002
18.34792 431.005316246857
18.36804 459.029112380794
18.38815 464.906009122704
18.40826 503.067711065897
18.42838 425.020768049903
18.44849 467.993914013325
18.46861 428.992080076166
18.48872 449.997627903576
18.50883 410.957098382213
18.52895 427.121065144694
18.54906 465.008282336148
18.56917 422.070689018713
18.58929 405.991762313916
18.6094 439
18.62951 457.004153564566
18.64963 457.987401739404
18.66974 447.996775714913
18.68986 452.006092382381
18.70997 437.028513612202
18.73008 439.956779657696
18.7502 491
18.77031 445.973158171025
18.79042 436.043602974203
18.81054 480.967547556032
18.83065 429.991277345138
18.85077 481.992096912512
18.87088 429.027168911521
18.89099 459.981233003727
18.91111 464.992235777937
18.93122 460.024633415229
18.95133 491.996502570034
18.97145 474.065850900669
18.99156 527.991427770503
19.01168 473.046711186306
19.03179 468.996799105403
19.0519 460
19.07202 454.019803922212
19.09213 482.006396829452
19.11224 476.057355660324
19.13236 518.023485224201
19.15247 459.049062638438
19.17258 481.965207632123
19.1927 498
19.21281 503.995578570761
19.23293 486.988884545152
19.25304 498.041448620595
19.27315 501.083898252373
19.29327 464.977376163319
19.31338 510.000270461298
19.33349 459.015816963287
19.35361 482.021579983078
19.37372 504.996202881752
19.39384 500.051491360415
19.41395 552.103651994409
19.43406 561.019459581844
19.45418 552.002787619122
19.47429 566.980630500253
19.4944 588
19.51452 527.021128576171
19.53463 624.102362380909
19.55475 615.927635260102
19.57486 602.035806257816
19.59497 592.951770234496
19.61509 651.980907134882
19.6352 666
19.65531 707.998403113311
19.67543 687.063661489071
19.69554 781.103767102101
19.71565 777.946826363626
19.73577 840.937701560056
19.75588 845.98422932395
19.776 900
19.79611 965.026897947011
19.81622 981.958084489368
19.83634 948.126320157298
19.85645 1080.79071883267
19.87656 1077.02770004542
19.89668 1094.98661008662
19.91679 1101.9825431896
19.93691 1126.97115871765
19.95702 1025.96879193845
19.97713 1080.06405057103
19.99725 1083.07583021442
20.01736 1124.06534541716
20.03747 1023.11822529759
20.05759 1015.9873977535
20.0777 1043
20.09782 1053.93791666709
20.11793 977.020377652751
20.13804 1056.02874159458
20.15816 992.051868941547
20.17827 1020.02665711741
20.19838 966.977229620451
20.2185 1043
20.23861 960.989971194208
20.25872 1024.0289385707
20.27884 968.85556572718
20.29895 930.050258359482
20.31907 915.011880872991
20.33918 938.921487150801
20.35929 1009.01288267669
20.37941 920.985595648968
20.39952 950.96813178052
20.41963 872.014566771505
20.43975 965.088688676269
20.45986 900.135794646969
20.47998 900.95475442095
20.50009 940.995466532953
20.5202 903
20.54032 852.027225105933
20.56043 927.057803521204
20.58054 890.868996492447
20.60066 849.017917407358
20.62077 869.941248639839
20.64088 910.962751014627
20.661 913
20.68111 857.02039126176
20.70123 958.046588621686
20.72134 889.865195851105
20.74145 898.844445236839
20.76157 962.945366471322
20.78168 989.936093337953
20.80179 1081.96851618216
20.82191 1100.00634179347
20.84202 1111.97589025732
20.86214 1052.88653430044
20.88225 1016.91914861725
20.90236 982.050724543163
20.92248 974.991176346911
20.94259 985.999038157025
20.9627 966
20.98282 924.989482861043
21.00293 957.088211033034
21.02305 980.855651611493
21.04316 904.96593639115
21.06327 1002.9164007978
21.08339 964.031644652459
21.1035 934
21.12361 921.985721958315
21.14373 904.049710511367
21.16384 955.995530923709
21.18395 888.178351150418
21.20407 868.957546737591
21.22418 905.988472551888
21.2443 884
21.26441 866.994984327499
21.28452 870.027836806326
21.30464 889.9345887482
21.32475 828.054976245319
21.34486 869.877590192252
21.36498 898.013894644509
21.38509 858.020604656656
21.40521 833.99384710155
21.42532 815.965031202903
21.44543 790.031279387129
21.46555 843.081120347427
21.48566 834.03888581833
21.50577 843.927803243524
21.52589 899.988176581533
21.546 886
21.56612 890.015632176905
21.58623 909.035126495217
21.60634 909.900556452745
21.62646 828.130921548239
21.64657 809.979148372127
21.66668 835.966488648992
21.6868 849
21.70691 800.99415817052
21.72702 828.015729437665
21.74714 813.97487675409
21.76725 811.040150362525
21.78737 783.023254924869
21.80748 787.990700618769
21.82759 791.99741998331
21.84771 796.998457349102
21.86782 790.001195603995
21.88793 801.015448551329
21.90805 796.946015775269
21.92816 779.973179733321
21.94828 807.999109342457
21.96839 782.005434740383
21.9885 785
22.00862 757.040809662883
22.02873 829.996227571234
22.04884 735.811591270126
22.06896 702.004526040916
22.08907 715.933756032075
22.10919 756.00670599861
22.1293 700
22.14941 711.015843250561
22.16953 728.996858981783
22.18964 706.92915017969
22.20975 671.0722579159
22.22987 675.911741004825
22.24998 745.982934403495
22.27009 700.027565263464
22.29021 671.991292848021
22.31032 659.0023911436
22.33044 677.045729461749
22.35055 699.063886670067
22.37066 701.106538435158
22.39078 631.015337660143
22.41089 661.002525396509
22.431 616
22.45112 677.089380540567
22.47123 726.974143299372
22.49135 667.88072211564
22.51146 665.947648446253
22.53157 691.977743199798
22.55169 693.002411011101
22.5718 698
22.59191 716.993438592261
22.61203 686.995877568948
22.63214 717.048843289775
22.65225 714.035831064534
22.67237 697.040249274934
22.69248 672.003658178293
22.7126 684
22.73271 690.023645998544
22.75282 723.927670858483
22.77294 611.012004811951
22.79305 741.747026568965
22.81316 732.100230340424
22.83328 709.99606601611
22.85339 719.002282415342
22.87351 703.998235869974
22.89362 704.976916349132
22.91373 679.031781187794
22.93385 727.010621429102
22.95396 690.010843983539
22.97407 722.991606932975
22.99419 690.008323424037
23.0143 708
23.03442 699.981611519287
23.05453 683.978569437636
23.07464 678.01983914014
23.09476 702.937937713022
23.11487 722.004454569663
23.13498 710.995117244517
23.1551 731
23.17521 703.96669275902
23.19532 654.026463500297
23.21544 721.023452776724
23.23555 651.204352196679
23.25567 633.916191564761
23.27578 719.936329349259
23.29589 725.019363697184
23.31601 683.991966148763
23.33612 694.010552957369
23.35623 691.996521721226
23.37635 688.959448808376
23.39646 684.907838868125
23.41658 738.021943896803
23.43669 670.99986912319
23.4568 766
23.47692 800.9705346461
23.49703 759.993343600651
23.51714 799.083224856347
23.53726 818.972389608803
23.55737 849.917561020303
23.57749 903.990042247576
23.5976 883
23.61771 873.015861181943
23.63783 912.998006044429
23.65794 895.078032179549
23.67805 960.036721372084
23.69817 875.059987125185
23.71828 901.998854907617
23.73839 842.031445089574
23.75851 816.998348123441
23.77862 819.007437208406
23.79874 807.893164455937
23.81885 744.96269088754
23.83896 775.964678163445
23.85908 757.019918532498
23.87919 760.991379240928
23.8993 764
23.91942 738.026969329674
23.93953 783.970304431834
23.95965 724.025205632354
23.97976 787.022892821987
23.99987 689.103319012223
24.01999 704.979126475279
24.0401 738
24.06021 777.992040992756
24.08033 726.974156479328
24.10044 755.033196078263
24.12056 746.979029467727
24.14067 770.02074999285
24.16078 730.005601313958
24.1809 762
24.20101 737.990484147295
24.22112 750.028287804415
24.24124 756.924984980694
24.26135 717.934319193329
24.28146 786.955934360683
24.30158 742.042078994687
24.32169 747.985075627702
24.34181 760.989652094094
24.36192 741.032041355641
24.38203 797.000265228745
24.40215 744.946928738702
24.42226 759.056614289068
24.44237 713.936903765365
24.46249 816.98380700347
24.4826 768
24.50272 827.038653001426
24.52283 788.87688423399
24.54294 758.167718568055
24.56306 883.9413379237
24.58317 823.012395510816
24.60328 917.895403905458
24.6234 943
24.64351 874.98733761687
24.66362 895.010025012553
24.68374 875.976173403215
24.70385 895.899106131833
24.72397 920.027493486488
24.74408 868.050276530294
24.76419 850.993295708271
24.78431 873.005731235824
24.80442 877.018317491635
24.82453 918.074576977869
24.84465 943.956659321192
24.86476 876.2100147331
24.88488 801.985733248816
24.90499 867.988199090778
24.9251 832
24.94522 866.046452199581
24.96533 877.95547804563
24.98544 843.006922529026
25.00556 868.028035029842
25.02567 813.0554556233
25.04579 807.010209379519
25.0659 781
25.08601 840.013196231949
25.10613 812.950027591863
25.12624 819.088891568527
25.14635 847.107271724619
25.16647 764.055359672701
25.18658 786.988959428313
25.20669 766.000592409413
25.22681 780.987841157679
25.24692 749.047651165174
25.26704 831.972228855898
25.28715 725.84509105528
25.30726 761.894376078952
25.32738 767.02678098527
25.34749 727.024986273761
25.3676 692
25.38772 713.999823624914
25.40783 689.987617950185
25.42795 713.076086814585
25.44806 724.024199672653
25.46817 700.031487013898
25.48829 698.989313112479
25.5084 714
25.52851 672.996098290531
25.54863 717.094657130034
25.56874 764.053888910888
25.58886 758.096782546152
25.60897 709.991801356962
25.62908 750.99479064455
25.6492 733
25.66931 815.0076896767
25.68942 740.919478091724
25.70954 736.14250693445
25.72965 827.864039183961
25.74976 831.012037927484
25.76988 846.973623462597
25.78999 853.016924174076
25.81011 787.96651469795
25.83022 737.958528132403
25.85033 722.053954799321
25.87045 768.97571960173
25.89056 687.201893389156
25.91067 627.014489613965
25.93079 654.978175190498
25.9509 682
25.97102 658.97164921403
25.99113 644.001316447616
26.01124 646.978158166276
26.03136 612.1044768606
26.05147 585.94281252662
26.07158 645.9992156051
26.0917 586
26.11181 607.023184593296
26.13193 644.042727482919
26.15204 636.858024055225
26.17215 562.964887646369
26.19227 660.870042698985
26.21238 669.043967947165
26.23249 616.022424596872
26.25261 603.013174722617
26.27272 640.011112317975
26.29283 633.027951092071
26.31295 660.94278747894
26.33306 613.967711570263
26.35318 667.023616120216
26.37329 599.98156917521
26.3934 722
26.41352 649.952268988463
26.43363 693.097322745494
26.45374 741.119618182196
26.47386 811.899579203209
26.49397 832.98029140858
26.51409 883.943932390336
26.5342 1049
26.55431 1219.07809608181
26.57443 1391.31994954619
26.59454 1593.21417055091
26.61465 1602.03119785253
26.63477 1611.00618395144
26.65488 1551.12305250544
26.67499 1390.08151481025
26.69511 1243.92937834758
26.71522 1092.84139317463
26.73534 956.838176486101
26.75545 905.811293513818
26.77556 793.21072682819
26.79568 739.000301110148
26.81579 758.997609368944
26.8359 742
26.85602 754.019606201901
26.87613 745.914813876778
26.89625 687.018664793203
26.91636 752.904815065762
26.93647 751.010821190757
26.95659 766.988493646871
26.9767 782
26.99681 793.011987273108
27.01693 799.925111654325
27.03704 729.9747382208
27.05716 792.84208106417
27.07727 814.079301760387
27.09738 751.989409340827
27.1175 814
27.13761 758.985047780171
27.15772 794.050081239432
27.17784 795.879594034105
27.19795 734.962804418003
27.21806 801.962209100808
27.23818 754.033041045154
27.25829 769.99115980488
27.27841 764.997580769001
27.29852 786.049534048527
27.31863 838.036998067064
27.33875 831.972160594183
27.35886 848.89521227031
27.37897 938.819104964602
27.39909 1046.97196337687
27.4192 1082
27.43932 1171.98842962646
27.45943 1089.98128409168
27.47954 1181.17833340936
27.49966 1178.1626716961
27.51977 1075.12046902762
27.53988 1035.02453227763
27.56 1010
27.58011 1012.0092395708
27.60023 1021.96624635579
27.62034 1004.09514558731
27.64045 1079.98767037875
27.66057 1017.04309935642
27.68068 1063.93810600994
27.70079 1079.0168829712
27.72091 1031.98891181846
27.74102 1042.01214474027
27.76113 1042.00509540973
27.78125 1029.84580913761
27.80136 940.120790412215
27.82148 910.054004182757
27.84159 835.01846199755
27.8617 840
27.88182 791.938000832918
27.90193 740.939856443097
27.92204 709.955385836545
27.94216 695.015485987194
27.96227 674.080831370064
27.98239 608.01807036256
28.0025 610
28.02261 618.01830459779
28.04273 650.95280175086
28.06284 582.968677697427
28.08295 619.996097107114
28.10307 571.03931060501
28.12318 585.001404241383
28.1433 555
28.16341 579.023379173047
28.18352 599.963015599478
28.20364 538.963274469189
28.22375 575.09111784621
28.24386 581.004434923149
28.26398 579.015871562757
28.28409 566.988019019176
28.3042 608
28.32432 569.959062751143
28.34443 563.034690465773
28.36455 576.923300727608
28.38466 522.045027965444
28.40477 544.961560292131
28.42489 540.013095739136
28.445 533
28.46511 596.00985135574
28.48523 554.914939045709
28.50534 525.996684988402
28.52546 548.909663753787
28.54557 578.036008039423
28.56568 518.041261735778
28.5858 519
28.60591 526.006984167463
28.62602 538.991047193459
28.64614 521.013747164767
28.66625 540.038764510034
28.68636 495.044748538553
28.70648 511.978937630739
28.72659 522.989166661802
28.74671 551.004317296143
28.76682 530.96757462916
28.78693 505.98013049682
28.80705 504.012292219368
28.82716 508.994988487123
28.84727 517.959868152336
28.86739 546.998114886663
28.8875 521
28.90762 489.957360502519
28.92773 464.049917291672
28.94784 542.130383769102
28.96796 552.063014681881
28.98807 516.025560381935
29.00818 521.99006463529
29.0283 519
29.04841 504.997168251088
29.06853 501.978477839911
29.08864 485.006593735786
29.10875 506.960185327266
29.12887 509.98874411978
29.14898 524.992244379204
29.16909 515.011771226731
29.18921 488.989499039229
29.20932 480.003113240784
29.22943 498.053248325055
29.24955 525.980450307735
29.26966 499.99658831822
29.28978 527.992956159538
29.30989 507.004443418147
29.33 516
29.35012 505.032393724724
29.37023 567.04535739074
29.39034 524.811661522528
29.41046 459.945085285136
29.43057 539.955328868676
29.45069 502.010328683012
29.4708 518
29.49091 468.986667239922
29.51103 491.058502697341
29.53114 510.991857310717
29.55125 502.967494158108
29.57137 524.013794297695
29.59148 495.996900293685
29.6116 533
29.63171 524.994812382438
29.65182 531.012135686461
29.67194 539.007223572113
29.69205 537.985652149453
29.71216 534.985239449193
29.73228 556.967094153567
29.75239 584.994900324973
29.7725 578
29.79262 578.012790435797
29.81273 607.069683694516
29.83285 638.958501482657
29.85296 594.037470537687
29.87307 613.974194432419
29.89319 611.998129779678
29.9133 623
29.93341 597.987822027528
29.95353 597.037786655442
29.97364 643.116221134056
29.99376 664.115303177097
30.01387 577.037040441986
30.03398 623.963559706319
30.0541 609
30.07421 590.983376457418
30.09432 560.012133806586
30.11444 600.023448445071
30.13455 579.005856109082
30.15467 602.9902634357
30.17478 572.044336374745
30.19489 557.981729453459
30.21501 608.002716688746
30.23512 562.956465644087
30.25523 553.00701588713
30.27535 549.965025620688
30.29546 544.945424203133
30.31557 586.977109577111
30.33569 568.009697708876
30.3558 559
30.37592 537.011811930015
30.39603 572.01943219595
30.41614 560.009623069647
30.43626 578.028657726807
30.45637 546.979569372609
30.47648 592.995738310059
30.4966 554
30.51671 574.989974427829
30.53683 527.013598223182
30.55694 589.052239935484
30.57705 550.111503109915
30.59717 547.955099756002
30.61728 581.979838788735
30.63739 577.011956225654
30.65751 549.990015532489
30.67762 554.035209328899
30.69773 599.038234655947
30.71785 596.977436871204
30.73796 595.996657629887
30.75808 609.958839356274
30.77819 644.011569949719
30.7983 599
30.81842 664.007802685129
30.83853 603.946779984509
30.85864 622.018270857396
30.87876 586.108628807679
30.89887 552.996328730545
30.91899 578.98833294535
30.9391 578
30.95921 561.003833437931
30.97933 573.967817925909
30.99944 525.946784703146
31.01955 547.874944383394
31.03967 568.072267925901
31.05978 492.023987463259
31.0799 539
31.10001 561.000512988305
31.12012 554.986436806251
31.14024 535.957129669579
31.16035 521.005053986868
31.18046 523.018209427514
31.20058 509.994274957065
31.22069 516.017380969765
31.2408 454
31.26092 466.020399428711
31.28103 468.995187356218
31.30115 467.995994133842
31.32126 492.838577201713
31.34137 569.030156989962
31.36149 480.019119326691
31.3816 509
31.40171 456.996988670873
31.42183 512.05892710931
31.44194 489.893823288425
31.46206 457.975846165303
31.48217 484.019079816624
31.50228 454.969873971005
31.5224 532
31.54251 498.980353019444
31.56262 489.99679208763
31.58274 492.062576442371
31.60285 520.080943111158
31.62297 450.040595684256
31.64308 493.937387426994
31.66319 512.019164704335
31.68331 461.99770055964
31.70342 496.009112365809
31.72353 475.010175917217
31.74365 504.976970010501
31.76376 462.017361435749
31.78387 493.983043259817
31.80399 471.004708220312
31.8241 493
31.84422 492.981538576358
31.86433 471.981637502697
31.88444 479.051555036371
31.90456 494.050394687683
31.92467 464.950423597802
31.94478 541.96422263519
31.9649 499
31.98501 464.014497479377
32.00513 525.05406994925
32.02524 515.963312424833
32.04535 503.070260337454
32.06547 485.937790418996
32.08558 555.979994178369
32.10569 506.030734123779
32.12581 494.020427646822
32.14592 543.008495513259
32.16604 513.96933705809
32.18615 520.968573922436
32.20626 480.071050914481
32.22638 483.955476893576
32.24649 544.974380915063
32.2666 562
32.28672 526.96150555745
32.30683 507.009756746564
32.32694 544.126965073791
32.34706 606.925284169784
32.36717 615.002592880358
32.38729 598.028619311844
32.4074 545
32.42751 622.020738649379
32.44763 586.906104495104
32.46774 557.030111296664
32.48785 583.023870204665
32.50797 538.05029999675
32.52808 541.978845414184
32.5482 558
32.56831 550.98576486605
32.58842 531.024766881515
32.60854 569.972379769765
32.62865 526.953700272971
32.64876 589.00711592102
32.66888 516.036257116521
32.68899 548.985498233549
32.7091 534
32.72922 522.99748079147
32.74933 534.054229423886
32.76945 568.988124294639
32.78956 530.057902641287
32.80967 533.975526846506
32.82979 553.982369720327
32.8499 583
32.87001 545.992701837511
32.89013 574.064156519917
32.91024 596.991283961149
32.93036 582.002864506301
32.95047 593.002632237721
32.97058 572.021266176742
32.9907 575
33.01081 620.016113606078
33.03092 623.984203953253
33.05104 604.972287940494
33.07115 604.963764278828
33.09127 615.021380621594
33.11138 586.014015088205
33.13149 593.996235890276
33.15161 599.011364207596
33.17172 634.021008611524
33.19183 632.991915666645
33.21195 626.949059149679
33.23206 608.969453644508
33.25217 636.020558128129
33.27229 585.015851540359
33.2924 583
33.31252 546.989108464976
33.33263 571.038505983561
33.35274 573.977351401209
33.37286 547.103224346754
33.39297 506.972839433156
33.41308 556.991405600549
33.4332 516
33.45331 532.009078731122
33.47343 526.978189687361
33.49354 524.032362974865
33.51365 545.984046519176
33.53377 532.026903962886
33.55388 521.009243218318
33.57399 510.005383923838
33.59411 518.021692370484
33.61422 557.980500840078
33.63434 495.937427383409
33.65445 525.116947420388
33.67456 538.060922203789
33.69468 495.014650856983
33.71479 512.99285540603
33.7349 510
33.75502 517.991493258548
33.77513 500.002721816661
33.79524 519.008789186058
33.81536 496.062157513404
33.83547 484.972120142472
33.85559 516.990408018435
33.8757 514
33.89581 520.012374617249
33.91593 547.012351325676
33.93604 532.961841127701
33.95615 531.941940532211
33.97627 557.003304172315
33.99638 528.026126758597
34.0165 517
34.03661 503.001217243804
34.05672 516.000045785545
34.07684 507.018571105858
34.09695 529.988783669937
34.11706 512.024747795579
34.13718 509.017780240038
34.15729 477.010456020212
34.17741 504.043252940068
34.19752 581.988277064823
34.21763 494.899577251761
34.23775 506.132945348714
34.25786 538.035049879888
34.27797 500.002034294657
34.29809 544.978267170891
34.3182 548
34.33831 536.023401753483
34.35843 597.986908592672
34.37854 539.998989200878
34.39866 597.97910485738
34.41877 541.057802608323
34.43888 551.993877132168
34.459 530
34.47911 550.031417788962
34.49922 610.006165979844
34.51934 574.973811131764
34.53945 599.959311187159
34.55957 598.970574260454
34.57968 633.993392988539
34.59979 623.985633567781
34.61991 683.012282895127
34.64002 664.9952183819
34.66013 687.009960177718
34.68025 664.945048225281
34.70036 665.962774773318
34.72047 691.957774459729
34.74059 719.985015289994
34.7607 754
34.78082 775.988975796557
34.80093 765.059761304197
34.82104 836.062201549774
34.84116 803.101109878904
34.86127 785.96702201996
34.88138 826.966032938102
34.9015 826
34.92161 785.998632639069
34.94173 834.110037319571
34.96184 878.973563843035
34.98195 817.176620596713
35.00207 787.962999198371
35.02218 816.031349554746
35.04229 763.985307525665
35.06241 854.013454045195
35.08252 794.955173340182
35.10264 815.072550839557
35.12275 812.882969343292
35.14286 768.97245497136
35.16298 819.987078559119
35.18309 792.996821455755
35.2032 829
35.22332 774.986313871666
35.24343 808.005957220542
35.26354 769.965078217911
35.28366 801.904773381366
35.30377 826.009047709537
35.32389 801.013114168925
35.344 787
35.36411 787.003117805803
35.38423 811.078333046619
35.40434 868.053550477881
35.42445 860.032824355343
35.44457 866.966082427448
35.46468 863.068388014719
35.4848 788
35.50491 867.009149368277
35.52502 809.976742492163
35.54514 855.078451827192
35.56525 834.154335857979
35.58536 784.008250458636
35.60548 815.976023171413
35.62559 815.998114072987
35.64571 845.023748831194
35.66582 877.991252725915
35.68593 843.976497800875
35.70605 856.014869199764
35.72616 839.045845158775
35.74627 820.032376901638
35.76639 803.99759983964
35.7865 812
35.80661 764.982503132143
35.82673 782.108241731216
35.84684 848.994406507744
35.86696 788.08531272511
35.88707 813.896084826189
35.90718 859.022696524048
35.9273 788
35.94741 777.000390249117
35.96752 775.013753872822
35.98764 784.936103344531
36.00775 748.909026877416
36.02787 810.058512155912
36.04798 688.061678299783
36.06809 729.976753407949
36.08821 726.996064661677
36.10832 723.967140458812
36.12843 682.007343676415
36.14855 727.056418495513
36.16866 692.130111620008
36.18878 653.980023799032
36.20889 697.998615599134
36.229 661
36.24912 683.995539203852
36.26923 652.001201433427
36.28934 680.98513371481
36.30946 643.989574764804
36.32957 683.010872510364
36.34968 629.020581459873
36.3698 676
36.38991 711.997267616436
36.41003 679.947969884772
36.43014 668.026041351902
36.45025 697.909966018667
36.47037 715.025609101292
36.49048 701.955589672515
36.51059 759.014750303272
36.53071 680.004144376446
36.55082 764.011587953255
36.57094 678.883819790772
36.59105 711.158655129765
36.61116 716.169963536422
36.63128 620.992184616193
36.65139 706.986829907362
36.6715 655
36.69162 696.989776542225
36.71173 620.925687466666
36.73184 647.119329367601
36.75196 670.08569999869
36.77207 608.007432814317
36.79219 670.967457986793
36.8123 683
36.83241 646.994812760738
36.85253 649.961853273783
36.87264 607.99094239813
36.89275 636.988301396405
36.91287 612.998836251629
36.93298 659.939370258165
36.9531 679
36.97321 608.986249068247
36.99332 653.078932176482
37.01344 699.966553012104
37.03355 649.059310334699
37.05366 661.00905864169
37.07378 632.008640806281
37.09389 649.996919745537
37.11401 629.98903735292
37.13412 638.045833867006
37.15423 689.022181730048
37.17435 667.960673224629
37.19446 658.087988469758
37.21457 613.953840126231
37.23469 697.980184331157
37.2548 655
37.27491 638.024393880166
37.29503 693.982105809758
37.31514 633.972924035807
37.33526 681.940105751715
37.35537 669.003021578868
37.37548 677.036910102083
37.3956 613
37.41571 652.015591155993
37.43582 634.958007562026
37.45594 612.034926099165
37.47605 656.906423952573
37.49617 663.022900298957
37.51628 643.017992817378
37.53639 631.004150902665
37.55651 627.001716602971
37.57662 636.009510238234
37.59673 645.018383264668
37.61685 656.002905378084
37.63696 637.081074393676
37.65708 618.949269947701
37.67719 701.984348297511
37.6973 664
37.71742 659.006239563955
37.73753 660.006789018103
37.75764 663.981178191926
37.77776 654.963681491797
37.79787 687.987352247922
37.81798 669.009868173265
37.8381 681
37.85821 666.981802150683
37.87833 630.979439249675
37.89844 638.009714178888
37.91855 632.006748795839
37.93867 646.950900423536
37.95878 671.011903304278
37.97889 638.005896972945
37.99901 655.00561755386
38.01912 642.981678326873
38.03924 638.022730170437
38.05935 645.954647825397
38.07946 617.996855065957
38.09958 650.973090720628
38.11969 640.021744356856
38.1398 608
38.15992 672.06384235256
38.18003 704.01833826945
38.20015 701.941625761927
38.22026 663.081623203205
38.24037 644.974724227763
38.26049 687.976128269424
38.2806 706
38.30071 653.976940919685
38.32083 651.069333810813
38.34094 718.105046429826
38.36105 736.007240518283
38.38117 710.097598048222
38.40128 647.002283526822
38.4214 685
38.44151 640.993786185229
38.46162 683.044718511085
38.48174 689.959298367338
38.50185 670.997619153023
38.52196 669.091834073183
38.54208 608.004886940738
38.56219 667.968912238697
38.58231 676.981063804536
38.60242 636.996800541413
38.62253 678.080860495881
38.64265 697.923659950829
38.66276 631.142957986487
38.68287 598.967633442013
38.70299 640.992698749988
38.7231 613
38.74321 608.019775366502
38.76333 638.936195570891
38.78344 549.913877038864
38.80356 599.804360587675
38.82367 663.016821622928
38.84378 609.02552820557
38.8639 627
38.88401 598.98651918186
38.90412 593.000777151139
38.92424 592.005928928186
38.94435 608.912896546897
38.96447 638.007898239324
38.98458 608.01649830832
39.00469 604.015156178321
39.02481 567.007746785041
39.04492 619.013254972521
39.06503 576.941549794376
39.08515 577.043695741065
39.10526 592.966715757162
39.12538 608.988771991095
39.14549 604.014337369072
39.1656 583
39.18572 622.981558192338
39.20583 557.959310628317
39.22594 603.13557355919
39.24606 627.076288118142
39.26617 568.030005003155
39.28628 587.001592831402
39.3064 564
39.32651 612.008914631283
39.34663 588.982920732459
39.36674 606.020109230543
39.38685 600.982660008256
39.40697 624.971865753319
39.42708 607.063929413188
39.44719 545.000820837116
39.46731 602.027680518291
39.48742 609.974027176302
39.50754 588.013466128616
39.52765 602.945861080623
39.54776 550.066390671291
39.56788 559.973536191767
39.58799 560.02143902924
39.6081 508
39.62822 543.032301421405
39.64833 542.977687484948
39.66845 535.008306587726
39.68856 541.008694372598
39.70867 535.974494567252
39.72879 560.003568485476
39.7489 520
39.76901 516.010211018532
39.78913 533.994332465387
39.80924 516.995049928028
39.82935 527.017962750583
39.84947 501.024652440702
39.86958 507.983894572724
39.8897 517
39.90981 514.001431418633
39.92992 532.033631089642
39.95004 556.981852160707
39.97015 532.985843938837
39.99026 561.997245218246
40.01038 529.022726996359
40.03049 527.007492241132
40.05061 505.005549101996
40.07072 539.006503759858
40.09083 514.988840816203
40.11095 541.073648039196
40.13106 541.065499362436
40.15117 511.97766546869
40.17129 550.99866938768
40.1914 524
40.21152 573.021555342745
40.23163 542.939729630066
40.25174 529.015896684375
40.27186 544.971519348763
40.29197 560.954395299934
40.31208 580.031427473339
40.3322 520
40.35231 535.002111884239
40.37242 514.994874251155
40.39254 534.026813132604
40.41265 535.964956195869
40.43277 565.961291026665
40.45288 566.027605655107
40.47299 540.99494532534
40.49311 573.003962364131
40.51322 544.9699916695
40.53333 534.998143648585
40.55345 536.020345664488
40.57356 557.925923156346
40.59368 579.028197453224
40.61379 531.00230241947
40.6339 563
40.65402 519.976889959785
40.67413 536.020057702225
40.69424 531.004682887686
40.71436 550.956395799062
40.73447 568.964495056694
40.75458 594.985179676904
40.7747 581
40.79481 543.009128748597
40.81493 590.001376973232
40.83504 548.991087655517
40.85515 583.010120098737
40.87527 527.06726624959
40.89538 524.989846152267
40.91549 534.985972311118
40.93561 560.992496846287
40.95572 525.002038731058
40.97584 562.020010195747
40.99595 536.983333736101
41.01606 563.955013516398
41.03618 557.023698370934
41.05629 527.019021298452
41.0764 506
41.09652 548.006027556229
41.11663 527.022068022682
41.13675 571.010018321911
41.15686 523.084972231445
41.17697 518.983525969339
41.19709 530.98882314051
41.2172 561
41.23731 549.96726096151
41.25743 474.970418206272
41.27754 519.104810131265
41.29765 545.945892936543
41.31777 553.056909187187
41.33788 506.986018932016
41.358 563
41.37811 507.971511595358
41.39822 491.001630350116
41.41834 494.017406182327
41.43845 507.964662281311
41.45856 515.005393153332
41.47868 501.024126474419
41.49879 482.998138717766
41.51891 517.028470402781
41.53902 562.004280391369
41.55913 539.991624906211
41.57925 560.030659322149
41.59936 544.062806635637
41.61947 533.946334219196
41.63959 590.985890623132
41.6597 586
41.67982 614.013940242892
41.69993 607.000241675691
41.72004 602.905152140657
41.74016 528.091077237033
41.76027 532.96798554803
41.78038 537.013013475844
41.8005 531
41.82061 567.001605268338
41.84072 523.941291488405
41.86084 501.069568999303
41.88095 551.000096934691
41.90107 495.078971999091
41.92118 482.992437638735
41.94129 487.99929019026
41.96141 493.008315159123
41.98152 511.000721928445
42.00163 494.979527826009
42.02175 490.985567618367
42.04186 482.998072615182
42.06198 492.992072638137
42.08209 487.010356458949
42.1022 476
42.12232 510.995385418662
42.14243 463.937206308143
42.16254 466.076025214409
42.18266 503.982145246463
42.20277 493.98584344711
42.22289 504.023426147022
42.243 434
42.26311 508.031384660305
42.28323 505.946968593333
42.30334 494.07388952775
42.32345 540.027729086813
42.34357 491.002486087557
42.36368 545.964757452179
42.38379 538.997939397614
42.40391 574.015901629979
42.42402 561.937159881534
42.44414 491.949443707173
42.46425 516.06808411368
42.48436 520.994440432759
42.50448 507.065365433849
42.52459 439.991442797606
42.5447 522
42.56482 483.94846171201
42.58493 480.059416281815
42.60505 507.911850329519
42.62516 438.047331675598
42.64527 480.92532657483
42.66539 491.008592206999
42.6855 481
42.70561 516.007771103273
42.72573 492.931707501515
42.74584 480.118524713569
42.76595 549.061428095018
42.78607 452.066978032795
42.80618 496.952524504216
42.8263 488
42.84641 474.017425013336
42.86652 524.0058227053
42.88664 481.930983296988
42.90675 483.967756227077
42.92686 483.027812033001
42.94698 466.010887525424
42.96709 465.996663710202
42.98721 478.010001790849
43.00732 503.023774166298
43.02743 509.970517864962
43.04755 486.010058651553
43.06766 501.046223422971
43.08777 453.015072511822
43.10789 495.976012163141
43.128 506
43.14812 471.975274056997
43.16823 460.982563949178
43.18834 461.076907067971
43.20846 501.045913047959
43.22857 437.027826086562
43.24868 475.977908239878
43.2688 453
43.28891 463.013376019065
43.30902 493.034293724055
43.32914 508.94655557496
43.34925 457.08609546681
43.36937 455.990045315841
43.38948 460.98023716311
43.40959 484.99959654534
43.42971 456.982572726909
43.44982 445.019301699628
43.46993 472.003756666752
43.49005 457.015885588329
43.51016 489.948768636036
43.53028 481.037371567263
43.55039 450.996205587406
43.5705 475
43.59062 442.009641988495
43.61073 504.089016861174
43.63084 505.887349852647
43.65096 433.090609498069
43.67107 436.951525846271
43.69119 465.992811892138
43.7113 460
43.73141 440.997761025144
43.75153 451.01831368656
43.77164 463.042609942422
43.79175 487.968102262961
43.81187 487.996902728173
43.83198 478.050832093833
43.85209 416.00673122202
43.87221 448.007473131285
43.89232 433.004280991704
43.91244 468.05554927125
43.93255 458.904732204453
43.95266 440.912152495227
43.97278 505.997239720764
43.99289 458.001958495086
44.013 503
44.03312 436.925928490741
44.05323 434.130297829264
44.07335 533.033564229874
44.09346 466.090072527989
44.11357 483.968932426119
44.13369 480.996479297407
44.1538 496
44.17391 461.994242554725
44.19403 474.994713543541
44.21414 454.003092180145
44.23426 476.993620537159
44.25437 457.008195968165
44.27448 465.017281068835
44.2946 435
44.31471 462.98746933282
44.33482 416.034370431585
44.35494 505.026430789667
44.37505 435.075764639737
44.39516 478.939145701096
44.41528 460.016428348834
44.43539 466.001757204456
44.45551 458.012289379007
44.47562 492.985847658988
44.49573 438.9625955462
44.51585 464.069229838977
44.53596 459.052222956928
44.55607 437.005846345557
44.57619 448.994155901599
44.5963 454
44.61642 467.010537497963
44.63653 477.027927410129
44.65664 499.021114273799
44.67676 476.126894676357
44.69687 416.006386685796
44.71698 452.988631942922
44.7371 445
44.75721 518.000217092487
44.77732 452.976390794288
44.79744 491.027375770356
44.81755 457.047673627684
44.83767 472.986745308758
44.85778 459.010233924276
44.87789 462.998894679177
44.89801 460.002195829927
44.91812 477.02205997983
44.93823 483.968425463397
44.95835 451.968470560962
44.97846 467.952585265345
44.99858 476.010631046824
45.01869 476.977122626781
45.0388 538
45.05892 495.960769969277
45.07903 498.037811911397
45.09914 520.020178950173
45.11926 506.082938066863
45.13937 459.039169205519
45.15949 464.988342773746
45.1796 485
45.19971 485.998902189467
45.21983 490.0200107611
45.23994 497.969297660736
45.26005 473.006375163094
45.28017 492.983938928608
45.30028 480.019285173832
45.32039 478.98767831475
45.34051 494.982682680851
45.36062 438.994412688262
45.38074 488.072734947197
45.40085 472.902778681087
45.42096 461.917107988667
45.44108 517.992513759196
45.46119 476.014674155002
45.4813 493
45.50142 508.986808776824
45.52153 475.949973579357
45.54165 460.00109131298
45.56176 475.937119268257
45.58187 504.988084951477
45.60199 488.013595873354
45.6221 474
45.64221 501.016323038817
45.66233 522.006475625232
45.68244 521.019418538333
45.70256 527.056284383469
45.72267 477.04263561253
45.74278 483.986754069741
45.7629 483
45.78301 489.01416883262
45.80312 519.000771498178
45.82324 489.942800495839
45.84335 489.932430794415
45.86346 525.944131863588
45.88358 534.007277762061
45.90369 519.009813337068
45.92381 499.992154400693
45.94392 489.995842332316
45.96403 494.021684732914
45.98415 501.95530711054
46.00426 476.987331672546
46.02437 504.001983567204
46.04449 479.995905305565
46.0646 514
46.08472 466.959587093427
46.10483 465.025882027119
46.12494 494.104235560288
46.14506 532.051920612594
46.16517 467.043791515838
46.18528 488.985984933678
46.2054 480
46.22551 514.00623905535
46.24563 495.978601951975
46.26574 504.029816487581
46.28585 504.053466823343
46.30597 470.046139709852
46.32608 456.995930224384
46.34619 469.992804344485
46.36631 479.002015041737
46.38642 488.023237323486
46.40653 499.948517013939
46.42665 453.023555558773
46.44676 508.953227317351
46.46688 474.040518061398
46.48699 474.981394225325
46.5071 504
46.52722 452.972715607841
46.54733 465.017786675994
46.56744 462.013259993799
46.58756 483.9637982655
46.60767 482.029250049429
46.62779 477.978957404999
46.6479 529
46.66801 466.979888935428
46.68813 471.999278283554
46.70824 463.060183506277
46.72835 517.95741295463
46.74847 482.062585935323
46.76858 465.008337480799
46.78869 455.00277953614
46.80881 462.010806873246
46.82892 479.993714759077
46.84904 457.98300378746
46.86915 481.10894756667
46.88926 504.057098808041
46.90938 457.998221768774
46.92949 501.992384398758
46.9496 477
46.96972 494.987443499094
46.98983 465.030216705522
47.00995 515.987317517926
47.03006 461.023553062844
47.05017 503.9751341868
47.07029 466.019631206266
47.0904 464
47.11051 486.007211608461
47.13063 485.980204430734
47.15074 471.99307595067
47.17086 483.958122359311
47.19097 489.044414988802
47.21108 456.982882630784
47.2312 499
47.25131 441.987687131657
47.27142 482.057277123921
47.29154 511.002746071101
47.31165 500.022557871458
47.33176 489.06169202426
47.35188 455.998743656507
47.37199 490.984196606564
47.39211 488.985411655212
47.41222 467.013499761728
47.43233 498.003260861044
47.45245 465.936384877835
47.47256 465.991515300695
47.49267 454.040734409912
47.51279 439.986571906896
47.5329 483
47.55302 458.002189701092
47.57313 498.045129867292
47.59324 498.999298446073
47.61336 502.033418404298
47.63347 469.033427580823
47.65358 475.971912853435
47.6737 503
47.69381 490.98569269651
47.71393 464.984589757772
47.73404 482.086113469567
47.75415 501.135879924847
47.77427 425.98906927908
47.79438 514.933676762988
47.81449 496.031698953913
47.83461 454.002673852704
47.85472 487.015225512653
47.87483 478.00788602468
47.89495 497.991701579078
47.91506 469.037461895358
47.93518 474.990254342713
47.95529 480.99223228172
47.9754 494
47.99552 471.015484505556
48.01563 493.930068298305
48.03574 417.018838510278
48.05586 503.923531509634
48.07597 454.078604501884
48.09609 449.994977589147
48.1162 462
48.13631 498.996051452387
48.15643 456.970868714097
48.17654 474.022564573558
48.19665 460.041549099509
48.21677 463.962009197664
48.23688 482.019132624973
48.257 435
48.27711 439.015687072102
48.29722 479.041003244493
48.31734 497.961216387098
48.33745 461.963816671293
48.35756 472.000402569177
48.37768 461.984650118852
48.39779 494.996329432169
48.4179 475
48.43802 486.992084303235
48.45813 456.975412329993
48.47825 460.990037134606
48.49836 450.971290368566
48.51847 475.017440410237
48.53859 437.004653246106
48.5587 471
48.57881 481.998060843932
48.59893 479.003801054179
48.61904 482.993508429731
48.63916 475.002880222101
48.65927 474.026661626821
48.67938 460.96916745115
48.6995 518
48.71961 480.963372914997
48.73972 424.989948176026
48.75984 455.072165697418
48.77995 471.985584023093
48.80006 475.993507850018
48.82018 478.000831263995
48.84029 475.999953400188
48.86041 474.995745045955
48.88052 465.00110364832
48.90063 483.042101484323
48.92075 489.902805512697
48.94086 450.936249892282
48.96097 528.958007679884
48.98109 480.028365909479
49.0012 459
49.02132 455.021828342132
49.04143 498.058756317834
49.06154 501.923131445291
49.08166 457.015010304259
49.10177 478.999647975483
49.12188 459.984291839611
49.142 502
49.16211 465.990383411521
49.18223 488.044858878682
49.20234 493.96607126263
49.22245 474.009332819812
49.24257 485.987805819882
49.26268 481.007844658799
49.28279 489.982411383899
49.30291 516.987236091675
49.32302 459.977270818526
49.34313 490.054200800105
49.36325 510.068461339632
49.38336 534.028888778383
49.40348 481.056265844599
49.42359 466.98025174397
49.4437 525
49.46382 510.97397952039
49.48393 501.004601535937
49.50404 514.045605396668
49.52416 532.997860792299
49.54427 514.040880166123
49.56439 496.001235438005
49.5845 515
49.60461 540.988224567924
49.62473 480.928838013414
49.64484 476.039237210574
49.66495 496.958620702231
49.68507 491.061840135087
49.70518 442.015585916817
49.7253 473
49.74541 502.999557037694
49.76552 477.968780642145
49.78564 467.036802000961
49.80575 502.073763516171
49.82586 507.034226005355
49.84598 492.988050288432
49.86609 510.0109221366
49.8862 465
49.90632 503.033090527855
49.92643 496.956453863838
49.94655 482.050972980621
49.96666 514.003656869321
49.98677 491.97520406078
50.00689 534.002478268239
50.027 497
50.04711 567.015104380078
50.06723 532.952236508368
50.08734 543.051678061861
50.10746 562.964379950523
50.12757 567.038536432717
50.14768 531.010361100261
50.1678 542
50.18791 508.987657599318
50.20802 507.001995849985
50.22814 487.907821435232
50.24825 451.954104567236
50.26837 504.964716206041
50.28848 484.01666730489
50.30859 486.006808310579
50.32871 461.001278295523
50.34882 491.018421987736
50.36893 480.974969146661
50.38905 471.979083572055
50.40916 468.971382085399
50.42927 484.01953391956
50.44939 451.007848450905
50.4695 465
50.48962 466.987135869263
50.50973 461.030695738882
50.52984 508.107265633864
50.54996 535.028716355028
50.57007 486.093213745247
50.59018 457.96694487364
50.6103 527
50.63041 512.961603976447
50.65053 439.993392206682
50.67064 497.094500079606
50.69075 491.080775633049
50.71087 478.957853571762
50.73098 521.987826060708
50.75109 507.995025039195
50.77121 551.017248806507
50.79132 555.995218273747
50.81143 541.936562232301
50.83155 498.00191485802
50.85166 533.969315032222
50.87178 528.969771869916
50.89189 582.995070855879
50.912 556
50.93212 590.969657322841
50.95223 503.932012130217
50.97234 530.060204960582
50.99246 521.048405178513
51.01257 522.93144414983
51.03269 573.001858726601
51.0528 514
51.07291 492.997623394735
51.09303 496.034336464416
51.11314 502.886013314261
51.13325 426.008572697466
51.15337 485.969591651614
51.17348 443.026571713304
51.1936 456
51.21371 432.004252692426
51.23382 475.026502859983
51.25394 460.943701812161
51.27405 455.926729946609
51.29416 479.070519586895
51.31428 411.02195661195
51.33439 445.987828039385
51.3545 424
51.37462 410.014592914223
51.39473 435.016689259373
51.41485 438.061049713205
51.43496 464.044467870582
51.45507 415.006422560682
51.47519 462.982041451819
51.4953 454
51.51541 436.989231940994
51.53553 412.980127790187
51.55564 429.101723140265
51.57576 479.981267065939
51.59587 446.057093330548
51.61598 438.979573182741
51.6361 460
51.65621 431.983331412288
51.67632 422.02198602801
51.69644 447.986370267271
51.71655 417.023809431676
51.73667 430.01309697651
51.75678 415.958423931996
51.77689 491.986398950903
51.79701 449.975640076137
51.81712 437.00367017318
51.83723 436.992862290302
51.85735 429.986108249426
51.87746 427.005600986197
51.89757 427.983757612995
51.91769 439.002383212235
51.9378 425
51.95792 434.995517652052
51.97803 421.009879282158
51.99814 441.998359789559
52.01826 426.970829533876
52.03837 470.956463877763
52.05848 452.055823465945
52.0786 412
52.09871 468.015100000947
52.11883 443.934339497616
52.13894 429.05726714304
52.15905 468.99081250934
52.17917 436.033880948639
52.19928 442.991046031047
52.21939 449.985721696026
52.23951 470.980140376028
52.25962 400.983939741961
52.27974 450.083209734828
52.29985 431.854084775736
52.31996 403.891133417426
52.34008 498.959256652231
52.36019 447.044367895097
52.3803 402
52.40042 457.019445875375
52.42053 431.980068305622
52.44064 449.020079441399
52.46076 434.041471279132
52.48087 433.957746919705
52.50099 460.007263852764
52.5211 414
52.54121 434.027795795042
52.56133 492.06017064831
52.58144 493.925533546989
52.60155 444.085020117413
52.62167 430.025942848728
52.64178 419.968476099224
52.6619 474
52.68201 449.984421137926
52.70212 442.006896170598
52.72224 449.001208256427
52.74235 444.00830518187
52.76246 450.962734067709
52.78258 463.014573595701
52.80269 430.011442815655
52.8228 432
52.84292 443.007472092322
52.86303 453.028883837004
52.88315 469.990239336207
52.90326 447.042845159684
52.92337 444.977314165517
52.94349 460.998700073774
52.9636 445
52.98371 436.012387956361
53.00383 483.059802004187
53.02394 474.863677179203
53.04406 415.933924710369
53.06417 496.001170149728
53.08428 405.06200497917
53.1044 431
53.12451 469.017463009212
53.14462 491.987853787646
53.16474 472.045145553648
53.18485 521.972141119783
53.20497 482.056129112839
53.22508 478.989889671305
53.24519 488.991092360322
53.26531 502.995112605383
53.28542 487.015287390041
53.30553 511.963370816033
53.32565 447.914098417875
53.34576 474.897274525537
53.36587 505.001502891824
53.38599 479.01757661621
53.4061 472
53.42622 521.990764070949
53.44633 458.931928856866
53.46644 483.149612632583
53.48656 538.036721037255
53.50667 475.038695141695
53.52678 510.95945368898
53.5469 512
53.56701 498.012185517742
53.58713 541.022516902807
53.60724 514.931942018612
53.62735 504.965760398079
53.64747 530.959344889999
53.66758 539.020578663713
53.68769 503.014110124467
53.70781 504.014486309114
53.72792 533.001866574043
53.74804 512.980619636839
53.76815 524.025637414643
53.78826 524.991162244568
53.80838 535.992214258651
53.82849 544.987927967873
53.8486 556
53.86872 502.026474878375
53.88883 585.038690338357
53.90894 534.936475169946
53.92906 567.899679955297
53.94917 579.056439175242
53.96929 536.995919335253
53.9894 591
54.00951 593.999612779518
54.02963 589.939080676789
54.04974 543.021652102786
54.06985 605.888471217911
54.08997 595.051478266076
54.11008 579.984823151858
54.1302 595
54.15031 539.985838065565
54.17042 572.071382524193
54.19054 627.004872511063
54.21065 598.008829446898
54.23076 629.958779005667
54.25088 610.042826862823
54.27099 589.984304449778
54.29111 631.991358535622
54.31122 572.986830842717
54.33133 604.984448488867
54.35145 560.038947268039
54.37156 628.960905823359
54.39167 571.091836192099
54.41179 549.006782148463
54.4319 546
54.45201 604.00726192431
54.47213 558.909629036455
54.49224 533.029471128369
54.51236 567.944197939513
54.53247 565.046656423567
54.55258 532.01077348695
54.5727 542
54.59281 533.997559955596
54.61292 547.029101978549
54.63304 575.021725173274
54.65315 563.061724088907
54.67327 546.993410732787
54.69338 557.010928660586
54.71349 544.983276640475
54.73361 604.008625481342
54.75372 557.936121500752
54.77383 538.062127037054
54.79395 598.044627983564
54.81406 567.052598138452
54.83417 575.967416115183
54.85429 594.988535778874
54.8744 605
54.89452 561.986137775391
54.91463 579.007387074784
54.93474 562.993976148119
54.95486 573.02154078254
54.97497 535.056135592347
54.99508 521.991848928858
55.0152 536
55.03531 534.999936406783
55.05543 544.025090863311
55.07554 552.973842349331
55.09565 527.037392963574
55.11577 527.0067895307
55.13588 518.990797692176
55.15599 541.993802053916
55.17611 539.000479263663
55.19622 541.983793337197
55.21634 524.038186169406
55.23645 565.022096652332
55.25656 531.066818256257
55.27668 524.994438684916
55.29679 529.995946663882
55.3169 542
55.33702 541.976681608774
55.35713 508.972911291736
55.37724 519.054219198714
55.39736 537.013813666011
55.41747 525.968234274192
55.43759 551.01813814934
55.4577 484
55.47781 546.013266439604
55.49793 506.945491850552
55.51804 513.041281972173
55.53815 513.070401149125
55.55827 486.978365238676
55.57838 525.991021983833
55.5985 501
55.61861 523.007717914661
55.63872 508.970376310468
55.65884 498.057044083312
55.67895 542.958205074235
55.69906 517.077799063491
55.71918 500.98648062143
55.73929 519.004677173684
55.75941 498.007532845354
55.77952 537.002923226431
55.79963 494.946048404546
55.81975 496.046992682034
55.83986 508.000959715054
55.85997 495.029982171511
55.88009 485.992605982361
55.9002 501
55.92031 465.003926210602
55.94043 507.011813135414
55.96054 471.962269031752
55.98066 488.972484793661
56.00077 484.000546369906
56.02088 496.988487331821
56.041 492
56.06111 478.009474538547
56.08122 508.996768903348
56.10134 477.987677618186
56.12145 513.893778883671
56.14157 529.017632009338
56.16168 493.057911226709
56.18179 455.987221681085
56.20191 510.003091711192
56.22202 466.982347561278
56.24213 501.056743252321
56.26225 501.926487148507
56.28236 470.025072078362
56.30248 486.964940705697
56.32259 513.998223522515
56.3427 492
56.36282 468.99927497802
56.38293 478.997676293717
56.40304 473.037602107444
56.42316 499.028111930709
56.44327 458.011268438218
56.46338 493.971148416147
56.4835 486
56.50361 468.996739773834
56.52373 466.990393869249
56.54384 455.986567753976
56.56395 466.917353640119
56.58407 498.996015865937
56.60418 476.016579968266
56.62429 474.005506573734
56.64441 462.009449800515
56.66452 493.99517119885
56.68464 464.012533833786
56.70475 496.972798016381
56.72486 449.014827782832
56.74498 499.95036949492
56.76509 500.019424112718
56.7852 468
56.80532 508.021252905621
56.82543 484.932672212017
56.84554 463.048062265186
56.86566 502.99543092945
56.88577 474.996504619423
56.90589 514.988055641139
56.926 494
56.94611 469.001758413388
56.96623 495.045215642878
56.98634 500.942557542241
57.00645 454.092994265558
57.02657 447.970455052135
57.04668 472.985059281195
57.0668 481
57.08691 498.99309777003
57.10702 462.982303270443
57.12714 474.02020978779
57.14725 471.989800125685
57.16736 471.07080732949
57.18748 420.017322709817
57.20759 449.9790902481
57.22771 477.01007951105
57.24782 472.946140634125
57.26793 412.001715107902
57.28805 469.094539396508
57.30816 458.030556156299
57.32827 461.996629452689
57.34839 452.005784601148
57.3685 459
57.38861 490.993788876945
57.40873 449.981535238809
57.42884 476.0344818203
57.44896 459.059183922657
57.46907 454.942299051369
57.48918 499.005143612917
57.5093 443
57.52941 433.010903943966
57.54952 465.031861685138
57.56964 485.0118155635
57.58975 483.004524582407
57.60987 480.020410328677
57.62998 459.015323285959
57.65009 462.987950012532
57.67021 482.995238977336
57.69032 454.990042361672
57.71043 474.03396445911
57.73055 483.007244916815
57.75066 479.038454927388
57.77078 460.991577363181
57.79089 483.001324561333
57.811 449
57.83112 446.026555576076
57.85123 470.989565869175
57.87134 440.972223220981
57.89146 450.000315749793
57.91157 437.9916114901
57.93168 461.986549955376
57.9518 459
57.97191 476.007425895741
57.99203 475.981865461103
58.01214 466.007283335021
58.03225 472.035847598987
58.05237 457.955183856103
58.07248 507.000989821326
58.09259 459.011320161682
58.11271 481.006916967839
58.13282 461.976113769009
58.15294 454.002358092065
58.17305 456.003237956883
58.19316 447.054153808866
58.21328 420.000297681158
58.23339 456.971021542582
58.2535 492
58.27362 444.972959465205
58.29373 461.048831227008
58.31385 475.973222345164
58.33396 444.080344133037
58.35407 433.93057867709
58.37419 494.996576124644
58.3943 445
58.41441 447.006391837831
58.43453 456.033631621462
58.45464 487.03407187684
58.47475 473.09905501488
58.49487 433.029347394466
58.51498 441.974851290763
58.5351 463
58.55521 454.989932920229
58.57532 435.991497400292
58.59544 446.054770329436
58.61555 475.954866765457
58.63566 469.062356680711
58.65578 432.024462091332
58.67589 432.989258792784
58.69601 450.997583432977
58.71612 444.030671751818
58.73623 492.007000504938
58.75635 447.905531140824
58.77646 444.987186467446
58.79657 437.030626107756
58.81669 421.996658569085
58.8368 445
58.85691 444.995963285957
58.87703 438.99532605504
58.89714 439.005306639449
58.91726 450.943775870004
58.93737 475.011688993539
58.95748 453.987757892299
58.9776 489
58.99771 454.994576672278
59.01782 476.004287890382
59.03794 444.927348402183
59.05805 440.908790134754
59.07817 480.007697124094
59.09828 441.015619468935
59.11839 459.996123838859
59.13851 436.986357055761
59.15862 441.044796390526
59.17873 488.000613476137
59.19885 462.040032828958
59.21896 503.039200561112
59.23908 438.009310628497
59.25919 492.986639835977
59.2793 451
59.29942 436.037975372648
59.31953 481.999120202261
59.33964 441.963817167813
59.35976 464.955907433734
59.37987 459.029098441556
59.39998 446.001106013509
59.4201 449
59.44021 435.997820757375
59.46033 445.017440993689
59.48044 454.02312117392
59.50055 464.995688349266
59.52067 460.000946379637
59.54078 467.990288572056
59.56089 468.007163765103
59.58101 449.996961835289
59.60112 453.996881301346
59.62124 447.019172670316
59.64135 475.069205926433
59.66146 478.055538770562
59.68158 442.015142707564
59.70169 459.982757429821
59.7218 482
59.74192 472.015169325948
59.76203 506.021823374066
59.78215 501.032638409991
59.80226 522.037913450239
59.82237 466.062573542051
59.84249 463.993761190202
59.8626 472
59.88271 490.013291384247
59.90283 505.978196655453
59.92294 476.985145068708
59.94305 488.023517412654
59.96317 454.03513797688
59.98328 471.944809236987
60.0034 518
60.02351 472.986885611904
60.04362 469.968194199557
60.06374 426.026237840503
60.08385 488.910840412485
60.10396 478.995751114366
60.12408 509.981720540199
60.14419 489.022655644669
60.16431 449.991976737596
60.18442 457.01404856742
60.20453 455.96655890768
60.22465 441.068462486589
60.24476 488.977844665816
60.26487 459.027451524766
60.28499 473.991416086195
60.3051 466
60.32522 438.996465276432
60.34533 450.998483692418
60.36544 443.038876465143
60.38556 468.052062793254
60.40567 410.020890610821
60.42578 459.94259252454
60.4459 482
60.46601 466.983289410112
60.48612 437.000130507424
60.50624 458.012292763911
60.52635 434.083590765952
60.54647 421.969588499153
60.56658 449.003102222272
60.58669 424.000864262627
60.60681 450.006452814472
60.62692 441.000753091944
60.64703 454.998621418508
60.66715 436.977135256668
60.68726 447.966862024062
60.70738 456.000456540005
60.72749 451.002869423228
60.7476 448
60.76772 452.010596716776
60.78783 457.981877465562
60.80794 433.967748820969
60.82806 449.895160309659
60.84817 502.981650366685
60.86828 470.041274310718
60.8884 450
60.90851 444.993976294791
60.92863 437.022127060082
60.94874 457.9839192384
60.96885 429.015832764387
60.98897 455.958859551527
61.00908 452.03466013631
61.02919 417.002533341687
61.04931 438.006513113898
61.06942 433.00063948173
61.08954 453.058572659378
61.10965 467.966532731242
61.12976 442.016986235135
61.14988 461.97040198939
61.16999 471.011683822463
61.1901 435
61.21022 452.033183831776
61.23033 476.009356964607
61.25045 461.928844177206
61.27056 455.904503670911
61.29067 519.984098976738
61.31079 476.014964654332
61.3309 481
61.35101 460.005647193421
61.37113 496.010369738215
61.39124 465.957237624539
61.41135 473.967732274607
61.43147 475.004952864817
61.45158 478.984760585081
61.4717 504
61.49181 524.00183950138
61.51192 517.998200424831
61.53204 517.971216073116
61.55215 492.044999764012
61.57226 488.005893322919
61.59238 490.973212031376
61.61249 523.99842615466
61.63261 501.996786791604
61.65272 522.016699037756
61.67283 523.003362503231
61.69295 528.988108308173
61.71306 506.067422582159
61.73317 490.960456180202
61.75329 537.988278659499
61.7734 523
61.79352 508.988309308277
61.81363 508.039902017039
61.83374 536.977926606463
61.85386 501.00634659672
61.87397 532.981994209912
61.89408 528.961093781688
61.9142 597
61.93431 577.005919836346
61.95442 622.004244312933
61.97454 578.953849691167
61.99465 615.825682500465
62.01477 666.99017465584
62.03488 636.035854123454
62.05499 621.998736200625
62.07511 630.003890643263
62.09522 627.984223056518
62.11533 618.029266669965
62.13545 677.210822236768
62.15556 731.039887225663
62.17568 670.025982929523
62.19579 692.994864221382
62.2159 667
62.23602 669.014204891062
62.25613 676.995533604953
62.27624 673.019214304094
62.29636 694.963890662881
62.31647 694.028985487947
62.33659 668.010610088518
62.3567 667
62.37681 700.01115528823
62.39693 683.906641020253
62.41704 629.029256023404
62.43715 688.954025713123
62.45727 645.060786888188
62.47738 636.014551051566
62.49749 608.005836954631
62.51761 616.000740308996
62.53772 601.987772217781
62.55784 592.957554642079
62.57795 575.041204889201
62.59806 611.976257153502
62.61818 583.040282000766
62.63829 569.988035804721
62.6584 594
62.67852 540.980400168418
62.69863 562.008790048205
62.71875 550.057293284667
62.73886 597.98049886087
62.75897 564.030641973248
62.77909 570.005905207692
62.7992 537
62.81931 554.007850279649
62.83943 541.947410849795
62.85954 514.010248391116
62.87965 542.956547543167
62.89977 529.044929521093
62.91988 508.998972810225
62.94 524
62.96011 521.997288203751
62.98022 522.004947010056
63.00034 527.001128142395
63.02045 525.988255406189
63.04056 524.056572105971
63.06068 489.001739617758
63.08079 515.994402074932
63.10091 498.993435771249
63.12102 512.029485307943
63.14113 522.950156091022
63.16125 467.929663067602
63.18136 484.935244298466
63.20147 505.981938882871
63.22159 506.008888618506
63.2417 482
63.26182 494.032053153773
63.28193 522.005557006623
63.30204 507.989483466185
63.32216 512.024919268608
63.34227 486.015757875148
63.36238 493.002379735532
63.3825 474
63.40261 481.014740460311
63.42272 505.993303753893
63.44284 474.958520534544
63.46295 482.947598754344
63.48307 490.027433258265
63.50318 458.022239468054
63.52329 477.964340049764
63.54341 538.989260497454
63.56352 457.954687724006
63.58363 487.071833759218
63.60375 496.924957652293
63.62386 464.986872355941
63.64398 500.984092823936
63.66409 490.996245773206
63.6842 517
63.70432 493.99440334826
63.72443 494.93255334005
63.74454 440.048129581593
63.76466 525.9187594215
63.78477 500.012128791396
63.80489 533.992333455004
63.825 518
63.84511 534.992846950007
63.86523 501.008968959126
63.88534 535.987408651437
63.90545 492.018666489791
63.92557 527.981546617609
63.94568 514.972924205425
63.96579 556.018611600753
63.98591 471.996895902506
64.00602 553.0534445862
64.02614 522.888541269161
64.04625 495.998733640424
64.06636 517.91470590291
64.08648 545.024051319448
64.10659 496.005929030107
64.1267 524
64.14682 507.009976746797
64.16693 539.999023399257
64.18705 511.010864942446
64.20716 530.092486764488
64.22727 446.019926250535
64.24739 511.977533343837
64.2675 495
64.28761 509.013497342814
64.30773 519.980186640246
64.32784 497.985770295103
64.34796 507.988369348986
64.36807 505.988455102214
64.38818 514.018749964731
64.4083 478
64.42841 483.996825138386
64.44852 449.9578403181
64.46864 440.08762829678
64.48875 495.990229997231
64.50886 458.012065898886
64.52898 495.980249339746
64.54909 472.01554240417
64.56921 465.006039822005
64.58932 479.003652783141
64.60943 459.937401306226
64.62955 442.132403702378
64.64966 513.024088817847
64.66977 433.048161714379
64.68989 467.997199248984
64.71 434
64.73012 495.024163530782
64.75023 467.987693624683
64.77034 477.916142995067
64.79046 407.011330954752
64.81057 466.951591650801
64.83068 443.015629250051
64.8508 464
64.87091 468.002736848469
64.89102 472.983789371055
64.91114 443.975322668754
64.93125 452.985268140418
64.95137 449.989906440223
64.97148 460.011967506343
64.99159 430.009217793778
65.01171 429.998055236456
65.03182 423.01306869458
65.05193 441.981237657276
65.07205 407.980007763855
65.09216 442.905484902814
65.11228 465.011127870714
65.13239 440.005762094795
65.1525 451
65.17262 451.985734220184
65.19273 439.008757621805
65.21284 451.982021172372
65.23296 426.017003366626
65.25307 443.971077773505
65.27319 445.005932568275
65.2933 438
65.31341 467.018131875055
65.33353 482.968300940469
65.35364 441.946828061044
65.37375 440.994427738148
65.39387 435.004561093824
65.41398 442.98413669232
65.43409 451.006337451895
65.45421 440.012989267697
65.47432 476.986421780325
65.49444 421.948785137593
65.51455 443.037620845103
65.53466 438.96797796751
65.55478 460.028503736877
65.57489 405.001628691215
65.595 468
65.61512 479.965995224439
65.63523 431.944794545737
65.65535 420.005744691464
65.67546 431.945074351851
65.69557 465.9625487256
65.71569 462.018830238973
65.7358 425
65.75591 454.000081144795
65.77603 432.02524619844
65.79614 480.020935805972
65.81626 430.128320719719
65.83637 407.952615715663
65.85648 453.990917617456
65.8766 422
65.89671 431.012926397565
65.91682 441.982122148554
65.93694 418.013632073978
65.95705 456.91233025255
65.97716 457.06173151726
65.99728 421.018795576853
66.01739 426.991802009386
66.03751 443.009427667839
66.05762 459.003698234471
66.07773 445.962821297169
66.09785 420.954957577476
66.11796 405.050397474991
66.13807 386.973664477393
66.15819 433.97939060353
66.1783 441
66.19842 411.978164066898
66.21853 412.033223692212
66.23864 433.997951246517
66.25876 410.047628178231
66.27887 410.958333222839
66.29898 432.021765084373
66.3191 391
66.33921 442.026134317933
66.35933 454.972986862382
66.37944 434.997582007098
66.39955 453.95073148305
66.41967 457.018061928803
66.43978 435.02813050274
66.45989 416.997413486538
66.48001 428.994716643337
66.50012 406.004203261362
66.52023 440.040144006367
66.54035 435.945227709113
66.56046 416.021191352609
66.58058 418.986228104975
66.60069 430.001376529604
66.6208 419
66.64092 427.004667913141
66.66103 428.016318655811
66.68114 440.987297069821
66.70126 422.006550237405
66.72137 425.042204387295
66.74149 392.985243576751
66.7616 457
66.78171 401.98775885356
66.80183 439.058341813591
66.82194 436.946167611812
66.84205 415.00684912654
66.86217 424.001111394782
66.88228 404.027033727034
66.90239 401.978400626057
66.92251 457.006132412083
66.94262 421.967270233941
66.96274 424.040612658624
66.98285 430.94581778395
67.00296 409.950973444663
67.02308 453.010649424156
67.04319 394.014705076748
67.0633 430
67.08342 458.985147813497
67.10353 428.995131412913
67.12365 447.987941568948
67.14376 418.020445778862
67.16387 434.989410476788
67.18399 421.004461826055
67.2041 430
67.22421 430.991938517042
67.24433 419.026967328372
67.26444 450.002206697169
67.28456 415.068040988364
67.30467 414.953914954425
67.32478 447.990555259909
67.3449 432
67.36501 431.005135312615
67.38512 444.012348854119
67.40524 449.994030407179
67.42535 435.067651519819
67.44546 413.992122211129
67.46558 431.997920783877
67.48569 426.986694993508
67.50581 469.000893417595
67.52592 436.995957937324
67.54603 468.01739130577
67.56615 447.97570277882
67.58626 460.987176499661
67.60637 447.02832974941
67.62649 444.98931647974
67.6466 476
67.66672 474.98852787386
67.68683 466.998691870454
67.70694 475.030068731894
67.72706 487.993411282331
67.74717 480.020126883063
67.76728 467.012278074063
67.7874 466
67.80751 487.995995942005
67.82763 455.972100026849
67.84774 457.986097349802
67.86785 451.914208021242
67.88797 494.034546325721
67.90808 420.037216896762
67.92819 444.987313055889
67.94831 443.002198308504
67.96842 465.016823760589
67.98853 471.017751304132
68.00865 484.988879342477
68.02876 460.053397472425
68.04888 452.984080806927
68.06899 476.993177159448
68.0891 469
68.10922 463.035483644516
68.12933 509.000435799856
68.14944 469.967760880882
68.16956 493.961490879325
68.18967 483.033218533731
68.20979 471.998150518853
68.2299 483
68.25001 480.996974536784
68.27013 480.01195145625
68.29024 490.002168152093
68.31035 485.986084134872
68.33047 491.030583721318
68.35058 456.013379351729
68.3707 457
68.39081 419.006943990503
68.41092 487.061900208188
68.43104 484.870401808088
68.45115 415.962696153081
68.47126 448.965760310828
68.49138 426.023722777128
68.51149 422.999914419579
68.5316 428
68.55172 463.003174756299
68.57183 433.964000373994
68.59195 434.016023576889
68.61206 440.961772997189
68.63217 460.008072134385
68.65229 425.022555839512
68.6724 404
68.69251 440.007489651723
68.71263 426.984931117156
68.73274 432.002902768584
68.75286 432.955927660344
68.77297 464.986785589594
68.79308 438.042105169958
68.8132 407
68.83331 413.010659675239
68.85342 432.002802417642
68.87354 430.03638800762
68.89365 455.017531577048
68.91376 420.040080367309
68.93388 434.97280009162
68.95399 448.002619749143
68.97411 430.990938320519
68.99422 413.976255034538
69.01433 399.0264151271
69.03445 431.010496672903
69.05456 406.027004385927
69.07467 416.987837943584
69.09479 413.997492891826
69.1149 427
69.13502 412.985293764306
69.15513 425.076966759484
69.17524 464.929468602263
69.19536 390.028534681233
69.21547 442.959200064812
69.23558 415.019588649493
69.2557 430
69.27581 429.006183912084
69.29593 454.014920111279
69.31604 441.972912116386
69.33615 442.971610721678
69.35627 441.052191300184
69.37638 400.000326343265
69.39649 425.005940288181
69.41661 388.00609933839
69.43672 447.028945599639
69.45683 420.955354532232
69.47695 422.039133674013
69.49706 432.000142957909
69.51718 423.01249354609
69.53729 415.000342238237
69.5574 424
69.57752 435.990550603523
69.59763 414.988974237177
69.61774 430.042228891334
69.63786 438.017004094174
69.65797 419.030050500252
69.67809 404.006432394421
69.6982 401
69.71831 426.00375545735
69.73843 413.986448118752
69.75854 413.985779984325
69.77865 400.010514477729
69.79877 405.004296188776
69.81888 401.978333297985
69.839 439
69.85911 423.986920195693
69.87922 408.997589665104
69.89934 413.006016688521
69.91945 420.058077656626
69.93956 442.018889842816
69.95968 407.024376187455
69.97979 408.995806848029
69.9999 416
70.02002 442.019396554862
70.04013 441.973360351192
70.06025 421.979719671697
70.08036 415.060175844141
70.10047 388.95484431194
70.12059 445.00062760801
70.1407 399
70.16081 457.008770819491
70.18093 411.945412028479
70.20104 419.029887219506
70.22116 418.010870455368
70.24127 422.972022727126
70.26138 438.009539889599
70.2815 412
70.30161 420.004267942941
70.32172 420.002884599125
70.34184 419.959797463668
70.36195 399.955420295042
70.38207 445.96049810946
70.40218 431.030430942597
70.42229 415.997058404649
70.44241 420.988478965208
70.46252 393.017600876295
70.48263 433.987424634305
70.50275 378.934424830383
70.52286 410.910862064998
70.54297 426.017748729023
70.56309 410.000017173643
70.5832 423
70.60332 416.006046046604
70.62343 416.932409235679
70.64354 363.031595387971
70.66366 433.935728367848
70.68377 411.002354945949
70.70388 431.035002729011
70.724 361
70.74411 425.023176875813
70.76423 405.934032714873
70.78434 391.056435178714
70.80445 428.00838872857
70.82457 395.004474197489
70.84468 422.999865178003
70.86479 388.009137758499
70.88491 414.02302509616
70.90502 437.983228479271
70.92513 403.986571976716
70.94525 423.020048951745
70.96536 408.022341370794
70.98548 417.978256108048
71.00559 431.003601427795
71.0257 421
71.04582 448.996544434813
71.06593 411.955975323609
71.08604 412.021209119771
71.10616 419.978549949152
71.12627 427.013269077058
71.14639 411.999545025749
71.1665 421
71.18661 400.007119925989
71.20673 431.982922715467
71.22684 379.942378100974
71.24695 393.967000263851
71.26707 393.973131897286
71.28718 428.980506250674
71.3073 423
71.32741 420.996739919081
71.34752 422.032321682699
71.36764 451.939496634913
71.38775 382.075673120022
71.40786 407.95932373082
71.42798 396.009087619085
71.44809 406.99349110234
71.4682 416
71.48832 437.009668755368
71.50843 431.988423401772
71.52855 420.933499303492
71.54866 393.004228338683
71.56877 423.933685248174
71.58889 451.000819326961
71.609 431
71.62911 423.993868747252
71.64923 404.982150049104
71.66934 414.060334269551
71.68946 440.008938964033
71.70957 414.018803753875
71.72968 427.981366712314
71.7498 441
71.76991 457.998266930038
71.79002 436.983276532899
71.81014 428.967651849038
71.83025 411.982811067199
71.85037 435.985603303766
71.87048 431.985463303572
71.89059 449.014512589623
71.91071 398.00013510506
71.93082 450.031130116722
71.95093 429.955708429153
71.97105 414.956380033749
71.99116 404.950662638644
72.01127 444.98746328666
72.03139 433.985619126236
72.0515 469
72.07162 385.032553935254
72.09173 500.022191032896
72.11184 395.880203719667
72.13196 437.920988546317
72.15207 431.986010863498
72.17218 465.993392728249
72.1923 437
72.21241 444.005152669385
72.23253 438.977995268168
72.25264 435.0431070285
72.27275 459.029752775115
72.29287 432.969979839822
72.31298 481.999819292007
72.33309 428.01768172907
72.35321 437.003432861127
72.37332 422.992867989548
72.39344 428.995672203607
72.41355 426.06170793509
72.43366 462.990506676659
72.45378 439.005111972462
72.47389 464.989210694666
72.494 460
72.51412 433.959894888625
72.53423 395.981801959468
72.55434 418.082303636248
72.57446 441.036548724287
72.59457 412.97490323211
72.61469 464.988712882292
72.6348 442
72.65491 444.999723595009
72.67503 420.939810122885
72.69514 387.981840265683
72.71525 405.921228199913
72.73537 434.965248049072
72.75548 440.022600062482
72.7756 407
72.79571 419.012353236866
72.81582 435.000919329695
72.83594 432.020794838167
72.85605 448.009396551412
72.87616 423.04446989602
72.89628 418.993969232963
72.91639 422.00246327469
72.9365 421
72.95662 457.03070752944
72.97673 474.023432348367
72.99685 477.923477582071
73.01696 431.04249784213
73.03707 446.964818359736
73.05719 467.981070104471
73.0773 494
73.09741 424.986180481599
73.11753 450.020951694659
73.13764 435.002711513948
73.15776 457.9913246494
73.17787 438.014792676728
73.19798 443.009770957411
73.2181 431
73.23821 474.996318618324
73.25832 418.965325260082
73.27844 443.101661360736
73.29855 473.019221120756
73.31867 445.021545067618
73.33878 446.015554833169
73.35889 426.988534711867
73.37901 484.018552051867
73.39912 470.959803552899
73.41923 447.019899421507
73.43935 480.035491439611
73.45946 455.091981922625
73.47957 436.937731596848
73.49969 497.996087076358
73.5198 456
73.53992 477.996392677064
73.56003 444.996040885015
73.58014 481.046880050877
73.60026 462.080295278534
73.62037 431.017983838347
73.64048 452.938974793739
73.6606 500
73.68071 436.998345449034
73.70083 487.001313156873
73.72094 423.920797649566
73.74105 447.897672483406
73.76117 457.038328567424
73.78128 436.971353721306
73.80139 501.977487825003
73.82151 493.980730128286
73.84162 447.947956484718
73.86174 421.057898813121
73.88185 466.983350888136
73.90196 421.998692433537
73.92208 476.966028114688
73.94219 453.021944165337
73.9623 434
73.98242 461.01459068572
74.00253 449.963944865671
74.02264 429.97800936453
74.04276 429.983310043974
74.06287 446.957474385048
74.08299 470.001209056305
74.1031 439
74.12321 418.008602133976
74.14333 444.987359004965
74.16344 413.002614710352
74.18355 456.903386651196
74.20367 449.07288109458
74.22378 410.981372837297
74.2439 466
74.26401 439.98498899114
74.28412 427.982238975734
74.30424 410.02306732002
74.32435 441.966919946242
74.34446 428.021737980712
74.36458 435.987778740947
74.38469 442.996633811118
74.40481 451.00281154652
74.42492 440.96475625441
74.44503 410.019418556364
74.46515 454.056363916334
74.48526 445.991788779838
74.50537 467.000449128535
74.52549 441.008804708794
74.5456 435
74.56571 406.006138088966
74.58583 452.039729804055
74.60594 447.007754571225
74.62606 457.054041325843
74.64617 412.000366405101
74.66628 448.996259503014
74.6864 409
74.70651 432.019648159195
74.72662 449.988560716061
74.74674 418.935064353437
74.76685 413.915477852469
74.78697 455.988522377031
74.80708 429.019357664965
74.82719 435.994997783722
74.84731 429.991156137752
74.86742 417.004054261458
74.88753 424.979882336707
74.90765 402.011820710267
74.92776 431.969383636965
74.94787 419.023058851006
74.96799 420.993344197708
74.9881 434
75.00822 432.995079008442
