3.00117 20988
3.02128 20146
3.0414 20111
3.06151 19538
3.08162 18867
3.10174 18278
3.12185 17717
3.14197 17528
3.16208 16923
3.18219 16413
3.20231 16298
3.22242 15326
3.24253 15295
3.26265 14464
3.28276 13928
3.30288 14009
3.32299 13244
3.3431 13014
3.36322 12480
3.38333 12108
3.40344 11928
3.42356 11029
3.44367 11058
3.46379 10654
3.4839 10214
3.50401 10124
3.52413 9266
3.54424 9396
3.56435 8797
3.58447 8698
3.60458 8355
3.62469 7750
3.64481 7628
3.66492 7334
3.68504 7094
3.70515 7057
3.72526 6578
3.74538 6455
3.76549 6098
3.7856 5981
3.80572 5866
3.82583 5239
3.84595 5137
3.86606 5004
3.88617 4893
3.90629 4771
3.9264 4368
3.94651 4260
3.96663 4097
3.98674 4002
4.00686 3968
4.02697 3568
4.04708 3691
4.0672 3425
4.08731 3366
4.10742 3297
4.12754 2890
4.14765 2957
4.16776 2915
4.18788 2826
4.20799 2848
4.22811 2515
4.24822 2537
4.26833 2517
4.28845 2428
4.30856 2497
4.32867 2295
4.34879 2324
4.3689 2338
4.38902 2229
4.40913 2234
4.42924 2081
4.44936 2098
4.46947 2141
4.48958 2068
4.5097 2009
4.52981 1841
4.54992 1960
4.57004 1943
4.59015 2007
4.61027 1972
4.63038 1758
4.65049 1800
4.67061 1843
4.69072 1793
4.71083 1795
4.73095 1693
4.75106 1780
4.77118 1752
4.79129 1742
4.8114 1725
4.83152 1686
4.85163 1650
4.87174 1718
4.89186 1581
4.91197 1670
4.93209 1568
4.9522 1571
4.97231 1590
4.99243 1606
5.01254 1659
5.03265 1511
5.05277 1562
5.07288 1589
5.09299 1480
5.11311 1530
5.13322 1454
5.15334 1440
5.17345 1560
5.19356 1516
5.21368 1578
5.23379 1443
5.2539 1440
5.27402 1538
5.29413 1524
5.31425 1490
5.33436 1465
5.35447 1435
5.37459 1524
5.3947 1473
5.41481 1495
5.43493 1465
5.45504 1450
5.47516 1459
5.49527 1493
5.51538 1380
5.5355 1398
5.55561 1343
5.57572 1464
5.59584 1314
5.61595 1386
5.63606 1400
5.65618 1424
5.67629 1463
5.69641 1343
5.71652 1345
5.73663 1315
5.75675 1405
5.77686 1381
5.79697 1382
5.81709 1318
5.8372 1320
5.85732 1385
5.87743 1349
5.89754 1334
5.91766 1311
5.93777 1197
5.95788 1238
5.978 1184
5.99811 1173
6.01823 1249
6.03834 1223
6.05845 1202
6.07857 1181
6.09868 1127
6.11879 1152
6.13891 1167
6.15902 1115
6.17913 1126
6.19925 1027
6.21936 1064
6.23948 1085
6.25959 1048
6.2797 1021
6.29982 982
6.31993 1003
6.34004 914
6.36016 960
6.38027 993
6.40039 959
6.4205 869
6.44061 874
6.46073 909
6.48084 870
6.50095 859
6.52107 798
6.54118 774
6.56129 785
6.58141 805
6.60152 807
6.62164 830
6.64175 789
6.66186 785
6.68198 735
6.70209 719
6.7222 688
6.74232 724
6.76243 726
6.78255 690
6.80266 640
6.82277 669
6.84289 654
6.863 702
6.88311 691
6.90323 707
6.92334 664
6.94346 699
6.96357 646
6.98368 624
7.0038 645
7.02391 606
7.04402 615
7.06414 649
7.08425 586
7.10436 603
7.12448 571
7.14459 606
7.16471 532
7.18482 545
7.20493 595
7.22505 535
7.24516 572
7.26527 560
7.28539 563
7.3055 524
7.32562 549
7.34573 550
7.36584 534
7.38596 504
7.40607 507
7.42618 524
7.4463 475
7.46641 498
7.48653 534
7.50664 523
7.52675 468
7.54687 475
7.56698 482
7.58709 456
7.60721 511
7.62732 490
7.64743 477
7.66755 495
7.68766 475
7.70778 443
7.72789 514
7.748 445
7.76812 541
7.78823 506
7.80834 459
7.82846 481
7.84857 449
7.86869 488
7.8888 508
7.90891 468
7.92903 460
7.94914 483
7.96925 449
7.98937 421
8.00948 498
8.0296 468
8.04971 480
8.06982 467
8.08994 449
8.11005 448
8.13016 438
8.15028 480
8.17039 508
8.1905 489
8.21062 478
8.23073 476
8.25085 509
8.27096 486
8.29107 484
8.31119 510
8.3313 466
8.35141 500
8.37153 520
8.39164 510
8.41176 494
8.43187 481
8.45198 521
8.4721 497
8.49221 498
8.51232 518
8.53244 469
8.55255 444
8.57266 431
8.59278 476
8.61289 497
8.63301 478
8.65312 458
8.67323 458
8.69335 473
8.71346 400
8.73357 456
8.75369 423
8.7738 386
8.79392 392
8.81403 404
8.83414 406
8.85426 418
8.87437 349
8.89448 410
8.9146 379
8.93471 441
8.95483 414
8.97494 377
8.99505 390
9.01517 325
9.03528 415
9.05539 334
9.07551 355
9.09562 365
9.11573 354
9.13585 344
9.15596 353
9.17608 345
9.19619 359
9.2163 372
9.23642 371
9.25653 357
9.27664 351
9.29676 365
9.31687 340
9.33699 335
9.3571 346
9.37721 326
9.39733 359
9.41744 334
9.43755 354
9.45767 321
9.47778 339
9.4979 310
9.51801 349
9.53812 372
9.55824 339
9.57835 326
9.59846 315
9.61858 284
9.63869 303
9.6588 326
9.67892 335
9.69903 316
9.71915 341
9.73926 319
9.75937 358
9.77949 310
9.7996 333
9.81971 335
9.83983 324
9.85994 360
9.88006 326
9.90017 336
9.92028 340
9.9404 326
9.96051 329
9.98062 310
10.00074 322
10.02085 321
10.04097 297
10.06108 343
10.08119 280
10.10131 276
10.12142 296
10.14153 313
10.16165 325
10.18176 329
10.20187 334
10.22199 306
10.2421 298
10.26222 339
10.28233 309
10.30244 317
10.32256 345
10.34267 278
10.36278 301
10.3829 278
10.40301 350
10.42313 301
10.44324 318
10.46335 290
10.48347 303
10.50358 304
10.52369 305
10.54381 282
10.56392 283
10.58403 298
10.60415 286
10.62426 308
10.64438 318
10.66449 304
10.6846 299
10.70472 340
10.72483 263
10.74494 302
10.76506 316
10.78517 300
10.80529 332
10.8254 277
10.84551 290
10.86563 298
10.88574 273
10.90585 316
10.92597 304
10.94608 282
10.9662 286
10.98631 286
11.00642 288
11.02654 318
11.04665 303
11.06676 291
11.08688 306
11.10699 285
11.1271 300
11.14722 300
11.16733 288
11.18745 296
11.20756 304
11.22767 262
11.24779 301
11.2679 286
11.28801 280
11.30813 292
11.32824 289
11.34836 307
11.36847 307
11.38858 269
11.4087 320
11.42881 272
11.44892 305
11.46904 264
11.48915 268
11.50927 309
11.52938 267
11.54949 291
11.56961 295
11.58972 280
11.60983 310
11.62995 311
11.65006 278
11.67017 265
11.69029 258
11.7104 301
11.73052 290
11.75063 306
11.77074 277
11.79086 261
11.81097 302
11.83108 295
11.8512 289
11.87131 298
11.89143 310
11.91154 276
11.93165 291
11.95177 266
11.97188 280
11.99199 270
12.01211 253
12.03222 309
12.05234 268
12.07245 310
12.09256 288
12.11268 334
12.13279 288
12.1529 303
12.17302 259
12.19313 280
12.21324 293
12.23336 278
12.25347 310
12.27359 289
12.2937 327
12.31381 296
12.33393 300
12.35404 268
12.37415 291
12.39427 302
12.41438 278
12.4345 300
12.45461 280
12.47472 294
12.49484 295
12.51495 265
12.53506 281
12.55518 292
12.57529 263
12.5954 279
12.61552 294
12.63563 245
12.65575 290
12.67586 309
12.69597 280
12.71609 287
12.7362 277
12.75631 265
12.77643 281
12.79654 307
12.81666 270
12.83677 284
12.85688 279
12.877 304
12.89711 280
12.91722 289
12.93734 282
12.95745 297
12.97757 301
12.99768 293
13.01779 264
13.03791 283
13.05802 344
13.07813 279
13.09825 274
13.11836 301
13.13847 251
13.15859 293
13.1787 306
13.19882 296
13.21893 290
13.23904 283
13.25916 301
13.27927 280
13.29938 305
13.3195 278
13.33961 325
13.35973 260
13.37984 279
13.39995 276
13.42007 282
13.44018 263
13.46029 279
13.48041 292
13.50052 299
13.52064 306
13.54075 304
13.56086 233
13.58098 262
13.60109 300
13.6212 289
13.64132 295
13.66143 323
13.68154 302
13.70166 290
13.72177 308
13.74189 296
13.762 282
13.78211 269
13.80223 265
13.82234 292
13.84245 292
13.86257 259
13.88268 281
13.9028 288
13.92291 286
13.94302 232
13.96314 269
13.98325 268
14.00336 267
14.02348 272
14.04359 274
14.06371 273
14.08382 260
14.10393 265
14.12405 283
14.14416 275
14.16427 287
14.18439 261
14.2045 261
14.22461 284
14.24473 273
14.26484 288
14.28496 273
14.30507 238
14.32518 275
14.3453 277
14.36541 280
14.38552 246
14.40564 271
14.42575 281
14.44587 283
14.46598 281
14.48609 290
14.50621 247
14.52632 288
14.54643 284
14.56655 262
14.58666 266
14.60677 273
14.62689 318
14.647 247
14.66712 269
14.68723 271
14.70734 256
14.72746 273
14.74757 237
14.76768 298
14.7878 303
14.80791 255
14.82803 268
14.84814 292
14.86825 304
14.88837 277
14.90848 285
14.92859 262
14.94871 273
14.96882 265
14.98894 275
15.00905 251
15.02916 290
15.04928 281
15.06939 278
15.0895 242
15.10962 280
15.12973 287
15.14984 268
15.16996 266
15.19007 274
15.21019 237
15.2303 289
15.25041 248
15.27053 283
15.29064 291
15.31075 277
15.33087 266
15.35098 264
15.3711 263
15.39121 263
15.41132 285
15.43144 267
15.45155 228
15.47166 291
15.49178 274
15.51189 268
15.53201 285
15.55212 276
15.57223 247
15.59235 285
15.61246 259
15.63257 291
15.65269 291
15.6728 291
15.69291 275
15.71303 313
15.73314 264
15.75326 294
15.77337 268
15.79348 304
15.8136 267
15.83371 265
15.85382 261
15.87394 253
15.89405 260
15.91417 267
15.93428 248
15.95439 262
15.97451 259
15.99462 287
16.01473 253
16.03485 295
16.05496 272
16.07508 271
16.09519 263
16.1153 271
16.13542 263
16.15553 250
16.17564 276
16.19576 271
16.21587 256
16.23598 309
16.2561 291
16.27621 262
16.29633 290
16.31644 282
16.33655 276
16.35667 278
16.37678 286
16.39689 270
16.41701 302
16.43712 291
16.45724 275
16.47735 277
16.49746 294
16.51758 272
16.53769 270
16.5578 302
16.57792 297
16.59803 277
16.61814 308
16.63826 348
16.65837 289
16.67849 295
16.6986 272
16.71871 288
16.73883 284
16.75894 247
16.77905 257
16.79917 304
16.81928 260
16.8394 280
16.85951 280
16.87962 290
16.89974 263
16.91985 293
16.93996 265
16.96008 293
16.98019 296
17.00031 262
17.02042 275
17.04053 306
17.06065 298
17.08076 321
17.10087 271
17.12099 243
17.1411 279
17.16121 278
17.18133 287
17.20144 299
17.22156 300
17.24167 274
17.26178 281
17.2819 274
17.30201 311
17.32212 315
17.34224 289
17.36235 301
17.38247 280
17.40258 288
17.42269 277
17.44281 324
17.46292 307
17.48303 301
17.50315 282
17.52326 322
17.54338 306
17.56349 267
17.5836 275
17.60372 297
17.62383 298
17.64394 327
17.66406 288
17.68417 275
17.70428 286
17.7244 281
17.74451 280
17.76463 286
17.78474 310
17.80485 324
17.82497 248
17.84508 280
17.86519 314
17.88531 316
17.90542 292
17.92554 281
17.94565 267
17.96576 302
17.98588 296
18.00599 293
18.0261 295
18.04622 285
18.06633 278
18.08645 275
18.10656 260
18.12667 288
18.14679 292
18.1669 265
18.18701 260
18.20713 281
18.22724 313
18.24735 279
18.26747 274
18.28758 295
18.3077 244
18.32781 268
18.34792 271
18.36804 259
18.38815 293
18.40826 302
18.42838 321
18.44849 262
18.46861 251
18.48872 306
18.50883 262
18.52895 287
18.54906 277
18.56917 315
18.58929 303
18.6094 290
18.62951 296
18.64963 257
18.66974 292
18.68986 262
18.70997 267
18.73008 290
18.7502 282
18.77031 303
18.79042 306
18.81054 272
18.83065 301
18.85077 285
18.87088 254
18.89099 275
18.91111 276
18.93122 299
18.95133 324
18.97145 309
18.99156 319
19.01168 321
19.03179 300
19.0519 271
19.07202 308
19.09213 316
19.11224 316
19.13236 292
19.15247 334
19.17258 354
19.1927 324
19.21281 331
19.23293 336
19.25304 349
19.27315 331
19.29327 390
19.31338 369
19.33349 365
19.35361 411
19.37372 366
19.39384 401
19.41395 440
19.43406 472
19.45418 492
19.47429 542
19.4944 545
19.51452 528
19.53463 589
19.55475 594
19.57486 649
19.59497 653
19.61509 702
19.6352 746
19.65531 754
19.67543 774
19.69554 811
19.71565 803
19.73577 783
19.75588 761
19.776 763
19.79611 819
19.81622 769
19.83634 752
19.85645 794
19.87656 764
19.89668 711
19.91679 698
19.93691 673
19.95702 688
19.97713 624
19.99725 657
20.01736 608
20.03747 624
20.05759 636
20.0777 623
20.09782 605
20.11793 645
20.13804 600
20.15816 647
20.17827 605
20.19838 620
20.2185 597
20.23861 553
20.25872 575
20.27884 543
20.29895 578
20.31907 576
20.33918 554
20.35929 561
20.37941 595
20.39952 577
20.41963 562
20.43975 581
20.45986 544
20.47998 610
20.50009 564
20.5202 598
20.54032 623
20.56043 661
20.58054 710
20.60066 727
20.62077 741
20.64088 838
20.661 967
20.68111 1185
20.70123 1493
20.72134 1960
20.74145 2564
20.76157 3419
20.78168 4450
20.80179 5139
20.82191 5583
20.84202 5470
20.86214 4936
20.88225 4023
20.90236 2815
20.92248 2038
20.94259 1424
20.9627 954
20.98282 813
21.00293 700
21.02305 683
21.04316 645
21.06327 563
21.08339 592
21.1035 557
21.12361 549
21.14373 544
21.16384 517
21.18395 460
21.20407 495
21.22418 510
21.2443 454
21.26441 458
21.28452 488
21.30464 417
21.32475 478
21.34486 446
21.36498 474
21.38509 430
21.40521 448
21.42532 474
21.44543 443
21.46555 401
21.48566 406
21.50577 424
21.52589 445
21.546 473
21.56612 430
21.58623 442
21.60634 423
21.62646 420
21.64657 421
21.66668 464
21.6868 398
21.70691 424
21.72702 400
21.74714 457
21.76725 421
21.78737 415
21.80748 391
21.82759 386
21.84771 403
21.86782 403
21.88793 392
21.90805 399
21.92816 395
21.94828 360
21.96839 426
21.9885 460
22.00862 423
22.02873 401
22.04884 405
22.06896 427
22.08907 409
22.10919 449
22.1293 411
22.14941 419
22.16953 392
22.18964 426
22.20975 412
22.22987 397
22.24998 382
22.27009 400
22.29021 412
22.31032 411
22.33044 424
22.35055 374
22.37066 405
22.39078 397
22.41089 382
22.431 394
22.45112 378
22.47123 388
22.49135 372
22.51146 349
22.53157 445
22.55169 400
22.5718 391
22.59191 351
22.61203 372
22.63214 382
22.65225 395
22.67237 384
22.69248 388
22.7126 396
22.73271 370
22.75282 421
22.77294 352
22.79305 384
22.81316 381
22.83328 409
22.85339 403
22.87351 394
22.89362 354
22.91373 356
22.93385 401
22.95396 427
22.97407 407
22.99419 398
23.0143 420
23.03442 419
23.05453 389
23.07464 402
23.09476 409
23.11487 440
23.13498 417
23.1551 412
23.17521 463
23.19532 378
23.21544 369
23.23555 383
23.25567 395
23.27578 404
23.29589 359
23.31601 374
23.33612 393
23.35623 346
23.37635 355
23.39646 371
23.41658 388
23.43669 368
23.4568 388
23.47692 360
23.49703 450
23.51714 385
23.53726 397
23.55737 379
23.57749 389
23.5976 380
23.61771 418
23.63783 391
23.65794 367
23.67805 369
23.69817 396
23.71828 412
23.73839 408
23.75851 387
23.77862 382
23.79874 383
23.81885 386
23.83896 402
23.85908 401
23.87919 385
23.8993 403
23.91942 416
23.93953 460
23.95965 431
23.97976 458
23.99987 426
24.01999 390
24.0401 430
24.06021 370
24.08033 409
24.10044 407
24.12056 392
24.14067 356
24.16078 423
24.1809 392
24.20101 397
24.22112 405
24.24124 377
24.26135 370
24.28146 421
24.30158 386
24.32169 434
24.34181 377
24.36192 388
24.38203 373
24.40215 377
24.42226 356
24.44237 361
24.46249 399
24.4826 403
24.50272 395
24.52283 369
24.54294 371
24.56306 386
24.58317 372
24.60328 392
24.6234 342
24.64351 419
24.66362 361
24.68374 350
24.70385 380
24.72397 364
24.74408 360
24.76419 370
24.78431 351
24.80442 361
24.82453 398
24.84465 367
24.86476 384
24.88488 383
24.90499 390
24.9251 404
24.94522 394
24.96533 386
24.98544 345
25.00556 351
25.02567 353
25.04579 364
25.0659 370
25.08601 368
25.10613 376
25.12624 416
25.14635 431
25.16647 382
25.18658 410
25.20669 376
25.22681 384
25.24692 394
25.26704 453
25.28715 414
25.30726 389
25.32738 394
25.34749 371
25.3676 383
25.38772 347
25.40783 393
25.42795 438
25.44806 415
25.46817 426
25.48829 476
25.5084 426
25.52851 420
25.54863 445
25.56874 437
25.58886 456
25.60897 471
25.62908 483
25.6492 448
25.66931 507
25.68942 516
25.70954 518
25.72965 542
25.74976 569
25.76988 543
25.78999 598
25.81011 527
25.83022 549
25.85033 519
25.87045 581
25.89056 564
25.91067 539
25.93079 579
25.9509 555
25.97102 572
25.99113 571
26.01124 638
26.03136 637
26.05147 623
26.07158 667
26.0917 653
26.11181 685
26.13193 692
26.15204 760
26.17215 820
26.19227 822
26.21238 940
26.23249 912
26.25261 1072
26.27272 1048
26.29283 1164
26.31295 1246
26.33306 1424
26.35318 1591
26.37329 1913
26.3934 2389
26.41352 2880
26.43363 3508
26.45374 4857
26.47386 6387
26.49397 8626
26.51409 11922
26.5342 15719
26.55431 20174
26.57443 24168
26.59454 25819
26.61465 25307
26.63477 22794
26.65488 18348
26.67499 13956
26.69511 10203
26.71522 6753
26.73534 4235
26.75545 2849
26.77556 1959
26.79568 1650
26.81579 1348
26.8359 1238
26.85602 1089
26.87613 1071
26.89625 1005
26.91636 930
26.93647 908
26.95659 812
26.9767 763
26.99681 774
27.01693 732
27.03704 696
27.05716 718
27.07727 634
27.09738 607
27.1175 632
27.13761 620
27.15772 595
27.17784 529
27.19795 559
27.21806 595
27.23818 531
27.25829 588
27.27841 618
27.29852 574
27.31863 564
27.33875 594
27.35886 550
27.37897 580
27.39909 608
27.4192 613
27.43932 600
27.45943 664
27.47954 604
27.49966 564
27.51977 534
27.53988 531
27.56 507
27.58011 576
27.60023 536
27.62034 524
27.64045 489
27.66057 494
27.68068 500
27.70079 492
27.72091 506
27.74102 499
27.76113 530
27.78125 523
27.80136 497
27.82148 481
27.84159 495
27.8617 457
27.88182 483
27.90193 509
27.92204 473
27.94216 477
27.96227 465
27.98239 468
28.0025 458
28.02261 457
28.04273 456
28.06284 474
28.08295 449
28.10307 450
28.12318 443
28.1433 479
28.16341 440
28.18352 399
28.20364 395
28.22375 442
28.24386 462
28.26398 421
28.28409 440
28.3042 464
28.32432 435
28.34443 469
28.36455 394
28.38466 427
28.40477 417
28.42489 428
28.445 413
28.46511 411
28.48523 388
28.50534 402
28.52546 439
28.54557 424
28.56568 410
28.5858 415
28.60591 406
28.62602 417
28.64614 395
28.66625 428
28.68636 448
28.70648 423
28.72659 433
28.74671 402
28.76682 435
28.78693 407
28.80705 464
28.82716 399
28.84727 400
28.86739 360
28.8875 428
28.90762 411
28.92773 403
28.94784 402
28.96796 422
28.98807 395
29.00818 415
29.0283 425
29.04841 419
29.06853 384
29.08864 413
29.10875 402
29.12887 405
29.14898 425
29.16909 422
29.18921 462
29.20932 427
29.22943 453
29.24955 466
29.26966 504
29.28978 568
29.30989 560
29.33 546
29.35012 615
29.37023 718
29.39034 701
29.41046 752
29.43057 744
29.45069 680
29.4708 655
29.49091 627
29.51103 626
29.53114 571
29.55125 506
29.57137 559
29.59148 483
29.6116 459
29.63171 436
29.65182 416
29.67194 428
29.69205 368
29.71216 423
29.73228 416
29.75239 448
29.7725 436
29.79262 387
29.81273 401
29.83285 380
29.85296 381
29.87307 402
29.89319 382
29.9133 415
29.93341 389
29.95353 383
29.97364 381
29.99376 407
30.01387 397
30.03398 393
30.0541 392
30.07421 342
30.09432 360
30.11444 375
30.13455 372
30.15467 372
30.17478 368
30.19489 376
30.21501 344
30.23512 366
30.25523 402
30.27535 393
30.29546 349
30.31557 348
30.33569 349
30.3558 377
30.37592 370
30.39603 393
30.41614 348
30.43626 358
30.45637 383
30.47648 384
30.4966 376
30.51671 363
30.53683 369
30.55694 348
30.57705 343
30.59717 358
30.61728 379
30.63739 353
30.65751 375
30.67762 337
30.69773 338
30.71785 365
30.73796 362
30.75808 368
30.77819 336
30.7983 337
30.81842 397
30.83853 312
30.85864 348
30.87876 377
30.89887 346
30.91899 326
30.9391 331
30.95921 319
30.97933 361
30.99944 361
31.01955 323
31.03967 314
31.05978 335
31.0799 326
31.10001 341
31.12012 320
31.14024 360
31.16035 313
31.18046 362
31.20058 351
31.22069 328
31.2408 329
31.26092 342
31.28103 339
31.30115 335
31.32126 348
31.34137 307
31.36149 309
31.3816 345
31.40171 306
31.42183 296
31.44194 332
31.46206 300
31.48217 293
31.50228 305
31.5224 357
31.54251 329
31.56262 317
31.58274 361
31.60285 289
31.62297 275
31.64308 326
31.66319 320
31.68331 343
31.70342 283
31.72353 299
31.74365 319
31.76376 314
31.78387 302
31.80399 287
31.8241 306
31.84422 301
31.86433 342
31.88444 285
31.90456 310
31.92467 350
31.94478 309
31.9649 316
31.98501 317
32.00513 318
32.02524 327
32.04535 319
32.06547 296
32.08558 359
32.10569 319
32.12581 346
32.14592 307
32.16604 316
32.18615 313
32.20626 310
32.22638 293
32.24649 325
32.2666 303
32.28672 308
32.30683 288
32.32694 290
32.34706 285
32.36717 313
32.38729 322
32.4074 295
32.42751 274
32.44763 310
32.46774 305
32.48785 298
32.50797 299
32.52808 296
32.5482 316
32.56831 315
32.58842 302
32.60854 330
32.62865 315
32.64876 302
32.66888 289
32.68899 304
32.7091 305
32.72922 291
32.74933 329
32.76945 286
32.78956 304
32.80967 301
32.82979 319
32.8499 265
32.87001 292
32.89013 318
32.91024 328
32.93036 287
32.95047 255
32.97058 310
32.9907 282
33.01081 292
33.03092 323
33.05104 312
33.07115 299
33.09127 267
33.11138 281
33.13149 301
33.15161 315
33.17172 319
33.19183 315
33.21195 276
33.23206 284
33.25217 292
33.27229 305
33.2924 310
33.31252 323
33.33263 287
33.35274 281
33.37286 307
33.39297 308
33.41308 316
33.4332 331
33.45331 302
33.47343 284
33.49354 296
33.51365 299
33.53377 312
33.55388 292
33.57399 304
33.59411 304
33.61422 278
33.63434 293
33.65445 304
33.67456 326
33.69468 308
33.71479 305
33.7349 286
33.75502 319
33.77513 323
33.79524 304
33.81536 320
33.83547 306
33.85559 301
33.8757 283
33.89581 325
33.91593 298
33.93604 294
33.95615 329
33.97627 319
33.99638 331
34.0165 332
34.03661 323
34.05672 311
34.07684 339
34.09695 318
34.11706 330
34.13718 349
34.15729 356
34.17741 347
34.19752 319
34.21763 355
34.23775 381
34.25786 387
34.27797 407
34.29809 413
34.3182 405
34.33831 393
34.35843 385
34.37854 454
34.39866 394
34.41877 465
34.43888 469
34.459 426
34.47911 450
34.49922 432
34.51934 459
34.53945 454
34.55957 440
34.57968 462
34.59979 494
34.61991 441
34.64002 454
34.66013 472
34.68025 470
34.70036 486
34.72047 483
34.74059 483
34.7607 515
34.78082 493
34.80093 471
34.82104 502
34.84116 490
34.86127 504
34.88138 474
34.9015 478
34.92161 509
34.94173 479
34.96184 543
34.98195 497
35.00207 487
35.02218 475
35.04229 460
35.06241 513
35.08252 456
35.10264 473
35.12275 533
35.14286 434
35.16298 451
35.18309 456
35.2032 491
35.22332 464
35.24343 452
35.26354 451
35.28366 497
35.30377 478
35.32389 475
35.344 430
35.36411 472
35.38423 447
35.40434 454
35.42445 431
35.44457 430
35.46468 430
35.4848 409
35.50491 451
35.52502 448
35.54514 483
35.56525 444
35.58536 452
35.60548 454
35.62559 462
35.64571 409
35.66582 424
35.68593 462
35.70605 422
35.72616 426
35.74627 420
35.76639 414
35.7865 429
35.80661 405
35.82673 426
35.84684 450
35.86696 483
35.88707 443
35.90718 423
35.9273 433
35.94741 444
35.96752 433
35.98764 441
36.00775 460
36.02787 420
36.04798 467
36.06809 437
36.08821 428
36.10832 449
36.12843 449
36.14855 425
36.16866 456
36.18878 481
36.20889 473
36.229 493
36.24912 469
36.26923 558
36.28934 520
36.30946 631
36.32957 657
36.34968 736
36.3698 886
36.38991 981
36.41003 1167
36.43014 1419
36.45025 1606
36.47037 1729
36.49048 1858
36.51059 1916
36.53071 1751
36.55082 1450
36.57094 1266
36.59105 1154
36.61116 1039
36.63128 874
36.65139 654
36.6715 564
36.69162 552
36.71173 464
36.73184 430
36.75196 449
36.77207 412
36.79219 431
36.8123 392
36.83241 398
36.85253 425
36.87264 397
36.89275 379
36.91287 406
36.93298 394
36.9531 397
36.97321 377
36.99332 373
37.01344 385
37.03355 411
37.05366 356
37.07378 377
37.09389 340
37.11401 343
37.13412 359
37.15423 377
37.17435 338
37.19446 363
37.21457 341
37.23469 371
37.2548 361
37.27491 347
37.29503 346
37.31514 341
37.33526 357
37.35537 357
37.37548 350
37.3956 353
37.41571 355
37.43582 379
37.45594 364
37.47605 335
37.49617 346
37.51628 362
37.53639 360
37.55651 367
37.57662 368
37.59673 380
37.61685 344
37.63696 363
37.65708 359
37.67719 320
37.6973 363
37.71742 368
37.73753 356
37.75764 350
37.77776 340
37.79787 352
37.81798 396
37.8381 382
37.85821 336
37.87833 335
37.89844 312
37.91855 342
37.93867 343
37.95878 342
37.97889 337
37.99901 343
38.01912 359
38.03924 331
38.05935 331
38.07946 373
38.09958 322
38.11969 346
38.1398 338
38.15992 334
38.18003 318
38.20015 314
38.22026 345
38.24037 336
38.26049 359
38.2806 327
38.30071 309
38.32083 327
38.34094 336
38.36105 339
38.38117 360
38.40128 334
38.4214 319
38.44151 307
38.46162 330
38.48174 323
38.50185 352
38.52196 343
38.54208 333
38.56219 324
38.58231 307
38.60242 339
38.62253 317
38.64265 330
38.66276 363
38.68287 354
38.70299 345
38.7231 293
38.74321 365
38.76333 329
38.78344 342
38.80356 333
38.82367 347
38.84378 323
38.8639 340
38.88401 331
38.90412 331
38.92424 289
38.94435 331
38.96447 353
38.98458 358
39.00469 360
39.02481 369
39.04492 366
39.06503 326
39.08515 415
39.10526 388
39.12538 400
39.14549 412
39.1656 426
39.18572 455
39.20583 517
39.22594 532
39.24606 577
39.26617 684
39.28628 774
39.3064 904
39.32651 1068
39.34663 1222
39.36674 1425
39.38685 1664
39.40697 1662
39.42708 1766
39.44719 1607
39.46731 1449
39.48742 1308
39.50754 1188
39.52765 1014
39.54776 868
39.56788 730
39.58799 615
39.6081 474
39.62822 405
39.64833 445
39.66845 409
39.68856 368
39.70867 382
39.72879 352
39.7489 359
39.76901 376
39.78913 344
39.80924 361
39.82935 361
39.84947 353
39.86958 357
39.8897 373
39.90981 339
39.92992 334
39.95004 344
39.97015 387
39.99026 412
40.01038 449
40.03049 384
40.05061 420
40.07072 467
40.09083 494
40.11095 581
40.13106 630
40.15117 700
40.17129 792
40.1914 867
40.21152 1010
40.23163 996
40.25174 1006
40.27186 934
40.29197 790
40.31208 752
40.3322 662
40.35231 626
40.37242 563
40.39254 498
40.41265 404
40.43277 388
40.45288 350
40.47299 397
40.49311 345
40.51322 315
40.53333 366
40.55345 317
40.57356 348
40.59368 324
40.61379 327
40.6339 327
40.65402 304
40.67413 310
40.69424 339
40.71436 290
40.73447 333
40.75458 313
40.7747 343
40.79481 307
40.81493 319
40.83504 308
40.85515 339
40.87527 341
40.89538 329
40.91549 337
40.93561 283
40.95572 313
40.97584 299
40.99595 321
41.01606 318
41.03618 295
41.05629 302
41.0764 335
41.09652 319
41.11663 300
41.13675 282
41.15686 321
41.17697 299
41.19709 304
41.2172 333
41.23731 321
41.25743 352
41.27754 319
41.29765 292
41.31777 330
41.33788 317
41.358 309
41.37811 324
41.39822 295
41.41834 319
41.43845 331
41.45856 299
41.47868 298
41.49879 326
41.51891 318
41.53902 334
41.55913 300
41.57925 312
41.59936 319
41.61947 333
41.63959 342
41.6597 364
41.67982 333
41.69993 326
41.72004 341
41.74016 329
41.76027 332
41.78038 322
41.8005 330
41.82061 332
41.84072 352
41.86084 326
41.88095 346
41.90107 330
41.92118 327
41.94129 319
41.96141 362
41.98152 346
42.00163 304
42.02175 334
42.04186 351
42.06198 340
42.08209 355
42.1022 381
42.12232 384
42.14243 436
42.16254 391
42.18266 403
42.20277 492
42.22289 508
42.243 574
42.26311 646
42.28323 700
42.30334 821
42.32345 941
42.34357 1043
42.36368 1197
42.38379 1241
42.40391 1249
42.42402 1224
42.44414 1106
42.46425 1037
42.48436 878
42.50448 812
42.52459 751
42.5447 647
42.56482 520
42.58493 497
42.60505 424
42.62516 353
42.64527 340
42.66539 344
42.6855 340
42.70561 327
42.72573 325
42.74584 331
42.76595 336
42.78607 320
42.80618 318
42.8263 314
42.84641 332
42.86652 329
42.88664 313
42.90675 324
42.92686 299
42.94698 302
42.96709 334
42.98721 271
43.00732 297
43.02743 285
43.04755 306
43.06766 302
43.08777 274
43.10789 318
43.128 286
43.14812 346
43.16823 314
43.18834 359
43.20846 332
43.22857 340
43.24868 305
43.2688 348
43.28891 340
43.30902 313
43.32914 337
43.34925 320
43.36937 324
43.38948 295
43.40959 313
43.42971 320
43.44982 293
43.46993 301
43.49005 303
43.51016 291
43.53028 286
43.55039 278
43.5705 275
43.59062 278
43.61073 305
43.63084 266
43.65096 286
43.67107 294
43.69119 288
43.7113 290
43.73141 294
43.75153 261
43.77164 280
43.79175 277
43.81187 265
43.83198 280
43.85209 275
43.87221 275
43.89232 265
43.91244 276
43.93255 253
43.95266 259
43.97278 275
43.99289 270
44.013 289
44.03312 257
44.05323 290
44.07335 266
44.09346 284
44.11357 292
44.13369 243
44.1538 292
44.17391 270
44.19403 277
44.21414 286
44.23426 297
44.25437 278
44.27448 250
44.2946 283
44.31471 279
44.33482 306
44.35494 293
44.37505 314
44.39516 262
44.41528 268
44.43539 269
44.45551 269
44.47562 271
44.49573 248
44.51585 272
44.53596 275
44.55607 263
44.57619 270
44.5963 258
44.61642 300
44.63653 268
44.65664 279
44.67676 274
44.69687 253
44.71698 253
44.7371 278
44.75721 262
44.77732 267
44.79744 257
44.81755 282
44.83767 279
44.85778 284
44.87789 297
44.89801 257
44.91812 284
44.93823 281
44.95835 273
44.97846 289
44.99858 271
45.01869 278
45.0388 263
45.05892 262
45.07903 280
45.09914 263
45.11926 269
45.13937 287
45.15949 263
45.1796 279
45.19971 289
45.21983 262
45.23994 282
45.26005 304
45.28017 269
45.30028 257
45.32039 274
45.34051 259
45.36062 261
45.38074 308
45.40085 290
45.42096 286
45.44108 308
45.46119 307
45.4813 314
45.50142 340
45.52153 361
45.54165 386
45.56176 441
45.58187 434
45.60199 453
45.6221 509
45.64221 561
45.66233 689
45.68244 745
45.70256 823
45.72267 874
45.74278 912
45.7629 818
45.78301 777
45.80312 687
45.82324 604
45.84335 597
45.86346 572
45.88358 552
45.90369 439
45.92381 409
45.94392 322
45.96403 302
45.98415 293
46.00426 318
46.02437 304
46.04449 288
46.0646 286
46.08472 317
46.10483 312
46.12494 263
46.14506 264
46.16517 284
46.18528 310
46.2054 272
46.22551 247
46.24563 301
46.26574 275
46.28585 280
46.30597 256
46.32608 280
46.34619 254
46.36631 288
46.38642 259
46.40653 241
46.42665 239
46.44676 257
46.46688 284
46.48699 273
46.5071 268
46.52722 269
46.54733 278
46.56744 272
46.58756 245
46.60767 247
46.62779 263
46.6479 241
46.66801 256
46.68813 261
46.70824 267
46.72835 231
46.74847 279
46.76858 264
46.78869 259
46.80881 261
46.82892 232
46.84904 251
46.86915 258
46.88926 240
46.90938 241
46.92949 253
46.9496 286
46.96972 282
46.98983 253
47.00995 248
47.03006 266
47.05017 261
47.07029 306
47.0904 274
47.11051 274
47.13063 261
47.15074 291
47.17086 277
47.19097 301
47.21108 280
47.2312 257
47.25131 271
47.27142 259
47.29154 292
47.31165 259
47.33176 256
47.35188 287
47.37199 260
47.39211 295
47.41222 300
47.43233 318
47.45245 260
47.47256 300
47.49267 279
47.51279 322
47.5329 271
47.55302 335
47.57313 277
47.59324 337
47.61336 288
47.63347 303
47.65358 298
47.6737 278
47.69381 285
47.71393 259
47.73404 269
47.75415 277
47.77427 248
47.79438 282
47.81449 242
47.83461 288
47.85472 297
47.87483 257
47.89495 235
47.91506 269
47.93518 279
47.95529 279
47.9754 249
47.99552 243
48.01563 229
48.03574 248
48.05586 244
48.07597 258
48.09609 241
48.1162 241
48.13631 279
48.15643 235
48.17654 253
48.19665 272
48.21677 240
48.23688 290
48.257 252
48.27711 233
48.29722 253
48.31734 300
48.33745 283
48.35756 289
48.37768 293
48.39779 258
48.4179 292
48.43802 284
48.45813 272
48.47825 287
48.49836 320
48.51847 302
48.53859 307
48.5587 305
48.57881 295
48.59893 319
48.61904 318
48.63916 299
48.65927 294
48.67938 249
48.6995 295
48.71961 297
48.73972 306
48.75984 250
48.77995 297
48.80006 262
48.82018 271
48.84029 276
48.86041 293
48.88052 270
48.90063 274
48.92075 239
48.94086 227
48.96097 274
48.98109 268
49.0012 254
49.02132 270
49.04143 272
49.06154 283
49.08166 228
49.10177 274
49.12188 292
49.142 247
49.16211 265
49.18223 224
49.20234 267
49.22245 271
49.24257 297
49.26268 275
49.28279 267
49.30291 268
49.32302 299
49.34313 296
49.36325 271
49.38336 255
49.40348 269
49.42359 288
49.4437 254
49.46382 234
49.48393 256
49.50404 291
49.52416 299
49.54427 271
49.56439 323
49.5845 294
49.60461 294
49.62473 304
49.64484 308
49.66495 325
49.68507 351
49.70518 349
49.7253 379
49.74541 398
49.76552 411
49.78564 422
49.80575 449
49.82586 500
49.84598 589
49.86609 652
49.8862 702
49.90632 782
49.92643 957
49.94655 1070
49.96666 1258
49.98677 1589
50.00689 1747
50.027 2127
50.04711 2302
50.06723 2481
50.08734 2583
50.10746 2504
50.12757 2060
50.14768 1808
50.1678 1606
50.18791 1458
50.20802 1399
50.22814 1298
50.24825 1096
50.26837 933
50.28848 650
50.30859 510
50.32871 441
50.34882 442
50.36893 351
50.38905 357
50.40916 326
50.42927 351
50.44939 306
50.4695 307
50.48962 329
50.50973 337
50.52984 372
50.54996 353
50.57007 344
50.59018 321
50.6103 307
50.63041 317
50.65053 304
50.67064 310
50.69075 293
50.71087 310
50.73098 291
50.75109 303
50.77121 275
50.79132 289
50.81143 249
50.83155 258
50.85166 253
50.87178 262
50.89189 289
50.912 274
50.93212 277
50.95223 249
50.97234 264
50.99246 258
51.01257 228
51.03269 250
51.0528 226
51.07291 264
51.09303 241
51.11314 255
51.13325 256
51.15337 242
51.17348 231
51.1936 231
51.21371 242
51.23382 260
51.25394 232
51.27405 262
51.29416 278
51.31428 255
51.33439 257
51.3545 251
51.37462 247
51.39473 272
51.41485 243
51.43496 238
51.45507 219
51.47519 232
51.4953 241
51.51541 215
51.53553 253
51.55564 230
51.57576 243
51.59587 242
51.61598 231
51.6361 223
51.65621 240
51.67632 281
51.69644 259
51.71655 257
51.73667 227
51.75678 218
51.77689 256
51.79701 237
51.81712 275
51.83723 238
51.85735 236
51.87746 267
51.89757 232
51.91769 229
51.9378 249
51.95792 250
51.97803 249
51.99814 232
52.01826 253
52.03837 250
52.05848 227
52.0786 231
52.09871 213
52.11883 263
52.13894 228
52.15905 203
52.17917 245
52.19928 258
52.21939 239
52.23951 254
52.25962 275
52.27974 217
52.29985 259
52.31996 245
52.34008 254
52.36019 217
52.3803 253
52.40042 244
52.42053 263
52.44064 258
52.46076 231
52.48087 230
52.50099 254
52.5211 250
52.54121 242
52.56133 245
52.58144 226
52.60155 250
52.62167 256
52.64178 230
52.6619 218
52.68201 233
52.70212 273
52.72224 236
52.74235 235
52.76246 239
52.78258 244
52.80269 281
52.8228 255
52.84292 263
52.86303 246
52.88315 253
52.90326 237
52.92337 266
52.94349 244
52.9636 244
52.98371 247
53.00383 237
53.02394 269
53.04406 262
53.06417 275
53.08428 267
53.1044 261
53.12451 264
53.14462 266
53.16474 287
53.18485 258
53.20497 287
53.22508 284
53.24519 309
53.26531 282
53.28542 273
53.30553 296
53.32565 268
53.34576 256
53.36587 276
53.38599 287
53.4061 294
53.42622 278
53.44633 286
53.46644 283
53.48656 292
53.50667 294
53.52678 284
53.5469 304
53.56701 312
53.58713 293
53.60724 279
53.62735 310
53.64747 332
53.66758 300
53.68769 291
53.70781 282
53.72792 305
53.74804 313
53.76815 290
53.78826 302
53.80838 269
53.82849 287
53.8486 293
53.86872 305
53.88883 299
53.90894 296
53.92906 282
53.94917 295
53.96929 312
53.9894 277
54.00951 307
54.02963 289
54.04974 293
54.06985 282
54.08997 256
54.11008 312
54.1302 321
54.15031 295
54.17042 276
54.19054 285
54.21065 299
54.23076 271
54.25088 312
54.27099 303
54.29111 316
54.31122 306
54.33133 315
54.35145 299
54.37156 299
54.39167 282
54.41179 326
54.4319 318
54.45201 316
54.47213 334
54.49224 352
54.51236 336
54.53247 358
54.55258 360
54.5727 390
54.59281 408
54.61292 430
54.63304 423
54.65315 505
54.67327 498
54.69338 609
54.71349 625
54.73361 784
54.75372 854
54.77383 935
54.79395 1017
54.81406 1043
54.83417 973
54.85429 868
54.8744 817
54.89452 735
54.91463 671
54.93474 679
54.95486 675
54.97497 611
54.99508 585
55.0152 530
55.03531 457
55.05543 404
55.07554 402
55.09565 401
55.11577 415
55.13588 404
55.15599 404
55.17611 479
55.19622 493
55.21634 501
55.23645 523
55.25656 566
55.27668 573
55.29679 566
55.3169 497
55.33702 464
55.35713 485
55.37724 439
55.39736 416
55.41747 417
55.43759 411
55.4577 416
55.47781 342
55.49793 314
55.51804 306
55.53815 309
55.55827 306
55.57838 305
55.5985 294
55.61861 294
55.63872 276
55.65884 275
55.67895 278
55.69906 300
55.71918 271
55.73929 284
55.75941 276
55.77952 285
55.79963 276
55.81975 286
55.83986 278
55.85997 268
55.88009 272
55.9002 258
55.92031 274
55.94043 283
55.96054 263
55.98066 255
56.00077 246
56.02088 288
56.041 271
56.06111 288
56.08122 251
56.10134 272
56.12145 274
56.14157 304
56.16168 271
56.18179 291
56.20191 259
56.22202 254
56.24213 270
56.26225 250
56.28236 291
56.30248 269
56.32259 259
56.3427 263
56.36282 259
56.38293 266
56.40304 242
56.42316 264
56.44327 265
56.46338 266
56.4835 259
56.50361 255
56.52373 279
56.54384 258
56.56395 292
56.58407 261
56.60418 283
56.62429 280
56.64441 272
56.66452 288
56.68464 267
56.70475 260
56.72486 312
56.74498 278
56.76509 265
56.7852 292
56.80532 265
56.82543 260
56.84554 276
56.86566 275
56.88577 280
56.90589 274
56.926 252
56.94611 274
56.96623 273
56.98634 274
57.00645 285
57.02657 259
57.04668 266
57.0668 283
57.08691 289
57.10702 283
57.12714 326
57.14725 298
57.16736 294
57.18748 291
57.20759 280
57.22771 308
57.24782 291
57.26793 300
57.28805 274
57.30816 296
57.32827 272
57.34839 272
57.3685 296
57.38861 256
57.40873 260
57.42884 279
57.44896 262
57.46907 276
57.48918 282
57.5093 271
57.52941 271
57.54952 278
57.56964 265
57.58975 299
57.60987 290
57.62998 262
57.65009 252
57.67021 246
57.69032 261
57.71043 276
57.73055 273
57.75066 251
57.77078 247
57.79089 235
57.811 259
57.83112 276
57.85123 239
57.87134 253
57.89146 275
57.91157 245
57.93168 264
57.9518 255
57.97191 289
57.99203 267
58.01214 259
58.03225 243
58.05237 254
58.07248 221
58.09259 249
58.11271 268
58.13282 251
58.15294 241
58.17305 257
58.19316 268
58.21328 267
58.23339 242
58.2535 274
58.27362 265
58.29373 236
58.31385 274
58.33396 248
58.35407 235
58.37419 300
58.3943 261
58.41441 268
58.43453 242
58.45464 242
58.47475 264
58.49487 251
58.51498 276
58.5351 265
58.55521 275
58.57532 262
58.59544 274
58.61555 263
58.63566 243
58.65578 247
58.67589 243
58.69601 245
58.71612 256
58.73623 295
58.75635 245
58.77646 225
58.79657 279
58.81669 232
58.8368 236
58.85691 270
58.87703 255
58.89714 262
58.91726 250
58.93737 252
58.95748 256
58.9776 245
58.99771 279
59.01782 243
59.03794 252
59.05805 244
59.07817 254
59.09828 280
59.11839 236
59.13851 246
59.15862 255
59.17873 270
59.19885 269
59.21896 267
59.23908 264
59.25919 267
59.2793 283
59.29942 272
59.31953 288
59.33964 274
59.35976 257
59.37987 276
59.39998 267
59.4201 305
59.44021 317
59.46033 315
59.48044 330
59.50055 307
59.52067 349
59.54078 349
59.56089 393
59.58101 399
59.60112 382
59.62124 438
59.64135 477
59.66146 459
59.68158 531
59.70169 565
59.7218 678
59.74192 758
59.76203 908
59.78215 1030
59.80226 1127
59.82237 1346
59.84249 1467
59.8626 1627
59.88271 1698
59.90283 1670
59.92294 1584
59.94305 1334
59.96317 1122
59.98328 1122
60.0034 1060
60.02351 1021
60.04362 990
60.06374 921
60.08385 894
60.10396 782
60.12408 571
60.14419 507
60.16431 391
60.18442 371
60.20453 335
60.22465 303
60.24476 332
60.26487 306
60.28499 316
60.3051 297
60.32522 286
60.34533 283
60.36544 300
60.38556 286
60.40567 300
60.42578 295
60.4459 304
60.46601 266
60.48612 267
60.50624 280
60.52635 304
60.54647 283
60.56658 291
60.58669 260
60.60681 292
60.62692 272
60.64703 297
60.66715 267
60.68726 296
60.70738 292
60.72749 299
60.7476 267
60.76772 287
60.78783 267
60.80794 299
60.82806 305
60.84817 273
60.86828 280
60.8884 308
60.90851 304
60.92863 309
60.94874 285
60.96885 319
60.98897 325
61.00908 308
61.02919 315
61.04931 318
61.06942 318
61.08954 313
61.10965 316
61.12976 299
61.14988 326
61.16999 340
61.1901 312
61.21022 323
61.23033 320
61.25045 343
61.27056 334
61.29067 335
61.31079 334
61.3309 349
61.35101 392
61.37113 384
61.39124 386
61.41135 418
61.43147 386
61.45158 378
61.4717 358
61.49181 410
61.51192 397
61.53204 374
61.55215 390
61.57226 393
61.59238 392
61.61249 374
61.63261 374
61.65272 367
61.67283 367
61.69295 363
61.71306 343
61.73317 391
61.75329 330
61.7734 399
61.79352 325
61.81363 351
61.83374 324
61.85386 345
61.87397 351
61.89408 351
61.9142 353
61.93431 374
61.95442 316
61.97454 305
61.99465 330
62.01477 315
62.03488 328
62.05499 311
62.07511 274
62.09522 284
62.11533 290
62.13545 294
62.15556 301
62.17568 323
62.19579 257
62.2159 283
62.23602 288
62.25613 305
62.27624 279
62.29636 278
62.31647 287
62.33659 288
62.3567 292
62.37681 275
62.39693 273
62.41704 246
62.43715 262
62.45727 287
62.47738 281
62.49749 286
62.51761 254
62.53772 277
62.55784 253
62.57795 258
62.59806 259
62.61818 269
62.63829 251
62.6584 259
62.67852 262
62.69863 253
62.71875 215
62.73886 259
62.75897 261
62.77909 238
62.7992 259
62.81931 250
62.83943 261
62.85954 252
62.87965 243
62.89977 255
62.91988 241
62.94 241
62.96011 246
62.98022 238
63.00034 261
63.02045 249
63.04056 228
63.06068 247
63.08079 224
63.10091 245
63.12102 258
63.14113 234
63.16125 260
63.18136 257
63.20147 251
63.22159 251
63.2417 273
63.26182 256
63.28193 238
63.30204 245
63.32216 245
63.34227 213
63.36238 239
63.3825 248
63.40261 258
63.42272 233
63.44284 252
63.46295 240
63.48307 246
63.50318 261
63.52329 248
63.54341 231
63.56352 244
63.58363 230
63.60375 244
63.62386 272
63.64398 271
63.66409 256
63.6842 285
63.70432 268
63.72443 302
63.74454 269
63.76466 269
63.78477 314
63.80489 306
63.825 322
63.84511 344
63.86523 365
63.88534 372
63.90545 455
63.92557 449
63.94568 462
63.96579 491
63.98591 521
64.00602 477
64.02614 450
64.04625 407
64.06636 401
64.08648 360
64.10659 363
64.1267 384
64.14682 370
64.16693 376
64.18705 337
64.20716 294
64.22727 296
64.24739 274
64.2675 283
64.28761 233
64.30773 212
64.32784 263
64.34796 254
64.36807 246
64.38818 234
64.4083 243
64.42841 261
64.44852 216
64.46864 237
64.48875 238
64.50886 229
64.52898 246
64.54909 260
64.56921 259
64.58932 218
64.60943 255
64.62955 234
64.64966 244
64.66977 250
64.68989 246
64.71 267
64.73012 237
64.75023 232
64.77034 258
64.79046 261
64.81057 222
64.83068 241
64.8508 217
64.87091 219
64.89102 258
64.91114 251
64.93125 261
64.95137 224
64.97148 242
64.99159 233
65.01171 258
65.03182 223
65.05193 249
65.07205 251
65.09216 257
65.11228 240
65.13239 244
65.1525 241
65.17262 226
65.19273 243
65.21284 245
65.23296 260
65.25307 247
65.27319 228
65.2933 241
65.31341 279
65.33353 209
65.35364 237
65.37375 265
65.39387 248
65.41398 258
65.43409 245
65.45421 224
65.47432 271
65.49444 258
65.51455 256
65.53466 269
65.55478 268
65.57489 250
65.595 287
65.61512 264
65.63523 263
65.65535 307
65.67546 313
65.69557 307
65.71569 340
65.7358 288
65.75591 277
65.77603 304
65.79614 299
65.81626 259
65.83637 254
65.85648 246
65.8766 259
65.89671 308
65.91682 261
65.93694 277
65.95705 265
65.97716 262
65.99728 240
66.01739 231
66.03751 218
66.05762 255
66.07773 246
66.09785 238
66.11796 240
66.13807 256
66.15819 241
66.1783 240
66.19842 275
66.21853 257
66.23864 228
66.25876 245
66.27887 216
66.29898 252
66.3191 240
66.33921 255
66.35933 234
66.37944 250
66.39955 235
66.41967 241
66.43978 250
66.45989 248
66.48001 233
66.50012 278
66.52023 244
66.54035 230
66.56046 242
66.58058 223
66.60069 241
66.6208 265
66.64092 271
66.66103 266
66.68114 224
66.70126 234
66.72137 248
66.74149 265
66.7616 255
66.78171 245
66.80183 254
66.82194 250
66.84205 214
66.86217 257
66.88228 273
66.90239 265
66.92251 215
66.94262 252
66.96274 242
66.98285 242
67.00296 264
67.02308 266
67.04319 277
67.0633 271
67.08342 256
67.10353 271
67.12365 266
67.14376 263
67.16387 259
67.18399 260
67.2041 300
67.22421 268
67.24433 271
67.26444 261
67.28456 273
67.30467 281
67.32478 326
67.3449 286
67.36501 351
67.38512 342
67.40524 349
67.42535 380
67.44546 402
67.46558 420
67.48569 463
67.50581 524
67.52592 545
67.54603 665
67.56615 670
67.58626 778
67.60637 935
67.62649 1003
67.6466 1049
67.66672 1159
67.68683 1133
67.70694 1146
67.72706 978
67.74717 861
67.76728 866
67.7874 780
67.80751 784
67.82763 822
67.84774 879
67.86785 914
67.88797 925
67.90808 906
67.92819 893
67.94831 904
67.96842 969
67.98853 1023
68.00865 1055
68.02876 1282
68.04888 1392
68.06899 1514
68.0891 1539
68.10922 1427
68.12933 1347
68.14944 1206
68.16956 1157
68.18967 1170
68.20979 1212
68.2299 1326
68.25001 1373
68.27013 1289
68.29024 1150
68.31035 1063
68.33047 877
68.35058 762
68.3707 701
68.39081 582
68.41092 608
68.43104 570
68.45115 531
68.47126 546
68.49138 490
68.51149 435
68.5316 375
68.55172 372
68.57183 310
68.59195 287
68.61206 297
68.63217 277
68.65229 271
68.6724 268
68.69251 268
68.71263 267
68.73274 261
68.75286 269
68.77297 247
68.79308 249
68.8132 256
68.83331 270
68.85342 241
68.87354 259
68.89365 245
68.91376 245
68.93388 219
68.95399 274
68.97411 239
68.99422 274
69.01433 249
69.03445 237
69.05456 234
69.07467 244
69.09479 271
69.1149 245
69.13502 231
69.15513 246
69.17524 249
69.19536 228
69.21547 253
69.23558 264
69.2557 245
69.27581 238
69.29593 259
69.31604 235
69.33615 244
69.35627 238
69.37638 257
69.39649 253
69.41661 241
69.43672 235
69.45683 257
69.47695 259
69.49706 238
69.51718 261
69.53729 217
69.5574 219
69.57752 237
69.59763 247
69.61774 257
69.63786 244
69.65797 264
69.67809 248
69.6982 257
69.71831 234
69.73843 226
69.75854 220
69.77865 240
69.79877 206
69.81888 237
69.839 224
69.85911 236
69.87922 240
69.89934 260
69.91945 242
69.93956 219
69.95968 245
69.97979 237
69.9999 235
70.02002 226
70.04013 224
70.06025 238
70.08036 245
70.10047 230
70.12059 250
70.1407 262
70.16081 245
70.18093 258
70.20104 224
70.22116 257
70.24127 236
70.26138 229
70.2815 252
70.30161 237
70.32172 247
70.34184 215
70.36195 216
70.38207 263
70.40218 250
70.42229 234
70.44241 228
70.46252 241
70.48263 242
70.50275 241
70.52286 236
70.54297 236
70.56309 224
70.5832 249
70.60332 219
70.62343 224
70.64354 247
70.66366 242
70.68377 216
70.70388 242
70.724 215
70.74411 225
70.76423 248
70.78434 219
70.80445 216
70.82457 247
70.84468 255
70.86479 235
70.88491 223
70.90502 245
70.92513 249
70.94525 223
70.96536 205
70.98548 224
71.00559 221
71.0257 228
71.04582 259
71.06593 228
71.08604 231
71.10616 249
71.12627 226
71.14639 242
71.1665 236
71.18661 227
71.20673 235
71.22684 232
71.24695 244
71.26707 221
71.28718 230
71.3073 269
71.32741 234
71.34752 228
71.36764 230
71.38775 223
71.40786 201
71.42798 213
71.44809 234
71.4682 248
71.48832 237
71.50843 248
71.52855 264
71.54866 252
71.56877 213
71.58889 225
71.609 243
71.62911 223
71.64923 222
71.66934 241
71.68946 215
71.70957 250
71.72968 239
71.7498 245
71.76991 224
71.79002 242
71.81014 256
71.83025 237
71.85037 219
71.87048 234
71.89059 247
71.91071 222
71.93082 266
71.95093 238
71.97105 272
71.99116 249
72.01127 279
72.03139 260
72.0515 247
72.07162 257
72.09173 238
72.11184 230
72.13196 260
72.15207 244
72.17218 261
72.1923 255
72.21241 256
72.23253 245
72.25264 288
72.27275 227
72.29287 232
72.31298 250
72.33309 266
72.35321 270
72.37332 243
72.39344 281
72.41355 264
72.43366 280
72.45378 256
72.47389 266
72.494 274
72.51412 267
72.53423 242
72.55434 280
72.57446 280
72.59457 259
72.61469 276
72.6348 268
72.65491 264
72.67503 230
72.69514 294
72.71525 276
72.73537 270
72.75548 293
72.7756 270
72.79571 301
72.81582 281
72.83594 267
72.85605 265
72.87616 305
72.89628 269
72.91639 298
72.9365 267
72.95662 283
72.97673 257
72.99685 280
73.01696 302
73.03707 305
73.05719 277
73.0773 297
73.09741 295
73.11753 291
73.13764 323
73.15776 345
73.17787 308
73.19798 319
73.2181 355
73.23821 399
73.25832 396
73.27844 404
73.29855 448
73.31867 433
73.33878 534
73.35889 526
73.37901 538
73.39912 545
73.41923 518
73.43935 536
73.45946 477
73.47957 411
73.49969 382
73.5198 387
73.53992 385
73.56003 371
73.58014 373
73.60026 458
73.62037 404
73.64048 352
73.6606 385
73.68071 328
73.70083 325
73.72094 260
73.74105 276
73.76117 275
73.78128 257
73.80139 267
73.82151 291
73.84162 256
73.86174 252
73.88185 253
73.90196 264
73.92208 274
73.94219 253
73.9623 241
73.98242 250
74.00253 240
74.02264 261
74.04276 253
74.06287 269
74.08299 268
74.1031 270
74.12321 258
74.14333 253
74.16344 232
74.18355 252
74.20367 251
74.22378 222
74.2439 278
74.26401 239
74.28412 237
74.30424 229
74.32435 225
74.34446 219
74.36458 254
74.38469 214
74.40481 230
74.42492 249
74.44503 228
74.46515 234
74.48526 243
74.50537 249
74.52549 234
74.5456 264
74.56571 235
74.58583 238
74.60594 257
74.62606 268
74.64617 236
74.66628 230
74.6864 216
74.70651 266
74.72662 262
74.74674 242
74.76685 224
74.78697 247
74.80708 251
74.82719 234
74.84731 257
74.86742 218
74.88753 248
74.90765 239
74.92776 250
74.94787 200
74.96799 268
74.9881 238
75.00822 251
