3.00117 19465
3.02128 18564
3.0414 18483
3.06151 17714
3.08162 17370
3.10174 16842
3.12185 16327
3.14197 15783
3.16208 15088
3.18219 14926
3.20231 14442
3.22242 13620
3.24253 13825
3.26265 12689
3.28276 12687
3.30288 12566
3.32299 11981
3.3431 11619
3.36322 10872
3.38333 10844
3.40344 10246
3.42356 9944
3.44367 10074
3.46379 9266
3.4839 9417
3.50401 8969
3.52413 8328
3.54424 8325
3.56435 7787
3.58447 7564
3.60458 7362
3.62469 7032
3.64481 6834
3.66492 6237
3.68504 6296
3.70515 6093
3.72526 5673
3.74538 5679
3.76549 5244
3.7856 5122
3.80572 4994
3.82583 4557
3.84595 4544
3.86606 4185
3.88617 4088
3.90629 3897
3.9264 3731
3.94651 3728
3.96663 3300
3.98674 3292
4.00686 3132
4.02697 2978
4.04708 3024
4.0672 2603
4.08731 2625
4.10742 2628
4.12754 2468
4.14765 2480
4.16776 2169
4.18788 2149
4.20799 2019
4.22811 1960
4.24822 1983
4.26833 1776
4.28845 1895
4.30856 1755
4.32867 1688
4.34879 1695
4.3689 1574
4.38902 1533
4.40913 1513
4.42924 1544
4.44936 1531
4.46947 1371
4.48958 1407
4.5097 1304
4.52981 1402
4.54992 1382
4.57004 1243
4.59015 1260
4.61027 1225
4.63038 1200
4.65049 1201
4.67061 1120
4.69072 1047
4.71083 1151
4.73095 1108
4.75106 1121
4.77118 1001
4.79129 1008
4.8114 1095
4.83152 985
4.85163 982
4.87174 886
4.89186 923
4.91197 869
4.93209 857
4.9522 823
4.97231 826
4.99243 788
5.01254 822
5.03265 803
5.05277 779
5.07288 683
5.09299 750
5.11311 742
5.13322 773
5.15334 702
5.17345 696
5.19356 646
5.21368 677
5.23379 676
5.2539 660
5.27402 645
5.29413 617
5.31425 624
5.33436 649
5.35447 580
5.37459 523
5.3947 574
5.41481 562
5.43493 541
5.45504 508
5.47516 528
5.49527 509
5.51538 499
5.5355 522
5.55561 458
5.57572 513
5.59584 501
5.61595 485
5.63606 475
5.65618 484
5.67629 498
5.69641 472
5.71652 411
5.73663 447
5.75675 403
5.77686 430
5.79697 415
5.81709 388
5.8372 426
5.85732 428
5.87743 396
5.89754 430
5.91766 390
5.93777 401
5.95788 424
5.978 390
5.99811 417
6.01823 372
6.03834 384
6.05845 372
6.07857 367
6.09868 385
6.11879 407
6.13891 389
6.15902 346
6.17913 398
6.19925 388
6.21936 398
6.23948 349
6.25959 374
6.2797 355
6.29982 408
6.31993 312
6.34004 355
6.36016 381
6.38027 317
6.40039 322
6.4205 363
6.44061 366
6.46073 342
6.48084 332
6.50095 345
6.52107 369
6.54118 332
6.56129 330
6.58141 330
6.60152 363
6.62164 329
6.64175 382
6.66186 373
6.68198 350
6.70209 316
6.7222 353
6.74232 317
6.76243 333
6.78255 350
6.80266 346
6.82277 324
6.84289 316
6.863 355
6.88311 363
6.90323 323
6.92334 295
6.94346 371
6.96357 349
6.98368 356
7.0038 351
7.02391 334
7.04402 319
7.06414 335
7.08425 347
7.10436 341
7.12448 317
7.14459 319
7.16471 343
7.18482 317
7.20493 339
7.22505 330
7.24516 316
7.26527 318
7.28539 313
7.3055 335
7.32562 328
7.34573 334
7.36584 318
7.38596 377
7.40607 315
7.42618 349
7.4463 323
7.46641 347
7.48653 343
7.50664 326
7.52675 317
7.54687 351
7.56698 364
7.58709 340
7.60721 366
7.62732 327
7.64743 311
7.66755 306
7.68766 316
7.70778 353
7.72789 324
7.748 285
7.76812 331
7.78823 317
7.80834 344
7.82846 310
7.84857 323
7.86869 296
7.8888 300
7.90891 337
7.92903 349
7.94914 349
7.96925 338
7.98937 360
8.00948 327
8.0296 314
8.04971 332
8.06982 320
8.08994 349
8.11005 347
8.13016 358
8.15028 327
8.17039 354
8.1905 336
8.21062 320
8.23073 346
8.25085 306
8.27096 345
8.29107 346
8.31119 354
8.3313 359
8.35141 347
8.37153 334
8.39164 350
8.41176 330
8.43187 383
8.45198 359
8.4721 329
8.49221 345
8.51232 363
8.53244 359
8.55255 342
8.57266 348
8.59278 331
8.61289 326
8.63301 328
8.65312 377
8.67323 398
8.69335 373
8.71346 368
8.73357 349
8.75369 358
8.7738 364
8.79392 373
8.81403 420
8.83414 402
8.85426 325
8.87437 362
8.89448 355
8.9146 323
8.93471 385
8.95483 369
8.97494 381
8.99505 374
9.01517 362
9.03528 330
9.05539 329
9.07551 300
9.09562 344
9.11573 359
9.13585 361
9.15596 335
9.17608 338
9.19619 323
9.2163 336
9.23642 337
9.25653 340
9.27664 325
9.29676 350
9.31687 327
9.33699 317
9.3571 362
9.37721 367
9.39733 366
9.41744 330
9.43755 327
9.45767 342
9.47778 301
9.4979 333
9.51801 336
9.53812 394
9.55824 348
9.57835 353
9.59846 335
9.61858 307
9.63869 315
9.6588 322
9.67892 302
9.69903 363
9.71915 350
9.73926 343
9.75937 339
9.77949 313
9.7996 360
9.81971 310
9.83983 312
9.85994 326
9.88006 336
9.90017 342
9.92028 292
9.9404 339
9.96051 307
9.98062 353
10.00074 317
10.02085 361
10.04097 316
10.06108 329
10.08119 367
10.10131 342
10.12142 317
10.14153 351
10.16165 337
10.18176 326
10.20187 318
10.22199 327
10.2421 298
10.26222 340
10.28233 319
10.30244 314
10.32256 312
10.34267 319
10.36278 361
10.3829 306
10.40301 321
10.42313 297
10.44324 317
10.46335 346
10.48347 328
10.50358 315
10.52369 344
10.54381 316
10.56392 326
10.58403 280
10.60415 290
10.62426 299
10.64438 301
10.66449 346
10.6846 313
10.70472 315
10.72483 319
10.74494 332
10.76506 338
10.78517 328
10.80529 297
10.8254 313
10.84551 334
10.86563 350
10.88574 320
10.90585 335
10.92597 329
10.94608 357
10.9662 317
10.98631 362
11.00642 311
11.02654 325
11.04665 345
11.06676 367
11.08688 364
11.10699 322
11.1271 333
11.14722 322
11.16733 330
11.18745 335
11.20756 350
11.22767 340
11.24779 340
11.2679 343
11.28801 325
11.30813 343
11.32824 334
11.34836 336
11.36847 313
11.38858 342
11.4087 364
11.42881 371
11.44892 356
11.46904 330
11.48915 364
11.50927 332
11.52938 357
11.54949 286
11.56961 329
11.58972 348
11.60983 347
11.62995 344
11.65006 392
11.67017 325
11.69029 334
11.7104 330
11.73052 330
11.75063 348
11.77074 349
11.79086 356
11.81097 346
11.83108 364
11.8512 386
11.87131 365
11.89143 359
11.91154 364
11.93165 351
11.95177 359
11.97188 372
11.99199 354
12.01211 364
12.03222 361
12.05234 360
12.07245 404
12.09256 371
12.11268 438
12.13279 395
12.1529 360
12.17302 380
12.19313 381
12.21324 366
12.23336 351
12.25347 345
12.27359 367
12.2937 355
12.31381 377
12.33393 375
12.35404 397
12.37415 389
12.39427 405
12.41438 329
12.4345 363
12.45461 329
12.47472 335
12.49484 324
12.51495 353
12.53506 358
12.55518 344
12.57529 353
12.5954 376
12.61552 317
12.63563 357
12.65575 303
12.67586 365
12.69597 313
12.71609 291
12.7362 333
12.75631 313
12.77643 342
12.79654 343
12.81666 317
12.83677 350
12.85688 339
12.877 292
12.89711 333
12.91722 324
12.93734 319
12.95745 355
12.97757 329
12.99768 305
13.01779 298
13.03791 306
13.05802 302
13.07813 327
13.09825 294
13.11836 293
13.13847 265
13.15859 292
13.1787 316
13.19882 307
13.21893 321
13.23904 313
13.25916 319
13.27927 330
13.29938 292
13.3195 314
13.33961 350
13.35973 363
13.37984 349
13.39995 357
13.42007 319
13.44018 300
13.46029 313
13.48041 285
13.50052 294
13.52064 332
13.54075 310
13.56086 308
13.58098 332
13.60109 381
13.6212 391
13.64132 391
13.66143 382
13.68154 323
13.70166 324
13.72177 343
13.74189 331
13.762 291
13.78211 291
13.80223 332
13.82234 321
13.84245 292
13.86257 312
13.88268 307
13.9028 313
13.92291 312
13.94302 300
13.96314 287
13.98325 294
14.00336 279
14.02348 292
14.04359 326
14.06371 270
14.08382 285
14.10393 275
14.12405 288
14.14416 272
14.16427 281
14.18439 287
14.2045 267
14.22461 311
14.24473 290
14.26484 278
14.28496 314
14.30507 325
14.32518 291
14.3453 265
14.36541 284
14.38552 283
14.40564 292
14.42575 273
14.44587 317
14.46598 267
14.48609 266
14.50621 254
14.52632 255
14.54643 271
14.56655 278
14.58666 282
14.60677 283
14.62689 259
14.647 282
14.66712 284
14.68723 301
14.70734 292
14.72746 257
14.74757 294
14.76768 286
14.7878 282
14.80791 274
14.82803 278
14.84814 320
14.86825 250
14.88837 276
14.90848 318
14.92859 258
14.94871 287
14.96882 304
14.98894 294
15.00905 290
15.02916 340
15.04928 309
15.06939 347
15.0895 362
15.10962 386
15.12973 308
15.14984 326
15.16996 329
15.19007 281
15.21019 302
15.2303 291
15.25041 257
15.27053 291
15.29064 245
15.31075 279
15.33087 321
15.35098 266
15.3711 297
15.39121 296
15.41132 290
15.43144 274
15.45155 292
15.47166 285
15.49178 272
15.51189 242
15.53201 275
15.55212 296
15.57223 284
15.59235 268
15.61246 273
15.63257 308
15.65269 291
15.6728 265
15.69291 312
15.71303 314
15.73314 286
15.75326 256
15.77337 271
15.79348 261
15.8136 284
15.83371 300
15.85382 280
15.87394 271
15.89405 275
15.91417 293
15.93428 265
15.95439 309
15.97451 276
15.99462 281
16.01473 255
16.03485 283
16.05496 326
16.07508 297
16.09519 315
16.1153 282
16.13542 262
16.15553 278
16.17564 313
16.19576 286
16.21587 278
16.23598 268
16.2561 294
16.27621 285
16.29633 272
16.31644 318
16.33655 272
16.35667 267
16.37678 280
16.39689 288
16.41701 265
16.43712 294
16.45724 255
16.47735 277
16.49746 295
16.51758 287
16.53769 252
16.5578 289
16.57792 279
16.59803 250
16.61814 282
16.63826 263
16.65837 254
16.67849 259
16.6986 281
16.71871 269
16.73883 285
16.75894 273
16.77905 286
16.79917 291
16.81928 293
16.8394 261
16.85951 311
16.87962 248
16.89974 294
16.91985 298
16.93996 314
16.96008 280
16.98019 259
17.00031 287
17.02042 317
17.04053 293
17.06065 284
17.08076 295
17.10087 267
17.12099 288
17.1411 284
17.16121 313
17.18133 286
17.20144 290
17.22156 262
17.24167 263
17.26178 305
17.2819 305
17.30201 290
17.32212 262
17.34224 299
17.36235 297
17.38247 289
17.40258 299
17.42269 275
17.44281 257
17.46292 290
17.48303 291
17.50315 279
17.52326 265
17.54338 258
17.56349 293
17.5836 287
17.60372 272
17.62383 272
17.64394 284
17.66406 300
17.68417 284
17.70428 284
17.7244 236
17.74451 307
17.76463 313
17.78474 278
17.80485 298
17.82497 291
17.84508 289
17.86519 298
17.88531 279
17.90542 280
17.92554 323
17.94565 281
17.96576 277
17.98588 295
18.00599 272
18.0261 271
18.04622 285
18.06633 274
18.08645 273
18.10656 297
18.12667 290
18.14679 280
18.1669 270
18.18701 263
18.20713 289
18.22724 287
18.24735 273
18.26747 287
18.28758 276
18.3077 299
18.32781 281
18.34792 306
18.36804 289
18.38815 251
18.40826 303
18.42838 279
18.44849 281
18.46861 276
18.48872 297
18.50883 257
18.52895 296
18.54906 305
18.56917 284
18.58929 303
18.6094 291
18.62951 310
18.64963 279
18.66974 307
18.68986 272
18.70997 295
18.73008 279
18.7502 279
18.77031 273
18.79042 299
18.81054 281
18.83065 285
18.85077 303
18.87088 307
18.89099 284
18.91111 299
18.93122 286
18.95133 308
18.97145 306
18.99156 324
19.01168 269
19.03179 323
19.0519 256
19.07202 261
19.09213 300
19.11224 278
19.13236 274
19.15247 281
19.17258 310
19.1927 289
19.21281 276
19.23293 291
19.25304 334
19.27315 352
19.29327 342
19.31338 309
19.33349 327
19.35361 341
19.37372 329
19.39384 336
19.41395 336
19.43406 350
19.45418 334
19.47429 353
19.4944 344
19.51452 330
19.53463 351
19.55475 353
19.57486 336
19.59497 335
19.61509 372
19.6352 354
19.65531 361
19.67543 370
19.69554 346
19.71565 380
19.73577 419
19.75588 420
19.776 379
19.79611 427
19.81622 449
19.83634 420
19.85645 438
19.87656 423
19.89668 458
19.91679 440
19.93691 465
19.95702 430
19.97713 430
19.99725 440
20.01736 434
20.03747 428
20.05759 440
20.0777 449
20.09782 474
20.11793 444
20.13804 420
20.15816 442
20.17827 450
20.19838 472
20.2185 428
20.23861 430
20.25872 442
20.27884 432
20.29895 408
20.31907 438
20.33918 416
20.35929 458
20.37941 455
20.39952 493
20.41963 479
20.43975 459
20.45986 472
20.47998 525
20.50009 493
20.5202 512
20.54032 472
20.56043 505
20.58054 503
20.60066 509
20.62077 520
20.64088 566
20.661 632
20.68111 745
20.70123 841
20.72134 1155
20.74145 1494
20.76157 1990
20.78168 2752
20.80179 3737
20.82191 4337
20.84202 4840
20.86214 4671
20.88225 4069
20.90236 2980
20.92248 2198
20.94259 1519
20.9627 1192
20.98282 1049
21.00293 1014
21.02305 963
21.04316 921
21.06327 872
21.08339 792
21.1035 743
21.12361 608
21.14373 583
21.16384 567
21.18395 547
21.20407 523
21.22418 541
21.2443 489
21.26441 476
21.28452 532
21.30464 502
21.32475 528
21.34486 502
21.36498 511
21.38509 473
21.40521 476
21.42532 515
21.44543 496
21.46555 494
21.48566 465
21.50577 482
21.52589 452
21.546 443
21.56612 436
21.58623 452
21.60634 426
21.62646 439
21.64657 402
21.66668 393
21.6868 433
21.70691 402
21.72702 413
21.74714 427
21.76725 392
21.78737 398
21.80748 398
21.82759 417
21.84771 366
21.86782 387
21.88793 402
21.90805 404
21.92816 429
21.94828 404
21.96839 465
21.9885 445
22.00862 413
22.02873 487
22.04884 403
22.06896 379
22.08907 386
22.10919 366
22.1293 342
22.14941 387
22.16953 340
22.18964 312
22.20975 363
22.22987 346
22.24998 366
22.27009 337
22.29021 371
22.31032 362
22.33044 339
22.35055 381
22.37066 335
22.39078 351
22.41089 367
22.431 452
22.45112 433
22.47123 456
22.49135 518
22.51146 483
22.53157 462
22.55169 451
22.5718 411
22.59191 383
22.61203 380
22.63214 387
22.65225 371
22.67237 351
22.69248 418
22.7126 378
22.73271 315
22.75282 354
22.77294 329
22.79305 338
22.81316 350
22.83328 346
22.85339 364
22.87351 317
22.89362 347
22.91373 355
22.93385 357
22.95396 355
22.97407 388
22.99419 349
23.0143 373
23.03442 397
23.05453 387
23.07464 407
23.09476 364
23.11487 346
23.13498 381
23.1551 377
23.17521 404
23.19532 311
23.21544 363
23.23555 347
23.25567 348
23.27578 332
23.29589 378
23.31601 366
23.33612 404
23.35623 375
23.37635 400
23.39646 420
23.41658 442
23.43669 509
23.4568 572
23.47692 628
23.49703 689
23.51714 769
23.53726 791
23.55737 822
23.57749 781
23.5976 713
23.61771 685
23.63783 521
23.65794 538
23.67805 514
23.69817 411
23.71828 474
23.73839 400
23.75851 453
23.77862 425
23.79874 402
23.81885 444
23.83896 385
23.85908 421
23.87919 438
23.8993 426
23.91942 405
23.93953 417
23.95965 415
23.97976 423
23.99987 417
24.01999 414
24.0401 397
24.06021 386
24.08033 417
24.10044 395
24.12056 423
24.14067 346
24.16078 396
24.1809 359
24.20101 356
24.22112 419
24.24124 403
24.26135 439
24.28146 381
24.30158 382
24.32169 402
24.34181 391
24.36192 420
24.38203 371
24.40215 398
24.42226 376
24.44237 386
24.46249 397
24.4826 403
24.50272 403
24.52283 417
24.54294 439
24.56306 464
24.58317 445
24.60328 424
24.6234 461
24.64351 402
24.66362 421
24.68374 401
24.70385 389
24.72397 374
24.74408 414
24.76419 379
24.78431 398
24.80442 394
24.82453 407
24.84465 378
24.86476 400
24.88488 367
24.90499 363
24.9251 393
24.94522 380
24.96533 436
24.98544 374
25.00556 432
25.02567 472
25.04579 413
25.0659 426
25.08601 437
25.10613 469
25.12624 461
25.14635 460
25.16647 453
25.18658 465
25.20669 413
25.22681 439
25.24692 412
25.26704 434
25.28715 414
25.30726 372
25.32738 374
25.34749 383
25.3676 422
25.38772 421
25.40783 398
25.42795 364
25.44806 374
25.46817 404
25.48829 450
25.5084 456
25.52851 426
25.54863 542
25.56874 591
25.58886 627
25.60897 792
25.62908 747
25.6492 783
25.66931 717
25.68942 743
25.70954 667
25.72965 589
25.74976 527
25.76988 560
25.78999 562
25.81011 471
25.83022 450
25.85033 525
25.87045 506
25.89056 483
25.91067 475
25.93079 523
25.9509 486
25.97102 463
25.99113 521
26.01124 525
26.03136 511
26.05147 514
26.07158 518
26.0917 547
26.11181 541
26.13193 585
26.15204 615
26.17215 644
26.19227 669
26.21238 701
26.23249 707
26.25261 750
26.27272 779
26.29283 824
26.31295 836
26.33306 949
26.35318 992
26.37329 1093
26.3934 1236
26.41352 1437
26.43363 1686
26.45374 2195
26.47386 2938
26.49397 4154
26.51409 5960
26.5342 8440
26.55431 12035
26.57443 15641
26.59454 19001
26.61465 21101
26.63477 20205
26.65488 17652
26.67499 13758
26.69511 10201
26.71522 7417
26.73534 4697
26.75545 2752
26.77556 1920
26.79568 1557
26.81579 1491
26.8359 1505
26.85602 1510
26.87613 1461
26.89625 1401
26.91636 1360
26.93647 1239
26.95659 1190
26.9767 1062
26.99681 1017
27.01693 987
27.03704 942
27.05716 1001
27.07727 987
27.09738 967
27.1175 849
27.13761 832
27.15772 699
27.17784 674
27.19795 641
27.21806 599
27.23818 536
27.25829 501
27.27841 532
27.29852 489
27.31863 555
27.33875 611
27.35886 622
27.37897 717
27.39909 752
27.4192 925
27.43932 982
27.45943 1100
27.47954 1069
27.49966 1159
27.51977 1127
27.53988 1110
27.56 1017
27.58011 844
27.60023 763
27.62034 636
27.64045 584
27.66057 561
27.68068 534
27.70079 551
27.72091 515
27.74102 573
27.76113 587
27.78125 547
27.80136 543
27.82148 581
27.84159 519
27.8617 473
27.88182 486
27.90193 492
27.92204 508
27.94216 461
27.96227 507
27.98239 472
28.0025 486
28.02261 434
28.04273 411
28.06284 398
28.08295 474
28.10307 405
28.12318 405
28.1433 388
28.16341 400
28.18352 352
28.20364 380
28.22375 404
28.24386 382
28.26398 407
28.28409 412
28.3042 418
28.32432 381
28.34443 377
28.36455 352
28.38466 387
28.40477 388
28.42489 380
28.445 353
28.46511 383
28.48523 339
28.50534 370
28.52546 347
28.54557 362
28.56568 354
28.5858 363
28.60591 323
28.62602 344
28.64614 350
28.66625 347
28.68636 344
28.70648 356
28.72659 339
28.74671 378
28.76682 322
28.78693 353
28.80705 348
28.82716 357
28.84727 327
28.86739 352
28.8875 315
28.90762 340
28.92773 329
28.94784 337
28.96796 340
28.98807 352
29.00818 337
29.0283 332
29.04841 357
29.06853 326
29.08864 323
29.10875 363
29.12887 377
29.14898 321
29.16909 330
29.18921 336
29.20932 310
29.22943 349
29.24955 325
29.26966 310
29.28978 314
29.30989 341
29.33 296
29.35012 324
29.37023 319
29.39034 317
29.41046 331
29.43057 311
29.45069 354
29.4708 336
29.49091 334
29.51103 327
29.53114 352
29.55125 349
29.57137 342
29.59148 332
29.6116 369
29.63171 362
29.65182 411
29.67194 415
29.69205 434
29.71216 503
29.73228 526
29.75239 568
29.7725 583
29.79262 630
29.81273 604
29.83285 607
29.85296 609
29.87307 589
29.89319 581
29.9133 491
29.93341 477
29.95353 434
29.97364 375
29.99376 392
30.01387 395
30.03398 406
30.0541 352
30.07421 363
30.09432 327
30.11444 338
30.13455 365
30.15467 347
30.17478 348
30.19489 398
30.21501 318
30.23512 340
30.25523 375
30.27535 377
30.29546 395
30.31557 345
30.33569 363
30.3558 359
30.37592 376
30.39603 417
30.41614 402
30.43626 362
30.45637 440
30.47648 394
30.4966 397
30.51671 390
30.53683 354
30.55694 410
30.57705 333
30.59717 349
30.61728 380
30.63739 409
30.65751 370
30.67762 394
30.69773 429
30.71785 455
30.73796 430
30.75808 539
30.77819 544
30.7983 513
30.81842 474
30.83853 441
30.85864 459
30.87876 410
30.89887 354
30.91899 373
30.9391 327
30.95921 351
30.97933 321
30.99944 321
31.01955 311
31.03967 340
31.05978 309
31.0799 364
31.10001 334
31.12012 323
31.14024 304
31.16035 305
31.18046 304
31.20058 340
31.22069 306
31.2408 288
31.26092 337
31.28103 299
31.30115 331
31.32126 313
31.34137 310
31.36149 332
31.3816 293
31.40171 338
31.42183 292
31.44194 317
31.46206 316
31.48217 301
31.50228 320
31.5224 304
31.54251 305
31.56262 339
31.58274 259
31.60285 311
31.62297 312
31.64308 309
31.66319 337
31.68331 309
31.70342 339
31.72353 269
31.74365 301
31.76376 303
31.78387 351
31.80399 314
31.8241 294
31.84422 319
31.86433 334
31.88444 284
31.90456 327
31.92467 313
31.94478 319
31.9649 314
31.98501 320
32.00513 307
32.02524 333
32.04535 280
32.06547 302
32.08558 304
32.10569 329
32.12581 318
32.14592 341
32.16604 344
32.18615 342
32.20626 384
32.22638 364
32.24649 443
32.2666 412
32.28672 465
32.30683 432
32.32694 477
32.34706 391
32.36717 424
32.38729 412
32.4074 415
32.42751 381
32.44763 365
32.46774 373
32.48785 371
32.50797 394
32.52808 397
32.5482 397
32.56831 395
32.58842 396
32.60854 369
32.62865 382
32.64876 324
32.66888 337
32.68899 337
32.7091 315
32.72922 317
32.74933 346
32.76945 321
32.78956 324
32.80967 338
32.82979 331
32.8499 317
32.87001 329
32.89013 341
32.91024 306
32.93036 333
32.95047 358
32.97058 381
32.9907 366
33.01081 412
33.03092 381
33.05104 399
33.07115 428
33.09127 391
33.11138 419
33.13149 383
33.15161 366
33.17172 424
33.19183 370
33.21195 359
33.23206 372
33.25217 368
33.27229 368
33.2924 374
33.31252 351
33.33263 379
33.35274 330
33.37286 334
33.39297 315
33.41308 362
33.4332 326
33.45331 370
33.47343 353
33.49354 354
33.51365 375
33.53377 343
33.55388 339
33.57399 343
33.59411 355
33.61422 361
33.63434 350
33.65445 359
33.67456 341
33.69468 354
33.71479 355
33.7349 335
33.75502 339
33.77513 337
33.79524 334
33.81536 298
33.83547 333
33.85559 321
33.8757 331
33.89581 316
33.91593 310
33.93604 339
33.95615 345
33.97627 369
33.99638 377
34.0165 350
34.03661 324
34.05672 331
34.07684 366
34.09695 371
34.11706 330
34.13718 364
34.15729 357
34.17741 389
34.19752 370
34.21763 395
34.23775 362
34.25786 361
34.27797 364
34.29809 383
34.3182 400
34.33831 401
34.35843 416
34.37854 405
34.39866 437
34.41877 453
34.43888 410
34.459 424
34.47911 386
34.49922 389
34.51934 373
34.53945 411
34.55957 368
34.57968 381
34.59979 404
34.61991 383
34.64002 437
34.66013 385
34.68025 472
34.70036 414
34.72047 451
34.74059 499
34.7607 492
34.78082 541
34.80093 564
34.82104 523
34.84116 544
34.86127 505
34.88138 575
34.9015 455
34.92161 480
34.94173 505
34.96184 504
34.98195 463
35.00207 467
35.02218 427
35.04229 468
35.06241 466
35.08252 444
35.10264 458
35.12275 435
35.14286 441
35.16298 472
35.18309 455
35.2032 441
35.22332 454
35.24343 433
35.26354 450
35.28366 443
35.30377 470
35.32389 445
35.344 456
35.36411 419
35.38423 441
35.40434 435
35.42445 457
35.44457 465
35.46468 440
35.4848 446
35.50491 507
35.52502 486
35.54514 529
35.56525 530
35.58536 530
35.60548 502
35.62559 516
35.64571 508
35.66582 493
35.68593 434
35.70605 460
35.72616 424
35.74627 402
35.76639 421
35.7865 423
35.80661 399
35.82673 411
35.84684 447
35.86696 397
35.88707 414
35.90718 426
35.9273 400
35.94741 378
35.96752 423
35.98764 423
36.00775 438
36.02787 445
36.04798 392
36.06809 386
36.08821 370
36.10832 401
36.12843 405
36.14855 396
36.16866 465
36.18878 393
36.20889 403
36.229 403
36.24912 418
36.26923 402
36.28934 443
36.30946 444
36.32957 471
36.34968 530
36.3698 613
36.38991 625
36.41003 768
36.43014 1005
36.45025 1238
36.47037 1417
36.49048 1615
36.51059 1665
36.53071 1736
36.55082 1486
36.57094 1273
36.59105 1114
36.61116 1024
36.63128 877
36.65139 759
36.6715 594
36.69162 483
36.71173 463
36.73184 469
36.75196 450
36.77207 437
36.79219 434
36.8123 455
36.83241 443
36.85253 449
36.87264 461
36.89275 418
36.91287 413
36.93298 402
36.9531 419
36.97321 413
36.99332 449
37.01344 425
37.03355 421
37.05366 422
37.07378 423
37.09389 452
37.11401 393
37.13412 426
37.15423 488
37.17435 409
37.19446 430
37.21457 415
37.23469 419
37.2548 395
37.27491 353
37.29503 387
37.31514 412
37.33526 362
37.35537 392
37.37548 401
37.3956 351
37.41571 354
37.43582 342
37.45594 381
37.47605 347
37.49617 363
37.51628 344
37.53639 341
37.55651 360
37.57662 323
37.59673 353
37.61685 336
37.63696 366
37.65708 375
37.67719 364
37.6973 386
37.71742 382
37.73753 356
37.75764 350
37.77776 362
37.79787 359
37.81798 359
37.8381 381
37.85821 367
37.87833 356
37.89844 343
37.91855 318
37.93867 344
37.95878 346
37.97889 345
37.99901 322
38.01912 364
38.03924 343
38.05935 331
38.07946 297
38.09958 333
38.11969 324
38.1398 346
38.15992 321
38.18003 313
38.20015 353
38.22026 324
38.24037 336
38.26049 350
38.2806 331
38.30071 357
38.32083 341
38.34094 336
38.36105 340
38.38117 361
38.40128 340
38.4214 331
38.44151 350
38.46162 331
38.48174 363
38.50185 360
38.52196 348
38.54208 336
38.56219 365
38.58231 347
38.60242 371
38.62253 348
38.64265 348
38.66276 360
38.68287 360
38.70299 366
38.7231 352
38.74321 335
38.76333 333
38.78344 346
38.80356 363
38.82367 334
38.84378 344
38.8639 353
38.88401 342
38.90412 346
38.92424 361
38.94435 323
38.96447 333
38.98458 350
39.00469 340
39.02481 348
39.04492 345
39.06503 395
39.08515 375
39.10526 347
39.12538 388
39.14549 356
39.1656 404
39.18572 358
39.20583 374
39.22594 399
39.24606 428
39.26617 478
39.28628 506
39.3064 602
39.32651 688
39.34663 834
39.36674 1002
39.38685 1234
39.40697 1443
39.42708 1520
39.44719 1538
39.46731 1385
39.48742 1231
39.50754 1057
39.52765 976
39.54776 894
39.56788 803
39.58799 626
39.6081 486
39.62822 417
39.64833 382
39.66845 366
39.68856 380
39.70867 381
39.72879 362
39.7489 386
39.76901 335
39.78913 349
39.80924 347
39.82935 338
39.84947 320
39.86958 335
39.8897 341
39.90981 330
39.92992 354
39.95004 356
39.97015 343
39.99026 361
40.01038 367
40.03049 354
40.05061 397
40.07072 398
40.09083 396
40.11095 405
40.13106 454
40.15117 531
40.17129 597
40.1914 687
40.21152 768
40.23163 861
40.25174 951
40.27186 915
40.29197 865
40.31208 782
40.3322 705
40.35231 682
40.37242 627
40.39254 591
40.41265 494
40.43277 413
40.45288 366
40.47299 374
40.49311 381
40.51322 334
40.53333 377
40.55345 346
40.57356 364
40.59368 348
40.61379 347
40.6339 335
40.65402 356
40.67413 362
40.69424 343
40.71436 372
40.73447 362
40.75458 319
40.7747 357
40.79481 326
40.81493 317
40.83504 365
40.85515 341
40.87527 362
40.89538 354
40.91549 363
40.93561 377
40.95572 345
40.97584 327
40.99595 382
41.01606 353
41.03618 384
41.05629 323
41.0764 375
41.09652 337
41.11663 345
41.13675 336
41.15686 349
41.17697 340
41.19709 362
41.2172 354
41.23731 380
41.25743 325
41.27754 328
41.29765 337
41.31777 356
41.33788 326
41.358 353
41.37811 351
41.39822 318
41.41834 362
41.43845 331
41.45856 347
41.47868 357
41.49879 358
41.51891 346
41.53902 373
41.55913 384
41.57925 396
41.59936 421
41.61947 443
41.63959 414
41.6597 485
41.67982 482
41.69993 426
41.72004 420
41.74016 446
41.76027 426
41.78038 411
41.8005 408
41.82061 360
41.84072 356
41.86084 339
41.88095 354
41.90107 318
41.92118 339
41.94129 336
41.96141 317
41.98152 284
42.00163 317
42.02175 330
42.04186 324
42.06198 332
42.08209 343
42.1022 339
42.12232 346
42.14243 328
42.16254 335
42.18266 316
42.20277 354
42.22289 402
42.243 409
42.26311 445
42.28323 539
42.30334 617
42.32345 681
42.34357 826
42.36368 1002
42.38379 1073
42.40391 1208
42.42402 1204
42.44414 1114
42.46425 1033
42.48436 916
42.50448 823
42.52459 750
42.5447 708
42.56482 616
42.58493 528
42.60505 428
42.62516 408
42.64527 376
42.66539 351
42.6855 337
42.70561 377
42.72573 305
42.74584 349
42.76595 317
42.78607 320
42.80618 306
42.8263 330
42.84641 354
42.86652 331
42.88664 340
42.90675 303
42.92686 317
42.94698 309
42.96709 279
42.98721 302
43.00732 290
43.02743 290
43.04755 301
43.06766 282
43.08777 304
43.10789 301
43.128 284
43.14812 264
43.16823 276
43.18834 287
43.20846 266
43.22857 283
43.24868 288
43.2688 302
43.28891 293
43.30902 295
43.32914 245
43.34925 253
43.36937 289
43.38948 303
43.40959 265
43.42971 307
43.44982 271
43.46993 282
43.49005 305
43.51016 272
43.53028 318
43.55039 294
43.5705 291
43.59062 287
43.61073 306
43.63084 282
43.65096 296
43.67107 325
43.69119 318
43.7113 309
43.73141 292
43.75153 298
43.77164 305
43.79175 300
43.81187 281
43.83198 294
43.85209 312
43.87221 303
43.89232 259
43.91244 290
43.93255 295
43.95266 274
43.97278 318
43.99289 289
44.013 297
44.03312 321
44.05323 296
44.07335 299
44.09346 275
44.11357 290
44.13369 306
44.1538 314
44.17391 302
44.19403 287
44.21414 298
44.23426 277
44.25437 280
44.27448 284
44.2946 281
44.31471 259
44.33482 266
44.35494 252
44.37505 264
44.39516 293
44.41528 271
44.43539 269
44.45551 291
44.47562 263
44.49573 274
44.51585 276
44.53596 281
44.55607 278
44.57619 300
44.5963 255
44.61642 280
44.63653 294
44.65664 293
44.67676 278
44.69687 294
44.71698 299
44.7371 299
44.75721 284
44.77732 292
44.79744 306
44.81755 271
44.83767 268
44.85778 282
44.87789 301
44.89801 335
44.91812 284
44.93823 305
44.95835 279
44.97846 312
44.99858 339
45.01869 303
45.0388 314
45.05892 349
45.07903 330
45.09914 332
45.11926 326
45.13937 369
45.15949 368
45.1796 328
45.19971 363
45.21983 346
45.23994 303
45.26005 302
45.28017 287
45.30028 307
45.32039 314
45.34051 307
45.36062 323
45.38074 280
45.40085 320
45.42096 305
45.44108 321
45.46119 316
45.4813 332
45.50142 335
45.52153 332
45.54165 309
45.56176 350
45.58187 349
45.60199 414
45.6221 407
45.64221 489
45.66233 522
45.68244 590
45.70256 725
45.72267 752
45.74278 882
45.7629 871
45.78301 824
45.80312 757
45.82324 655
45.84335 632
45.86346 625
45.88358 586
45.90369 568
45.92381 503
45.94392 428
45.96403 404
45.98415 363
46.00426 341
46.02437 374
46.04449 312
46.0646 336
46.08472 336
46.10483 324
46.12494 347
46.14506 306
46.16517 337
46.18528 300
46.2054 276
46.22551 266
46.24563 308
46.26574 326
46.28585 297
46.30597 272
46.32608 303
46.34619 301
46.36631 327
46.38642 266
46.40653 308
46.42665 309
46.44676 274
46.46688 310
46.48699 281
46.5071 267
46.52722 283
46.54733 288
46.56744 300
46.58756 268
46.60767 292
46.62779 266
46.6479 289
46.66801 259
46.68813 316
46.70824 268
46.72835 267
46.74847 269
46.76858 286
46.78869 244
46.80881 247
46.82892 295
46.84904 290
46.86915 250
46.88926 301
46.90938 293
46.92949 299
46.9496 254
46.96972 305
46.98983 326
47.00995 325
47.03006 281
47.05017 324
47.07029 312
47.0904 341
47.11051 334
47.13063 323
47.15074 329
47.17086 329
47.19097 338
47.21108 311
47.2312 324
47.25131 307
47.27142 363
47.29154 347
47.31165 320
47.33176 329
47.35188 294
47.37199 341
47.39211 294
47.41222 310
47.43233 288
47.45245 307
47.47256 340
47.49267 304
47.51279 323
47.5329 317
47.55302 326
47.57313 310
47.59324 303
47.61336 293
47.63347 283
47.65358 286
47.6737 286
47.69381 326
47.71393 283
47.73404 283
47.75415 274
47.77427 320
47.79438 285
47.81449 280
47.83461 263
47.85472 320
47.87483 282
47.89495 281
47.91506 261
47.93518 288
47.95529 277
47.9754 264
47.99552 315
48.01563 309
48.03574 264
48.05586 263
48.07597 298
48.09609 302
48.1162 296
48.13631 300
48.15643 272
48.17654 307
48.19665 328
48.21677 302
48.23688 278
48.257 272
48.27711 307
48.29722 311
48.31734 291
48.33745 293
48.35756 318
48.37768 302
48.39779 311
48.4179 282
48.43802 275
48.45813 276
48.47825 318
48.49836 296
48.51847 266
48.53859 258
48.5587 260
48.57881 314
48.59893 301
48.61904 267
48.63916 287
48.65927 313
48.67938 312
48.6995 282
48.71961 301
48.73972 306
48.75984 309
48.77995 329
48.80006 314
48.82018 290
48.84029 334
48.86041 324
48.88052 306
48.90063 322
48.92075 326
48.94086 310
48.96097 297
48.98109 342
49.0012 339
49.02132 351
49.04143 342
49.06154 343
49.08166 335
49.10177 332
49.12188 343
49.142 334
49.16211 324
49.18223 321
49.20234 340
49.22245 340
49.24257 325
49.26268 324
49.28279 308
49.30291 331
49.32302 318
49.34313 325
49.36325 333
49.38336 315
49.40348 333
49.42359 352
49.4437 319
49.46382 291
49.48393 359
49.50404 317
49.52416 329
49.54427 332
49.56439 328
49.5845 354
49.60461 315
49.62473 356
49.64484 347
49.66495 347
49.68507 337
49.70518 341
49.7253 384
49.74541 361
49.76552 385
49.78564 367
49.80575 404
49.82586 452
49.84598 450
49.86609 422
49.8862 476
49.90632 546
49.92643 621
49.94655 705
49.96666 787
49.98677 958
50.00689 1187
50.027 1540
50.04711 1778
50.06723 2077
50.08734 2285
50.10746 2325
50.12757 2108
50.14768 1866
50.1678 1463
50.18791 1361
50.20802 1332
50.22814 1347
50.24825 1232
50.26837 1116
50.28848 841
50.30859 619
50.32871 510
50.34882 407
50.36893 413
50.38905 399
50.40916 380
50.42927 367
50.44939 399
50.4695 397
50.48962 448
50.50973 409
50.52984 427
50.54996 427
50.57007 477
50.59018 460
50.6103 467
50.63041 497
50.65053 494
50.67064 504
50.69075 462
50.71087 491
50.73098 449
50.75109 431
50.77121 419
50.79132 414
50.81143 430
50.83155 386
50.85166 377
50.87178 350
50.89189 333
50.912 318
50.93212 314
50.95223 351
50.97234 308
50.99246 289
51.01257 297
51.03269 314
51.0528 273
51.07291 276
51.09303 302
51.11314 280
51.13325 302
51.15337 293
51.17348 313
51.1936 288
51.21371 307
51.23382 316
51.25394 282
51.27405 294
51.29416 313
51.31428 305
51.33439 291
51.3545 315
51.37462 325
51.39473 306
51.41485 316
51.43496 306
51.45507 320
51.47519 285
51.4953 306
51.51541 325
51.53553 318
51.55564 298
51.57576 314
51.59587 287
51.61598 286
51.6361 273
51.65621 296
51.67632 296
51.69644 279
51.71655 295
51.73667 293
51.75678 277
51.77689 294
51.79701 286
51.81712 265
51.83723 262
51.85735 295
51.87746 285
51.89757 271
51.91769 258
51.9378 275
51.95792 311
51.97803 296
51.99814 313
52.01826 272
52.03837 257
52.05848 230
52.0786 284
52.09871 249
52.11883 265
52.13894 292
52.15905 274
52.17917 270
52.19928 298
52.21939 311
52.23951 300
52.25962 288
52.27974 290
52.29985 275
52.31996 280
52.34008 284
52.36019 316
52.3803 307
52.40042 285
52.42053 284
52.44064 302
52.46076 288
52.48087 267
52.50099 287
52.5211 315
52.54121 274
52.56133 281
52.58144 274
52.60155 270
52.62167 268
52.64178 275
52.6619 274
52.68201 276
52.70212 281
52.72224 271
52.74235 298
52.76246 297
52.78258 307
52.80269 301
52.8228 305
52.84292 310
52.86303 286
52.88315 310
52.90326 315
52.92337 308
52.94349 300
52.9636 316
52.98371 305
53.00383 329
53.02394 322
53.04406 316
53.06417 353
53.08428 339
53.1044 347
53.12451 328
53.14462 324
53.16474 351
53.18485 315
53.20497 327
53.22508 334
53.24519 317
53.26531 306
53.28542 323
53.30553 358
53.32565 308
53.34576 308
53.36587 354
53.38599 317
53.4061 317
53.42622 329
53.44633 378
53.46644 328
53.48656 328
53.50667 330
53.52678 320
53.5469 319
53.56701 319
53.58713 323
53.60724 313
53.62735 336
53.64747 342
53.66758 341
53.68769 301
53.70781 314
53.72792 328
53.74804 319
53.76815 327
53.78826 355
53.80838 356
53.82849 354
53.8486 366
53.86872 379
53.88883 327
53.90894 370
53.92906 323
53.94917 372
53.96929 322
53.9894 364
54.00951 360
54.02963 355
54.04974 366
54.06985 350
54.08997 383
54.11008 373
54.1302 362
54.15031 314
54.17042 366
54.19054 360
54.21065 363
54.23076 333
54.25088 320
54.27099 333
54.29111 353
54.31122 345
54.33133 347
54.35145 358
54.37156 344
54.39167 346
54.41179 356
54.4319 327
54.45201 361
54.47213 326
54.49224 350
54.51236 343
54.53247 337
54.55258 347
54.5727 335
54.59281 386
54.61292 405
54.63304 411
54.65315 388
54.67327 426
54.69338 463
54.71349 476
54.73361 567
54.75372 678
54.77383 757
54.79395 784
54.81406 905
54.83417 860
54.85429 879
54.8744 822
54.89452 690
54.91463 624
54.93474 624
54.95486 606
54.97497 658
54.99508 577
55.0152 546
55.03531 488
55.05543 423
55.07554 391
55.09565 389
55.11577 398
55.13588 363
55.15599 427
55.17611 442
55.19622 456
55.21634 467
55.23645 517
55.25656 558
55.27668 599
55.29679 533
55.3169 552
55.33702 497
55.35713 495
55.37724 417
55.39736 430
55.41747 450
55.43759 451
55.4577 425
55.47781 395
55.49793 357
55.51804 308
55.53815 340
55.55827 352
55.57838 281
55.5985 313
55.61861 319
55.63872 319
55.65884 320
55.67895 352
55.69906 321
55.71918 301
55.73929 292
55.75941 309
55.77952 316
55.79963 290
55.81975 295
55.83986 285
55.85997 314
55.88009 301
55.9002 283
55.92031 307
55.94043 319
55.96054 293
55.98066 292
56.00077 303
56.02088 308
56.041 272
56.06111 301
56.08122 291
56.10134 330
56.12145 309
56.14157 303
56.16168 302
56.18179 295
56.20191 345
56.22202 298
56.24213 287
56.26225 301
56.28236 291
56.30248 310
56.32259 325
56.3427 299
56.36282 319
56.38293 334
56.40304 307
56.42316 268
56.44327 307
56.46338 317
56.4835 332
56.50361 330
56.52373 309
56.54384 299
56.56395 319
56.58407 315
56.60418 365
56.62429 282
56.64441 317
56.66452 302
56.68464 296
56.70475 297
56.72486 297
56.74498 292
56.76509 273
56.7852 294
56.80532 300
56.82543 272
56.84554 300
56.86566 288
56.88577 307
56.90589 305
56.926 314
56.94611 298
56.96623 317
56.98634 274
57.00645 285
57.02657 262
57.04668 259
57.0668 255
57.08691 307
57.10702 276
57.12714 289
57.14725 295
57.16736 325
57.18748 307
57.20759 312
57.22771 314
57.24782 281
57.26793 317
57.28805 300
57.30816 314
57.32827 307
57.34839 303
57.3685 274
57.38861 295
57.40873 296
57.42884 264
57.44896 303
57.46907 279
57.48918 298
57.5093 256
57.52941 291
57.54952 304
57.56964 274
57.58975 282
57.60987 276
57.62998 280
57.65009 282
57.67021 286
57.69032 314
57.71043 278
57.73055 327
57.75066 306
57.77078 306
57.79089 294
57.811 314
57.83112 286
57.85123 287
57.87134 292
57.89146 305
57.91157 272
57.93168 328
57.9518 282
57.97191 287
57.99203 310
58.01214 296
58.03225 320
58.05237 281
58.07248 274
58.09259 271
58.11271 299
58.13282 279
58.15294 259
58.17305 236
58.19316 282
58.21328 311
58.23339 273
58.2535 317
58.27362 285
58.29373 313
58.31385 303
58.33396 293
58.35407 277
58.37419 273
58.3943 303
58.41441 262
58.43453 296
58.45464 273
58.47475 272
58.49487 287
58.51498 293
58.5351 272
58.55521 278
58.57532 302
58.59544 304
58.61555 314
58.63566 280
58.65578 294
58.67589 323
58.69601 298
58.71612 271
58.73623 315
58.75635 308
58.77646 284
58.79657 305
58.81669 303
58.8368 314
58.85691 312
58.87703 266
58.89714 320
58.91726 299
58.93737 298
58.95748 329
58.9776 285
58.99771 299
59.01782 273
59.03794 276
59.05805 322
59.07817 286
59.09828 294
59.11839 310
59.13851 304
59.15862 305
59.17873 310
59.19885 306
59.21896 289
59.23908 301
59.25919 303
59.2793 307
59.29942 289
59.31953 338
59.33964 320
59.35976 314
59.37987 342
59.39998 319
59.4201 312
59.44021 319
59.46033 297
59.48044 324
59.50055 328
59.52067 337
59.54078 354
59.56089 313
59.58101 315
59.60112 372
59.62124 392
59.64135 382
59.66146 413
59.68158 420
59.70169 463
59.7218 479
59.74192 510
59.76203 637
59.78215 671
59.80226 791
59.82237 987
59.84249 1145
59.8626 1367
59.88271 1452
59.90283 1582
59.92294 1605
59.94305 1485
59.96317 1193
59.98328 981
60.0034 894
60.02351 859
60.04362 931
60.06374 959
60.08385 938
60.10396 886
60.12408 736
60.14419 596
60.16431 485
60.18442 436
60.20453 358
60.22465 375
60.24476 364
60.26487 383
60.28499 385
60.3051 369
60.32522 326
60.34533 322
60.36544 349
60.38556 351
60.40567 331
60.42578 317
60.4459 323
60.46601 320
60.48612 323
60.50624 321
60.52635 330
60.54647 299
60.56658 319
60.58669 314
60.60681 304
60.62692 321
60.64703 286
60.66715 300
60.68726 312
60.70738 331
60.72749 296
60.7476 305
60.76772 312
60.78783 309
60.80794 283
60.82806 306
60.84817 317
60.86828 294
60.8884 296
60.90851 338
60.92863 293
60.94874 289
60.96885 315
60.98897 300
61.00908 295
61.02919 304
61.04931 320
61.06942 304
61.08954 299
61.10965 288
61.12976 305
61.14988 286
61.16999 290
61.1901 312
61.21022 304
61.23033 275
61.25045 330
61.27056 281
61.29067 298
61.31079 299
61.3309 320
61.35101 282
61.37113 317
61.39124 304
61.41135 283
61.43147 340
61.45158 307
61.4717 299
61.49181 308
61.51192 333
61.53204 291
61.55215 303
61.57226 314
61.59238 338
61.61249 322
61.63261 305
61.65272 311
61.67283 322
61.69295 339
61.71306 325
61.73317 326
61.75329 339
61.7734 332
61.79352 346
61.81363 322
61.83374 364
61.85386 367
61.87397 384
61.89408 352
61.9142 358
61.93431 365
61.95442 361
61.97454 421
61.99465 368
62.01477 394
62.03488 377
62.05499 384
62.07511 357
62.09522 368
62.11533 371
62.13545 332
62.15556 335
62.17568 370
62.19579 373
62.2159 350
62.23602 375
62.25613 380
62.27624 381
62.29636 347
62.31647 356
62.33659 385
62.3567 362
62.37681 349
62.39693 319
62.41704 349
62.43715 319
62.45727 323
62.47738 348
62.49749 311
62.51761 344
62.53772 317
62.55784 314
62.57795 318
62.59806 301
62.61818 313
62.63829 282
62.6584 311
62.67852 276
62.69863 297
62.71875 304
62.73886 302
62.75897 307
62.77909 297
62.7992 286
62.81931 306
62.83943 311
62.85954 296
62.87965 298
62.89977 268
62.91988 282
62.94 325
62.96011 322
62.98022 299
63.00034 298
63.02045 298
63.04056 273
63.06068 328
63.08079 287
63.10091 301
63.12102 323
63.14113 284
63.16125 306
63.18136 294
63.20147 293
63.22159 324
63.2417 283
63.26182 307
63.28193 311
63.30204 304
63.32216 285
63.34227 282
63.36238 306
63.3825 286
63.40261 302
63.42272 295
63.44284 286
63.46295 309
63.48307 293
63.50318 288
63.52329 285
63.54341 286
63.56352 288
63.58363 298
63.60375 321
63.62386 286
63.64398 312
63.66409 341
63.6842 335
63.70432 319
63.72443 319
63.74454 311
63.76466 352
63.78477 358
63.80489 344
63.825 361
63.84511 384
63.86523 354
63.88534 419
63.90545 415
63.92557 442
63.94568 483
63.96579 511
63.98591 575
64.00602 514
64.02614 489
64.04625 472
64.06636 470
64.08648 435
64.10659 445
64.1267 400
64.14682 443
64.16693 428
64.18705 447
64.20716 393
64.22727 395
64.24739 341
64.2675 342
64.28761 363
64.30773 324
64.32784 333
64.34796 307
64.36807 321
64.38818 296
64.4083 302
64.42841 298
64.44852 287
64.46864 298
64.48875 286
64.50886 292
64.52898 293
64.54909 283
64.56921 287
64.58932 322
64.60943 300
64.62955 317
64.64966 323
64.66977 287
64.68989 320
64.71 310
64.73012 305
64.75023 271
64.77034 310
64.79046 308
64.81057 315
64.83068 294
64.8508 306
64.87091 301
64.89102 284
64.91114 301
64.93125 281
64.95137 299
64.97148 302
64.99159 286
65.01171 284
65.03182 317
65.05193 299
65.07205 293
65.09216 293
65.11228 276
65.13239 276
65.1525 323
65.17262 275
65.19273 304
65.21284 286
65.23296 312
65.25307 317
65.27319 287
65.2933 347
65.31341 327
65.33353 281
65.35364 266
65.37375 266
65.39387 312
65.41398 288
65.43409 285
65.45421 282
65.47432 227
65.49444 292
65.51455 306
65.53466 285
65.55478 300
65.57489 293
65.595 276
65.61512 312
65.63523 317
65.65535 311
65.67546 305
65.69557 331
65.71569 310
65.7358 302
65.75591 334
65.77603 294
65.79614 314
65.81626 319
65.83637 295
65.85648 361
65.8766 322
65.89671 290
65.91682 300
65.93694 287
65.95705 311
65.97716 278
65.99728 287
66.01739 286
66.03751 276
66.05762 272
66.07773 276
66.09785 302
66.11796 266
66.13807 293
66.15819 289
66.1783 244
66.19842 259
66.21853 281
66.23864 295
66.25876 256
66.27887 290
66.29898 282
66.3191 294
66.33921 292
66.35933 300
66.37944 285
66.39955 301
66.41967 276
66.43978 312
66.45989 308
66.48001 293
66.50012 299
66.52023 309
66.54035 314
66.56046 255
66.58058 288
66.60069 322
66.6208 271
66.64092 273
66.66103 289
66.68114 285
66.70126 272
66.72137 259
66.74149 273
66.7616 289
66.78171 282
66.80183 294
66.82194 252
66.84205 266
66.86217 264
66.88228 296
66.90239 271
66.92251 245
66.94262 286
66.96274 266
66.98285 304
67.00296 274
67.02308 304
67.04319 304
67.0633 297
67.08342 280
67.10353 280
67.12365 307
67.14376 293
67.16387 291
67.18399 298
67.2041 305
67.22421 305
67.24433 277
67.26444 308
67.28456 309
67.30467 325
67.32478 295
67.3449 328
67.36501 310
67.38512 311
67.40524 304
67.42535 341
67.44546 366
67.46558 393
67.48569 401
67.50581 424
67.52592 426
67.54603 502
67.56615 496
67.58626 600
67.60637 689
67.62649 826
67.6466 902
67.66672 1031
67.68683 1045
67.70694 1031
67.72706 1004
67.74717 855
67.76728 718
67.7874 683
67.80751 683
67.82763 694
67.84774 686
67.86785 782
67.88797 747
67.90808 787
67.92819 750
67.94831 719
67.96842 738
67.98853 787
68.00865 872
68.02876 980
68.04888 1137
68.06899 1149
68.0891 1261
68.10922 1271
68.12933 1241
68.14944 1140
68.16956 1033
68.18967 966
68.20979 1048
68.2299 1120
68.25001 1251
68.27013 1291
68.29024 1233
68.31035 1062
68.33047 994
68.35058 742
68.3707 600
68.39081 643
68.41092 609
68.43104 594
68.45115 599
68.47126 551
68.49138 550
68.51149 487
68.5316 388
68.55172 374
68.57183 341
68.59195 349
68.61206 318
68.63217 324
68.65229 326
68.6724 327
68.69251 320
68.71263 309
68.73274 302
68.75286 275
68.77297 310
68.79308 282
68.8132 294
68.83331 280
68.85342 277
68.87354 296
68.89365 290
68.91376 318
68.93388 290
68.95399 287
68.97411 260
68.99422 283
69.01433 305
69.03445 300
69.05456 290
69.07467 279
69.09479 286
69.1149 296
69.13502 287
69.15513 292
69.17524 270
69.19536 243
69.21547 279
69.23558 260
69.2557 271
69.27581 279
69.29593 274
69.31604 265
69.33615 286
69.35627 258
69.37638 281
69.39649 289
69.41661 267
69.43672 246
69.45683 239
69.47695 298
69.49706 244
69.51718 288
69.53729 280
69.5574 288
69.57752 268
69.59763 282
69.61774 296
69.63786 259
69.65797 307
69.67809 282
69.6982 280
69.71831 260
69.73843 288
69.75854 306
69.77865 308
69.79877 280
69.81888 279
69.839 274
69.85911 274
69.87922 285
69.89934 308
69.91945 271
69.93956 244
69.95968 254
69.97979 276
69.9999 246
70.02002 277
70.04013 276
70.06025 292
70.08036 260
70.10047 304
70.12059 291
70.1407 287
70.16081 295
70.18093 284
70.20104 267
70.22116 282
70.24127 287
70.26138 281
70.2815 272
70.30161 290
70.32172 290
70.34184 273
70.36195 268
70.38207 307
70.40218 279
70.42229 253
70.44241 267
70.46252 248
70.48263 286
70.50275 276
70.52286 264
70.54297 295
70.56309 284
70.5832 268
70.60332 238
70.62343 255
70.64354 268
70.66366 273
70.68377 247
70.70388 291
70.724 240
70.74411 279
70.76423 246
70.78434 231
70.80445 271
70.82457 243
70.84468 264
70.86479 253
70.88491 280
70.90502 280
70.92513 280
70.94525 246
70.96536 270
70.98548 226
71.00559 269
71.0257 247
71.04582 250
71.06593 283
71.08604 288
71.10616 260
71.12627 275
71.14639 283
71.1665 241
71.18661 257
71.20673 285
71.22684 243
71.24695 261
71.26707 262
71.28718 276
71.3073 266
71.32741 277
71.34752 264
71.36764 286
71.38775 233
71.40786 248
71.42798 236
71.44809 270
71.4682 243
71.48832 255
71.50843 270
71.52855 248
71.54866 302
71.56877 272
71.58889 271
71.609 245
71.62911 281
71.64923 293
71.66934 279
71.68946 291
71.70957 281
71.72968 288
71.7498 280
71.76991 298
71.79002 288
71.81014 309
71.83025 273
71.85037 270
71.87048 282
71.89059 282
71.91071 244
71.93082 301
71.95093 277
71.97105 287
71.99116 276
72.01127 276
72.03139 295
72.0515 283
72.07162 269
72.09173 275
72.11184 281
72.13196 283
72.15207 264
72.17218 261
72.1923 273
72.21241 268
72.23253 292
72.25264 296
72.27275 280
72.29287 265
72.31298 268
72.33309 272
72.35321 261
72.37332 307
72.39344 271
72.41355 281
72.43366 284
72.45378 269
72.47389 275
72.494 280
72.51412 284
72.53423 286
72.55434 268
72.57446 281
72.59457 299
72.61469 261
72.6348 269
72.65491 272
72.67503 280
72.69514 282
72.71525 267
72.73537 237
72.75548 253
72.7756 255
72.79571 284
72.81582 272
72.83594 266
72.85605 285
72.87616 295
72.89628 274
72.91639 274
72.9365 275
72.95662 295
72.97673 265
72.99685 274
73.01696 290
73.03707 278
73.05719 261
73.0773 297
73.09741 255
73.11753 287
73.13764 278
73.15776 296
73.17787 298
73.19798 321
73.2181 331
73.23821 319
73.25832 320
73.27844 361
73.29855 379
73.31867 405
73.33878 446
73.35889 459
73.37901 475
73.39912 500
73.41923 566
73.43935 545
73.45946 514
73.47957 467
73.49969 412
73.5198 397
73.53992 390
73.56003 392
73.58014 385
73.60026 409
73.62037 425
73.64048 423
73.6606 406
73.68071 382
73.70083 318
73.72094 313
73.74105 323
73.76117 298
73.78128 293
73.80139 303
73.82151 283
73.84162 299
73.86174 288
73.88185 293
73.90196 292
73.92208 304
73.94219 312
73.9623 273
73.98242 265
74.00253 294
74.02264 272
74.04276 273
74.06287 277
74.08299 296
74.1031 265
74.12321 283
74.14333 290
74.16344 288
74.18355 266
74.20367 276
74.22378 292
74.2439 282
74.26401 290
74.28412 289
74.30424 293
74.32435 238
74.34446 286
74.36458 277
74.38469 286
74.40481 262
74.42492 280
74.44503 287
74.46515 274
74.48526 307
74.50537 293
74.52549 260
74.5456 262
74.56571 244
74.58583 247
74.60594 292
74.62606 256
74.64617 267
74.66628 294
74.6864 294
74.70651 261
74.72662 281
74.74674 250
74.76685 288
74.78697 274
74.80708 261
74.82719 264
74.84731 285
74.86742 264
74.88753 266
74.90765 250
74.92776 266
74.94787 295
74.96799 240
74.9881 280
75.00822 305
