3.00117 20543
3.02128 20135
3.0414 19183
3.06151 18889
3.08162 18592
3.10174 17860
3.12185 17685
3.14197 16834
3.16208 16482
3.18219 16433
3.20231 15540
3.22242 15372
3.24253 14529
3.26265 14102
3.28276 14145
3.30288 13340
3.32299 13073
3.3431 12545
3.36322 12236
3.38333 11989
3.40344 11400
3.42356 11325
3.44367 10619
3.46379 10346
3.4839 10201
3.50401 9542
3.52413 9698
3.54424 9199
3.56435 8795
3.58447 8758
3.60458 8254
3.62469 8048
3.64481 7543
3.66492 7353
3.68504 7199
3.70515 6863
3.72526 6791
3.74538 6351
3.76549 6296
3.7856 6190
3.80572 5678
3.82583 5453
3.84595 5133
3.86606 4994
3.88617 5156
3.90629 4620
3.9264 4571
3.94651 4266
3.96663 4235
3.98674 4150
4.00686 3772
4.02697 3881
4.04708 3667
4.0672 3521
4.08731 3603
4.10742 3265
4.12754 3227
4.14765 3087
4.16776 3068
4.18788 2874
4.20799 2771
4.22811 2723
4.24822 2707
4.26833 2606
4.28845 2603
4.30856 2409
4.32867 2407
4.34879 2349
4.3689 2417
4.38902 2426
4.40913 2067
4.42924 2202
4.44936 2176
4.46947 2064
4.48958 2131
4.5097 1955
4.52981 2013
4.54992 2012
4.57004 2042
4.59015 1965
4.61027 1882
4.63038 1842
4.65049 1921
4.67061 1805
4.69072 1849
4.71083 1753
4.73095 1716
4.75106 1704
4.77118 1588
4.79129 1711
4.8114 1638
4.83152 1515
4.85163 1607
4.87174 1708
4.89186 1567
4.91197 1534
4.93209 1580
4.9522 1453
4.97231 1504
4.99243 1565
5.01254 1416
5.03265 1419
5.05277 1365
5.07288 1429
5.09299 1407
5.11311 1342
5.13322 1325
5.15334 1347
5.17345 1357
5.19356 1339
5.21368 1323
5.23379 1283
5.2539 1348
5.27402 1247
5.29413 1242
5.31425 1183
5.33436 1225
5.35447 1223
5.37459 1238
5.3947 1198
5.41481 1149
5.43493 1142
5.45504 1144
5.47516 1197
5.49527 1079
5.51538 1084
5.5355 1192
5.55561 1106
5.57572 1082
5.59584 1047
5.61595 1063
5.63606 1084
5.65618 1039
5.67629 1042
5.69641 1045
5.71652 1072
5.73663 1056
5.75675 994
5.77686 947
5.79697 992
5.81709 973
5.8372 994
5.85732 1001
5.87743 969
5.89754 979
5.91766 916
5.93777 973
5.95788 941
5.978 902
5.99811 956
6.01823 898
6.03834 945
6.05845 887
6.07857 901
6.09868 865
6.11879 886
6.13891 833
6.15902 836
6.17913 920
6.19925 944
6.21936 866
6.23948 855
6.25959 864
6.2797 770
6.29982 839
6.31993 828
6.34004 833
6.36016 765
6.38027 831
6.40039 756
6.4205 795
6.44061 791
6.46073 838
6.48084 796
6.50095 762
6.52107 795
6.54118 745
6.56129 722
6.58141 722
6.60152 797
6.62164 755
6.64175 732
6.66186 757
6.68198 750
6.70209 736
6.7222 731
6.74232 710
6.76243 703
6.78255 715
6.80266 674
6.82277 674
6.84289 693
6.863 686
6.88311 713
6.90323 680
6.92334 645
6.94346 741
6.96357 673
6.98368 667
7.0038 682
7.02391 663
7.04402 681
7.06414 665
7.08425 683
7.10436 654
7.12448 606
7.14459 608
7.16471 654
7.18482 660
7.20493 618
7.22505 636
7.24516 591
7.26527 616
7.28539 633
7.3055 665
7.32562 584
7.34573 586
7.36584 620
7.38596 650
7.40607 602
7.42618 566
7.4463 615
7.46641 611
7.48653 582
7.50664 579
7.52675 558
7.54687 576
7.56698 587
7.58709 609
7.60721 586
7.62732 559
7.64743 589
7.66755 555
7.68766 584
7.70778 543
7.72789 573
7.748 628
7.76812 533
7.78823 531
7.80834 559
7.82846 591
7.84857 614
7.86869 545
7.8888 564
7.90891 478
7.92903 580
7.94914 550
7.96925 541
7.98937 633
8.00948 524
8.0296 553
8.04971 517
8.06982 607
8.08994 553
8.11005 599
8.13016 600
8.15028 588
8.17039 547
8.1905 563
8.21062 595
8.23073 615
8.25085 622
8.27096 562
8.29107 568
8.31119 671
8.3313 580
8.35141 629
8.37153 632
8.39164 617
8.41176 638
8.43187 670
8.45198 649
8.4721 566
8.49221 615
8.51232 592
8.53244 575
8.55255 609
8.57266 575
8.59278 532
8.61289 541
8.63301 578
8.65312 545
8.67323 511
8.69335 531
8.71346 535
8.73357 511
8.75369 498
8.7738 527
8.79392 483
8.81403 510
8.83414 489
8.85426 469
8.87437 493
8.89448 463
8.9146 460
8.93471 487
8.95483 435
8.97494 461
8.99505 459
9.01517 446
9.03528 446
9.05539 383
9.07551 427
9.09562 417
9.11573 471
9.13585 362
9.15596 444
9.17608 461
9.19619 367
9.2163 445
9.23642 440
9.25653 392
9.27664 355
9.29676 397
9.31687 360
9.33699 424
9.3571 379
9.37721 353
9.39733 420
9.41744 392
9.43755 395
9.45767 355
9.47778 378
9.4979 391
9.51801 354
9.53812 359
9.55824 378
9.57835 355
9.59846 373
9.61858 404
9.63869 370
9.6588 370
9.67892 386
9.69903 408
9.71915 356
9.73926 328
9.75937 322
9.77949 365
9.7996 366
9.81971 375
9.83983 318
9.85994 359
9.88006 402
9.90017 366
9.92028 346
9.9404 367
9.96051 336
9.98062 323
10.00074 330
10.02085 356
10.04097 346
10.06108 330
10.08119 355
10.10131 337
10.12142 371
10.14153 339
10.16165 352
10.18176 348
10.20187 351
10.22199 362
10.2421 354
10.26222 390
10.28233 334
10.30244 346
10.32256 381
10.34267 315
10.36278 321
10.3829 326
10.40301 327
10.42313 371
10.44324 318
10.46335 360
10.48347 310
10.50358 313
10.52369 304
10.54381 359
10.56392 338
10.58403 367
10.60415 335
10.62426 305
10.64438 329
10.66449 337
10.6846 321
10.70472 315
10.72483 331
10.74494 340
10.76506 313
10.78517 328
10.80529 329
10.8254 321
10.84551 311
10.86563 323
10.88574 350
10.90585 303
10.92597 301
10.94608 339
10.9662 315
10.98631 323
11.00642 345
11.02654 306
11.04665 332
11.06676 336
11.08688 314
11.10699 290
11.1271 299
11.14722 303
11.16733 307
11.18745 299
11.20756 333
11.22767 330
11.24779 284
11.2679 323
11.28801 331
11.30813 316
11.32824 301
11.34836 296
11.36847 313
11.38858 312
11.4087 331
11.42881 328
11.44892 328
11.46904 325
11.48915 318
11.50927 314
11.52938 325
11.54949 285
11.56961 334
11.58972 293
11.60983 311
11.62995 303
11.65006 282
11.67017 286
11.69029 327
11.7104 278
11.73052 354
11.75063 305
11.77074 298
11.79086 298
11.81097 286
11.83108 273
11.8512 312
11.87131 324
11.89143 301
11.91154 304
11.93165 315
11.95177 313
11.97188 273
11.99199 328
12.01211 305
12.03222 324
12.05234 311
12.07245 302
12.09256 312
12.11268 324
12.13279 319
12.1529 297
12.17302 308
12.19313 321
12.21324 325
12.23336 312
12.25347 334
12.27359 332
12.2937 299
12.31381 293
12.33393 331
12.35404 300
12.37415 321
12.39427 314
12.41438 314
12.4345 334
12.45461 294
12.47472 285
12.49484 314
12.51495 320
12.53506 286
12.55518 304
12.57529 307
12.5954 324
12.61552 317
12.63563 319
12.65575 295
12.67586 299
12.69597 302
12.71609 316
12.7362 312
12.75631 313
12.77643 322
12.79654 297
12.81666 293
12.83677 302
12.85688 298
12.877 289
12.89711 321
12.91722 257
12.93734 303
12.95745 318
12.97757 280
12.99768 285
13.01779 289
13.03791 289
13.05802 303
13.07813 300
13.09825 305
13.11836 281
13.13847 283
13.15859 352
13.1787 301
13.19882 291
13.21893 297
13.23904 313
13.25916 287
13.27927 323
13.29938 304
13.3195 290
13.33961 298
13.35973 288
13.37984 261
13.39995 321
13.42007 327
13.44018 295
13.46029 303
13.48041 277
13.50052 315
13.52064 327
13.54075 321
13.56086 315
13.58098 292
13.60109 349
13.6212 295
13.64132 288
13.66143 328
13.68154 295
13.70166 321
13.72177 311
13.74189 314
13.762 315
13.78211 314
13.80223 304
13.82234 319
13.84245 319
13.86257 269
13.88268 334
13.9028 292
13.92291 278
13.94302 296
13.96314 299
13.98325 307
14.00336 302
14.02348 250
14.04359 281
14.06371 275
14.08382 291
14.10393 287
14.12405 297
14.14416 306
14.16427 283
14.18439 279
14.2045 292
14.22461 315
14.24473 272
14.26484 287
14.28496 310
14.30507 271
14.32518 292
14.3453 316
14.36541 276
14.38552 262
14.40564 274
14.42575 296
14.44587 273
14.46598 290
14.48609 283
14.50621 273
14.52632 289
14.54643 313
14.56655 306
14.58666 285
14.60677 281
14.62689 280
14.647 277
14.66712 244
14.68723 253
14.70734 295
14.72746 308
14.74757 271
14.76768 274
14.7878 278
14.80791 264
14.82803 280
14.84814 299
14.86825 283
14.88837 289
14.90848 273
14.92859 273
14.94871 266
14.96882 303
14.98894 276
15.00905 294
15.02916 279
15.04928 282
15.06939 291
15.0895 275
15.10962 289
15.12973 309
15.14984 294
15.16996 307
15.19007 320
15.21019 250
15.2303 254
15.25041 259
15.27053 305
15.29064 302
15.31075 281
15.33087 272
15.35098 256
15.3711 280
15.39121 264
15.41132 246
15.43144 269
15.45155 292
15.47166 294
15.49178 280
15.51189 258
15.53201 300
15.55212 287
15.57223 317
15.59235 287
15.61246 266
15.63257 270
15.65269 270
15.6728 306
15.69291 250
15.71303 287
15.73314 315
15.75326 279
15.77337 302
15.79348 264
15.8136 312
15.83371 291
15.85382 296
15.87394 271
15.89405 316
15.91417 283
15.93428 323
15.95439 282
15.97451 300
15.99462 289
16.01473 283
16.03485 257
16.05496 291
16.07508 308
16.09519 276
16.1153 266
16.13542 301
16.15553 303
16.17564 310
16.19576 297
16.21587 287
16.23598 278
16.2561 279
16.27621 269
16.29633 326
16.31644 300
16.33655 316
16.35667 322
16.37678 311
16.39689 305
16.41701 287
16.43712 283
16.45724 289
16.47735 292
16.49746 306
16.51758 270
16.53769 313
16.5578 333
16.57792 273
16.59803 304
16.61814 298
16.63826 286
16.65837 303
16.67849 284
16.6986 315
16.71871 269
16.73883 315
16.75894 298
16.77905 297
16.79917 298
16.81928 306
16.8394 281
16.85951 282
16.87962 307
16.89974 272
16.91985 325
16.93996 308
16.96008 275
16.98019 287
17.00031 290
17.02042 317
17.04053 285
17.06065 313
17.08076 319
17.10087 292
17.12099 303
17.1411 287
17.16121 307
17.18133 307
17.20144 286
17.22156 301
17.24167 328
17.26178 281
17.2819 315
17.30201 311
17.32212 295
17.34224 306
17.36235 285
17.38247 281
17.40258 288
17.42269 275
17.44281 277
17.46292 293
17.48303 316
17.50315 313
17.52326 303
17.54338 316
17.56349 297
17.5836 302
17.60372 322
17.62383 300
17.64394 292
17.66406 284
17.68417 311
17.70428 292
17.7244 311
17.74451 291
17.76463 315
17.78474 316
17.80485 321
17.82497 274
17.84508 321
17.86519 302
17.88531 306
17.90542 292
17.92554 285
17.94565 325
17.96576 268
17.98588 307
18.00599 319
18.0261 287
18.04622 297
18.06633 284
18.08645 287
18.10656 306
18.12667 323
18.14679 316
18.1669 273
18.18701 316
18.20713 304
18.22724 311
18.24735 316
18.26747 299
18.28758 271
18.3077 290
18.32781 275
18.34792 280
18.36804 258
18.38815 334
18.40826 311
18.42838 312
18.44849 299
18.46861 300
18.48872 318
18.50883 292
18.52895 289
18.54906 315
18.56917 312
18.58929 301
18.6094 277
18.62951 288
18.64963 313
18.66974 281
18.68986 314
18.70997 303
18.73008 324
18.7502 316
18.77031 335
18.79042 348
18.81054 314
18.83065 320
18.85077 312
18.87088 293
18.89099 340
18.91111 343
18.93122 344
18.95133 351
18.97145 380
18.99156 337
19.01168 317
19.03179 378
19.0519 295
19.07202 363
19.09213 372
19.11224 365
19.13236 325
19.15247 337
19.17258 360
19.1927 377
19.21281 369
19.23293 392
19.25304 405
19.27315 387
19.29327 393
19.31338 414
19.33349 422
19.35361 481
19.37372 496
19.39384 494
19.41395 498
19.43406 484
19.45418 549
19.47429 555
19.4944 566
19.51452 564
19.53463 599
19.55475 628
19.57486 684
19.59497 711
19.61509 711
19.6352 705
19.65531 701
19.67543 809
19.69554 765
19.71565 715
19.73577 860
19.75588 771
19.776 826
19.79611 806
19.81622 800
19.83634 812
19.85645 758
19.87656 724
19.89668 721
19.91679 674
19.93691 706
19.95702 699
19.97713 742
19.99725 690
20.01736 717
20.03747 694
20.05759 642
20.0777 648
20.09782 662
20.11793 646
20.13804 613
20.15816 646
20.17827 629
20.19838 673
20.2185 612
20.23861 627
20.25872 597
20.27884 643
20.29895 616
20.31907 575
20.33918 588
20.35929 579
20.37941 577
20.39952 619
20.41963 609
20.43975 579
20.45986 601
20.47998 610
20.50009 600
20.5202 656
20.54032 595
20.56043 628
20.58054 667
20.60066 666
20.62077 754
20.64088 820
20.661 955
20.68111 1196
20.70123 1472
20.72134 1847
20.74145 2604
20.76157 3255
20.78168 3901
20.80179 4541
20.82191 4889
20.84202 4624
20.86214 4064
20.88225 3194
20.90236 2227
20.92248 1602
20.94259 1132
20.9627 855
20.98282 775
21.00293 715
21.02305 664
21.04316 634
21.06327 576
21.08339 569
21.1035 559
21.12361 549
21.14373 527
21.16384 513
21.18395 519
21.20407 516
21.22418 460
21.2443 490
21.26441 462
21.28452 486
21.30464 491
21.32475 472
21.34486 490
21.36498 499
21.38509 486
21.40521 452
21.42532 504
21.44543 430
21.46555 449
21.48566 425
21.50577 464
21.52589 458
21.546 471
21.56612 486
21.58623 447
21.60634 433
21.62646 522
21.64657 411
21.66668 449
21.6868 377
21.70691 496
21.72702 454
21.74714 400
21.76725 430
21.78737 426
21.80748 418
21.82759 466
21.84771 434
21.86782 454
21.88793 428
21.90805 435
21.92816 449
21.94828 430
21.96839 417
21.9885 470
22.00862 442
22.02873 451
22.04884 436
22.06896 418
22.08907 420
22.10919 428
22.1293 447
22.14941 423
22.16953 441
22.18964 422
22.20975 425
22.22987 390
22.24998 395
22.27009 451
22.29021 388
22.31032 423
22.33044 416
22.35055 444
22.37066 400
22.39078 437
22.41089 416
22.431 426
22.45112 412
22.47123 465
22.49135 361
22.51146 415
22.53157 379
22.55169 390
22.5718 417
22.59191 416
22.61203 439
22.63214 415
22.65225 392
22.67237 375
22.69248 395
22.7126 419
22.73271 384
22.75282 428
22.77294 408
22.79305 412
22.81316 401
22.83328 389
22.85339 397
22.87351 399
22.89362 398
22.91373 392
22.93385 397
22.95396 394
22.97407 429
22.99419 435
23.0143 410
23.03442 439
23.05453 415
23.07464 422
23.09476 408
23.11487 436
23.13498 400
23.1551 398
23.17521 440
23.19532 429
23.21544 408
23.23555 418
23.25567 394
23.27578 417
23.29589 398
23.31601 412
23.33612 381
23.35623 407
23.37635 434
23.39646 410
23.41658 413
23.43669 432
23.4568 450
23.47692 453
23.49703 403
23.51714 435
23.53726 380
23.55737 413
23.57749 481
23.5976 428
23.61771 419
23.63783 415
23.65794 427
23.67805 421
23.69817 399
23.71828 419
23.73839 373
23.75851 406
23.77862 440
23.79874 426
23.81885 408
23.83896 406
23.85908 430
23.87919 423
23.8993 445
23.91942 425
23.93953 446
23.95965 448
23.97976 447
23.99987 464
24.01999 438
24.0401 410
24.06021 425
24.08033 378
24.10044 401
24.12056 415
24.14067 408
24.16078 395
24.1809 417
24.20101 409
24.22112 419
24.24124 374
24.26135 420
24.28146 397
24.30158 395
24.32169 431
24.34181 422
24.36192 403
24.38203 393
24.40215 405
24.42226 420
24.44237 421
24.46249 356
24.4826 391
24.50272 355
24.52283 384
24.54294 381
24.56306 407
24.58317 382
24.60328 411
24.6234 372
24.64351 432
24.66362 451
24.68374 377
24.70385 433
24.72397 416
24.74408 385
24.76419 430
24.78431 417
24.80442 449
24.82453 425
24.84465 445
24.86476 430
24.88488 396
24.90499 374
24.9251 405
24.94522 428
24.96533 461
24.98544 460
25.00556 423
25.02567 395
25.04579 405
25.0659 423
25.08601 448
25.10613 394
25.12624 420
25.14635 431
25.16647 447
25.18658 463
25.20669 430
25.22681 444
25.24692 442
25.26704 397
25.28715 434
25.30726 456
25.32738 450
25.34749 424
25.3676 460
25.38772 405
25.40783 435
25.42795 433
25.44806 450
25.46817 435
25.48829 448
25.5084 455
25.52851 435
25.54863 490
25.56874 431
25.58886 515
25.60897 477
25.62908 510
25.6492 521
25.66931 539
25.68942 506
25.70954 478
25.72965 538
25.74976 486
25.76988 506
25.78999 525
25.81011 585
25.83022 565
25.85033 558
25.87045 575
25.89056 619
25.91067 533
25.93079 569
25.9509 543
25.97102 584
25.99113 611
26.01124 575
26.03136 660
26.05147 661
26.07158 596
26.0917 683
26.11181 674
26.13193 709
26.15204 716
26.17215 743
26.19227 797
26.21238 889
26.23249 910
26.25261 1023
26.27272 998
26.29283 1107
26.31295 1152
26.33306 1278
26.35318 1320
26.37329 1553
26.3934 1925
26.41352 2314
26.43363 3018
26.45374 4043
26.47386 5457
26.49397 7536
26.51409 10214
26.5342 13855
26.55431 17435
26.57443 20260
26.59454 21540
26.61465 20796
26.63477 18714
26.65488 15179
26.67499 11376
26.69511 8187
26.71522 5625
26.73534 3579
26.75545 2240
26.77556 1623
26.79568 1453
26.81579 1239
26.8359 1154
26.85602 1047
26.87613 1011
26.89625 979
26.91636 887
26.93647 852
26.95659 809
26.9767 785
26.99681 729
27.01693 721
27.03704 740
27.05716 671
27.07727 634
27.09738 610
27.1175 682
27.13761 651
27.15772 578
27.17784 602
27.19795 588
27.21806 583
27.23818 572
27.25829 585
27.27841 643
27.29852 566
27.31863 613
27.33875 603
27.35886 634
27.37897 658
27.39909 683
27.4192 586
27.43932 638
27.45943 581
27.47954 637
27.49966 610
27.51977 570
27.53988 584
27.56 533
27.58011 541
27.60023 514
27.62034 547
27.64045 527
27.66057 558
27.68068 483
27.70079 501
27.72091 498
27.74102 513
27.76113 519
27.78125 509
27.80136 542
27.82148 458
27.84159 500
27.8617 497
27.88182 498
27.90193 519
27.92204 483
27.94216 467
27.96227 501
27.98239 486
28.0025 470
28.02261 484
28.04273 452
28.06284 474
28.08295 467
28.10307 455
28.12318 422
28.1433 431
28.16341 453
28.18352 494
28.20364 434
28.22375 413
28.24386 437
28.26398 428
28.28409 419
28.3042 414
28.32432 441
28.34443 441
28.36455 402
28.38466 458
28.40477 451
28.42489 407
28.445 429
28.46511 395
28.48523 458
28.50534 443
28.52546 371
28.54557 401
28.56568 435
28.5858 373
28.60591 442
28.62602 410
28.64614 455
28.66625 466
28.68636 409
28.70648 399
28.72659 397
28.74671 388
28.76682 403
28.78693 405
28.80705 425
28.82716 425
28.84727 355
28.86739 409
28.8875 390
28.90762 404
28.92773 398
28.94784 370
28.96796 399
28.98807 383
29.00818 394
29.0283 380
29.04841 395
29.06853 431
29.08864 370
29.10875 396
29.12887 395
29.14898 434
29.16909 411
29.18921 363
29.20932 417
29.22943 383
29.24955 381
29.26966 402
29.28978 422
29.30989 395
29.33 421
29.35012 401
29.37023 394
29.39034 412
29.41046 400
29.43057 382
29.45069 400
29.4708 439
29.49091 393
29.51103 425
29.53114 413
29.55125 420
29.57137 435
29.59148 364
29.6116 429
29.63171 385
29.65182 397
29.67194 412
29.69205 388
29.71216 399
29.73228 444
29.75239 408
29.7725 428
29.79262 392
29.81273 385
29.83285 439
29.85296 365
29.87307 419
29.89319 401
29.9133 395
29.93341 366
29.95353 385
29.97364 368
29.99376 423
30.01387 422
30.03398 399
30.0541 344
30.07421 422
30.09432 365
30.11444 398
30.13455 411
30.15467 372
30.17478 361
30.19489 380
30.21501 363
30.23512 369
30.25523 358
30.27535 377
30.29546 392
30.31557 382
30.33569 340
30.3558 397
30.37592 374
30.39603 347
30.41614 367
30.43626 361
30.45637 365
30.47648 372
30.4966 327
30.51671 347
30.53683 337
30.55694 338
30.57705 399
30.59717 377
30.61728 360
30.63739 332
30.65751 361
30.67762 379
30.69773 336
30.71785 375
30.73796 398
30.75808 389
30.77819 354
30.7983 387
30.81842 368
30.83853 389
30.85864 405
30.87876 372
30.89887 344
30.91899 361
30.9391 331
30.95921 362
30.97933 332
30.99944 353
31.01955 342
31.03967 383
31.05978 336
31.0799 310
31.10001 339
31.12012 373
31.14024 358
31.16035 324
31.18046 353
31.20058 358
31.22069 337
31.2408 350
31.26092 323
31.28103 333
31.30115 368
31.32126 339
31.34137 347
31.36149 343
31.3816 331
31.40171 341
31.42183 331
31.44194 304
31.46206 341
31.48217 317
31.50228 325
31.5224 359
31.54251 355
31.56262 324
31.58274 305
31.60285 353
31.62297 343
31.64308 327
31.66319 313
31.68331 334
31.70342 322
31.72353 332
31.74365 332
31.76376 312
31.78387 333
31.80399 278
31.8241 340
31.84422 376
31.86433 291
31.88444 337
31.90456 319
31.92467 313
31.94478 297
31.9649 314
31.98501 320
32.00513 340
32.02524 334
32.04535 363
32.06547 323
32.08558 335
32.10569 331
32.12581 304
32.14592 331
32.16604 337
32.18615 307
32.20626 311
32.22638 314
32.24649 333
32.2666 309
32.28672 342
32.30683 307
32.32694 339
32.34706 297
32.36717 320
32.38729 306
32.4074 318
32.42751 311
32.44763 303
32.46774 295
32.48785 306
32.50797 301
32.52808 326
32.5482 305
32.56831 319
32.58842 338
32.60854 332
32.62865 325
32.64876 314
32.66888 340
32.68899 312
32.7091 298
32.72922 325
32.74933 302
32.76945 317
32.78956 297
32.80967 298
32.82979 295
32.8499 331
32.87001 309
32.89013 324
32.91024 297
32.93036 313
32.95047 316
32.97058 317
32.9907 306
33.01081 278
33.03092 328
33.05104 270
33.07115 334
33.09127 316
33.11138 314
33.13149 309
33.15161 324
33.17172 321
33.19183 334
33.21195 285
33.23206 309
33.25217 326
33.27229 317
33.2924 321
33.31252 299
33.33263 312
33.35274 326
33.37286 289
33.39297 315
33.41308 301
33.4332 310
33.45331 330
33.47343 320
33.49354 295
33.51365 319
33.53377 296
33.55388 286
33.57399 320
33.59411 338
33.61422 326
33.63434 293
33.65445 300
33.67456 319
33.69468 251
33.71479 286
33.7349 340
33.75502 330
33.77513 311
33.79524 332
33.81536 323
33.83547 351
33.85559 320
33.8757 341
33.89581 343
33.91593 346
33.93604 356
33.95615 349
33.97627 341
33.99638 352
34.0165 334
34.03661 346
34.05672 336
34.07684 356
34.09695 356
34.11706 395
34.13718 339
34.15729 423
34.17741 402
34.19752 398
34.21763 385
34.23775 391
34.25786 411
34.27797 422
34.29809 409
34.3182 450
34.33831 432
34.35843 434
34.37854 465
34.39866 437
34.41877 485
34.43888 461
34.459 475
34.47911 478
34.49922 476
34.51934 502
34.53945 495
34.55957 482
34.57968 534
34.59979 486
34.61991 509
34.64002 470
34.66013 525
34.68025 488
34.70036 563
34.72047 533
34.74059 480
34.7607 551
34.78082 477
34.80093 517
34.82104 551
34.84116 500
34.86127 497
34.88138 554
34.9015 532
34.92161 502
34.94173 514
34.96184 522
34.98195 528
35.00207 488
35.02218 482
35.04229 494
35.06241 529
35.08252 509
35.10264 480
35.12275 500
35.14286 529
35.16298 468
35.18309 473
35.2032 483
35.22332 483
35.24343 499
35.26354 489
35.28366 465
35.30377 452
35.32389 439
35.344 469
35.36411 451
35.38423 478
35.40434 445
35.42445 427
35.44457 455
35.46468 495
35.4848 442
35.50491 471
35.52502 453
35.54514 484
35.56525 425
35.58536 427
35.60548 456
35.62559 415
35.64571 428
35.66582 408
35.68593 393
35.70605 439
35.72616 437
35.74627 421
35.76639 432
35.7865 405
35.80661 427
35.82673 432
35.84684 432
35.86696 394
35.88707 433
35.90718 399
35.9273 425
35.94741 433
35.96752 422
35.98764 390
36.00775 384
36.02787 457
36.04798 412
36.06809 416
36.08821 395
36.10832 385
36.12843 418
36.14855 452
36.16866 437
36.18878 504
36.20889 461
36.229 451
36.24912 471
36.26923 479
36.28934 548
36.30946 576
36.32957 619
36.34968 662
36.3698 794
36.38991 921
36.41003 1079
36.43014 1381
36.45025 1465
36.47037 1618
36.49048 1661
36.51059 1674
36.53071 1537
36.55082 1345
36.57094 1176
36.59105 1008
36.61116 917
36.63128 768
36.65139 655
36.6715 560
36.69162 494
36.71173 462
36.73184 389
36.75196 440
36.77207 405
36.79219 443
36.8123 430
36.83241 418
36.85253 395
36.87264 393
36.89275 414
36.91287 391
36.93298 379
36.9531 414
36.97321 401
36.99332 421
37.01344 355
37.03355 399
37.05366 422
37.07378 401
37.09389 427
37.11401 348
37.13412 417
37.15423 406
37.17435 379
37.19446 410
37.21457 409
37.23469 385
37.2548 370
37.27491 401
37.29503 395
37.31514 411
37.33526 402
37.35537 347
37.37548 374
37.3956 393
37.41571 414
37.43582 346
37.45594 423
37.47605 377
37.49617 375
37.51628 386
37.53639 375
37.55651 374
37.57662 385
37.59673 331
37.61685 406
37.63696 388
37.65708 371
37.67719 390
37.6973 375
37.71742 364
37.73753 358
37.75764 356
37.77776 339
37.79787 384
37.81798 321
37.8381 361
37.85821 320
37.87833 364
37.89844 341
37.91855 357
37.93867 328
37.95878 305
37.97889 355
37.99901 333
38.01912 350
38.03924 343
38.05935 325
38.07946 358
38.09958 370
38.11969 338
38.1398 344
38.15992 354
38.18003 338
38.20015 324
38.22026 339
38.24037 349
38.26049 334
38.2806 333
38.30071 355
38.32083 356
38.34094 354
38.36105 376
38.38117 341
38.40128 344
38.4214 318
38.44151 343
38.46162 332
38.48174 355
38.50185 305
38.52196 342
38.54208 372
38.56219 351
38.58231 324
38.60242 380
38.62253 309
38.64265 370
38.66276 329
38.68287 341
38.70299 332
38.7231 332
38.74321 344
38.76333 304
38.78344 300
38.80356 368
38.82367 332
38.84378 330
38.8639 332
38.88401 341
38.90412 332
38.92424 369
38.94435 356
38.96447 348
38.98458 345
39.00469 333
39.02481 326
39.04492 355
39.06503 389
39.08515 356
39.10526 368
39.12538 386
39.14549 412
39.1656 366
39.18572 400
39.20583 469
39.22594 507
39.24606 577
39.26617 576
39.28628 697
39.3064 813
39.32651 977
39.34663 1145
39.36674 1320
39.38685 1454
39.40697 1516
39.42708 1670
39.44719 1479
39.46731 1246
39.48742 1132
39.50754 1057
39.52765 930
39.54776 817
39.56788 706
39.58799 541
39.6081 425
39.62822 395
39.64833 412
39.66845 366
39.68856 380
39.70867 364
39.72879 343
39.7489 376
39.76901 394
39.78913 356
39.80924 381
39.82935 358
39.84947 347
39.86958 352
39.8897 368
39.90981 373
39.92992 346
39.95004 358
39.97015 385
39.99026 374
40.01038 362
40.03049 403
40.05061 423
40.07072 450
40.09083 461
40.11095 495
40.13106 598
40.15117 655
40.17129 764
40.1914 803
40.21152 885
40.23163 867
40.25174 871
40.27186 857
40.29197 736
40.31208 701
40.3322 698
40.35231 653
40.37242 577
40.39254 473
40.41265 411
40.43277 373
40.45288 348
40.47299 348
40.49311 366
40.51322 324
40.53333 334
40.55345 338
40.57356 313
40.59368 344
40.61379 344
40.6339 337
40.65402 342
40.67413 347
40.69424 307
40.71436 348
40.73447 349
40.75458 347
40.7747 331
40.79481 371
40.81493 330
40.83504 324
40.85515 345
40.87527 304
40.89538 283
40.91549 368
40.93561 325
40.95572 331
40.97584 329
40.99595 340
41.01606 375
41.03618 349
41.05629 353
41.0764 325
41.09652 336
41.11663 319
41.13675 315
41.15686 309
41.17697 348
41.19709 318
41.2172 318
41.23731 365
41.25743 346
41.27754 321
41.29765 355
41.31777 315
41.33788 317
41.358 334
41.37811 315
41.39822 316
41.41834 360
41.43845 357
41.45856 368
41.47868 320
41.49879 333
41.51891 345
41.53902 304
41.55913 313
41.57925 317
41.59936 352
41.61947 351
41.63959 347
41.6597 360
41.67982 334
41.69993 346
41.72004 350
41.74016 350
41.76027 352
41.78038 325
41.8005 373
41.82061 305
41.84072 319
41.86084 357
41.88095 345
41.90107 372
41.92118 297
41.94129 353
41.96141 350
41.98152 333
42.00163 318
42.02175 330
42.04186 336
42.06198 346
42.08209 359
42.1022 327
42.12232 361
42.14243 384
42.16254 423
42.18266 367
42.20277 413
42.22289 459
42.243 504
42.26311 621
42.28323 619
42.30334 754
42.32345 853
42.34357 984
42.36368 1037
42.38379 1183
42.40391 1116
42.42402 1059
42.44414 1022
42.46425 855
42.48436 806
42.50448 715
42.52459 671
42.5447 615
42.56482 512
42.58493 437
42.60505 355
42.62516 365
42.64527 329
42.66539 340
42.6855 328
42.70561 349
42.72573 338
42.74584 326
42.76595 352
42.78607 330
42.80618 318
42.8263 295
42.84641 303
42.86652 318
42.88664 286
42.90675 338
42.92686 310
42.94698 307
42.96709 303
42.98721 341
43.00732 286
43.02743 294
43.04755 303
43.06766 318
43.08777 277
43.10789 319
43.128 303
43.14812 270
43.16823 305
43.18834 297
43.20846 268
43.22857 270
43.24868 301
43.2688 324
43.28891 287
43.30902 270
43.32914 331
43.34925 285
43.36937 267
43.38948 305
43.40959 308
43.42971 286
43.44982 308
43.46993 282
43.49005 326
43.51016 275
43.53028 286
43.55039 336
43.5705 288
43.59062 270
43.61073 311
43.63084 298
43.65096 320
43.67107 303
43.69119 314
43.7113 305
43.73141 315
43.75153 293
43.77164 294
43.79175 299
43.81187 281
43.83198 287
43.85209 292
43.87221 297
43.89232 294
43.91244 298
43.93255 303
43.95266 324
43.97278 314
43.99289 266
44.013 262
44.03312 286
44.05323 276
44.07335 280
44.09346 289
44.11357 300
44.13369 347
44.1538 258
44.17391 308
44.19403 279
44.21414 297
44.23426 297
44.25437 316
44.27448 291
44.2946 304
44.31471 293
44.33482 282
44.35494 266
44.37505 302
44.39516 254
44.41528 292
44.43539 282
44.45551 294
44.47562 267
44.49573 289
44.51585 308
44.53596 289
44.55607 257
44.57619 288
44.5963 267
44.61642 285
44.63653 314
44.65664 277
44.67676 288
44.69687 310
44.71698 305
44.7371 296
44.75721 309
44.77732 305
44.79744 294
44.81755 301
44.83767 287
44.85778 311
44.87789 311
44.89801 283
44.91812 287
44.93823 290
44.95835 296
44.97846 303
44.99858 313
45.01869 281
45.0388 283
45.05892 293
45.07903 302
45.09914 295
45.11926 288
45.13937 301
45.15949 265
45.1796 256
45.19971 274
45.21983 272
45.23994 289
45.26005 299
45.28017 273
45.30028 319
45.32039 264
45.34051 294
45.36062 283
45.38074 273
45.40085 309
45.42096 330
45.44108 311
45.46119 337
45.4813 307
45.50142 322
45.52153 355
45.54165 356
45.56176 406
45.58187 390
45.60199 457
45.6221 539
45.64221 556
45.66233 665
45.68244 758
45.70256 809
45.72267 848
45.74278 821
45.7629 842
45.78301 801
45.80312 711
45.82324 647
45.84335 556
45.86346 586
45.88358 503
45.90369 498
45.92381 384
45.94392 385
45.96403 337
45.98415 315
46.00426 251
46.02437 320
46.04449 317
46.0646 291
46.08472 300
46.10483 276
46.12494 298
46.14506 265
46.16517 306
46.18528 288
46.2054 259
46.22551 260
46.24563 269
46.26574 294
46.28585 275
46.30597 287
46.32608 298
46.34619 270
46.36631 243
46.38642 256
46.40653 277
46.42665 277
46.44676 257
46.46688 236
46.48699 278
46.5071 264
46.52722 246
46.54733 264
46.56744 267
46.58756 251
46.60767 262
46.62779 246
46.6479 276
46.66801 261
46.68813 244
46.70824 236
46.72835 254
46.74847 288
46.76858 282
46.78869 269
46.80881 274
46.82892 245
46.84904 260
46.86915 257
46.88926 281
46.90938 259
46.92949 295
46.9496 279
46.96972 240
46.98983 256
47.00995 288
47.03006 262
47.05017 270
47.07029 250
47.0904 282
47.11051 265
47.13063 306
47.15074 285
47.17086 282
47.19097 278
47.21108 291
47.2312 272
47.25131 257
47.27142 239
47.29154 260
47.31165 251
47.33176 266
47.35188 252
47.37199 275
47.39211 273
47.41222 261
47.43233 250
47.45245 248
47.47256 260
47.49267 265
47.51279 255
47.5329 280
47.55302 289
47.57313 257
47.59324 261
47.61336 270
47.63347 253
47.65358 254
47.6737 233
47.69381 278
47.71393 264
47.73404 255
47.75415 264
47.77427 278
47.79438 277
47.81449 259
47.83461 271
47.85472 296
47.87483 246
47.89495 261
47.91506 254
47.93518 256
47.95529 266
47.9754 270
47.99552 233
48.01563 262
48.03574 257
48.05586 245
48.07597 254
48.09609 277
48.1162 257
48.13631 255
48.15643 280
48.17654 250
48.19665 255
48.21677 244
48.23688 272
48.257 245
48.27711 261
48.29722 233
48.31734 260
48.33745 266
48.35756 280
48.37768 248
48.39779 265
48.4179 271
48.43802 263
48.45813 255
48.47825 270
48.49836 285
48.51847 273
48.53859 257
48.5587 278
48.57881 271
48.59893 281
48.61904 283
48.63916 273
48.65927 263
48.67938 244
48.6995 257
48.71961 265
48.73972 283
48.75984 268
48.77995 232
48.80006 273
48.82018 276
48.84029 275
48.86041 283
48.88052 269
48.90063 283
48.92075 253
48.94086 282
48.96097 265
48.98109 296
49.0012 277
49.02132 258
49.04143 240
49.06154 280
49.08166 285
49.10177 242
49.12188 263
49.142 264
49.16211 249
49.18223 275
49.20234 263
49.22245 256
49.24257 254
49.26268 273
49.28279 278
49.30291 288
49.32302 262
49.34313 245
49.36325 239
49.38336 274
49.40348 267
49.42359 249
49.4437 289
49.46382 292
49.48393 288
49.50404 282
49.52416 298
49.54427 294
49.56439 270
49.5845 311
49.60461 285
49.62473 296
49.64484 306
49.66495 300
49.68507 325
49.70518 353
49.7253 343
49.74541 344
49.76552 335
49.78564 428
49.80575 381
49.82586 485
49.84598 500
49.86609 503
49.8862 602
49.90632 671
49.92643 770
49.94655 918
49.96666 1108
49.98677 1272
50.00689 1575
50.027 1890
50.04711 2081
50.06723 2283
50.08734 2375
50.10746 2229
50.12757 1946
50.14768 1704
50.1678 1448
50.18791 1449
50.20802 1303
50.22814 1267
50.24825 1044
50.26837 910
50.28848 605
50.30859 483
50.32871 452
50.34882 383
50.36893 368
50.38905 361
50.40916 336
50.42927 308
50.44939 360
50.4695 355
50.48962 327
50.50973 360
50.52984 326
50.54996 347
50.57007 350
50.59018 356
50.6103 303
50.63041 319
50.65053 297
50.67064 320
50.69075 274
50.71087 304
50.73098 318
50.75109 275
50.77121 283
50.79132 261
50.81143 271
50.83155 276
50.85166 277
50.87178 275
50.89189 253
50.912 289
50.93212 237
50.95223 226
50.97234 294
50.99246 252
51.01257 258
51.03269 268
51.0528 257
51.07291 271
51.09303 256
51.11314 272
51.13325 270
51.15337 261
51.17348 233
51.1936 295
51.21371 252
51.23382 253
51.25394 266
51.27405 258
51.29416 261
51.31428 269
51.33439 251
51.3545 266
51.37462 244
51.39473 248
51.41485 237
51.43496 276
51.45507 242
51.47519 260
51.4953 252
51.51541 250
51.53553 248
51.55564 269
51.57576 253
51.59587 240
51.61598 240
51.6361 258
51.65621 256
51.67632 243
51.69644 227
51.71655 240
51.73667 254
51.75678 266
51.77689 265
51.79701 243
51.81712 266
51.83723 258
51.85735 247
51.87746 259
51.89757 288
51.91769 264
51.9378 256
51.95792 252
51.97803 252
51.99814 270
52.01826 256
52.03837 250
52.05848 255
52.0786 262
52.09871 260
52.11883 239
52.13894 256
52.15905 249
52.17917 250
52.19928 273
52.21939 262
52.23951 248
52.25962 253
52.27974 246
52.29985 272
52.31996 229
52.34008 244
52.36019 249
52.3803 238
52.40042 249
52.42053 265
52.44064 260
52.46076 264
52.48087 226
52.50099 252
52.5211 256
52.54121 241
52.56133 220
52.58144 238
52.60155 241
52.62167 247
52.64178 241
52.6619 242
52.68201 253
52.70212 279
52.72224 249
52.74235 271
52.76246 259
52.78258 241
52.80269 272
52.8228 257
52.84292 298
52.86303 260
52.88315 280
52.90326 270
52.92337 262
52.94349 248
52.9636 290
52.98371 254
53.00383 252
53.02394 257
53.04406 267
53.06417 266
53.08428 263
53.1044 283
53.12451 264
53.14462 277
53.16474 259
53.18485 291
53.20497 276
53.22508 286
53.24519 280
53.26531 284
53.28542 286
53.30553 295
53.32565 286
53.34576 305
53.36587 297
53.38599 278
53.4061 287
53.42622 302
53.44633 309
53.46644 285
53.48656 287
53.50667 308
53.52678 288
53.5469 305
53.56701 297
53.58713 304
53.60724 320
53.62735 298
53.64747 320
53.66758 305
53.68769 313
53.70781 299
53.72792 290
53.74804 301
53.76815 329
53.78826 308
53.80838 322
53.82849 312
53.8486 316
53.86872 288
53.88883 253
53.90894 292
53.92906 287
53.94917 298
53.96929 285
53.9894 347
54.00951 285
54.02963 312
54.04974 324
54.06985 322
54.08997 302
54.11008 287
54.1302 284
54.15031 316
54.17042 302
54.19054 286
54.21065 330
54.23076 290
54.25088 297
54.27099 294
54.29111 276
54.31122 330
54.33133 321
54.35145 301
54.37156 326
54.39167 302
54.41179 312
54.4319 327
54.45201 343
54.47213 330
54.49224 302
54.51236 343
54.53247 319
54.55258 370
54.5727 385
54.59281 373
54.61292 409
54.63304 462
54.65315 462
54.67327 525
54.69338 535
54.71349 562
54.73361 664
54.75372 751
54.77383 784
54.79395 914
54.81406 930
54.83417 853
54.85429 830
54.8744 755
54.89452 619
54.91463 603
54.93474 606
54.95486 573
54.97497 597
54.99508 565
55.0152 494
55.03531 457
55.05543 414
55.07554 360
55.09565 363
55.11577 404
55.13588 438
55.15599 438
55.17611 426
55.19622 473
55.21634 479
55.23645 526
55.25656 542
55.27668 544
55.29679 511
55.3169 500
55.33702 464
55.35713 413
55.37724 405
55.39736 454
55.41747 398
55.43759 410
55.4577 358
55.47781 383
55.49793 342
55.51804 307
55.53815 292
55.55827 297
55.57838 314
55.5985 289
55.61861 328
55.63872 286
55.65884 286
55.67895 299
55.69906 296
55.71918 315
55.73929 287
55.75941 276
55.77952 279
55.79963 304
55.81975 292
55.83986 294
55.85997 305
55.88009 291
55.9002 274
55.92031 312
55.94043 297
55.96054 296
55.98066 292
56.00077 268
56.02088 313
56.041 240
56.06111 267
56.08122 304
56.10134 265
56.12145 308
56.14157 291
56.16168 286
56.18179 279
56.20191 305
56.22202 294
56.24213 295
56.26225 271
56.28236 291
56.30248 277
56.32259 293
56.3427 292
56.36282 249
56.38293 251
56.40304 295
56.42316 263
56.44327 261
56.46338 286
56.4835 289
56.50361 272
56.52373 289
56.54384 286
56.56395 251
56.58407 263
56.60418 261
56.62429 279
56.64441 284
56.66452 315
56.68464 277
56.70475 269
56.72486 286
56.74498 272
56.76509 284
56.7852 286
56.80532 277
56.82543 287
56.84554 256
56.86566 265
56.88577 275
56.90589 279
56.926 272
56.94611 302
56.96623 279
56.98634 281
57.00645 301
57.02657 286
57.04668 265
57.0668 282
57.08691 266
57.10702 265
57.12714 304
57.14725 292
57.16736 289
57.18748 286
57.20759 297
57.22771 291
57.24782 293
57.26793 298
57.28805 287
57.30816 302
57.32827 280
57.34839 271
57.3685 255
57.38861 253
57.40873 282
57.42884 275
57.44896 291
57.46907 267
57.48918 268
57.5093 253
57.52941 279
57.54952 268
57.56964 282
57.58975 271
57.60987 266
57.62998 275
57.65009 294
57.67021 252
57.69032 266
57.71043 263
57.73055 281
57.75066 289
57.77078 294
57.79089 234
57.811 262
57.83112 287
57.85123 278
57.87134 265
57.89146 248
57.91157 266
57.93168 291
57.9518 264
57.97191 266
57.99203 238
58.01214 272
58.03225 281
58.05237 248
58.07248 229
58.09259 267
58.11271 277
58.13282 282
58.15294 258
58.17305 282
58.19316 249
58.21328 276
58.23339 261
58.2535 247
58.27362 251
58.29373 253
58.31385 259
58.33396 229
58.35407 255
58.37419 262
58.3943 245
58.41441 258
58.43453 271
58.45464 271
58.47475 269
58.49487 246
58.51498 276
58.5351 260
58.55521 249
58.57532 280
58.59544 268
58.61555 300
58.63566 273
58.65578 293
58.67589 276
58.69601 252
58.71612 280
58.73623 284
58.75635 309
58.77646 262
58.79657 263
58.81669 268
58.8368 273
58.85691 289
58.87703 271
58.89714 294
58.91726 257
58.93737 243
58.95748 266
58.9776 298
58.99771 248
59.01782 300
59.03794 251
59.05805 271
59.07817 289
59.09828 271
59.11839 267
59.13851 274
59.15862 292
59.17873 260
59.19885 286
59.21896 267
59.23908 271
59.25919 300
59.2793 281
59.29942 270
59.31953 287
59.33964 279
59.35976 298
59.37987 271
59.39998 299
59.4201 280
59.44021 281
59.46033 302
59.48044 304
59.50055 320
59.52067 283
59.54078 342
59.56089 362
59.58101 367
59.60112 371
59.62124 383
59.64135 444
59.66146 444
59.68158 505
59.70169 565
59.7218 557
59.74192 678
59.76203 764
59.78215 861
59.80226 1030
59.82237 1271
59.84249 1324
59.8626 1443
59.88271 1534
59.90283 1516
59.92294 1451
59.94305 1215
59.96317 1106
59.98328 976
60.0034 1004
60.02351 919
60.04362 939
60.06374 895
60.08385 837
60.10396 681
60.12408 538
60.14419 484
60.16431 412
60.18442 351
60.20453 338
60.22465 303
60.24476 326
60.26487 316
60.28499 290
60.3051 312
60.32522 289
60.34533 310
60.36544 302
60.38556 319
60.40567 283
60.42578 308
60.4459 288
60.46601 255
60.48612 297
60.50624 289
60.52635 302
60.54647 274
60.56658 275
60.58669 288
60.60681 258
60.62692 256
60.64703 283
60.66715 261
60.68726 298
60.70738 308
60.72749 311
60.7476 292
60.76772 292
60.78783 314
60.80794 271
60.82806 260
60.84817 283
60.86828 282
60.8884 300
60.90851 297
60.92863 301
60.94874 310
60.96885 303
60.98897 313
61.00908 327
61.02919 332
61.04931 309
61.06942 338
61.08954 321
61.10965 330
61.12976 328
61.14988 348
61.16999 304
61.1901 345
61.21022 367
61.23033 338
61.25045 391
61.27056 376
61.29067 390
61.31079 345
61.3309 395
61.35101 356
61.37113 412
61.39124 379
61.41135 370
61.43147 361
61.45158 378
61.4717 382
61.49181 408
61.51192 370
61.53204 383
61.55215 405
61.57226 400
61.59238 409
61.61249 366
61.63261 354
61.65272 391
61.67283 380
61.69295 377
61.71306 349
61.73317 319
61.75329 368
61.7734 372
61.79352 321
61.81363 355
61.83374 340
61.85386 347
61.87397 332
61.89408 341
61.9142 343
61.93431 356
61.95442 343
61.97454 333
61.99465 314
62.01477 337
62.03488 309
62.05499 364
62.07511 314
62.09522 327
62.11533 290
62.13545 304
62.15556 326
62.17568 325
62.19579 309
62.2159 315
62.23602 296
62.25613 310
62.27624 295
62.29636 300
62.31647 290
62.33659 293
62.3567 324
62.37681 302
62.39693 282
62.41704 321
62.43715 280
62.45727 271
62.47738 276
62.49749 294
62.51761 294
62.53772 248
62.55784 281
62.57795 269
62.59806 290
62.61818 298
62.63829 289
62.6584 255
62.67852 254
62.69863 272
62.71875 279
62.73886 269
62.75897 256
62.77909 245
62.7992 259
62.81931 274
62.83943 272
62.85954 260
62.87965 268
62.89977 251
62.91988 272
62.94 278
62.96011 286
62.98022 258
63.00034 245
63.02045 240
63.04056 255
63.06068 240
63.08079 291
63.10091 268
63.12102 269
63.14113 266
63.16125 231
63.18136 245
63.20147 249
63.22159 258
63.2417 263
63.26182 282
63.28193 248
63.30204 279
63.32216 248
63.34227 262
63.36238 236
63.3825 246
63.40261 281
63.42272 249
63.44284 254
63.46295 239
63.48307 245
63.50318 240
63.52329 250
63.54341 247
63.56352 270
63.58363 293
63.60375 264
63.62386 257
63.64398 272
63.66409 263
63.6842 229
63.70432 284
63.72443 299
63.74454 285
63.76466 272
63.78477 357
63.80489 298
63.825 326
63.84511 345
63.86523 383
63.88534 398
63.90545 455
63.92557 446
63.94568 503
63.96579 485
63.98591 486
64.00602 456
64.02614 429
64.04625 375
64.06636 368
64.08648 334
64.10659 359
64.1267 384
64.14682 382
64.16693 375
64.18705 368
64.20716 308
64.22727 299
64.24739 287
64.2675 281
64.28761 267
64.30773 240
64.32784 230
64.34796 247
64.36807 261
64.38818 215
64.4083 258
64.42841 254
64.44852 245
64.46864 280
64.48875 274
64.50886 269
64.52898 240
64.54909 269
64.56921 249
64.58932 232
64.60943 238
64.62955 235
64.64966 266
64.66977 264
64.68989 245
64.71 254
64.73012 246
64.75023 241
64.77034 222
64.79046 249
64.81057 244
64.83068 254
64.8508 251
64.87091 242
64.89102 225
64.91114 233
64.93125 242
64.95137 268
64.97148 254
64.99159 249
65.01171 253
65.03182 236
65.05193 258
65.07205 253
65.09216 257
65.11228 246
65.13239 247
65.1525 258
65.17262 250
65.19273 267
65.21284 262
65.23296 245
65.25307 245
65.27319 263
65.2933 252
65.31341 272
65.33353 297
65.35364 259
65.37375 236
65.39387 229
65.41398 246
65.43409 270
65.45421 274
65.47432 246
65.49444 256
65.51455 281
65.53466 269
65.55478 277
65.57489 289
65.595 308
65.61512 278
65.63523 293
65.65535 276
65.67546 307
65.69557 307
65.71569 293
65.7358 290
65.75591 285
65.77603 302
65.79614 269
65.81626 263
65.83637 293
65.85648 285
65.8766 279
65.89671 312
65.91682 272
65.93694 260
65.95705 270
65.97716 256
65.99728 253
66.01739 224
66.03751 251
66.05762 226
66.07773 238
66.09785 285
66.11796 264
66.13807 249
66.15819 231
66.1783 248
66.19842 261
66.21853 245
66.23864 253
66.25876 276
66.27887 272
66.29898 230
66.3191 235
66.33921 240
66.35933 235
66.37944 266
66.39955 224
66.41967 282
66.43978 246
66.45989 260
66.48001 261
66.50012 255
66.52023 241
66.54035 256
66.56046 249
66.58058 259
66.60069 234
66.6208 248
66.64092 263
66.66103 240
66.68114 260
66.70126 256
66.72137 211
66.74149 218
66.7616 249
66.78171 265
66.80183 234
66.82194 243
66.84205 265
66.86217 249
66.88228 263
66.90239 249
66.92251 252
66.94262 253
66.96274 254
66.98285 276
67.00296 242
67.02308 274
67.04319 261
67.0633 243
67.08342 276
67.10353 262
67.12365 244
67.14376 268
67.16387 266
67.18399 281
67.2041 293
67.22421 288
67.24433 305
67.26444 295
67.28456 298
67.30467 307
67.32478 318
67.3449 315
67.36501 298
67.38512 363
67.40524 335
67.42535 385
67.44546 380
67.46558 398
67.48569 460
67.50581 454
67.52592 503
67.54603 551
67.56615 680
67.58626 743
67.60637 844
67.62649 897
67.6466 962
67.66672 1026
67.68683 1088
67.70694 940
67.72706 894
67.74717 784
67.76728 702
67.7874 698
67.80751 716
67.82763 790
67.84774 748
67.86785 758
67.88797 821
67.90808 853
67.92819 855
67.94831 826
67.96842 862
67.98853 978
68.00865 1034
68.02876 1118
68.04888 1232
68.06899 1280
68.0891 1310
68.10922 1300
68.12933 1245
68.14944 1158
68.16956 1114
68.18967 1101
68.20979 1164
68.2299 1197
68.25001 1198
68.27013 1194
68.29024 1139
68.31035 947
68.33047 872
68.35058 725
68.3707 613
68.39081 597
68.41092 590
68.43104 556
68.45115 564
68.47126 531
68.49138 444
68.51149 373
68.5316 362
68.55172 334
68.57183 317
68.59195 323
68.61206 321
68.63217 303
68.65229 264
68.6724 272
68.69251 307
68.71263 266
68.73274 262
68.75286 242
68.77297 280
68.79308 240
68.8132 289
68.83331 262
68.85342 256
68.87354 290
68.89365 287
68.91376 263
68.93388 250
68.95399 283
68.97411 268
68.99422 254
69.01433 279
69.03445 255
69.05456 262
69.07467 273
69.09479 241
69.1149 250
69.13502 248
69.15513 256
69.17524 273
69.19536 249
69.21547 266
69.23558 226
69.2557 234
69.27581 262
69.29593 255
69.31604 246
69.33615 234
69.35627 233
69.37638 267
69.39649 246
69.41661 261
69.43672 257
69.45683 231
69.47695 251
69.49706 250
69.51718 251
69.53729 254
69.5574 255
69.57752 245
69.59763 243
69.61774 241
69.63786 271
69.65797 244
69.67809 260
69.6982 250
69.71831 236
69.73843 226
69.75854 268
69.77865 268
69.79877 280
69.81888 252
69.839 284
69.85911 272
69.87922 242
69.89934 238
69.91945 246
69.93956 243
69.95968 241
69.97979 250
69.9999 237
70.02002 277
70.04013 247
70.06025 234
70.08036 218
70.10047 275
70.12059 273
70.1407 260
70.16081 260
70.18093 241
70.20104 217
70.22116 250
70.24127 234
70.26138 262
70.2815 248
70.30161 258
70.32172 231
70.34184 237
70.36195 254
70.38207 229
70.40218 231
70.42229 259
70.44241 251
70.46252 230
70.48263 254
70.50275 247
70.52286 219
70.54297 272
70.56309 238
70.5832 240
70.60332 236
70.62343 242
70.64354 239
70.66366 234
70.68377 250
70.70388 240
70.724 243
70.74411 276
70.76423 206
70.78434 242
70.80445 239
70.82457 246
70.84468 217
70.86479 238
70.88491 263
70.90502 240
70.92513 250
70.94525 242
70.96536 213
70.98548 230
71.00559 255
71.0257 264
71.04582 257
71.06593 245
71.08604 264
71.10616 236
71.12627 237
71.14639 244
71.1665 225
71.18661 235
71.20673 278
71.22684 233
71.24695 251
71.26707 254
71.28718 254
71.3073 229
71.32741 242
71.34752 243
71.36764 254
71.38775 226
71.40786 241
71.42798 270
71.44809 247
71.4682 262
71.48832 235
71.50843 257
71.52855 248
71.54866 256
71.56877 262
71.58889 222
71.609 235
71.62911 264
71.64923 278
71.66934 241
71.68946 276
71.70957 241
71.72968 231
71.7498 248
71.76991 258
71.79002 271
71.81014 253
71.83025 256
71.85037 263
71.87048 258
71.89059 273
71.91071 268
71.93082 260
71.95093 262
71.97105 242
71.99116 277
72.01127 254
72.03139 266
72.0515 257
72.07162 231
72.09173 247
72.11184 253
72.13196 258
72.15207 284
72.17218 252
72.1923 234
72.21241 269
72.23253 248
72.25264 242
72.27275 274
72.29287 273
72.31298 283
72.33309 296
72.35321 304
72.37332 250
72.39344 277
72.41355 276
72.43366 293
72.45378 259
72.47389 284
72.494 302
72.51412 270
72.53423 264
72.55434 271
72.57446 266
72.59457 284
72.61469 273
72.6348 269
72.65491 321
72.67503 293
72.69514 268
72.71525 265
72.73537 274
72.75548 285
72.7756 293
72.79571 255
72.81582 293
72.83594 311
72.85605 294
72.87616 278
72.89628 285
72.91639 296
72.9365 270
72.95662 266
72.97673 308
72.99685 290
73.01696 299
73.03707 298
73.05719 287
73.0773 306
73.09741 270
73.11753 288
73.13764 311
73.15776 319
73.17787 289
73.19798 336
73.2181 349
73.23821 354
73.25832 366
73.27844 378
73.29855 423
73.31867 434
73.33878 431
73.35889 434
73.37901 535
73.39912 539
73.41923 519
73.43935 513
73.45946 453
73.47957 478
73.49969 360
73.5198 395
73.53992 369
73.56003 381
73.58014 385
73.60026 411
73.62037 394
73.64048 383
73.6606 395
73.68071 334
73.70083 320
73.72094 321
73.74105 303
73.76117 256
73.78128 295
73.80139 256
73.82151 269
73.84162 263
73.86174 247
73.88185 268
73.90196 241
73.92208 265
73.94219 258
73.9623 232
73.98242 272
74.00253 257
74.02264 265
74.04276 248
74.06287 264
74.08299 252
74.1031 265
74.12321 256
74.14333 243
74.16344 257
74.18355 255
74.20367 252
74.22378 226
74.2439 230
74.26401 251
74.28412 271
74.30424 238
74.32435 301
74.34446 271
74.36458 251
74.38469 262
74.40481 260
74.42492 242
74.44503 234
74.46515 263
74.48526 233
74.50537 242
74.52549 252
74.5456 249
74.56571 240
74.58583 249
74.60594 237
74.62606 250
74.64617 247
74.66628 269
74.6864 243
74.70651 257
74.72662 245
74.74674 251
74.76685 233
74.78697 234
74.80708 237
74.82719 262
74.84731 253
74.86742 254
74.88753 272
74.90765 235
74.92776 275
74.94787 236
74.96799 253
74.9881 235
75.00822 262
