3.00117 20107
3.02128 20050
3.0414 19116
3.06151 18582
3.08162 18400
3.10174 17463
3.12185 17540
3.14197 16758
3.16208 16055
3.18219 15910
3.20231 15133
3.22242 14926
3.24253 14456
3.26265 13848
3.28276 13573
3.30288 13192
3.32299 12551
3.3431 12331
3.36322 11606
3.38333 11685
3.40344 11063
3.42356 10703
3.44367 10451
3.46379 10055
3.4839 9835
3.50401 9142
3.52413 8976
3.54424 8670
3.56435 8194
3.58447 8273
3.60458 7538
3.62469 7403
3.64481 7115
3.66492 6815
3.68504 6765
3.70515 6410
3.72526 6255
3.74538 5928
3.76549 5559
3.7856 5573
3.80572 5103
3.82583 4849
3.84595 4821
3.86606 4507
3.88617 4556
3.90629 4165
3.9264 3981
3.94651 3800
3.96663 3672
3.98674 3501
4.00686 3168
4.02697 3210
4.04708 3156
4.0672 2810
4.08731 2876
4.10742 2564
4.12754 2562
4.14765 2505
4.16776 2325
4.18788 2182
4.20799 2025
4.22811 2037
4.24822 2025
4.26833 1883
4.28845 1946
4.30856 1684
4.32867 1688
4.34879 1780
4.3689 1600
4.38902 1637
4.40913 1400
4.42924 1466
4.44936 1449
4.46947 1479
4.48958 1389
4.5097 1320
4.52981 1309
4.54992 1361
4.57004 1255
4.59015 1262
4.61027 1076
4.63038 1095
4.65049 1096
4.67061 1080
4.69072 1078
4.71083 989
4.73095 994
4.75106 1007
4.77118 1042
4.79129 936
4.8114 965
4.83152 876
4.85163 903
4.87174 886
4.89186 850
4.91197 807
4.93209 830
4.9522 763
4.97231 759
4.99243 759
5.01254 705
5.03265 673
5.05277 750
5.07288 704
5.09299 644
5.11311 700
5.13322 644
5.15334 595
5.17345 596
5.19356 625
5.21368 587
5.23379 601
5.2539 543
5.27402 586
5.29413 525
5.31425 523
5.33436 494
5.35447 534
5.37459 500
5.3947 478
5.41481 458
5.43493 427
5.45504 425
5.47516 439
5.49527 422
5.51538 447
5.5355 431
5.55561 415
5.57572 406
5.59584 397
5.61595 419
5.63606 389
5.65618 383
5.67629 409
5.69641 374
5.71652 329
5.73663 364
5.75675 342
5.77686 304
5.79697 300
5.81709 319
5.8372 348
5.85732 355
5.87743 318
5.89754 337
5.91766 322
5.93777 306
5.95788 305
5.978 277
5.99811 314
6.01823 269
6.03834 307
6.05845 291
6.07857 291
6.09868 268
6.11879 255
6.13891 232
6.15902 240
6.17913 260
6.19925 236
6.21936 285
6.23948 272
6.25959 257
6.2797 261
6.29982 258
6.31993 260
6.34004 278
6.36016 252
6.38027 260
6.40039 264
6.4205 213
6.44061 244
6.46073 253
6.48084 225
6.50095 257
6.52107 257
6.54118 237
6.56129 239
6.58141 200
6.60152 251
6.62164 262
6.64175 215
6.66186 226
6.68198 220
6.70209 223
6.7222 229
6.74232 204
6.76243 239
6.78255 216
6.80266 217
6.82277 213
6.84289 213
6.863 207
6.88311 198
6.90323 232
6.92334 244
6.94346 213
6.96357 217
6.98368 219
7.0038 220
7.02391 234
7.04402 225
7.06414 217
7.08425 227
7.10436 183
7.12448 231
7.14459 250
7.16471 225
7.18482 187
7.20493 183
7.22505 243
7.24516 232
7.26527 209
7.28539 207
7.3055 231
7.32562 206
7.34573 199
7.36584 225
7.38596 192
7.40607 216
7.42618 239
7.4463 203
7.46641 189
7.48653 228
7.50664 232
7.52675 234
7.54687 215
7.56698 218
7.58709 208
7.60721 219
7.62732 225
7.64743 212
7.66755 238
7.68766 218
7.70778 204
7.72789 219
7.748 210
7.76812 201
7.78823 197
7.80834 233
7.82846 209
7.84857 213
7.86869 260
7.8888 216
7.90891 203
7.92903 225
7.94914 223
7.96925 197
7.98937 222
8.00948 212
8.0296 232
8.04971 227
8.06982 231
8.08994 211
8.11005 232
8.13016 226
8.15028 209
8.17039 236
8.1905 214
8.21062 232
8.23073 220
8.25085 201
8.27096 239
8.29107 222
8.31119 195
8.3313 212
8.35141 211
8.37153 233
8.39164 222
8.41176 235
8.43187 207
8.45198 205
8.4721 246
8.49221 198
8.51232 235
8.53244 251
8.55255 215
8.57266 235
8.59278 216
8.61289 228
8.63301 224
8.65312 231
8.67323 245
8.69335 229
8.71346 224
8.73357 252
8.75369 232
8.7738 257
8.79392 275
8.81403 215
8.83414 195
8.85426 195
8.87437 206
8.89448 246
8.9146 224
8.93471 219
8.95483 224
8.97494 216
8.99505 255
9.01517 235
9.03528 252
9.05539 180
9.07551 204
9.09562 226
9.11573 222
9.13585 208
9.15596 231
9.17608 202
9.19619 229
9.2163 229
9.23642 236
9.25653 217
9.27664 255
9.29676 221
9.31687 212
9.33699 233
9.3571 263
9.37721 223
9.39733 262
9.41744 227
9.43755 261
9.45767 219
9.47778 215
9.4979 219
9.51801 214
9.53812 208
9.55824 214
9.57835 212
9.59846 195
9.61858 219
9.63869 195
9.6588 208
9.67892 207
9.69903 206
9.71915 229
9.73926 219
9.75937 201
9.77949 231
9.7996 250
9.81971 238
9.83983 212
9.85994 225
9.88006 224
9.90017 254
9.92028 219
9.9404 217
9.96051 230
9.98062 240
10.00074 242
10.02085 242
10.04097 202
10.06108 212
10.08119 217
10.10131 175
10.12142 185
10.14153 232
10.16165 203
10.18176 233
10.20187 213
10.22199 220
10.2421 220
10.26222 183
10.28233 238
10.30244 221
10.32256 224
10.34267 195
10.36278 185
10.3829 204
10.40301 234
10.42313 230
10.44324 202
10.46335 238
10.48347 228
10.50358 187
10.52369 222
10.54381 212
10.56392 189
10.58403 231
10.60415 218
10.62426 206
10.64438 185
10.66449 209
10.6846 232
10.70472 206
10.72483 196
10.74494 190
10.76506 219
10.78517 216
10.80529 227
10.8254 241
10.84551 207
10.86563 220
10.88574 199
10.90585 204
10.92597 199
10.94608 208
10.9662 207
10.98631 209
11.00642 209
11.02654 221
11.04665 222
11.06676 213
11.08688 208
11.10699 226
11.1271 209
11.14722 219
11.16733 193
11.18745 199
11.20756 202
11.22767 213
11.24779 213
11.2679 187
11.28801 223
11.30813 215
11.32824 222
11.34836 204
11.36847 210
11.38858 187
11.4087 211
11.42881 211
11.44892 192
11.46904 210
11.48915 191
11.50927 216
11.52938 198
11.54949 204
11.56961 210
11.58972 195
11.60983 184
11.62995 195
11.65006 223
11.67017 206
11.69029 212
11.7104 193
11.73052 197
11.75063 182
11.77074 206
11.79086 210
11.81097 197
11.83108 211
11.8512 186
11.87131 204
11.89143 195
11.91154 212
11.93165 184
11.95177 185
11.97188 205
11.99199 195
12.01211 206
12.03222 196
12.05234 195
12.07245 212
12.09256 193
12.11268 210
12.13279 206
12.1529 225
12.17302 174
12.19313 208
12.21324 206
12.23336 199
12.25347 189
12.27359 210
12.2937 200
12.31381 203
12.33393 192
12.35404 199
12.37415 195
12.39427 189
12.41438 196
12.4345 209
12.45461 208
12.47472 207
12.49484 199
12.51495 222
12.53506 179
12.55518 197
12.57529 195
12.5954 220
12.61552 170
12.63563 193
12.65575 199
12.67586 203
12.69597 208
12.71609 203
12.7362 172
12.75631 179
12.77643 183
12.79654 176
12.81666 197
12.83677 196
12.85688 202
12.877 189
12.89711 208
12.91722 194
12.93734 180
12.95745 205
12.97757 190
12.99768 193
13.01779 184
13.03791 198
13.05802 182
13.07813 165
13.09825 173
13.11836 191
13.13847 201
13.15859 207
13.1787 188
13.19882 186
13.21893 191
13.23904 179
13.25916 190
13.27927 188
13.29938 194
13.3195 177
13.33961 168
13.35973 191
13.37984 200
13.39995 177
13.42007 216
13.44018 176
13.46029 176
13.48041 200
13.50052 173
13.52064 193
13.54075 182
13.56086 192
13.58098 165
13.60109 169
13.6212 177
13.64132 169
13.66143 181
13.68154 169
13.70166 181
13.72177 179
13.74189 178
13.762 168
13.78211 186
13.80223 165
13.82234 166
13.84245 169
13.86257 194
13.88268 162
13.9028 193
13.92291 233
13.94302 183
13.96314 167
13.98325 194
14.00336 170
14.02348 192
14.04359 176
14.06371 191
14.08382 193
14.10393 183
14.12405 191
14.14416 172
14.16427 163
14.18439 192
14.2045 188
14.22461 175
14.24473 167
14.26484 180
14.28496 185
14.30507 188
14.32518 183
14.3453 141
14.36541 155
14.38552 169
14.40564 159
14.42575 160
14.44587 145
14.46598 161
14.48609 188
14.50621 181
14.52632 174
14.54643 185
14.56655 172
14.58666 185
14.60677 198
14.62689 167
14.647 171
14.66712 156
14.68723 170
14.70734 200
14.72746 197
14.74757 196
14.76768 153
14.7878 139
14.80791 203
14.82803 190
14.84814 156
14.86825 202
14.88837 171
14.90848 180
14.92859 183
14.94871 166
14.96882 151
14.98894 182
15.00905 146
15.02916 158
15.04928 168
15.06939 147
15.0895 155
15.10962 156
15.12973 188
15.14984 180
15.16996 180
15.19007 178
15.21019 172
15.2303 176
15.25041 201
15.27053 189
15.29064 146
15.31075 192
15.33087 174
15.35098 143
15.3711 183
15.39121 162
15.41132 156
15.43144 154
15.45155 169
15.47166 169
15.49178 169
15.51189 163
15.53201 201
15.55212 167
15.57223 153
15.59235 170
15.61246 164
15.63257 175
15.65269 187
15.6728 144
15.69291 169
15.71303 188
15.73314 144
15.75326 175
15.77337 162
15.79348 142
15.8136 152
15.83371 159
15.85382 177
15.87394 186
15.89405 157
15.91417 154
15.93428 158
15.95439 178
15.97451 170
15.99462 163
16.01473 170
16.03485 146
16.05496 145
16.07508 162
16.09519 148
16.1153 164
16.13542 169
16.15553 144
16.17564 150
16.19576 148
16.21587 159
16.23598 176
16.2561 185
16.27621 174
16.29633 159
16.31644 170
16.33655 161
16.35667 166
16.37678 144
16.39689 162
16.41701 142
16.43712 147
16.45724 139
16.47735 157
16.49746 192
16.51758 142
16.53769 180
16.5578 147
16.57792 150
16.59803 146
16.61814 129
16.63826 167
16.65837 140
16.67849 159
16.6986 182
16.71871 149
16.73883 198
16.75894 169
16.77905 160
16.79917 157
16.81928 164
16.8394 171
16.85951 170
16.87962 163
16.89974 150
16.91985 169
16.93996 157
16.96008 167
16.98019 148
17.00031 172
17.02042 145
17.04053 176
17.06065 155
17.08076 172
17.10087 146
17.12099 171
17.1411 150
17.16121 169
17.18133 154
17.20144 147
17.22156 158
17.24167 166
17.26178 155
17.2819 147
17.30201 161
17.32212 178
17.34224 163
17.36235 168
17.38247 155
17.40258 163
17.42269 151
17.44281 166
17.46292 159
17.48303 166
17.50315 170
17.52326 140
17.54338 174
17.56349 129
17.5836 151
17.60372 151
17.62383 174
17.64394 167
17.66406 157
17.68417 161
17.70428 157
17.7244 131
17.74451 151
17.76463 154
17.78474 154
17.80485 144
17.82497 123
17.84508 154
17.86519 156
17.88531 152
17.90542 138
17.92554 142
17.94565 158
17.96576 140
17.98588 152
18.00599 153
18.0261 157
18.04622 162
18.06633 151
18.08645 153
18.10656 167
18.12667 153
18.14679 142
18.1669 153
18.18701 151
18.20713 144
18.22724 172
18.24735 167
18.26747 152
18.28758 150
18.3077 141
18.32781 154
18.34792 158
18.36804 145
18.38815 150
18.40826 169
18.42838 140
18.44849 146
18.46861 170
18.48872 175
18.50883 170
18.52895 151
18.54906 146
18.56917 171
18.58929 146
18.6094 167
18.62951 174
18.64963 145
18.66974 168
18.68986 181
18.70997 150
18.73008 157
18.7502 168
18.77031 151
18.79042 161
18.81054 160
18.83065 153
18.85077 150
18.87088 161
18.89099 158
18.91111 151
18.93122 164
18.95133 166
18.97145 164
18.99156 171
19.01168 158
19.03179 131
19.0519 152
19.07202 155
19.09213 160
19.11224 173
19.13236 156
19.15247 165
19.17258 160
19.1927 153
19.21281 181
19.23293 170
19.25304 187
19.27315 151
19.29327 144
19.31338 175
19.33349 153
19.35361 189
19.37372 139
19.39384 137
19.41395 141
19.43406 177
19.45418 182
19.47429 172
19.4944 181
19.51452 192
19.53463 191
19.55475 206
19.57486 192
19.59497 191
19.61509 222
19.6352 231
19.65531 207
19.67543 215
19.69554 193
19.71565 236
19.73577 214
19.75588 243
19.776 204
19.79611 216
19.81622 235
19.83634 238
19.85645 218
19.87656 250
19.89668 258
19.91679 245
19.93691 239
19.95702 265
19.97713 242
19.99725 211
20.01736 264
20.03747 246
20.05759 259
20.0777 218
20.09782 215
20.11793 244
20.13804 261
20.15816 240
20.17827 276
20.19838 223
20.2185 256
20.23861 261
20.25872 248
20.27884 234
20.29895 312
20.31907 265
20.33918 286
20.35929 279
20.37941 277
20.39952 311
20.41963 325
20.43975 339
20.45986 310
20.47998 338
20.50009 343
20.5202 324
20.54032 369
20.56043 368
20.58054 417
20.60066 464
20.62077 504
20.64088 572
20.661 574
20.68111 828
20.70123 1123
20.72134 1595
20.74145 2185
20.76157 3021
20.78168 4349
20.80179 5955
20.82191 7454
20.84202 8803
20.86214 9480
20.88225 8948
20.90236 7090
20.92248 5064
20.94259 3373
20.9627 1910
20.98282 1046
21.00293 681
21.02305 544
21.04316 503
21.06327 456
21.08339 450
21.1035 409
21.12361 308
21.14373 336
21.16384 331
21.18395 304
21.20407 292
21.22418 270
21.2443 253
21.26441 273
21.28452 256
21.30464 255
21.32475 218
21.34486 218
21.36498 222
21.38509 242
21.40521 248
21.42532 224
21.44543 205
21.46555 227
21.48566 223
21.50577 208
21.52589 209
21.546 211
21.56612 242
21.58623 243
21.60634 179
21.62646 198
21.64657 246
21.66668 210
21.6868 206
21.70691 192
21.72702 207
21.74714 199
21.76725 220
21.78737 199
21.80748 187
21.82759 211
21.84771 176
21.86782 214
21.88793 172
21.90805 194
21.92816 202
21.94828 189
21.96839 225
21.9885 201
22.00862 192
22.02873 210
22.04884 200
22.06896 187
22.08907 179
22.10919 196
22.1293 196
22.14941 219
22.16953 172
22.18964 192
22.20975 182
22.22987 209
22.24998 185
22.27009 211
22.29021 203
22.31032 215
22.33044 210
22.35055 188
22.37066 195
22.39078 201
22.41089 190
22.431 200
22.45112 166
22.47123 198
22.49135 184
22.51146 215
22.53157 201
22.55169 192
22.5718 180
22.59191 210
22.61203 189
22.63214 175
22.65225 192
22.67237 206
22.69248 191
22.7126 175
22.73271 197
22.75282 195
22.77294 174
22.79305 190
22.81316 186
22.83328 187
22.85339 202
22.87351 159
22.89362 225
22.91373 206
22.93385 185
22.95396 182
22.97407 201
22.99419 184
23.0143 178
23.03442 172
23.05453 162
23.07464 194
23.09476 182
23.11487 186
23.13498 211
23.1551 175
23.17521 219
23.19532 161
23.21544 176
23.23555 194
23.25567 205
23.27578 181
23.29589 200
23.31601 166
23.33612 193
23.35623 180
23.37635 184
23.39646 182
23.41658 182
23.43669 180
23.4568 188
23.47692 175
23.49703 155
23.51714 177
23.53726 174
23.55737 189
23.57749 175
23.5976 200
23.61771 191
23.63783 179
23.65794 211
23.67805 190
23.69817 192
23.71828 195
23.73839 180
23.75851 192
23.77862 189
23.79874 201
23.81885 175
23.83896 185
23.85908 224
23.87919 208
23.8993 196
23.91942 205
23.93953 240
23.95965 260
23.97976 269
23.99987 265
24.01999 295
24.0401 256
24.06021 261
24.08033 196
24.10044 205
24.12056 193
24.14067 187
24.16078 207
24.1809 194
24.20101 164
24.22112 193
24.24124 171
24.26135 197
24.28146 182
24.30158 200
24.32169 184
24.34181 196
24.36192 165
24.38203 178
24.40215 180
24.42226 174
24.44237 183
24.46249 186
24.4826 198
24.50272 174
24.52283 156
24.54294 189
24.56306 181
24.58317 183
24.60328 203
24.6234 195
24.64351 183
24.66362 174
24.68374 171
24.70385 157
24.72397 200
24.74408 179
24.76419 195
24.78431 172
24.80442 187
24.82453 183
24.84465 184
24.86476 174
24.88488 171
24.90499 193
24.9251 196
24.94522 207
24.96533 200
24.98544 177
25.00556 191
25.02567 170
25.04579 165
25.0659 182
25.08601 175
25.10613 194
25.12624 174
25.14635 195
25.16647 147
25.18658 176
25.20669 191
25.22681 193
25.24692 204
25.26704 208
25.28715 202
25.30726 202
25.32738 177
25.34749 192
25.3676 207
25.38772 198
25.40783 213
25.42795 167
25.44806 214
25.46817 232
25.48829 210
25.5084 218
25.52851 214
25.54863 211
25.56874 214
25.58886 236
25.60897 220
25.62908 262
25.6492 276
25.66931 302
25.68942 331
25.70954 329
25.72965 382
25.74976 382
25.76988 417
25.78999 402
25.81011 409
25.83022 449
25.85033 461
25.87045 425
25.89056 458
25.91067 472
25.93079 447
25.9509 462
25.97102 468
25.99113 508
26.01124 508
26.03136 487
26.05147 515
26.07158 544
26.0917 597
26.11181 577
26.13193 615
26.15204 657
26.17215 707
26.19227 748
26.21238 755
26.23249 829
26.25261 916
26.27272 979
26.29283 1084
26.31295 1184
26.33306 1255
26.35318 1401
26.37329 1641
26.3934 2029
26.41352 2383
26.43363 3196
26.45374 4099
26.47386 5788
26.49397 7634
26.51409 10626
26.5342 14821
26.55431 19655
26.57443 26280
26.59454 33450
26.61465 39789
26.63477 42630
26.65488 40337
26.67499 33561
26.69511 25694
26.71522 19352
26.73534 12975
26.75545 7647
26.77556 3972
26.79568 2505
26.81579 1862
26.8359 1746
26.85602 1471
26.87613 1324
26.89625 1159
26.91636 1141
26.93647 1006
26.95659 857
26.9767 761
26.99681 727
27.01693 640
27.03704 608
27.05716 582
27.07727 542
27.09738 518
27.1175 461
27.13761 491
27.15772 449
27.17784 456
27.19795 442
27.21806 445
27.23818 411
27.25829 373
27.27841 398
27.29852 365
27.31863 399
27.33875 364
27.35886 397
27.37897 385
27.39909 361
27.4192 388
27.43932 361
27.45943 405
27.47954 374
27.49966 325
27.51977 365
27.53988 357
27.56 347
27.58011 351
27.60023 308
27.62034 307
27.64045 340
27.66057 307
27.68068 318
27.70079 297
27.72091 334
27.74102 277
27.76113 263
27.78125 305
27.80136 283
27.82148 288
27.84159 280
27.8617 300
27.88182 305
27.90193 299
27.92204 310
27.94216 274
27.96227 276
27.98239 285
28.0025 276
28.02261 260
28.04273 259
28.06284 286
28.08295 299
28.10307 255
28.12318 255
28.1433 247
28.16341 224
28.18352 263
28.20364 261
28.22375 244
28.24386 243
28.26398 267
28.28409 259
28.3042 265
28.32432 266
28.34443 256
28.36455 286
28.38466 270
28.40477 273
28.42489 241
28.445 250
28.46511 239
28.48523 237
28.50534 246
28.52546 233
28.54557 254
28.56568 231
28.5858 239
28.60591 229
28.62602 221
28.64614 234
28.66625 248
28.68636 226
28.70648 204
28.72659 212
28.74671 243
28.76682 209
28.78693 249
28.80705 219
28.82716 212
28.84727 205
28.86739 248
28.8875 215
28.90762 223
28.92773 223
28.94784 218
28.96796 215
28.98807 220
29.00818 237
29.0283 203
29.04841 239
29.06853 214
29.08864 198
29.10875 203
29.12887 212
29.14898 216
29.16909 239
29.18921 206
29.20932 211
29.22943 206
29.24955 217
29.26966 217
29.28978 206
29.30989 210
29.33 242
29.35012 208
29.37023 260
29.39034 215
29.41046 199
29.43057 212
29.45069 245
29.4708 204
29.49091 199
29.51103 215
29.53114 194
29.55125 196
29.57137 215
29.59148 207
29.6116 173
29.63171 186
29.65182 225
29.67194 204
29.69205 228
29.71216 203
29.73228 181
29.75239 187
29.7725 185
29.79262 216
29.81273 232
29.83285 179
29.85296 217
29.87307 184
29.89319 203
29.9133 190
29.93341 199
29.95353 205
29.97364 214
29.99376 198
30.01387 205
30.03398 208
30.0541 197
30.07421 179
30.09432 190
30.11444 177
30.13455 184
30.15467 199
30.17478 213
30.19489 199
30.21501 191
30.23512 222
30.25523 197
30.27535 212
30.29546 185
30.31557 201
30.33569 175
30.3558 182
30.37592 200
30.39603 167
30.41614 198
30.43626 206
30.45637 217
30.47648 197
30.4966 175
30.51671 200
30.53683 188
30.55694 189
30.57705 175
30.59717 192
30.61728 181
30.63739 217
30.65751 171
30.67762 195
30.69773 184
30.71785 198
30.73796 189
30.75808 165
30.77819 172
30.7983 214
30.81842 196
30.83853 180
30.85864 158
30.87876 186
30.89887 171
30.91899 175
30.9391 175
30.95921 159
30.97933 163
30.99944 172
31.01955 163
31.03967 182
31.05978 188
31.0799 175
31.10001 174
31.12012 166
31.14024 189
31.16035 177
31.18046 153
31.20058 186
31.22069 158
31.2408 162
31.26092 143
31.28103 173
31.30115 175
31.32126 162
31.34137 156
31.36149 155
31.3816 166
31.40171 163
31.42183 132
31.44194 174
31.46206 157
31.48217 179
31.50228 190
31.5224 140
31.54251 168
31.56262 153
31.58274 146
31.60285 149
31.62297 144
31.64308 168
31.66319 147
31.68331 160
31.70342 161
31.72353 168
31.74365 162
31.76376 159
31.78387 153
31.80399 150
31.8241 153
31.84422 148
31.86433 130
31.88444 146
31.90456 155
31.92467 166
31.94478 178
31.9649 160
31.98501 170
32.00513 136
32.02524 154
32.04535 181
32.06547 164
32.08558 134
32.10569 156
32.12581 163
32.14592 143
32.16604 155
32.18615 157
32.20626 144
32.22638 134
32.24649 154
32.2666 156
32.28672 140
32.30683 161
32.32694 152
32.34706 154
32.36717 139
32.38729 170
32.4074 154
32.42751 162
32.44763 159
32.46774 171
32.48785 142
32.50797 126
32.52808 143
32.5482 152
32.56831 137
32.58842 130
32.60854 167
32.62865 157
32.64876 153
32.66888 126
32.68899 149
32.7091 134
32.72922 142
32.74933 145
32.76945 157
32.78956 157
32.80967 151
32.82979 129
32.8499 193
32.87001 151
32.89013 151
32.91024 154
32.93036 145
32.95047 123
32.97058 152
32.9907 118
33.01081 126
33.03092 141
33.05104 148
33.07115 147
33.09127 113
33.11138 133
33.13149 141
33.15161 146
33.17172 136
33.19183 167
33.21195 141
33.23206 146
33.25217 142
33.27229 137
33.2924 127
33.31252 131
33.33263 139
33.35274 142
33.37286 130
33.39297 139
33.41308 135
33.4332 139
33.45331 144
33.47343 138
33.49354 120
33.51365 148
33.53377 152
33.55388 140
33.57399 133
33.59411 121
33.61422 151
33.63434 139
33.65445 127
33.67456 143
33.69468 128
33.71479 123
33.7349 130
33.75502 139
33.77513 144
33.79524 133
33.81536 119
33.83547 143
33.85559 120
33.8757 155
33.89581 122
33.91593 134
33.93604 144
33.95615 134
33.97627 147
33.99638 109
34.0165 125
34.03661 144
34.05672 129
34.07684 122
34.09695 123
34.11706 151
34.13718 141
34.15729 139
34.17741 140
34.19752 144
34.21763 142
34.23775 137
34.25786 127
34.27797 133
34.29809 154
34.3182 175
34.33831 149
34.35843 153
34.37854 135
34.39866 145
34.41877 152
34.43888 148
34.459 161
34.47911 156
34.49922 146
34.51934 180
34.53945 152
34.55957 149
34.57968 175
34.59979 162
34.61991 159
34.64002 173
34.66013 158
34.68025 160
34.70036 152
34.72047 178
34.74059 157
34.7607 154
34.78082 175
34.80093 179
34.82104 162
34.84116 184
34.86127 171
34.88138 151
34.9015 170
34.92161 160
34.94173 172
34.96184 167
34.98195 157
35.00207 177
35.02218 169
35.04229 176
35.06241 156
35.08252 183
35.10264 170
35.12275 163
35.14286 151
35.16298 142
35.18309 155
35.2032 146
35.22332 160
35.24343 146
35.26354 149
35.28366 189
35.30377 186
35.32389 200
35.344 154
35.36411 161
35.38423 132
35.40434 166
35.42445 171
35.44457 169
35.46468 168
35.4848 153
35.50491 145
35.52502 174
35.54514 162
35.56525 173
35.58536 168
35.60548 147
35.62559 159
35.64571 168
35.66582 180
35.68593 170
35.70605 184
35.72616 163
35.74627 168
35.76639 155
35.7865 140
35.80661 171
35.82673 165
35.84684 179
35.86696 178
35.88707 169
35.90718 162
35.9273 159
35.94741 153
35.96752 159
35.98764 148
36.00775 176
36.02787 177
36.04798 180
36.06809 192
36.08821 204
36.10832 181
36.12843 214
36.14855 206
36.16866 238
36.18878 235
36.20889 236
36.229 243
36.24912 260
36.26923 310
36.28934 328
36.30946 353
36.32957 457
36.34968 537
36.3698 612
36.38991 762
36.41003 991
36.43014 1279
36.45025 1662
36.47037 1957
36.49048 2354
36.51059 2709
36.53071 2865
36.55082 2647
36.57094 2382
36.59105 1802
36.61116 1573
36.63128 1417
36.65139 1137
36.6715 749
36.69162 496
36.71173 349
36.73184 263
36.75196 268
36.77207 233
36.79219 246
36.8123 225
36.83241 210
36.85253 202
36.87264 184
36.89275 194
36.91287 168
36.93298 182
36.9531 183
36.97321 177
36.99332 196
37.01344 161
37.03355 149
37.05366 153
37.07378 142
37.09389 165
37.11401 145
37.13412 158
37.15423 166
37.17435 172
37.19446 149
37.21457 146
37.23469 167
37.2548 151
37.27491 163
37.29503 147
37.31514 140
37.33526 156
37.35537 165
37.37548 159
37.3956 137
37.41571 134
37.43582 162
37.45594 151
37.47605 161
37.49617 133
37.51628 157
37.53639 156
37.55651 154
37.57662 174
37.59673 137
37.61685 156
37.63696 126
37.65708 169
37.67719 152
37.6973 169
37.71742 144
37.73753 155
37.75764 149
37.77776 167
37.79787 136
37.81798 132
37.8381 158
37.85821 148
37.87833 119
37.89844 143
37.91855 149
37.93867 145
37.95878 155
37.97889 123
37.99901 150
38.01912 139
38.03924 135
38.05935 144
38.07946 155
38.09958 159
38.11969 157
38.1398 148
38.15992 152
38.18003 162
38.20015 168
38.22026 145
38.24037 138
38.26049 131
38.2806 164
38.30071 133
38.32083 152
38.34094 171
38.36105 155
38.38117 161
38.40128 140
38.4214 145
38.44151 144
38.46162 162
38.48174 150
38.50185 148
38.52196 160
38.54208 136
38.56219 130
38.58231 147
38.60242 150
38.62253 169
38.64265 159
38.66276 147
38.68287 151
38.70299 147
38.7231 146
38.74321 163
38.76333 153
38.78344 156
38.80356 146
38.82367 170
38.84378 161
38.8639 173
38.88401 168
38.90412 156
38.92424 164
38.94435 168
38.96447 166
38.98458 164
39.00469 184
39.02481 197
39.04492 181
39.06503 202
39.08515 204
39.10526 216
39.12538 225
39.14549 253
39.1656 239
39.18572 289
39.20583 320
39.22594 366
39.24606 434
39.26617 517
39.28628 616
39.3064 750
39.32651 939
39.34663 1097
39.36674 1435
39.38685 1697
39.40697 2067
39.42708 2419
39.44719 2666
39.46731 2479
39.48742 2124
39.50754 1769
39.52765 1405
39.54776 1359
39.56788 1145
39.58799 934
39.6081 634
39.62822 400
39.64833 315
39.66845 277
39.68856 249
39.70867 232
39.72879 224
39.7489 202
39.76901 191
39.78913 184
39.80924 205
39.82935 204
39.84947 189
39.86958 187
39.8897 187
39.90981 196
39.92992 202
39.95004 192
39.97015 208
39.99026 218
40.01038 254
40.03049 250
40.05061 260
40.07072 283
40.09083 336
40.11095 407
40.13106 432
40.15117 498
40.17129 600
40.1914 796
40.21152 964
40.23163 1094
40.25174 1299
40.27186 1524
40.29197 1464
40.31208 1188
40.3322 872
40.35231 788
40.37242 735
40.39254 732
40.41265 599
40.43277 388
40.45288 283
40.47299 236
40.49311 185
40.51322 190
40.53333 184
40.55345 160
40.57356 168
40.59368 174
40.61379 150
40.6339 173
40.65402 145
40.67413 157
40.69424 169
40.71436 150
40.73447 168
40.75458 149
40.7747 151
40.79481 154
40.81493 168
40.83504 142
40.85515 137
40.87527 174
40.89538 143
40.91549 176
40.93561 152
40.95572 167
40.97584 153
40.99595 166
41.01606 153
41.03618 166
41.05629 136
41.0764 160
41.09652 166
41.11663 162
41.13675 155
41.15686 135
41.17697 150
41.19709 159
41.2172 163
41.23731 164
41.25743 157
41.27754 147
41.29765 148
41.31777 151
41.33788 135
41.358 144
41.37811 151
41.39822 154
41.41834 167
41.43845 163
41.45856 147
41.47868 142
41.49879 157
41.51891 141
41.53902 168
41.55913 153
41.57925 143
41.59936 142
41.61947 155
41.63959 157
41.6597 162
41.67982 149
41.69993 160
41.72004 159
41.74016 160
41.76027 164
41.78038 155
41.8005 181
41.82061 172
41.84072 152
41.86084 155
41.88095 172
41.90107 153
41.92118 162
41.94129 156
41.96141 180
41.98152 177
42.00163 183
42.02175 186
42.04186 191
42.06198 196
42.08209 191
42.1022 226
42.12232 208
42.14243 235
42.16254 245
42.18266 273
42.20277 290
42.22289 331
42.243 375
42.26311 495
42.28323 583
42.30334 686
42.32345 855
42.34357 1077
42.36368 1239
42.38379 1590
42.40391 1759
42.42402 2030
42.44414 1970
42.46425 1762
42.48436 1328
42.50448 1104
42.52459 970
42.5447 979
42.56482 837
42.58493 721
42.60505 443
42.62516 329
42.64527 237
42.66539 221
42.6855 201
42.70561 225
42.72573 158
42.74584 185
42.76595 195
42.78607 203
42.80618 157
42.8263 172
42.84641 151
42.86652 163
42.88664 169
42.90675 141
42.92686 154
42.94698 167
42.96709 150
42.98721 151
43.00732 155
43.02743 154
43.04755 136
43.06766 129
43.08777 142
43.10789 150
43.128 149
43.14812 150
43.16823 140
43.18834 148
43.20846 128
43.22857 149
43.24868 133
43.2688 125
43.28891 139
43.30902 140
43.32914 152
43.34925 136
43.36937 141
43.38948 138
43.40959 131
43.42971 161
43.44982 144
43.46993 143
43.49005 149
43.51016 150
43.53028 155
43.55039 129
43.5705 135
43.59062 152
43.61073 134
43.63084 130
43.65096 144
43.67107 136
43.69119 137
43.7113 153
43.73141 158
43.75153 142
43.77164 164
43.79175 139
43.81187 119
43.83198 114
43.85209 138
43.87221 138
43.89232 118
43.91244 132
43.93255 161
43.95266 139
43.97278 124
43.99289 148
44.013 151
44.03312 138
44.05323 136
44.07335 118
44.09346 135
44.11357 129
44.13369 132
44.1538 97
44.17391 141
44.19403 157
44.21414 135
44.23426 139
44.25437 127
44.27448 126
44.2946 119
44.31471 136
44.33482 144
44.35494 135
44.37505 124
44.39516 129
44.41528 125
44.43539 145
44.45551 118
44.47562 144
44.49573 141
44.51585 132
44.53596 142
44.55607 149
44.57619 145
44.5963 138
44.61642 158
44.63653 134
44.65664 122
44.67676 133
44.69687 123
44.71698 139
44.7371 144
44.75721 130
44.77732 148
44.79744 158
44.81755 162
44.83767 149
44.85778 159
44.87789 133
44.89801 153
44.91812 158
44.93823 151
44.95835 140
44.97846 154
44.99858 152
45.01869 153
45.0388 143
45.05892 152
45.07903 136
45.09914 160
45.11926 133
45.13937 149
45.15949 118
45.1796 141
45.19971 124
45.21983 128
45.23994 146
45.26005 150
45.28017 153
45.30028 153
45.32039 152
45.34051 171
45.36062 147
45.38074 166
45.40085 183
45.42096 161
45.44108 189
45.46119 175
45.4813 181
45.50142 183
45.52153 219
45.54165 243
45.56176 237
45.58187 315
45.60199 366
45.6221 413
45.64221 487
45.66233 611
45.68244 720
45.70256 877
45.72267 1027
45.74278 1137
45.7629 1184
45.78301 1288
45.80312 1082
45.82324 956
45.84335 786
45.86346 703
45.88358 700
45.90369 674
45.92381 548
45.94392 407
45.96403 255
45.98415 201
46.00426 185
46.02437 170
46.04449 170
46.0646 168
46.08472 154
46.10483 156
46.12494 133
46.14506 120
46.16517 128
46.18528 128
46.2054 148
46.22551 165
46.24563 143
46.26574 154
46.28585 143
46.30597 148
46.32608 152
46.34619 152
46.36631 157
46.38642 133
46.40653 130
46.42665 127
46.44676 147
46.46688 128
46.48699 138
46.5071 131
46.52722 121
46.54733 140
46.56744 122
46.58756 133
46.60767 125
46.62779 122
46.6479 128
46.66801 117
46.68813 136
46.70824 130
46.72835 116
46.74847 117
46.76858 121
46.78869 130
46.80881 108
46.82892 127
46.84904 134
46.86915 125
46.88926 119
46.90938 121
46.92949 133
46.9496 128
46.96972 125
46.98983 105
47.00995 131
47.03006 122
47.05017 149
47.07029 109
47.0904 126
47.11051 130
47.13063 124
47.15074 123
47.17086 107
47.19097 130
47.21108 112
47.2312 124
47.25131 131
47.27142 122
47.29154 138
47.31165 120
47.33176 129
47.35188 111
47.37199 118
47.39211 130
47.41222 112
47.43233 130
47.45245 118
47.47256 134
47.49267 121
47.51279 112
47.5329 133
47.55302 107
47.57313 107
47.59324 124
47.61336 129
47.63347 117
47.65358 131
47.6737 118
47.69381 124
47.71393 140
47.73404 124
47.75415 122
47.77427 121
47.79438 111
47.81449 127
47.83461 108
47.85472 117
47.87483 123
47.89495 115
47.91506 127
47.93518 120
47.95529 136
47.9754 114
47.99552 136
48.01563 110
48.03574 122
48.05586 123
48.07597 92
48.09609 129
48.1162 120
48.13631 124
48.15643 126
48.17654 137
48.19665 140
48.21677 120
48.23688 123
48.257 120
48.27711 128
48.29722 121
48.31734 135
48.33745 127
48.35756 147
48.37768 126
48.39779 146
48.4179 154
48.43802 120
48.45813 125
48.47825 110
48.49836 140
48.51847 140
48.53859 150
48.5587 153
48.57881 132
48.59893 131
48.61904 142
48.63916 127
48.65927 128
48.67938 134
48.6995 134
48.71961 164
48.73972 139
48.75984 130
48.77995 126
48.80006 136
48.82018 141
48.84029 132
48.86041 149
48.88052 157
48.90063 139
48.92075 154
48.94086 151
48.96097 156
48.98109 132
49.0012 154
49.02132 128
49.04143 126
49.06154 135
49.08166 141
49.10177 131
49.12188 143
49.142 140
49.16211 155
49.18223 146
49.20234 123
49.22245 136
49.24257 141
49.26268 150
49.28279 140
49.30291 153
49.32302 134
49.34313 151
49.36325 139
49.38336 140
49.40348 167
49.42359 133
49.4437 152
49.46382 173
49.48393 157
49.50404 141
49.52416 153
49.54427 170
49.56439 176
49.5845 175
49.60461 189
49.62473 178
49.64484 200
49.66495 189
49.68507 205
49.70518 245
49.7253 262
49.74541 250
49.76552 252
49.78564 291
49.80575 332
49.82586 368
49.84598 456
49.86609 502
49.8862 624
49.90632 657
49.92643 791
49.94655 994
49.96666 1219
49.98677 1569
50.00689 2035
50.027 2393
50.04711 2769
50.06723 3291
50.08734 3832
50.10746 4236
50.12757 4040
50.14768 3537
50.1678 2941
50.18791 2373
50.20802 2088
50.22814 2201
50.24825 2023
50.26837 1804
50.28848 1449
50.30859 1009
50.32871 640
50.34882 449
50.36893 363
50.38905 348
50.40916 303
50.42927 280
50.44939 264
50.4695 239
50.48962 264
50.50973 251
50.52984 269
50.54996 242
50.57007 215
50.59018 252
50.6103 265
50.63041 204
50.65053 232
50.67064 189
50.69075 192
50.71087 207
50.73098 202
50.75109 193
50.77121 190
50.79132 166
50.81143 142
50.83155 140
50.85166 162
50.87178 135
50.89189 152
50.912 150
50.93212 156
50.95223 142
50.97234 115
50.99246 141
51.01257 134
51.03269 132
51.0528 124
51.07291 124
51.09303 125
51.11314 129
51.13325 148
51.15337 140
51.17348 117
51.1936 132
51.21371 128
51.23382 136
51.25394 136
51.27405 133
51.29416 125
51.31428 121
51.33439 137
51.3545 125
51.37462 128
51.39473 115
51.41485 116
51.43496 140
51.45507 135
51.47519 100
51.4953 111
51.51541 123
51.53553 141
51.55564 120
51.57576 114
51.59587 133
51.61598 121
51.6361 120
51.65621 117
51.67632 133
51.69644 119
51.71655 131
51.73667 113
51.75678 110
51.77689 113
51.79701 118
51.81712 111
51.83723 118
51.85735 97
51.87746 113
51.89757 100
51.91769 112
51.9378 123
51.95792 118
51.97803 124
51.99814 123
52.01826 128
52.03837 123
52.05848 119
52.0786 122
52.09871 94
52.11883 123
52.13894 112
52.15905 124
52.17917 122
52.19928 109
52.21939 117
52.23951 120
52.25962 121
52.27974 137
52.29985 118
52.31996 125
52.34008 117
52.36019 100
52.3803 100
52.40042 108
52.42053 113
52.44064 122
52.46076 120
52.48087 125
52.50099 116
52.5211 101
52.54121 115
52.56133 115
52.58144 115
52.60155 132
52.62167 109
52.64178 118
52.6619 97
52.68201 116
52.70212 115
52.72224 125
52.74235 126
52.76246 100
52.78258 114
52.80269 110
52.8228 123
52.84292 113
52.86303 127
52.88315 112
52.90326 134
52.92337 122
52.94349 118
52.9636 126
52.98371 122
53.00383 131
53.02394 116
53.04406 128
53.06417 132
53.08428 136
53.1044 126
53.12451 133
53.14462 120
53.16474 105
53.18485 101
53.20497 131
53.22508 124
53.24519 113
53.26531 133
53.28542 106
53.30553 101
53.32565 116
53.34576 131
53.36587 128
53.38599 134
53.4061 118
53.42622 137
53.44633 110
53.46644 142
53.48656 117
53.50667 126
53.52678 118
53.5469 106
53.56701 122
53.58713 138
53.60724 125
53.62735 136
53.64747 130
53.66758 110
53.68769 147
53.70781 123
53.72792 133
53.74804 134
53.76815 114
53.78826 107
53.80838 128
53.82849 127
53.8486 138
53.86872 144
53.88883 96
53.90894 131
53.92906 149
53.94917 139
53.96929 117
53.9894 124
54.00951 113
54.02963 127
54.04974 131
54.06985 122
54.08997 115
54.11008 122
54.1302 141
54.15031 125
54.17042 143
54.19054 138
54.21065 116
54.23076 117
54.25088 134
54.27099 126
54.29111 140
54.31122 142
54.33133 115
54.35145 132
54.37156 166
54.39167 163
54.41179 148
54.4319 143
54.45201 165
54.47213 163
54.49224 149
54.51236 172
54.53247 184
54.55258 213
54.5727 234
54.59281 233
54.61292 261
54.63304 304
54.65315 328
54.67327 404
54.69338 438
54.71349 535
54.73361 675
54.75372 767
54.77383 956
54.79395 1066
54.81406 1218
54.83417 1324
54.85429 1238
54.8744 1131
54.89452 971
54.91463 776
54.93474 729
54.95486 750
54.97497 675
54.99508 710
55.0152 658
55.03531 545
55.05543 418
55.07554 343
55.09565 273
55.11577 305
55.13588 298
55.15599 300
55.17611 352
55.19622 385
55.21634 453
55.23645 476
55.25656 580
55.27668 605
55.29679 583
55.3169 599
55.33702 526
55.35713 441
55.37724 407
55.39736 363
55.41747 384
55.43759 355
55.4577 342
55.47781 326
55.49793 265
55.51804 202
55.53815 171
55.55827 140
55.57838 152
55.5985 159
55.61861 135
55.63872 156
55.65884 125
55.67895 141
55.69906 125
55.71918 138
55.73929 139
55.75941 125
55.77952 117
55.79963 116
55.81975 117
55.83986 127
55.85997 121
55.88009 105
55.9002 139
55.92031 136
55.94043 103
55.96054 127
55.98066 126
56.00077 124
56.02088 124
56.041 124
56.06111 114
56.08122 125
56.10134 108
56.12145 116
56.14157 126
56.16168 122
56.18179 115
56.20191 123
56.22202 135
56.24213 134
56.26225 122
56.28236 105
56.30248 110
56.32259 114
56.3427 117
56.36282 120
56.38293 104
56.40304 123
56.42316 120
56.44327 124
56.46338 106
56.4835 112
56.50361 123
56.52373 118
56.54384 109
56.56395 118
56.58407 118
56.60418 131
56.62429 124
56.64441 116
56.66452 108
56.68464 108
56.70475 103
56.72486 104
56.74498 135
56.76509 130
56.7852 113
56.80532 118
56.82543 117
56.84554 107
56.86566 114
56.88577 120
56.90589 134
56.926 117
56.94611 134
56.96623 125
56.98634 126
57.00645 113
57.02657 151
57.04668 135
57.0668 125
57.08691 149
57.10702 150
57.12714 181
57.14725 162
57.16736 153
57.18748 181
57.20759 153
57.22771 171
57.24782 173
57.26793 166
57.28805 147
57.30816 158
57.32827 150
57.34839 140
57.3685 164
57.38861 135
57.40873 138
57.42884 138
57.44896 134
57.46907 100
57.48918 129
57.5093 127
57.52941 105
57.54952 97
57.56964 115
57.58975 128
57.60987 115
57.62998 107
57.65009 118
57.67021 106
57.69032 121
57.71043 112
57.73055 112
57.75066 128
57.77078 127
57.79089 126
57.811 108
57.83112 124
57.85123 108
57.87134 130
57.89146 114
57.91157 108
57.93168 115
57.9518 123
57.97191 92
57.99203 128
58.01214 113
58.03225 120
58.05237 115
58.07248 140
58.09259 125
58.11271 127
58.13282 107
58.15294 137
58.17305 101
58.19316 93
58.21328 110
58.23339 128
58.2535 131
58.27362 147
58.29373 120
58.31385 100
58.33396 113
58.35407 121
58.37419 134
58.3943 115
58.41441 124
58.43453 129
58.45464 141
58.47475 124
58.49487 97
58.51498 127
58.5351 126
58.55521 144
58.57532 132
58.59544 107
58.61555 120
58.63566 120
58.65578 111
58.67589 101
58.69601 123
58.71612 130
58.73623 114
58.75635 108
58.77646 128
58.79657 114
58.81669 116
58.8368 130
58.85691 140
58.87703 123
58.89714 117
58.91726 118
58.93737 100
58.95748 107
58.9776 122
58.99771 98
59.01782 126
59.03794 113
59.05805 115
59.07817 123
59.09828 103
59.11839 133
59.13851 135
59.15862 127
59.17873 133
59.19885 117
59.21896 131
59.23908 133
59.25919 133
59.2793 114
59.29942 130
59.31953 148
59.33964 140
59.35976 164
59.37987 130
59.39998 154
59.4201 141
59.44021 193
59.46033 164
59.48044 172
59.50055 182
59.52067 175
59.54078 236
59.56089 259
59.58101 236
59.60112 290
59.62124 285
59.64135 340
59.66146 406
59.68158 438
59.70169 479
59.7218 542
59.74192 639
59.76203 829
59.78215 926
59.80226 1100
59.82237 1417
59.84249 1651
59.8626 1888
59.88271 2330
59.90283 2491
59.92294 2662
59.94305 2451
59.96317 2096
59.98328 1713
60.0034 1450
60.02351 1302
60.04362 1283
60.06374 1335
60.08385 1371
60.10396 1256
60.12408 1053
60.14419 775
60.16431 517
60.18442 377
60.20453 304
60.22465 277
60.24476 222
60.26487 188
60.28499 187
60.3051 191
60.32522 166
60.34533 183
60.36544 168
60.38556 156
60.40567 175
60.42578 143
60.4459 168
60.46601 137
60.48612 134
60.50624 139
60.52635 118
60.54647 144
60.56658 137
60.58669 134
60.60681 122
60.62692 120
60.64703 138
60.66715 136
60.68726 142
60.70738 126
60.72749 150
60.7476 125
60.76772 146
60.78783 121
60.80794 140
60.82806 132
60.84817 137
60.86828 140
60.8884 119
60.90851 122
60.92863 97
60.94874 106
60.96885 130
60.98897 125
61.00908 110
61.02919 120
61.04931 129
61.06942 136
61.08954 115
61.10965 110
61.12976 121
61.14988 129
61.16999 121
61.1901 116
61.21022 133
61.23033 122
61.25045 125
61.27056 103
61.29067 142
61.31079 107
61.3309 124
61.35101 122
61.37113 131
61.39124 148
61.41135 134
61.43147 132
61.45158 123
61.4717 140
61.49181 132
61.51192 124
61.53204 108
61.55215 129
61.57226 125
61.59238 131
61.61249 117
61.63261 117
61.65272 118
61.67283 126
61.69295 114
61.71306 139
61.73317 127
61.75329 137
61.7734 124
61.79352 110
61.81363 126
61.83374 150
61.85386 118
61.87397 126
61.89408 115
61.9142 113
61.93431 135
61.95442 97
61.97454 130
61.99465 124
62.01477 128
62.03488 146
62.05499 124
62.07511 121
62.09522 127
62.11533 111
62.13545 109
62.15556 134
62.17568 130
62.19579 115
62.2159 115
62.23602 128
62.25613 120
62.27624 117
62.29636 116
62.31647 124
62.33659 123
62.3567 119
62.37681 119
62.39693 115
62.41704 98
62.43715 111
62.45727 121
62.47738 107
62.49749 116
62.51761 115
62.53772 125
62.55784 97
62.57795 98
62.59806 119
62.61818 115
62.63829 103
62.6584 125
62.67852 98
62.69863 126
62.71875 114
62.73886 127
62.75897 126
62.77909 117
62.7992 112
62.81931 117
62.83943 109
62.85954 85
62.87965 99
62.89977 113
62.91988 103
62.94 106
62.96011 128
62.98022 106
63.00034 119
63.02045 120
63.04056 107
63.06068 117
63.08079 117
63.10091 92
63.12102 103
63.14113 113
63.16125 102
63.18136 98
63.20147 97
63.22159 100
63.2417 111
63.26182 125
63.28193 130
63.30204 106
63.32216 88
63.34227 100
63.36238 101
63.3825 101
63.40261 131
63.42272 94
63.44284 120
63.46295 87
63.48307 99
63.50318 109
63.52329 119
63.54341 103
63.56352 108
63.58363 138
63.60375 112
63.62386 124
63.64398 145
63.66409 150
63.6842 130
63.70432 147
63.72443 146
63.74454 161
63.76466 195
63.78477 162
63.80489 185
63.825 242
63.84511 231
63.86523 284
63.88534 306
63.90545 332
63.92557 370
63.94568 453
63.96579 524
63.98591 493
64.00602 523
64.02614 486
64.04625 432
64.06636 348
64.08648 293
64.10659 284
64.1267 324
64.14682 305
64.16693 303
64.18705 296
64.20716 263
64.22727 238
64.24739 200
64.2675 170
64.28761 160
64.30773 138
64.32784 108
64.34796 113
64.36807 135
64.38818 119
64.4083 109
64.42841 124
64.44852 128
64.46864 128
64.48875 104
64.50886 102
64.52898 114
64.54909 115
64.56921 108
64.58932 109
64.60943 123
64.62955 115
64.64966 92
64.66977 102
64.68989 110
64.71 110
64.73012 119
64.75023 118
64.77034 89
64.79046 132
64.81057 99
64.83068 103
64.8508 110
64.87091 118
64.89102 101
64.91114 100
64.93125 122
64.95137 100
64.97148 111
64.99159 105
65.01171 99
65.03182 112
65.05193 118
65.07205 108
65.09216 83
65.11228 96
65.13239 115
65.1525 117
65.17262 115
65.19273 120
65.21284 107
65.23296 123
65.25307 82
65.27319 120
65.2933 105
65.31341 112
65.33353 92
65.35364 133
65.37375 128
65.39387 90
65.41398 119
65.43409 131
65.45421 108
65.47432 127
65.49444 123
65.51455 133
65.53466 135
65.55478 141
65.57489 136
65.595 137
65.61512 172
65.63523 178
65.65535 208
65.67546 210
65.69557 199
65.71569 219
65.7358 223
65.75591 224
65.77603 209
65.79614 229
65.81626 181
65.83637 166
65.85648 167
65.8766 157
65.89671 177
65.91682 170
65.93694 185
65.95705 172
65.97716 144
65.99728 152
66.01739 134
66.03751 140
66.05762 118
66.07773 127
66.09785 132
66.11796 132
66.13807 128
66.15819 115
66.1783 120
66.19842 110
66.21853 126
66.23864 120
66.25876 121
66.27887 120
66.29898 125
66.3191 115
66.33921 113
66.35933 115
66.37944 106
66.39955 129
66.41967 120
66.43978 130
66.45989 107
66.48001 126
66.50012 101
66.52023 111
66.54035 130
66.56046 128
66.58058 123
66.60069 120
66.6208 117
66.64092 117
66.66103 121
66.68114 132
66.70126 156
66.72137 142
66.74149 129
66.7616 118
66.78171 130
66.80183 133
66.82194 126
66.84205 134
66.86217 122
66.88228 152
66.90239 126
66.92251 121
66.94262 120
66.96274 112
66.98285 111
67.00296 141
67.02308 126
67.04319 142
67.0633 135
67.08342 138
67.10353 138
67.12365 150
67.14376 157
67.16387 166
67.18399 150
67.2041 154
67.22421 155
67.24433 178
67.26444 185
67.28456 184
67.30467 183
67.32478 195
67.3449 213
67.36501 189
67.38512 218
67.40524 268
67.42535 277
67.44546 311
67.46558 352
67.48569 384
67.50581 432
67.52592 522
67.54603 546
67.56615 667
67.58626 792
67.60637 885
67.62649 1102
67.6466 1237
67.66672 1344
67.68683 1538
67.70694 1464
67.72706 1409
67.74717 1308
67.76728 1077
67.7874 892
67.80751 866
67.82763 881
67.84774 963
67.86785 1006
67.88797 1031
67.90808 1106
67.92819 1124
67.94831 1072
67.96842 1148
67.98853 1203
68.00865 1274
68.02876 1569
68.04888 1708
68.06899 1748
68.0891 1955
68.10922 2131
68.12933 1952
68.14944 1946
68.16956 1720
68.18967 1537
68.20979 1635
68.2299 1752
68.25001 1795
68.27013 1957
68.29024 1829
68.31035 1671
68.33047 1426
68.35058 1126
68.3707 882
68.39081 732
68.41092 663
68.43104 715
68.45115 674
68.47126 664
68.49138 560
68.51149 480
68.5316 376
68.55172 319
68.57183 272
68.59195 189
68.61206 190
68.63217 170
68.65229 196
68.6724 164
68.69251 156
68.71263 173
68.73274 154
68.75286 149
68.77297 148
68.79308 145
68.8132 148
68.83331 139
68.85342 127
68.87354 135
68.89365 156
68.91376 138
68.93388 149
68.95399 110
68.97411 111
68.99422 123
69.01433 138
69.03445 139
69.05456 121
69.07467 150
69.09479 125
69.1149 138
69.13502 142
69.15513 132
69.17524 133
69.19536 124
69.21547 120
69.23558 131
69.2557 112
69.27581 116
69.29593 120
69.31604 109
69.33615 119
69.35627 127
69.37638 108
69.39649 112
69.41661 125
69.43672 142
69.45683 138
69.47695 120
69.49706 117
69.51718 111
69.53729 115
69.5574 113
69.57752 84
69.59763 117
69.61774 93
69.63786 131
69.65797 126
69.67809 99
69.6982 125
69.71831 97
69.73843 105
69.75854 107
69.77865 104
69.79877 127
69.81888 121
69.839 105
69.85911 122
69.87922 109
69.89934 110
69.91945 90
69.93956 109
69.95968 107
69.97979 103
69.9999 109
70.02002 115
70.04013 116
70.06025 107
70.08036 87
70.10047 103
70.12059 121
70.1407 109
70.16081 99
70.18093 102
70.20104 100
70.22116 97
70.24127 112
70.26138 93
70.2815 109
70.30161 93
70.32172 90
70.34184 108
70.36195 126
70.38207 121
70.40218 94
70.42229 106
70.44241 126
70.46252 122
70.48263 134
70.50275 114
70.52286 108
70.54297 107
70.56309 111
70.5832 104
70.60332 116
70.62343 103
70.64354 105
70.66366 107
70.68377 122
70.70388 106
70.724 122
70.74411 105
70.76423 101
70.78434 104
70.80445 112
70.82457 111
70.84468 116
70.86479 105
70.88491 114
70.90502 102
70.92513 100
70.94525 107
70.96536 101
70.98548 111
71.00559 100
71.0257 102
71.04582 99
71.06593 96
71.08604 109
71.10616 115
71.12627 120
71.14639 98
71.1665 102
71.18661 115
71.20673 114
71.22684 103
71.24695 95
71.26707 96
71.28718 98
71.3073 109
71.32741 95
71.34752 100
71.36764 102
71.38775 93
71.40786 111
71.42798 103
71.44809 102
71.4682 104
71.48832 112
71.50843 107
71.52855 106
71.54866 106
71.56877 110
71.58889 104
71.609 91
71.62911 97
71.64923 122
71.66934 110
71.68946 97
71.70957 111
71.72968 109
71.7498 106
71.76991 106
71.79002 108
71.81014 98
71.83025 90
71.85037 105
71.87048 110
71.89059 108
71.91071 113
71.93082 97
71.95093 115
71.97105 117
71.99116 101
72.01127 102
72.03139 109
72.0515 104
72.07162 119
72.09173 98
72.11184 115
72.13196 107
72.15207 116
72.17218 112
72.1923 124
72.21241 118
72.23253 99
72.25264 110
72.27275 113
72.29287 115
72.31298 110
72.33309 109
72.35321 111
72.37332 100
72.39344 103
72.41355 111
72.43366 100
72.45378 119
72.47389 110
72.494 100
72.51412 107
72.53423 107
72.55434 104
72.57446 103
72.59457 100
72.61469 109
72.6348 118
72.65491 116
72.67503 132
72.69514 122
72.71525 109
72.73537 100
72.75548 96
72.7756 114
72.79571 106
72.81582 119
72.83594 103
72.85605 118
72.87616 102
72.89628 120
72.91639 101
72.9365 123
72.95662 117
72.97673 134
72.99685 132
73.01696 129
73.03707 120
73.05719 143
73.0773 147
73.09741 117
73.11753 138
73.13764 135
73.15776 159
73.17787 177
73.19798 186
73.2181 196
73.23821 196
73.25832 243
73.27844 290
73.29855 321
73.31867 358
73.33878 393
73.35889 489
73.37901 505
73.39912 541
73.41923 567
73.43935 508
73.45946 507
73.47957 465
73.49969 390
73.5198 315
73.53992 274
73.56003 290
73.58014 305
73.60026 331
73.62037 303
73.64048 316
73.6606 283
73.68071 276
73.70083 232
73.72094 208
73.74105 170
73.76117 144
73.78128 127
73.80139 146
73.82151 133
73.84162 108
73.86174 121
73.88185 124
73.90196 118
73.92208 140
73.94219 111
73.9623 98
73.98242 118
74.00253 107
74.02264 106
74.04276 99
74.06287 110
74.08299 119
74.1031 107
74.12321 124
74.14333 96
74.16344 107
74.18355 102
74.20367 106
74.22378 117
74.2439 105
74.26401 105
74.28412 103
74.30424 106
74.32435 103
74.34446 106
74.36458 115
74.38469 118
74.40481 102
74.42492 112
74.44503 117
74.46515 108
74.48526 109
74.50537 121
74.52549 95
74.5456 117
74.56571 101
74.58583 99
74.60594 104
74.62606 113
74.64617 113
74.66628 98
74.6864 109
74.70651 118
74.72662 116
74.74674 108
74.76685 104
74.78697 118
74.80708 98
74.82719 95
74.84731 110
74.86742 106
74.88753 106
74.90765 91
74.92776 92
74.94787 98
74.96799 106
74.9881 98
75.00822 130
