3.00117 20973
3.02128 20206
3.0414 19507
3.06151 19228
3.08162 18946
3.10174 18218
3.12185 17868
3.14197 17082
3.16208 16783
3.18219 16387
3.20231 16034
3.22242 15095
3.24253 14725
3.26265 14574
3.28276 13826
3.30288 13679
3.32299 13258
3.3431 12535
3.36322 12483
3.38333 11570
3.40344 11371
3.42356 11185
3.44367 10641
3.46379 10656
3.4839 9890
3.50401 9938
3.52413 9609
3.54424 9150
3.56435 8694
3.58447 8573
3.60458 8124
3.62469 7970
3.64481 7728
3.66492 7280
3.68504 6845
3.70515 6916
3.72526 6661
3.74538 6023
3.76549 6124
3.7856 5695
3.80572 5660
3.82583 5418
3.84595 4940
3.86606 4843
3.88617 4671
3.90629 4528
3.9264 4491
3.94651 4105
3.96663 3890
3.98674 3700
4.00686 3687
4.02697 3473
4.04708 3375
4.0672 3201
4.08731 3077
4.10742 3019
4.12754 3045
4.14765 2860
4.16776 2721
4.18788 2550
4.20799 2419
4.22811 2398
4.24822 2217
4.26833 2175
4.28845 2043
4.30856 2143
4.32867 2170
4.34879 1944
4.3689 1957
4.38902 1877
4.40913 1822
4.42924 1850
4.44936 1698
4.46947 1680
4.48958 1658
4.5097 1642
4.52981 1720
4.54992 1574
4.57004 1525
4.59015 1486
4.61027 1537
4.63038 1519
4.65049 1371
4.67061 1308
4.69072 1372
4.71083 1305
4.73095 1304
4.75106 1234
4.77118 1225
4.79129 1225
4.8114 1224
4.83152 1202
4.85163 1141
4.87174 1162
4.89186 1069
4.91197 1099
4.93209 1139
4.9522 923
4.97231 983
4.99243 991
5.01254 991
5.03265 1108
5.05277 930
5.07288 927
5.09299 958
5.11311 933
5.13322 865
5.15334 862
5.17345 878
5.19356 840
5.21368 813
5.23379 876
5.2539 754
5.27402 807
5.29413 797
5.31425 758
5.33436 839
5.35447 743
5.37459 718
5.3947 712
5.41481 745
5.43493 706
5.45504 615
5.47516 638
5.49527 631
5.51538 656
5.5355 701
5.55561 718
5.57572 632
5.59584 645
5.61595 659
5.63606 555
5.65618 624
5.67629 567
5.69641 605
5.71652 587
5.73663 539
5.75675 602
5.77686 547
5.79697 539
5.81709 576
5.8372 506
5.85732 515
5.87743 561
5.89754 543
5.91766 499
5.93777 557
5.95788 504
5.978 490
5.99811 538
6.01823 492
6.03834 457
6.05845 439
6.07857 496
6.09868 462
6.11879 489
6.13891 494
6.15902 465
6.17913 465
6.19925 465
6.21936 438
6.23948 487
6.25959 468
6.2797 461
6.29982 433
6.31993 470
6.34004 464
6.36016 501
6.38027 439
6.40039 448
6.4205 446
6.44061 418
6.46073 448
6.48084 416
6.50095 410
6.52107 437
6.54118 429
6.56129 406
6.58141 409
6.60152 424
6.62164 407
6.64175 432
6.66186 391
6.68198 448
6.70209 447
6.7222 403
6.74232 417
6.76243 429
6.78255 364
6.80266 365
6.82277 413
6.84289 392
6.863 360
6.88311 436
6.90323 396
6.92334 374
6.94346 405
6.96357 350
6.98368 379
7.0038 373
7.02391 377
7.04402 390
7.06414 391
7.08425 351
7.10436 413
7.12448 430
7.14459 388
7.16471 407
7.18482 408
7.20493 375
7.22505 384
7.24516 382
7.26527 343
7.28539 372
7.3055 369
7.32562 392
7.34573 384
7.36584 382
7.38596 391
7.40607 367
7.42618 426
7.4463 372
7.46641 388
7.48653 371
7.50664 341
7.52675 379
7.54687 380
7.56698 359
7.58709 400
7.60721 377
7.62732 390
7.64743 394
7.66755 403
7.68766 410
7.70778 351
7.72789 342
7.748 358
7.76812 408
7.78823 384
7.80834 388
7.82846 404
7.84857 409
7.86869 411
7.8888 431
7.90891 388
7.92903 413
7.94914 448
7.96925 415
7.98937 414
8.00948 433
8.0296 465
8.04971 448
8.06982 424
8.08994 469
8.11005 445
8.13016 456
8.15028 445
8.17039 528
8.1905 451
8.21062 583
8.23073 530
8.25085 526
8.27096 558
8.29107 539
8.31119 605
8.3313 618
8.35141 623
8.37153 626
8.39164 614
8.41176 617
8.43187 618
8.45198 694
8.4721 665
8.49221 642
8.51232 604
8.53244 596
8.55255 571
8.57266 602
8.59278 549
8.61289 602
8.63301 537
8.65312 531
8.67323 530
8.69335 518
8.71346 500
8.73357 480
8.75369 429
8.7738 463
8.79392 442
8.81403 435
8.83414 419
8.85426 369
8.87437 395
8.89448 386
8.9146 371
8.93471 358
8.95483 386
8.97494 364
8.99505 353
9.01517 343
9.03528 334
9.05539 334
9.07551 349
9.09562 323
9.11573 326
9.13585 317
9.15596 307
9.17608 338
9.19619 303
9.2163 345
9.23642 313
9.25653 339
9.27664 323
9.29676 332
9.31687 314
9.33699 316
9.3571 322
9.37721 326
9.39733 322
9.41744 302
9.43755 270
9.45767 275
9.47778 289
9.4979 265
9.51801 282
9.53812 308
9.55824 295
9.57835 307
9.59846 301
9.61858 309
9.63869 288
9.6588 272
9.67892 285
9.69903 298
9.71915 265
9.73926 284
9.75937 279
9.77949 232
9.7996 276
9.81971 284
9.83983 261
9.85994 283
9.88006 286
9.90017 266
9.92028 287
9.9404 297
9.96051 277
9.98062 286
10.00074 278
10.02085 241
10.04097 241
10.06108 273
10.08119 249
10.10131 245
10.12142 269
10.14153 284
10.16165 275
10.18176 264
10.20187 266
10.22199 269
10.2421 265
10.26222 271
10.28233 271
10.30244 240
10.32256 263
10.34267 278
10.36278 251
10.3829 279
10.40301 269
10.42313 246
10.44324 278
10.46335 248
10.48347 255
10.50358 255
10.52369 233
10.54381 253
10.56392 248
10.58403 271
10.60415 236
10.62426 259
10.64438 237
10.66449 266
10.6846 285
10.70472 234
10.72483 263
10.74494 292
10.76506 257
10.78517 274
10.80529 253
10.8254 251
10.84551 286
10.86563 262
10.88574 258
10.90585 222
10.92597 259
10.94608 257
10.9662 270
10.98631 237
11.00642 242
11.02654 252
11.04665 244
11.06676 257
11.08688 255
11.10699 295
11.1271 274
11.14722 247
11.16733 225
11.18745 265
11.20756 239
11.22767 291
11.24779 249
11.2679 269
11.28801 289
11.30813 262
11.32824 235
11.34836 265
11.36847 222
11.38858 219
11.4087 232
11.42881 220
11.44892 247
11.46904 265
11.48915 279
11.50927 267
11.52938 261
11.54949 268
11.56961 248
11.58972 263
11.60983 265
11.62995 245
11.65006 257
11.67017 256
11.69029 242
11.7104 258
11.73052 226
11.75063 243
11.77074 270
11.79086 249
11.81097 251
11.83108 288
11.8512 276
11.87131 240
11.89143 262
11.91154 251
11.93165 234
11.95177 251
11.97188 246
11.99199 267
12.01211 261
12.03222 263
12.05234 269
12.07245 226
12.09256 253
12.11268 239
12.13279 248
12.1529 265
12.17302 290
12.19313 250
12.21324 246
12.23336 308
12.25347 264
12.27359 258
12.2937 279
12.31381 282
12.33393 277
12.35404 237
12.37415 291
12.39427 266
12.41438 242
12.4345 245
12.45461 260
12.47472 276
12.49484 246
12.51495 259
12.53506 254
12.55518 252
12.57529 269
12.5954 276
12.61552 249
12.63563 259
12.65575 247
12.67586 251
12.69597 246
12.71609 234
12.7362 259
12.75631 260
12.77643 250
12.79654 255
12.81666 263
12.83677 213
12.85688 254
12.877 214
12.89711 266
12.91722 232
12.93734 231
12.95745 210
12.97757 265
12.99768 247
13.01779 233
13.03791 249
13.05802 237
13.07813 223
13.09825 253
13.11836 230
13.13847 246
13.15859 226
13.1787 252
13.19882 253
13.21893 258
13.23904 208
13.25916 236
13.27927 247
13.29938 238
13.3195 273
13.33961 254
13.35973 278
13.37984 211
13.39995 265
13.42007 284
13.44018 239
13.46029 254
13.48041 232
13.50052 228
13.52064 259
13.54075 252
13.56086 274
13.58098 273
13.60109 236
13.6212 245
13.64132 292
13.66143 264
13.68154 307
13.70166 254
13.72177 288
13.74189 274
13.762 298
13.78211 292
13.80223 329
13.82234 292
13.84245 276
13.86257 306
13.88268 325
13.9028 312
13.92291 274
13.94302 279
13.96314 264
13.98325 327
14.00336 274
14.02348 283
14.04359 280
14.06371 257
14.08382 239
14.10393 251
14.12405 262
14.14416 249
14.16427 246
14.18439 252
14.2045 253
14.22461 233
14.24473 236
14.26484 263
14.28496 246
14.30507 245
14.32518 231
14.3453 250
14.36541 240
14.38552 245
14.40564 234
14.42575 246
14.44587 246
14.46598 237
14.48609 251
14.50621 247
14.52632 226
14.54643 240
14.56655 242
14.58666 242
14.60677 237
14.62689 238
14.647 199
14.66712 238
14.68723 225
14.70734 233
14.72746 228
14.74757 249
14.76768 222
14.7878 228
14.80791 237
14.82803 235
14.84814 254
14.86825 236
14.88837 249
14.90848 253
14.92859 245
14.94871 231
14.96882 256
14.98894 259
15.00905 246
15.02916 263
15.04928 250
15.06939 279
15.0895 266
15.10962 251
15.12973 234
15.14984 226
15.16996 250
15.19007 265
15.21019 222
15.2303 241
15.25041 214
15.27053 252
15.29064 249
15.31075 217
15.33087 249
15.35098 258
15.3711 252
15.39121 213
15.41132 211
15.43144 220
15.45155 204
15.47166 264
15.49178 223
15.51189 228
15.53201 239
15.55212 239
15.57223 249
15.59235 212
15.61246 227
15.63257 227
15.65269 242
15.6728 244
15.69291 254
15.71303 267
15.73314 226
15.75326 228
15.77337 222
15.79348 202
15.8136 231
15.83371 259
15.85382 238
15.87394 245
15.89405 244
15.91417 212
15.93428 235
15.95439 247
15.97451 224
15.99462 227
16.01473 238
16.03485 216
16.05496 220
16.07508 212
16.09519 209
16.1153 229
16.13542 220
16.15553 238
16.17564 237
16.19576 249
16.21587 216
16.23598 247
16.2561 272
16.27621 221
16.29633 255
16.31644 278
16.33655 234
16.35667 231
16.37678 236
16.39689 276
16.41701 270
16.43712 260
16.45724 228
16.47735 235
16.49746 217
16.51758 250
16.53769 249
16.5578 258
16.57792 249
16.59803 229
16.61814 240
16.63826 261
16.65837 245
16.67849 268
16.6986 242
16.71871 230
16.73883 257
16.75894 245
16.77905 219
16.79917 230
16.81928 227
16.8394 240
16.85951 239
16.87962 239
16.89974 222
16.91985 256
16.93996 233
16.96008 237
16.98019 246
17.00031 213
17.02042 234
17.04053 264
17.06065 239
17.08076 245
17.10087 220
17.12099 210
17.1411 232
17.16121 250
17.18133 228
17.20144 247
17.22156 245
17.24167 211
17.26178 250
17.2819 235
17.30201 270
17.32212 245
17.34224 227
17.36235 267
17.38247 230
17.40258 251
17.42269 230
17.44281 224
17.46292 249
17.48303 242
17.50315 224
17.52326 248
17.54338 229
17.56349 235
17.5836 227
17.60372 222
17.62383 246
17.64394 260
17.66406 247
17.68417 234
17.70428 259
17.7244 239
17.74451 239
17.76463 276
17.78474 237
17.80485 283
17.82497 233
17.84508 229
17.86519 239
17.88531 237
17.90542 258
17.92554 279
17.94565 222
17.96576 252
17.98588 260
18.00599 246
18.0261 261
18.04622 230
18.06633 254
18.08645 265
18.10656 227
18.12667 221
18.14679 216
18.1669 231
18.18701 218
18.20713 257
18.22724 211
18.24735 252
18.26747 233
18.28758 239
18.3077 244
18.32781 247
18.34792 258
18.36804 237
18.38815 261
18.40826 240
18.42838 236
18.44849 215
18.46861 235
18.48872 267
18.50883 215
18.52895 252
18.54906 232
18.56917 275
18.58929 245
18.6094 244
18.62951 215
18.64963 243
18.66974 245
18.68986 235
18.70997 254
18.73008 273
18.7502 237
18.77031 262
18.79042 255
18.81054 220
18.83065 268
18.85077 231
18.87088 254
18.89099 256
18.91111 251
18.93122 243
18.95133 229
18.97145 238
18.99156 260
19.01168 276
19.03179 271
19.0519 240
19.07202 267
19.09213 257
19.11224 275
19.13236 259
19.15247 264
19.17258 277
19.1927 255
19.21281 265
19.23293 277
19.25304 299
19.27315 252
19.29327 295
19.31338 267
19.33349 306
19.35361 282
19.37372 319
19.39384 373
19.41395 336
19.43406 351
19.45418 353
19.47429 352
19.4944 399
19.51452 417
19.53463 415
19.55475 437
19.57486 423
19.59497 444
19.61509 463
19.6352 446
19.65531 491
19.67543 537
19.69554 503
19.71565 525
19.73577 555
19.75588 489
19.776 561
19.79611 595
19.81622 525
19.83634 571
19.85645 529
19.87656 538
19.89668 532
19.91679 523
19.93691 548
19.95702 505
19.97713 481
19.99725 416
20.01736 491
20.03747 415
20.05759 466
20.0777 453
20.09782 421
20.11793 428
20.13804 453
20.15816 433
20.17827 413
20.19838 411
20.2185 411
20.23861 443
20.25872 411
20.27884 434
20.29895 446
20.31907 433
20.33918 410
20.35929 410
20.37941 384
20.39952 435
20.41963 404
20.43975 424
20.45986 402
20.47998 416
20.50009 414
20.5202 432
20.54032 439
20.56043 459
20.58054 500
20.60066 468
20.62077 506
20.64088 577
20.661 705
20.68111 891
20.70123 1111
20.72134 1409
20.74145 1953
20.76157 2576
20.78168 3288
20.80179 4024
20.82191 4527
20.84202 4628
20.86214 4262
20.88225 3525
20.90236 2695
20.92248 1961
20.94259 1306
20.9627 894
20.98282 723
21.00293 617
21.02305 541
21.04316 571
21.06327 480
21.08339 463
21.1035 410
21.12361 412
21.14373 385
21.16384 361
21.18395 407
21.20407 353
21.22418 355
21.2443 350
21.26441 403
21.28452 349
21.30464 352
21.32475 369
21.34486 355
21.36498 353
21.38509 357
21.40521 329
21.42532 342
21.44543 390
21.46555 370
21.48566 361
21.50577 303
21.52589 324
21.546 327
21.56612 331
21.58623 373
21.60634 314
21.62646 319
21.64657 346
21.66668 315
21.6868 320
21.70691 344
21.72702 336
21.74714 321
21.76725 321
21.78737 381
21.80748 383
21.82759 383
21.84771 369
21.86782 428
21.88793 495
21.90805 536
21.92816 576
21.94828 696
21.96839 687
21.9885 618
22.00862 630
22.02873 592
22.04884 480
22.06896 426
22.08907 388
22.10919 384
22.1293 392
22.14941 371
22.16953 325
22.18964 336
22.20975 360
22.22987 325
22.24998 309
22.27009 338
22.29021 341
22.31032 322
22.33044 298
22.35055 311
22.37066 323
22.39078 291
22.41089 326
22.431 326
22.45112 291
22.47123 299
22.49135 315
22.51146 332
22.53157 333
22.55169 299
22.5718 306
22.59191 312
22.61203 304
22.63214 315
22.65225 268
22.67237 323
22.69248 295
22.7126 303
22.73271 269
22.75282 331
22.77294 308
22.79305 330
22.81316 337
22.83328 343
22.85339 384
22.87351 382
22.89362 374
22.91373 393
22.93385 379
22.95396 372
22.97407 397
22.99419 382
23.0143 357
23.03442 382
23.05453 366
23.07464 352
23.09476 373
23.11487 363
23.13498 346
23.1551 346
23.17521 348
23.19532 348
23.21544 317
23.23555 340
23.25567 325
23.27578 362
23.29589 274
23.31601 287
23.33612 327
23.35623 325
23.37635 338
23.39646 335
23.41658 354
23.43669 361
23.4568 382
23.47692 376
23.49703 442
23.51714 440
23.53726 468
23.55737 476
23.57749 457
23.5976 507
23.61771 427
23.63783 449
23.65794 432
23.67805 421
23.69817 370
23.71828 392
23.73839 397
23.75851 370
23.77862 380
23.79874 401
23.81885 438
23.83896 432
23.85908 442
23.87919 442
23.8993 455
23.91942 434
23.93953 453
23.95965 428
23.97976 428
23.99987 446
24.01999 415
24.0401 398
24.06021 372
24.08033 378
24.10044 373
24.12056 353
24.14067 395
24.16078 408
24.1809 421
24.20101 437
24.22112 433
24.24124 488
24.26135 474
24.28146 474
24.30158 458
24.32169 417
24.34181 454
24.36192 427
24.38203 408
24.40215 360
24.42226 371
24.44237 360
24.46249 338
24.4826 380
24.50272 327
24.52283 314
24.54294 287
24.56306 294
24.58317 339
24.60328 302
24.6234 311
24.64351 320
24.66362 333
24.68374 335
24.70385 313
24.72397 293
24.74408 328
24.76419 328
24.78431 275
24.80442 296
24.82453 313
24.84465 313
24.86476 315
24.88488 328
24.90499 323
24.9251 294
24.94522 295
24.96533 318
24.98544 302
25.00556 315
25.02567 280
25.04579 334
25.0659 315
25.08601 314
25.10613 334
25.12624 308
25.14635 318
25.16647 322
25.18658 344
25.20669 330
25.22681 325
25.24692 347
25.26704 325
25.28715 310
25.30726 312
25.32738 326
25.34749 333
25.3676 340
25.38772 314
25.40783 299
25.42795 365
25.44806 380
25.46817 362
25.48829 369
25.5084 400
25.52851 395
25.54863 412
25.56874 421
25.58886 397
25.60897 382
25.62908 409
25.6492 447
25.66931 391
25.68942 431
25.70954 472
25.72965 440
25.74976 459
25.76988 489
25.78999 454
25.81011 437
25.83022 453
25.85033 488
25.87045 460
25.89056 424
25.91067 481
25.93079 470
25.9509 455
25.97102 470
25.99113 468
26.01124 496
26.03136 498
26.05147 479
26.07158 535
26.0917 555
26.11181 569
26.13193 546
26.15204 562
26.17215 651
26.19227 673
26.21238 724
26.23249 721
26.25261 812
26.27272 795
26.29283 876
26.31295 1000
26.33306 1080
26.35318 1222
26.37329 1464
26.3934 1776
26.41352 2105
26.43363 2660
26.45374 3488
26.47386 4714
26.49397 6464
26.51409 8683
26.5342 11480
26.55431 14324
26.57443 17316
26.59454 19215
26.61465 20055
26.63477 18693
26.65488 15751
26.67499 12077
26.69511 9325
26.71522 6379
26.73534 4211
26.75545 2512
26.77556 1716
26.79568 1402
26.81579 1181
26.8359 1039
26.85602 1005
26.87613 958
26.89625 829
26.91636 877
26.93647 818
26.95659 675
26.9767 726
26.99681 637
27.01693 636
27.03704 676
27.05716 586
27.07727 604
27.09738 538
27.1175 503
27.13761 523
27.15772 532
27.17784 479
27.19795 506
27.21806 472
27.23818 482
27.25829 492
27.27841 497
27.29852 495
27.31863 491
27.33875 512
27.35886 538
27.37897 558
27.39909 535
27.4192 610
27.43932 585
27.45943 579
27.47954 623
27.49966 600
27.51977 602
27.53988 604
27.56 554
27.58011 603
27.60023 641
27.62034 668
27.64045 664
27.66057 702
27.68068 817
27.70079 863
27.72091 1018
27.74102 1003
27.76113 1065
27.78125 1101
27.80136 1044
27.82148 1024
27.84159 996
27.8617 961
27.88182 912
27.90193 921
27.92204 983
27.94216 908
27.96227 880
27.98239 902
28.0025 802
28.02261 749
28.04273 666
28.06284 580
28.08295 557
28.10307 530
28.12318 489
28.1433 502
28.16341 471
28.18352 487
28.20364 517
28.22375 529
28.24386 497
28.26398 490
28.28409 529
28.3042 506
28.32432 509
28.34443 475
28.36455 385
28.38466 435
28.40477 446
28.42489 391
28.445 356
28.46511 378
28.48523 400
28.50534 388
28.52546 379
28.54557 339
28.56568 369
28.5858 372
28.60591 339
28.62602 352
28.64614 380
28.66625 358
28.68636 363
28.70648 364
28.72659 355
28.74671 374
28.76682 362
28.78693 373
28.80705 347
28.82716 390
28.84727 341
28.86739 346
28.8875 376
28.90762 337
28.92773 337
28.94784 367
28.96796 357
28.98807 337
29.00818 325
29.0283 338
29.04841 363
29.06853 356
29.08864 374
29.10875 355
29.12887 370
29.14898 389
29.16909 409
29.18921 398
29.20932 368
29.22943 448
29.24955 441
29.26966 486
29.28978 501
29.30989 632
29.33 667
29.35012 773
29.37023 760
29.39034 822
29.41046 875
29.43057 821
29.45069 838
29.4708 733
29.49091 754
29.51103 647
29.53114 648
29.55125 551
29.57137 492
29.59148 470
29.6116 425
29.63171 442
29.65182 384
29.67194 444
29.69205 451
29.71216 441
29.73228 415
29.75239 395
29.7725 408
29.79262 427
29.81273 373
29.83285 345
29.85296 384
29.87307 377
29.89319 345
29.9133 360
29.93341 328
29.95353 339
29.97364 333
29.99376 357
30.01387 312
30.03398 346
30.0541 338
30.07421 350
30.09432 330
30.11444 315
30.13455 322
30.15467 321
30.17478 349
30.19489 330
30.21501 360
30.23512 334
30.25523 364
30.27535 370
30.29546 458
30.31557 441
30.33569 420
30.3558 464
30.37592 429
30.39603 421
30.41614 445
30.43626 382
30.45637 438
30.47648 380
30.4966 394
30.51671 345
30.53683 323
30.55694 334
30.57705 316
30.59717 289
30.61728 309
30.63739 329
30.65751 318
30.67762 345
30.69773 352
30.71785 355
30.73796 373
30.75808 370
30.77819 345
30.7983 346
30.81842 375
30.83853 390
30.85864 370
30.87876 340
30.89887 320
30.91899 294
30.9391 331
30.95921 299
30.97933 333
30.99944 292
31.01955 313
31.03967 278
31.05978 272
31.0799 298
31.10001 292
31.12012 290
31.14024 242
31.16035 278
31.18046 286
31.20058 274
31.22069 294
31.2408 334
31.26092 300
31.28103 309
31.30115 341
31.32126 351
31.34137 318
31.36149 331
31.3816 325
31.40171 360
31.42183 301
31.44194 320
31.46206 321
31.48217 298
31.50228 303
31.5224 268
31.54251 321
31.56262 302
31.58274 282
31.60285 273
31.62297 271
31.64308 324
31.66319 265
31.68331 293
31.70342 272
31.72353 290
31.74365 295
31.76376 256
31.78387 292
31.80399 244
31.8241 275
31.84422 281
31.86433 265
31.88444 268
31.90456 241
31.92467 294
31.94478 230
31.9649 289
31.98501 269
32.00513 262
32.02524 268
32.04535 276
32.06547 246
32.08558 272
32.10569 261
32.12581 257
32.14592 231
32.16604 254
32.18615 278
32.20626 277
32.22638 236
32.24649 261
32.2666 296
32.28672 259
32.30683 285
32.32694 262
32.34706 267
32.36717 292
32.38729 301
32.4074 258
32.42751 274
32.44763 302
32.46774 272
32.48785 282
32.50797 240
32.52808 309
32.5482 229
32.56831 304
32.58842 287
32.60854 256
32.62865 254
32.64876 263
32.66888 253
32.68899 270
32.7091 263
32.72922 285
32.74933 234
32.76945 256
32.78956 245
32.80967 245
32.82979 266
32.8499 254
32.87001 246
32.89013 247
32.91024 234
32.93036 251
32.95047 220
32.97058 298
32.9907 246
33.01081 267
33.03092 258
33.05104 259
33.07115 248
33.09127 249
33.11138 253
33.13149 241
33.15161 269
33.17172 246
33.19183 273
33.21195 256
33.23206 256
33.25217 282
33.27229 269
33.2924 232
33.31252 246
33.33263 261
33.35274 244
33.37286 259
33.39297 254
33.41308 233
33.4332 258
33.45331 251
33.47343 274
33.49354 239
33.51365 247
33.53377 249
33.55388 279
33.57399 265
33.59411 285
33.61422 200
33.63434 277
33.65445 217
33.67456 262
33.69468 280
33.71479 309
33.7349 294
33.75502 311
33.77513 319
33.79524 314
33.81536 280
33.83547 284
33.85559 290
33.8757 257
33.89581 265
33.91593 292
33.93604 255
33.95615 253
33.97627 275
33.99638 273
34.0165 281
34.03661 267
34.05672 246
34.07684 275
34.09695 269
34.11706 323
34.13718 302
34.15729 300
34.17741 315
34.19752 305
34.21763 365
34.23775 354
34.25786 329
34.27797 362
34.29809 362
34.3182 392
34.33831 368
34.35843 387
34.37854 416
34.39866 419
34.41877 410
34.43888 450
34.459 462
34.47911 468
34.49922 480
34.51934 485
34.53945 502
34.55957 507
34.57968 484
34.59979 470
34.61991 506
34.64002 480
34.66013 486
34.68025 469
34.70036 446
34.72047 454
34.74059 473
34.7607 445
34.78082 448
34.80093 456
34.82104 461
34.84116 398
34.86127 428
34.88138 419
34.9015 391
34.92161 446
34.94173 405
34.96184 439
34.98195 395
35.00207 392
35.02218 409
35.04229 384
35.06241 385
35.08252 395
35.10264 417
35.12275 416
35.14286 448
35.16298 413
35.18309 407
35.2032 429
35.22332 444
35.24343 461
35.26354 482
35.28366 467
35.30377 451
35.32389 415
35.344 460
35.36411 434
35.38423 404
35.40434 441
35.42445 396
35.44457 376
35.46468 433
35.4848 394
35.50491 395
35.52502 397
35.54514 394
35.56525 394
35.58536 353
35.60548 413
35.62559 348
35.64571 376
35.66582 374
35.68593 353
35.70605 307
35.72616 376
35.74627 333
35.76639 357
35.7865 376
35.80661 333
35.82673 334
35.84684 347
35.86696 325
35.88707 377
35.90718 389
35.9273 390
35.94741 388
35.96752 400
35.98764 412
36.00775 438
36.02787 444
36.04798 414
36.06809 420
36.08821 392
36.10832 422
36.12843 384
36.14855 406
36.16866 413
36.18878 410
36.20889 397
36.229 355
36.24912 405
36.26923 410
36.28934 467
36.30946 494
36.32957 499
36.34968 563
36.3698 686
36.38991 813
36.41003 981
36.43014 1169
36.45025 1324
36.47037 1513
36.49048 1562
36.51059 1579
36.53071 1458
36.55082 1299
36.57094 1164
36.59105 1013
36.61116 890
36.63128 732
36.65139 570
36.6715 474
36.69162 442
36.71173 400
36.73184 341
36.75196 351
36.77207 370
36.79219 377
36.8123 345
36.83241 334
36.85253 293
36.87264 341
36.89275 331
36.91287 315
36.93298 292
36.9531 344
36.97321 364
36.99332 306
37.01344 316
37.03355 320
37.05366 325
37.07378 292
37.09389 297
37.11401 304
37.13412 323
37.15423 338
37.17435 292
37.19446 325
37.21457 304
37.23469 285
37.2548 309
37.27491 324
37.29503 292
37.31514 325
37.33526 269
37.35537 264
37.37548 293
37.3956 299
37.41571 313
37.43582 299
37.45594 307
37.47605 317
37.49617 277
37.51628 315
37.53639 280
37.55651 266
37.57662 336
37.59673 272
37.61685 287
37.63696 326
37.65708 295
37.67719 339
37.6973 317
37.71742 259
37.73753 294
37.75764 297
37.77776 285
37.79787 268
37.81798 276
37.8381 300
37.85821 308
37.87833 257
37.89844 307
37.91855 301
37.93867 277
37.95878 299
37.97889 259
37.99901 304
38.01912 305
38.03924 308
38.05935 274
38.07946 259
38.09958 246
38.11969 267
38.1398 300
38.15992 307
38.18003 277
38.20015 297
38.22026 279
38.24037 259
38.26049 277
38.2806 285
38.30071 259
38.32083 254
38.34094 244
38.36105 284
38.38117 288
38.40128 274
38.4214 284
38.44151 278
38.46162 286
38.48174 266
38.50185 274
38.52196 306
38.54208 267
38.56219 268
38.58231 261
38.60242 276
38.62253 292
38.64265 258
38.66276 277
38.68287 251
38.70299 267
38.7231 234
38.74321 269
38.76333 258
38.78344 241
38.80356 249
38.82367 266
38.84378 240
38.8639 237
38.88401 272
38.90412 232
38.92424 249
38.94435 299
38.96447 263
38.98458 270
39.00469 274
39.02481 272
39.04492 278
39.06503 318
39.08515 302
39.10526 312
39.12538 334
39.14549 362
39.1656 349
39.18572 381
39.20583 401
39.22594 410
39.24606 433
39.26617 549
39.28628 652
39.3064 762
39.32651 854
39.34663 1046
39.36674 1168
39.38685 1419
39.40697 1454
39.42708 1484
39.44719 1399
39.46731 1349
39.48742 1109
39.50754 962
39.52765 950
39.54776 757
39.56788 719
39.58799 584
39.6081 442
39.62822 396
39.64833 363
39.66845 348
39.68856 300
39.70867 339
39.72879 322
39.7489 314
39.76901 322
39.78913 285
39.80924 311
39.82935 312
39.84947 302
39.86958 309
39.8897 273
39.90981 306
39.92992 305
39.95004 272
39.97015 303
39.99026 294
40.01038 277
40.03049 326
40.05061 343
40.07072 374
40.09083 393
40.11095 454
40.13106 497
40.15117 586
40.17129 593
40.1914 708
40.21152 772
40.23163 822
40.25174 838
40.27186 760
40.29197 725
40.31208 618
40.3322 620
40.35231 537
40.37242 502
40.39254 418
40.41265 378
40.43277 314
40.45288 312
40.47299 271
40.49311 260
40.51322 265
40.53333 274
40.55345 288
40.57356 293
40.59368 254
40.61379 272
40.6339 275
40.65402 268
40.67413 260
40.69424 271
40.71436 274
40.73447 250
40.75458 253
40.7747 276
40.79481 264
40.81493 296
40.83504 288
40.85515 258
40.87527 265
40.89538 261
40.91549 270
40.93561 228
40.95572 234
40.97584 282
40.99595 289
41.01606 278
41.03618 273
41.05629 265
41.0764 295
41.09652 277
41.11663 264
41.13675 252
41.15686 276
41.17697 245
41.19709 291
41.2172 241
41.23731 253
41.25743 277
41.27754 277
41.29765 264
41.31777 274
41.33788 242
41.358 263
41.37811 256
41.39822 270
41.41834 264
41.43845 272
41.45856 276
41.47868 256
41.49879 242
41.51891 258
41.53902 241
41.55913 260
41.57925 271
41.59936 280
41.61947 285
41.63959 282
41.6597 285
41.67982 320
41.69993 304
41.72004 289
41.74016 303
41.76027 275
41.78038 299
41.8005 265
41.82061 289
41.84072 261
41.86084 280
41.88095 280
41.90107 282
41.92118 281
41.94129 276
41.96141 277
41.98152 275
42.00163 302
42.02175 283
42.04186 283
42.06198 276
42.08209 323
42.1022 298
42.12232 315
42.14243 327
42.16254 358
42.18266 372
42.20277 398
42.22289 420
42.243 485
42.26311 506
42.28323 585
42.30334 661
42.32345 833
42.34357 880
42.36368 983
42.38379 1122
42.40391 1099
42.42402 1034
42.44414 967
42.46425 879
42.48436 731
42.50448 685
42.52459 618
42.5447 584
42.56482 467
42.58493 397
42.60505 387
42.62516 328
42.64527 335
42.66539 332
42.6855 340
42.70561 323
42.72573 335
42.74584 334
42.76595 332
42.78607 341
42.80618 318
42.8263 328
42.84641 319
42.86652 331
42.88664 332
42.90675 312
42.92686 295
42.94698 286
42.96709 289
42.98721 309
43.00732 289
43.02743 249
43.04755 271
43.06766 285
43.08777 331
43.10789 315
43.128 299
43.14812 292
43.16823 327
43.18834 290
43.20846 310
43.22857 339
43.24868 282
43.2688 303
43.28891 299
43.30902 293
43.32914 309
43.34925 287
43.36937 281
43.38948 244
43.40959 258
43.42971 239
43.44982 243
43.46993 241
43.49005 239
43.51016 225
43.53028 257
43.55039 236
43.5705 225
43.59062 258
43.61073 236
43.63084 242
43.65096 238
43.67107 237
43.69119 217
43.7113 230
43.73141 242
43.75153 219
43.77164 231
43.79175 235
43.81187 236
43.83198 195
43.85209 237
43.87221 233
43.89232 218
43.91244 216
43.93255 232
43.95266 215
43.97278 238
43.99289 231
44.013 217
44.03312 240
44.05323 264
44.07335 244
44.09346 225
44.11357 230
44.13369 235
44.1538 247
44.17391 221
44.19403 211
44.21414 249
44.23426 212
44.25437 234
44.27448 221
44.2946 222
44.31471 240
44.33482 237
44.35494 205
44.37505 217
44.39516 224
44.41528 216
44.43539 223
44.45551 215
44.47562 243
44.49573 222
44.51585 215
44.53596 231
44.55607 230
44.57619 239
44.5963 207
44.61642 227
44.63653 218
44.65664 206
44.67676 213
44.69687 221
44.71698 246
44.7371 231
44.75721 230
44.77732 241
44.79744 227
44.81755 236
44.83767 246
44.85778 244
44.87789 243
44.89801 238
44.91812 214
44.93823 249
44.95835 212
44.97846 247
44.99858 245
45.01869 234
45.0388 231
45.05892 240
45.07903 247
45.09914 266
45.11926 232
45.13937 224
45.15949 273
45.1796 237
45.19971 235
45.21983 236
45.23994 244
45.26005 232
45.28017 251
45.30028 233
45.32039 246
45.34051 213
45.36062 262
45.38074 221
45.40085 255
45.42096 251
45.44108 283
45.46119 263
45.4813 290
45.50142 264
45.52153 261
45.54165 275
45.56176 359
45.58187 345
45.60199 423
45.6221 478
45.64221 453
45.66233 598
45.68244 595
45.70256 721
45.72267 779
45.74278 789
45.7629 696
45.78301 695
45.80312 566
45.82324 530
45.84335 490
45.86346 462
45.88358 459
45.90369 417
45.92381 360
45.94392 304
45.96403 292
45.98415 238
46.00426 248
46.02437 226
46.04449 239
46.0646 233
46.08472 248
46.10483 239
46.12494 241
46.14506 201
46.16517 260
46.18528 225
46.2054 235
46.22551 220
46.24563 224
46.26574 223
46.28585 229
46.30597 229
46.32608 200
46.34619 231
46.36631 218
46.38642 219
46.40653 236
46.42665 228
46.44676 184
46.46688 200
46.48699 187
46.5071 213
46.52722 230
46.54733 210
46.56744 223
46.58756 240
46.60767 206
46.62779 210
46.6479 222
46.66801 209
46.68813 214
46.70824 201
46.72835 177
46.74847 222
46.76858 218
46.78869 224
46.80881 221
46.82892 247
46.84904 213
46.86915 220
46.88926 218
46.90938 245
46.92949 225
46.9496 237
46.96972 253
46.98983 225
47.00995 212
47.03006 234
47.05017 248
47.07029 235
47.0904 265
47.11051 248
47.13063 235
47.15074 246
47.17086 220
47.19097 252
47.21108 242
47.2312 266
47.25131 249
47.27142 247
47.29154 266
47.31165 262
47.33176 253
47.35188 284
47.37199 262
47.39211 285
47.41222 262
47.43233 274
47.45245 281
47.47256 304
47.49267 332
47.51279 308
47.5329 310
47.55302 280
47.57313 335
47.59324 294
47.61336 233
47.63347 256
47.65358 250
47.6737 258
47.69381 260
47.71393 237
47.73404 254
47.75415 238
47.77427 254
47.79438 243
47.81449 203
47.83461 226
47.85472 220
47.87483 228
47.89495 210
47.91506 224
47.93518 211
47.95529 210
47.9754 220
47.99552 207
48.01563 210
48.03574 218
48.05586 211
48.07597 201
48.09609 230
48.1162 200
48.13631 260
48.15643 227
48.17654 233
48.19665 237
48.21677 238
48.23688 247
48.257 263
48.27711 280
48.29722 261
48.31734 277
48.33745 252
48.35756 273
48.37768 293
48.39779 296
48.4179 282
48.43802 257
48.45813 288
48.47825 295
48.49836 316
48.51847 308
48.53859 285
48.5587 323
48.57881 294
48.59893 319
48.61904 315
48.63916 287
48.65927 260
48.67938 277
48.6995 310
48.71961 249
48.73972 264
48.75984 255
48.77995 237
48.80006 250
48.82018 247
48.84029 248
48.86041 268
48.88052 222
48.90063 243
48.92075 235
48.94086 227
48.96097 212
48.98109 232
49.0012 244
49.02132 235
49.04143 273
49.06154 233
49.08166 233
49.10177 278
49.12188 285
49.142 259
49.16211 258
49.18223 239
49.20234 225
49.22245 285
49.24257 245
49.26268 224
49.28279 246
49.30291 240
49.32302 254
49.34313 242
49.36325 227
49.38336 213
49.40348 240
49.42359 238
49.4437 243
49.46382 256
49.48393 237
49.50404 251
49.52416 248
49.54427 248
49.56439 265
49.5845 253
49.60461 239
49.62473 298
49.64484 288
49.66495 319
49.68507 287
49.70518 315
49.7253 345
49.74541 358
49.76552 368
49.78564 390
49.80575 402
49.82586 438
49.84598 470
49.86609 479
49.8862 547
49.90632 654
49.92643 747
49.94655 892
49.96666 1042
49.98677 1247
50.00689 1428
50.027 1661
50.04711 1949
50.06723 1919
50.08734 2015
50.10746 1890
50.12757 1740
50.14768 1481
50.1678 1269
50.18791 1271
50.20802 1148
50.22814 1064
50.24825 928
50.26837 711
50.28848 586
50.30859 460
50.32871 374
50.34882 349
50.36893 288
50.38905 269
50.40916 299
50.42927 307
50.44939 270
50.4695 286
50.48962 314
50.50973 309
50.52984 288
50.54996 292
50.57007 297
50.59018 321
50.6103 289
50.63041 304
50.65053 313
50.67064 301
50.69075 259
50.71087 272
50.73098 255
50.75109 260
50.77121 251
50.79132 258
50.81143 220
50.83155 236
50.85166 202
50.87178 209
50.89189 219
50.912 221
50.93212 228
50.95223 232
50.97234 204
50.99246 225
51.01257 234
51.03269 211
51.0528 216
51.07291 239
51.09303 212
51.11314 239
51.13325 204
51.15337 239
51.17348 251
51.1936 206
51.21371 235
51.23382 240
51.25394 244
51.27405 266
51.29416 243
51.31428 281
51.33439 265
51.3545 236
51.37462 247
51.39473 240
51.41485 255
51.43496 238
51.45507 238
51.47519 217
51.4953 231
51.51541 229
51.53553 216
51.55564 204
51.57576 214
51.59587 213
51.61598 203
51.6361 232
51.65621 190
51.67632 186
51.69644 167
51.71655 222
51.73667 203
51.75678 198
51.77689 195
51.79701 208
51.81712 210
51.83723 210
51.85735 183
51.87746 209
51.89757 202
51.91769 217
51.9378 211
51.95792 219
51.97803 218
51.99814 191
52.01826 216
52.03837 217
52.05848 183
52.0786 212
52.09871 220
52.11883 212
52.13894 209
52.15905 236
52.17917 184
52.19928 218
52.21939 206
52.23951 219
52.25962 239
52.27974 226
52.29985 223
52.31996 207
52.34008 193
52.36019 223
52.3803 214
52.40042 207
52.42053 210
52.44064 228
52.46076 221
52.48087 205
52.50099 199
52.5211 207
52.54121 246
52.56133 210
52.58144 216
52.60155 230
52.62167 220
52.64178 232
52.6619 230
52.68201 179
52.70212 214
52.72224 224
52.74235 213
52.76246 220
52.78258 238
52.80269 237
52.8228 218
52.84292 200
52.86303 220
52.88315 238
52.90326 218
52.92337 237
52.94349 241
52.9636 232
52.98371 250
53.00383 266
53.02394 265
53.04406 247
53.06417 244
53.08428 236
53.1044 245
53.12451 222
53.14462 230
53.16474 243
53.18485 243
53.20497 263
53.22508 215
53.24519 251
53.26531 238
53.28542 254
53.30553 241
53.32565 208
53.34576 221
53.36587 216
53.38599 205
53.4061 244
53.42622 217
53.44633 238
53.46644 233
53.48656 260
53.50667 236
53.52678 239
53.5469 245
53.56701 256
53.58713 273
53.60724 221
53.62735 223
53.64747 241
53.66758 250
53.68769 240
53.70781 270
53.72792 226
53.74804 236
53.76815 198
53.78826 265
53.80838 255
53.82849 236
53.8486 205
53.86872 225
53.88883 262
53.90894 228
53.92906 248
53.94917 228
53.96929 202
53.9894 262
54.00951 222
54.02963 250
54.04974 227
54.06985 234
54.08997 221
54.11008 238
54.1302 231
54.15031 203
54.17042 237
54.19054 234
54.21065 245
54.23076 256
54.25088 259
54.27099 245
54.29111 236
54.31122 233
54.33133 247
54.35145 261
54.37156 221
54.39167 261
54.41179 247
54.4319 263
54.45201 265
54.47213 262
54.49224 254
54.51236 279
54.53247 272
54.55258 285
54.5727 315
54.59281 309
54.61292 341
54.63304 364
54.65315 364
54.67327 415
54.69338 440
54.71349 503
54.73361 568
54.75372 602
54.77383 722
54.79395 745
54.81406 787
54.83417 739
54.85429 718
54.8744 637
54.89452 567
54.91463 595
54.93474 512
54.95486 531
54.97497 510
54.99508 450
55.0152 388
55.03531 392
55.05543 355
55.07554 324
55.09565 292
55.11577 324
55.13588 321
55.15599 337
55.17611 379
55.19622 417
55.21634 423
55.23645 455
55.25656 452
55.27668 440
55.29679 417
55.3169 427
55.33702 368
55.35713 367
55.37724 368
55.39736 341
55.41747 352
55.43759 359
55.4577 317
55.47781 315
55.49793 258
55.51804 223
55.53815 227
55.55827 272
55.57838 219
55.5985 223
55.61861 230
55.63872 197
55.65884 207
55.67895 247
55.69906 243
55.71918 224
55.73929 234
55.75941 193
55.77952 204
55.79963 203
55.81975 228
55.83986 183
55.85997 226
55.88009 231
55.9002 207
55.92031 231
55.94043 217
55.96054 221
55.98066 229
56.00077 222
56.02088 246
56.041 215
56.06111 225
56.08122 236
56.10134 246
56.12145 230
56.14157 181
56.16168 240
56.18179 223
56.20191 230
56.22202 249
56.24213 219
56.26225 221
56.28236 236
56.30248 237
56.32259 197
56.3427 193
56.36282 208
56.38293 235
56.40304 213
56.42316 206
56.44327 221
56.46338 234
56.4835 224
56.50361 229
56.52373 210
56.54384 250
56.56395 240
56.58407 228
56.60418 227
56.62429 233
56.64441 225
56.66452 240
56.68464 226
56.70475 221
56.72486 233
56.74498 240
56.76509 229
56.7852 225
56.80532 220
56.82543 223
56.84554 237
56.86566 240
56.88577 194
56.90589 226
56.926 233
56.94611 250
56.96623 228
56.98634 195
57.00645 208
57.02657 254
57.04668 230
57.0668 245
57.08691 245
57.10702 242
57.12714 260
57.14725 277
57.16736 269
57.18748 281
57.20759 278
57.22771 272
57.24782 240
57.26793 244
57.28805 274
57.30816 264
57.32827 268
57.34839 258
57.3685 276
57.38861 265
57.40873 239
57.42884 253
57.44896 262
57.46907 244
57.48918 283
57.5093 238
57.52941 269
57.54952 239
57.56964 250
57.58975 220
57.60987 266
57.62998 229
57.65009 237
57.67021 215
57.69032 215
57.71043 233
57.73055 202
57.75066 204
57.77078 207
57.79089 202
57.811 239
57.83112 197
57.85123 243
57.87134 214
57.89146 222
57.91157 213
57.93168 202
57.9518 241
57.97191 196
57.99203 220
58.01214 191
58.03225 202
58.05237 204
58.07248 222
58.09259 203
58.11271 187
58.13282 210
58.15294 217
58.17305 185
58.19316 199
58.21328 206
58.23339 199
58.2535 190
58.27362 200
58.29373 196
58.31385 197
58.33396 207
58.35407 213
58.37419 203
58.3943 208
58.41441 192
58.43453 228
58.45464 205
58.47475 216
58.49487 223
58.51498 226
58.5351 218
58.55521 211
58.57532 202
58.59544 221
58.61555 210
58.63566 218
58.65578 206
58.67589 233
58.69601 217
58.71612 238
58.73623 209
58.75635 224
58.77646 218
58.79657 179
58.81669 243
58.8368 211
58.85691 200
58.87703 217
58.89714 189
58.91726 219
58.93737 204
58.95748 236
58.9776 190
58.99771 204
59.01782 212
59.03794 223
59.05805 228
59.07817 208
59.09828 236
59.11839 219
59.13851 221
59.15862 213
59.17873 237
59.19885 200
59.21896 215
59.23908 211
59.25919 229
59.2793 233
59.29942 229
59.31953 240
59.33964 220
59.35976 252
59.37987 242
59.39998 243
59.4201 232
59.44021 248
59.46033 274
59.48044 265
59.50055 265
59.52067 280
59.54078 268
59.56089 332
59.58101 322
59.60112 343
59.62124 344
59.64135 377
59.66146 403
59.68158 429
59.70169 448
59.7218 529
59.74192 612
59.76203 726
59.78215 774
59.80226 942
59.82237 1021
59.84249 1179
59.8626 1368
59.88271 1354
59.90283 1303
59.92294 1287
59.94305 1096
59.96317 1020
59.98328 904
60.0034 818
60.02351 773
60.04362 806
60.06374 782
60.08385 712
60.10396 608
60.12408 525
60.14419 439
60.16431 332
60.18442 303
60.20453 284
60.22465 269
60.24476 276
60.26487 283
60.28499 260
60.3051 246
60.32522 242
60.34533 230
60.36544 237
60.38556 230
60.40567 240
60.42578 229
60.4459 235
60.46601 242
60.48612 206
60.50624 251
60.52635 242
60.54647 220
60.56658 231
60.58669 238
60.60681 211
60.62692 272
60.64703 235
60.66715 228
60.68726 227
60.70738 196
60.72749 233
60.7476 215
60.76772 236
60.78783 235
60.80794 247
60.82806 233
60.84817 240
60.86828 239
60.8884 229
60.90851 263
60.92863 243
60.94874 233
60.96885 222
60.98897 233
61.00908 245
61.02919 222
61.04931 256
61.06942 238
61.08954 276
61.10965 270
61.12976 276
61.14988 261
61.16999 254
61.1901 272
61.21022 251
61.23033 271
61.25045 279
61.27056 257
61.29067 244
61.31079 288
61.3309 273
61.35101 290
61.37113 249
61.39124 265
61.41135 280
61.43147 276
61.45158 302
61.4717 277
61.49181 299
61.51192 271
61.53204 277
61.55215 270
61.57226 302
61.59238 287
61.61249 288
61.63261 281
61.65272 266
61.67283 263
61.69295 275
61.71306 266
61.73317 251
61.75329 254
61.7734 265
61.79352 266
61.81363 286
61.83374 271
61.85386 290
61.87397 243
61.89408 281
61.9142 271
61.93431 265
61.95442 244
61.97454 260
61.99465 247
62.01477 251
62.03488 247
62.05499 260
62.07511 239
62.09522 250
62.11533 219
62.13545 231
62.15556 237
62.17568 244
62.19579 234
62.2159 219
62.23602 221
62.25613 232
62.27624 228
62.29636 225
62.31647 218
62.33659 227
62.3567 215
62.37681 205
62.39693 229
62.41704 205
62.43715 224
62.45727 225
62.47738 210
62.49749 227
62.51761 188
62.53772 200
62.55784 209
62.57795 201
62.59806 212
62.61818 191
62.63829 224
62.6584 224
62.67852 213
62.69863 186
62.71875 190
62.73886 221
62.75897 200
62.77909 196
62.7992 206
62.81931 215
62.83943 193
62.85954 220
62.87965 226
62.89977 223
62.91988 224
62.94 208
62.96011 209
62.98022 189
63.00034 213
63.02045 200
63.04056 220
63.06068 213
63.08079 213
63.10091 191
63.12102 202
63.14113 225
63.16125 191
63.18136 189
63.20147 209
63.22159 200
63.2417 225
63.26182 226
63.28193 200
63.30204 200
63.32216 198
63.34227 192
63.36238 207
63.3825 218
63.40261 198
63.42272 187
63.44284 193
63.46295 199
63.48307 201
63.50318 174
63.52329 193
63.54341 167
63.56352 202
63.58363 207
63.60375 226
63.62386 200
63.64398 204
63.66409 258
63.6842 238
63.70432 240
63.72443 218
63.74454 225
63.76466 238
63.78477 251
63.80489 275
63.825 285
63.84511 306
63.86523 323
63.88534 341
63.90545 373
63.92557 385
63.94568 387
63.96579 387
63.98591 378
64.00602 371
64.02614 365
64.04625 344
64.06636 351
64.08648 314
64.10659 325
64.1267 289
64.14682 303
64.16693 270
64.18705 268
64.20716 248
64.22727 217
64.24739 232
64.2675 215
64.28761 203
64.30773 211
64.32784 209
64.34796 188
64.36807 189
64.38818 211
64.4083 191
64.42841 204
64.44852 197
64.46864 175
64.48875 211
64.50886 188
64.52898 180
64.54909 181
64.56921 173
64.58932 212
64.60943 188
64.62955 200
64.64966 207
64.66977 200
64.68989 200
64.71 213
64.73012 173
64.75023 197
64.77034 242
64.79046 207
64.81057 185
64.83068 215
64.8508 202
64.87091 232
64.89102 201
64.91114 206
64.93125 186
64.95137 220
64.97148 195
64.99159 218
65.01171 219
65.03182 199
65.05193 215
65.07205 232
65.09216 196
65.11228 207
65.13239 210
65.1525 206
65.17262 196
65.19273 183
65.21284 193
65.23296 239
65.25307 209
65.27319 188
65.2933 196
65.31341 210
65.33353 204
65.35364 194
65.37375 194
65.39387 201
65.41398 194
65.43409 226
65.45421 202
65.47432 207
65.49444 205
65.51455 199
65.53466 234
65.55478 202
65.57489 218
65.595 208
65.61512 230
65.63523 229
65.65535 235
65.67546 245
65.69557 249
65.71569 228
65.7358 236
65.75591 245
65.77603 218
65.79614 220
65.81626 202
65.83637 199
65.85648 217
65.8766 218
65.89671 213
65.91682 214
65.93694 180
65.95705 216
65.97716 193
65.99728 215
66.01739 188
66.03751 215
66.05762 186
66.07773 190
66.09785 197
66.11796 189
66.13807 207
66.15819 191
66.1783 184
66.19842 191
66.21853 192
66.23864 198
66.25876 183
66.27887 200
66.29898 191
66.3191 178
66.33921 200
66.35933 206
66.37944 159
66.39955 202
66.41967 216
66.43978 225
66.45989 186
66.48001 174
66.50012 210
66.52023 176
66.54035 183
66.56046 206
66.58058 216
66.60069 165
66.6208 185
66.64092 203
66.66103 204
66.68114 217
66.70126 189
66.72137 184
66.74149 192
66.7616 184
66.78171 222
66.80183 197
66.82194 171
66.84205 201
66.86217 193
66.88228 214
66.90239 202
66.92251 217
66.94262 185
66.96274 192
66.98285 224
67.00296 197
67.02308 197
67.04319 212
67.0633 227
67.08342 199
67.10353 202
67.12365 188
67.14376 202
67.16387 192
67.18399 230
67.2041 193
67.22421 211
67.24433 204
67.26444 186
67.28456 243
67.30467 223
67.32478 239
67.3449 214
67.36501 264
67.38512 270
67.40524 249
67.42535 278
67.44546 312
67.46558 303
67.48569 347
67.50581 400
67.52592 411
67.54603 488
67.56615 536
67.58626 621
67.60637 698
67.62649 762
67.6466 826
67.66672 900
67.68683 849
67.70694 759
67.72706 784
67.74717 662
67.76728 612
67.7874 590
67.80751 581
67.82763 642
67.84774 690
67.86785 646
67.88797 687
67.90808 666
67.92819 728
67.94831 696
67.96842 728
67.98853 785
68.00865 870
68.02876 1010
68.04888 1009
68.06899 1071
68.0891 1102
68.10922 1051
68.12933 1012
68.14944 948
68.16956 964
68.18967 886
68.20979 956
68.2299 1018
68.25001 1007
68.27013 949
68.29024 955
68.31035 779
68.33047 728
68.35058 574
68.3707 512
68.39081 514
68.41092 499
68.43104 467
68.45115 413
68.47126 420
68.49138 380
68.51149 331
68.5316 264
68.55172 259
68.57183 231
68.59195 229
68.61206 215
68.63217 209
68.65229 233
68.6724 235
68.69251 207
68.71263 222
68.73274 175
68.75286 194
68.77297 186
68.79308 194
68.8132 205
68.83331 217
68.85342 228
68.87354 207
68.89365 195
68.91376 195
68.93388 186
68.95399 177
68.97411 197
68.99422 185
69.01433 224
69.03445 168
69.05456 200
69.07467 200
69.09479 193
69.1149 179
69.13502 202
69.15513 216
69.17524 190
69.19536 226
69.21547 229
69.23558 205
69.2557 188
69.27581 181
69.29593 188
69.31604 206
69.33615 211
69.35627 200
69.37638 214
69.39649 221
69.41661 186
69.43672 184
69.45683 192
69.47695 202
69.49706 186
69.51718 194
69.53729 188
69.5574 182
69.57752 177
69.59763 178
69.61774 191
69.63786 182
69.65797 183
69.67809 190
69.6982 219
69.71831 191
69.73843 210
69.75854 184
69.77865 193
69.79877 185
69.81888 179
69.839 185
69.85911 206
69.87922 180
69.89934 190
69.91945 193
69.93956 202
69.95968 182
69.97979 192
69.9999 198
70.02002 196
70.04013 201
70.06025 158
70.08036 192
70.10047 171
70.12059 184
70.1407 172
70.16081 188
70.18093 178
70.20104 173
70.22116 186
70.24127 183
70.26138 161
70.2815 183
70.30161 185
70.32172 187
70.34184 177
70.36195 173
70.38207 187
70.40218 176
70.42229 181
70.44241 150
70.46252 175
70.48263 199
70.50275 181
70.52286 155
70.54297 196
70.56309 193
70.5832 172
70.60332 180
70.62343 175
70.64354 193
70.66366 190
70.68377 181
70.70388 179
70.724 162
70.74411 194
70.76423 189
70.78434 165
70.80445 179
70.82457 181
70.84468 184
70.86479 162
70.88491 191
70.90502 154
70.92513 166
70.94525 193
70.96536 183
70.98548 183
71.00559 180
71.0257 171
71.04582 192
71.06593 186
71.08604 187
71.10616 182
71.12627 187
71.14639 192
71.1665 178
71.18661 174
71.20673 171
71.22684 188
71.24695 174
71.26707 173
71.28718 158
71.3073 183
71.32741 200
71.34752 159
71.36764 181
71.38775 184
71.40786 180
71.42798 187
71.44809 182
71.4682 192
71.48832 179
71.50843 167
71.52855 175
71.54866 187
71.56877 171
71.58889 166
71.609 174
71.62911 184
71.64923 176
71.66934 186
71.68946 205
71.70957 171
71.72968 170
71.7498 157
71.76991 174
71.79002 181
71.81014 182
71.83025 167
71.85037 179
71.87048 203
71.89059 179
71.91071 181
71.93082 183
71.95093 200
71.97105 175
71.99116 177
72.01127 193
72.03139 175
72.0515 212
72.07162 183
72.09173 191
72.11184 166
72.13196 180
72.15207 201
72.17218 211
72.1923 181
72.21241 200
72.23253 188
72.25264 187
72.27275 210
72.29287 193
72.31298 172
72.33309 182
72.35321 190
72.37332 193
72.39344 209
72.41355 205
72.43366 185
72.45378 197
72.47389 213
72.494 213
72.51412 154
72.53423 201
72.55434 190
72.57446 214
72.59457 206
72.61469 218
72.6348 199
72.65491 218
72.67503 172
72.69514 198
72.71525 217
72.73537 178
72.75548 213
72.7756 193
72.79571 184
72.81582 206
72.83594 236
72.85605 205
72.87616 221
72.89628 193
72.91639 196
72.9365 195
72.95662 224
72.97673 217
72.99685 225
73.01696 227
73.03707 211
73.05719 217
73.0773 211
73.09741 223
73.11753 235
73.13764 217
73.15776 246
73.17787 231
73.19798 211
73.2181 272
73.23821 275
73.25832 276
73.27844 315
73.29855 351
73.31867 334
73.33878 380
73.35889 384
73.37901 373
73.39912 404
73.41923 400
73.43935 379
73.45946 363
73.47957 306
73.49969 312
73.5198 279
73.53992 296
73.56003 278
73.58014 301
73.60026 277
73.62037 311
73.64048 298
73.6606 265
73.68071 280
73.70083 223
73.72094 244
73.74105 194
73.76117 214
73.78128 203
73.80139 220
73.82151 203
73.84162 229
73.86174 186
73.88185 202
73.90196 215
73.92208 207
73.94219 193
73.9623 209
73.98242 172
74.00253 173
74.02264 192
74.04276 181
74.06287 194
74.08299 184
74.1031 201
74.12321 170
74.14333 193
74.16344 163
74.18355 198
74.20367 183
74.22378 191
74.2439 191
74.26401 172
74.28412 173
74.30424 168
74.32435 179
74.34446 194
74.36458 202
74.38469 176
74.40481 188
74.42492 174
74.44503 150
74.46515 163
74.48526 172
74.50537 232
74.52549 188
74.5456 197
74.56571 162
74.58583 191
74.60594 187
74.62606 178
74.64617 169
74.66628 170
74.6864 208
74.70651 199
74.72662 197
74.74674 189
74.76685 201
74.78697 185
74.80708 166
74.82719 208
74.84731 185
74.86742 197
74.88753 191
74.90765 206
74.92776 197
74.94787 189
74.96799 225
74.9881 197
75.00822 190
