3.00117 20643
3.02128 20172
3.0414 19604
3.06151 18968
3.08162 18482
3.10174 18467
3.12185 17365
3.14197 17399
3.16208 16451
3.18219 16455
3.20231 15814
3.22242 14948
3.24253 14918
3.26265 14433
3.28276 13921
3.30288 13714
3.32299 13250
3.3431 12525
3.36322 12234
3.38333 11987
3.40344 11672
3.42356 11141
3.44367 11074
3.46379 10413
3.4839 10184
3.50401 9930
3.52413 9605
3.54424 9146
3.56435 9016
3.58447 8788
3.60458 8488
3.62469 8097
3.64481 7844
3.66492 7410
3.68504 7102
3.70515 7074
3.72526 6455
3.74538 6652
3.76549 6386
3.7856 6065
3.80572 6045
3.82583 5655
3.84595 5474
3.86606 5303
3.88617 5114
3.90629 4989
3.9264 4663
3.94651 4541
3.96663 4241
3.98674 4205
4.00686 4219
4.02697 3837
4.04708 3775
4.0672 3645
4.08731 3515
4.10742 3595
4.12754 3185
4.14765 3262
4.16776 3133
4.18788 3119
4.20799 3209
4.22811 2854
4.24822 2884
4.26833 2886
4.28845 2697
4.30856 2742
4.32867 2574
4.34879 2542
4.3689 2595
4.38902 2469
4.40913 2448
4.42924 2261
4.44936 2383
4.46947 2296
4.48958 2266
4.5097 2261
4.52981 2145
4.54992 2130
4.57004 2101
4.59015 2080
4.61027 2190
4.63038 1940
4.65049 2089
4.67061 2073
4.69072 2020
4.71083 1941
4.73095 1979
4.75106 1810
4.77118 1930
4.79129 1899
4.8114 1834
4.83152 1821
4.85163 1730
4.87174 1818
4.89186 1749
4.91197 1826
4.93209 1757
4.9522 1742
4.97231 1740
4.99243 1660
5.01254 1720
5.03265 1671
5.05277 1629
5.07288 1706
5.09299 1724
5.11311 1679
5.13322 1577
5.15334 1625
5.17345 1646
5.19356 1659
5.21368 1616
5.23379 1588
5.2539 1558
5.27402 1614
5.29413 1637
5.31425 1555
5.33436 1502
5.35447 1531
5.37459 1536
5.3947 1518
5.41481 1495
5.43493 1516
5.45504 1513
5.47516 1458
5.49527 1439
5.51538 1467
5.5355 1482
5.55561 1528
5.57572 1522
5.59584 1421
5.61595 1516
5.63606 1411
5.65618 1510
5.67629 1493
5.69641 1420
5.71652 1460
5.73663 1455
5.75675 1468
5.77686 1474
5.79697 1453
5.81709 1528
5.8372 1430
5.85732 1482
5.87743 1476
5.89754 1369
5.91766 1511
5.93777 1431
5.95788 1461
5.978 1371
5.99811 1400
6.01823 1412
6.03834 1396
6.05845 1351
6.07857 1364
6.09868 1372
6.11879 1342
6.13891 1474
6.15902 1368
6.17913 1318
6.19925 1375
6.21936 1324
6.23948 1297
6.25959 1324
6.2797 1305
6.29982 1268
6.31993 1204
6.34004 1245
6.36016 1191
6.38027 1235
6.40039 1233
6.4205 1190
6.44061 1129
6.46073 1183
6.48084 1223
6.50095 1202
6.52107 1103
6.54118 1180
6.56129 1208
6.58141 1121
6.60152 1113
6.62164 1107
6.64175 1087
6.66186 1126
6.68198 1043
6.70209 1025
6.7222 1068
6.74232 1098
6.76243 1022
6.78255 976
6.80266 982
6.82277 998
6.84289 1060
6.863 1039
6.88311 975
6.90323 979
6.92334 972
6.94346 963
6.96357 958
6.98368 897
7.0038 945
7.02391 935
7.04402 870
7.06414 913
7.08425 911
7.10436 903
7.12448 895
7.14459 943
7.16471 879
7.18482 944
7.20493 864
7.22505 898
7.24516 873
7.26527 796
7.28539 850
7.3055 874
7.32562 835
7.34573 808
7.36584 848
7.38596 825
7.40607 758
7.42618 747
7.4463 778
7.46641 755
7.48653 784
7.50664 780
7.52675 764
7.54687 780
7.56698 778
7.58709 771
7.60721 772
7.62732 782
7.64743 722
7.66755 796
7.68766 714
7.70778 633
7.72789 699
7.748 736
7.76812 660
7.78823 691
7.80834 725
7.82846 687
7.84857 728
7.86869 698
7.8888 673
7.90891 649
7.92903 629
7.94914 688
7.96925 696
7.98937 641
8.00948 709
8.0296 665
8.04971 659
8.06982 712
8.08994 646
8.11005 699
8.13016 662
8.15028 711
8.17039 645
8.1905 647
8.21062 661
8.23073 631
8.25085 665
8.27096 638
8.29107 668
8.31119 632
8.3313 681
8.35141 665
8.37153 617
8.39164 548
8.41176 632
8.43187 658
8.45198 638
8.4721 636
8.49221 606
8.51232 611
8.53244 594
8.55255 640
8.57266 626
8.59278 623
8.61289 641
8.63301 643
8.65312 604
8.67323 655
8.69335 674
8.71346 656
8.73357 607
8.75369 627
8.7738 638
8.79392 667
8.81403 615
8.83414 610
8.85426 573
8.87437 621
8.89448 624
8.9146 619
8.93471 590
8.95483 603
8.97494 578
8.99505 574
9.01517 512
9.03528 615
9.05539 533
9.07551 539
9.09562 591
9.11573 536
9.13585 558
9.15596 540
9.17608 564
9.19619 515
9.2163 509
9.23642 563
9.25653 509
9.27664 555
9.29676 500
9.31687 507
9.33699 485
9.3571 527
9.37721 504
9.39733 485
9.41744 513
9.43755 519
9.45767 518
9.47778 545
9.4979 526
9.51801 526
9.53812 529
9.55824 487
9.57835 539
9.59846 503
9.61858 501
9.63869 502
9.6588 504
9.67892 500
9.69903 503
9.71915 504
9.73926 481
9.75937 506
9.77949 490
9.7996 472
9.81971 514
9.83983 459
9.85994 476
9.88006 506
9.90017 495
9.92028 518
9.9404 496
9.96051 488
9.98062 436
10.00074 499
10.02085 468
10.04097 485
10.06108 497
10.08119 451
10.10131 482
10.12142 460
10.14153 501
10.16165 468
10.18176 462
10.20187 466
10.22199 502
10.2421 436
10.26222 496
10.28233 488
10.30244 509
10.32256 450
10.34267 476
10.36278 485
10.3829 443
10.40301 464
10.42313 486
10.44324 494
10.46335 468
10.48347 473
10.50358 483
10.52369 528
10.54381 459
10.56392 450
10.58403 455
10.60415 464
10.62426 520
10.64438 534
10.66449 488
10.6846 493
10.70472 458
10.72483 468
10.74494 488
10.76506 488
10.78517 471
10.80529 540
10.8254 490
10.84551 493
10.86563 484
10.88574 490
10.90585 451
10.92597 476
10.94608 492
10.9662 467
10.98631 552
11.00642 490
11.02654 523
11.04665 561
11.06676 483
11.08688 473
11.10699 496
11.1271 496
11.14722 491
11.16733 557
11.18745 527
11.20756 490
11.22767 467
11.24779 493
11.2679 441
11.28801 491
11.30813 484
11.32824 498
11.34836 494
11.36847 545
11.38858 533
11.4087 518
11.42881 492
11.44892 512
11.46904 529
11.48915 518
11.50927 500
11.52938 506
11.54949 521
11.56961 553
11.58972 542
11.60983 574
11.62995 579
11.65006 586
11.67017 589
11.69029 594
11.7104 603
11.73052 551
11.75063 548
11.77074 588
11.79086 592
11.81097 582
11.83108 609
11.8512 618
11.87131 632
11.89143 638
11.91154 633
11.93165 671
11.95177 690
11.97188 657
11.99199 679
12.01211 670
12.03222 716
12.05234 632
12.07245 696
12.09256 685
12.11268 761
12.13279 704
12.1529 777
12.17302 727
12.19313 779
12.21324 731
12.23336 782
12.25347 801
12.27359 796
12.2937 757
12.31381 706
12.33393 725
12.35404 744
12.37415 682
12.39427 732
12.41438 652
12.4345 641
12.45461 627
12.47472 641
12.49484 591
12.51495 578
12.53506 569
12.55518 546
12.57529 586
12.5954 526
12.61552 548
12.63563 522
12.65575 497
12.67586 511
12.69597 456
12.71609 514
12.7362 491
12.75631 535
12.77643 447
12.79654 487
12.81666 430
12.83677 530
12.85688 468
12.877 477
12.89711 436
12.91722 471
12.93734 448
12.95745 469
12.97757 464
12.99768 425
13.01779 408
13.03791 413
13.05802 481
13.07813 454
13.09825 454
13.11836 413
13.13847 454
13.15859 459
13.1787 422
13.19882 429
13.21893 466
13.23904 433
13.25916 401
13.27927 426
13.29938 403
13.3195 418
13.33961 415
13.35973 417
13.37984 415
13.39995 432
13.42007 403
13.44018 406
13.46029 395
13.48041 398
13.50052 427
13.52064 400
13.54075 449
13.56086 415
13.58098 423
13.60109 395
13.6212 399
13.64132 369
13.66143 391
13.68154 407
13.70166 438
13.72177 418
13.74189 375
13.762 417
13.78211 432
13.80223 385
13.82234 399
13.84245 409
13.86257 428
13.88268 397
13.9028 399
13.92291 400
13.94302 356
13.96314 392
13.98325 376
14.00336 407
14.02348 381
14.04359 402
14.06371 384
14.08382 372
14.10393 370
14.12405 364
14.14416 374
14.16427 376
14.18439 402
14.2045 433
14.22461 370
14.24473 386
14.26484 391
14.28496 399
14.30507 413
14.32518 360
14.3453 391
14.36541 374
14.38552 405
14.40564 410
14.42575 358
14.44587 394
14.46598 364
14.48609 385
14.50621 374
14.52632 372
14.54643 339
14.56655 425
14.58666 397
14.60677 371
14.62689 381
14.647 396
14.66712 360
14.68723 377
14.70734 414
14.72746 373
14.74757 370
14.76768 389
14.7878 407
14.80791 410
14.82803 433
14.84814 376
14.86825 405
14.88837 400
14.90848 396
14.92859 404
14.94871 366
14.96882 392
14.98894 384
15.00905 378
15.02916 423
15.04928 392
15.06939 339
15.0895 396
15.10962 393
15.12973 383
15.14984 357
15.16996 357
15.19007 357
15.21019 335
15.2303 374
15.25041 345
15.27053 386
15.29064 399
15.31075 397
15.33087 368
15.35098 407
15.3711 355
15.39121 398
15.41132 347
15.43144 378
15.45155 383
15.47166 388
15.49178 376
15.51189 401
15.53201 365
15.55212 370
15.57223 416
15.59235 374
15.61246 362
15.63257 380
15.65269 350
15.6728 415
15.69291 365
15.71303 368
15.73314 368
15.75326 352
15.77337 373
15.79348 369
15.8136 384
15.83371 387
15.85382 363
15.87394 378
15.89405 383
15.91417 382
15.93428 391
15.95439 360
15.97451 369
15.99462 376
16.01473 380
16.03485 373
16.05496 401
16.07508 386
16.09519 382
16.1153 343
16.13542 378
16.15553 387
16.17564 416
16.19576 417
16.21587 340
16.23598 371
16.2561 411
16.27621 362
16.29633 392
16.31644 412
16.33655 394
16.35667 389
16.37678 389
16.39689 412
16.41701 384
16.43712 383
16.45724 391
16.47735 371
16.49746 399
16.51758 366
16.53769 399
16.5578 378
16.57792 371
16.59803 376
16.61814 402
16.63826 410
16.65837 417
16.67849 368
16.6986 356
16.71871 373
16.73883 413
16.75894 368
16.77905 392
16.79917 400
16.81928 370
16.8394 355
16.85951 414
16.87962 404
16.89974 395
16.91985 406
16.93996 385
16.96008 368
16.98019 383
17.00031 379
17.02042 408
17.04053 383
17.06065 370
17.08076 382
17.10087 404
17.12099 353
17.1411 390
17.16121 420
17.18133 416
17.20144 420
17.22156 369
17.24167 400
17.26178 388
17.2819 395
17.30201 391
17.32212 402
17.34224 386
17.36235 414
17.38247 433
17.40258 411
17.42269 400
17.44281 424
17.46292 417
17.48303 424
17.50315 404
17.52326 432
17.54338 414
17.56349 458
17.5836 408
17.60372 414
17.62383 416
17.64394 433
17.66406 414
17.68417 431
17.70428 418
17.7244 394
17.74451 460
17.76463 463
17.78474 430
17.80485 398
17.82497 429
17.84508 416
17.86519 414
17.88531 422
17.90542 428
17.92554 418
17.94565 435
17.96576 398
17.98588 430
18.00599 416
18.0261 472
18.04622 416
18.06633 438
18.08645 402
18.10656 417
18.12667 463
18.14679 443
18.1669 440
18.18701 442
18.20713 447
18.22724 438
18.24735 434
18.26747 410
18.28758 394
18.3077 438
18.32781 411
18.34792 428
18.36804 438
18.38815 432
18.40826 429
18.42838 417
18.44849 419
18.46861 436
18.48872 420
18.50883 429
18.52895 363
18.54906 432
18.56917 407
18.58929 455
18.6094 419
18.62951 426
18.64963 401
18.66974 414
18.68986 417
18.70997 415
18.73008 434
18.7502 467
18.77031 414
18.79042 419
18.81054 457
18.83065 458
18.85077 435
18.87088 472
18.89099 434
18.91111 448
18.93122 472
18.95133 403
18.97145 442
18.99156 482
19.01168 490
19.03179 474
19.0519 454
19.07202 461
19.09213 478
19.11224 455
19.13236 498
19.15247 530
19.17258 480
19.1927 538
19.21281 519
19.23293 531
19.25304 542
19.27315 575
19.29327 600
19.31338 572
19.33349 619
19.35361 661
19.37372 611
19.39384 708
19.41395 666
19.43406 726
19.45418 704
19.47429 814
19.4944 798
19.51452 823
19.53463 823
19.55475 939
19.57486 967
19.59497 1032
19.61509 1095
19.6352 1163
19.65531 1218
19.67543 1313
19.69554 1325
19.71565 1361
19.73577 1481
19.75588 1474
19.776 1589
19.79611 1522
19.81622 1558
19.83634 1563
19.85645 1518
19.87656 1543
19.89668 1394
19.91679 1402
19.93691 1378
19.95702 1302
19.97713 1355
19.99725 1348
20.01736 1313
20.03747 1294
20.05759 1236
20.0777 1238
20.09782 1250
20.11793 1228
20.13804 1165
20.15816 1220
20.17827 1149
20.19838 1201
20.2185 1176
20.23861 1038
20.25872 1190
20.27884 1102
20.29895 1124
20.31907 1056
20.33918 1122
20.35929 1072
20.37941 1043
20.39952 1034
20.41963 1091
20.43975 1102
20.45986 1060
20.47998 1006
20.50009 1069
20.5202 1061
20.54032 1069
20.56043 1062
20.58054 1060
20.60066 1055
20.62077 1073
20.64088 1071
20.661 1160
20.68111 1110
20.70123 1227
20.72134 1289
20.74145 1411
20.76157 1565
20.78168 1504
20.80179 1553
20.82191 1536
20.84202 1388
20.86214 1249
20.88225 1195
20.90236 1105
20.92248 1135
20.94259 1012
20.9627 998
20.98282 947
21.00293 1014
21.02305 963
21.04316 925
21.06327 953
21.08339 911
21.1035 910
21.12361 961
21.14373 942
21.16384 904
21.18395 903
21.20407 857
21.22418 891
21.2443 888
21.26441 898
21.28452 862
21.30464 878
21.32475 885
21.34486 870
21.36498 834
21.38509 793
21.40521 862
21.42532 858
21.44543 861
21.46555 837
21.48566 782
21.50577 864
21.52589 858
21.546 789
21.56612 799
21.58623 777
21.60634 819
21.62646 781
21.64657 785
21.66668 827
21.6868 811
21.70691 828
21.72702 813
21.74714 794
21.76725 803
21.78737 746
21.80748 836
21.82759 772
21.84771 761
21.86782 738
21.88793 775
21.90805 813
21.92816 745
21.94828 773
21.96839 724
21.9885 771
22.00862 774
22.02873 784
22.04884 773
22.06896 740
22.08907 784
22.10919 697
22.1293 766
22.14941 761
22.16953 776
22.18964 782
22.20975 747
22.22987 745
22.24998 748
22.27009 738
22.29021 765
22.31032 753
22.33044 732
22.35055 760
22.37066 707
22.39078 792
22.41089 740
22.431 674
22.45112 664
22.47123 698
22.49135 758
22.51146 709
22.53157 737
22.55169 751
22.5718 733
22.59191 722
22.61203 676
22.63214 720
22.65225 670
22.67237 725
22.69248 758
22.7126 750
22.73271 711
22.75282 690
22.77294 666
22.79305 738
22.81316 706
22.83328 690
22.85339 729
22.87351 736
22.89362 725
22.91373 676
22.93385 694
22.95396 622
22.97407 713
22.99419 689
23.0143 666
23.03442 708
23.05453 684
23.07464 687
23.09476 676
23.11487 661
23.13498 674
23.1551 698
23.17521 644
23.19532 670
23.21544 695
23.23555 649
23.25567 662
23.27578 705
23.29589 653
23.31601 731
23.33612 671
23.35623 642
23.37635 699
23.39646 681
23.41658 656
23.43669 658
23.4568 734
23.47692 706
23.49703 717
23.51714 695
23.53726 693
23.55737 700
23.57749 642
23.5976 694
23.61771 684
23.63783 671
23.65794 702
23.67805 653
23.69817 742
23.71828 689
23.73839 665
23.75851 719
23.77862 680
23.79874 696
23.81885 627
23.83896 708
23.85908 701
23.87919 677
23.8993 715
23.91942 667
23.93953 641
23.95965 680
23.97976 642
23.99987 673
24.01999 672
24.0401 635
24.06021 672
24.08033 685
24.10044 626
24.12056 701
24.14067 668
24.16078 694
24.1809 697
24.20101 707
24.22112 743
24.24124 677
24.26135 678
24.28146 723
24.30158 763
24.32169 744
24.34181 787
24.36192 702
24.38203 729
24.40215 743
24.42226 727
24.44237 787
24.46249 746
24.4826 762
24.50272 791
24.52283 765
24.54294 809
24.56306 785
24.58317 774
24.60328 824
24.6234 832
24.64351 807
24.66362 849
24.68374 806
24.70385 811
24.72397 871
24.74408 894
24.76419 915
24.78431 812
24.80442 862
24.82453 915
24.84465 883
24.86476 852
24.88488 945
24.90499 915
24.9251 870
24.94522 873
24.96533 879
24.98544 902
25.00556 903
25.02567 770
25.04579 880
25.0659 835
25.08601 915
25.10613 903
25.12624 892
25.14635 916
25.16647 900
25.18658 873
25.20669 887
25.22681 881
25.24692 854
25.26704 846
25.28715 867
25.30726 796
25.32738 871
25.34749 789
25.3676 797
25.38772 829
25.40783 762
25.42795 781
25.44806 751
25.46817 754
25.48829 810
25.5084 790
25.52851 795
25.54863 742
25.56874 756
25.58886 700
25.60897 767
25.62908 700
25.6492 797
25.66931 774
25.68942 765
25.70954 706
25.72965 668
25.74976 668
25.76988 679
25.78999 685
25.81011 684
25.83022 658
25.85033 698
25.87045 682
25.89056 651
25.91067 687
25.93079 742
25.9509 733
25.97102 656
25.99113 663
26.01124 698
26.03136 702
26.05147 695
26.07158 753
26.0917 689
26.11181 693
26.13193 696
26.15204 750
26.17215 721
26.19227 786
26.21238 796
26.23249 767
26.25261 763
26.27272 744
26.29283 843
26.31295 889
26.33306 899
26.35318 938
26.37329 996
26.3934 1133
26.41352 1286
26.43363 1519
26.45374 1631
26.47386 2043
26.49397 2332
26.51409 2859
26.5342 3218
26.55431 3459
26.57443 3558
26.59454 3408
26.61465 2991
26.63477 2707
26.65488 2259
26.67499 1767
26.69511 1444
26.71522 1209
26.73534 1033
26.75545 886
26.77556 894
26.79568 818
26.81579 749
26.8359 765
26.85602 745
26.87613 719
26.89625 726
26.91636 743
26.93647 665
26.95659 734
26.9767 734
26.99681 657
27.01693 661
27.03704 681
27.05716 644
27.07727 671
27.09738 625
27.1175 649
27.13761 643
27.15772 638
27.17784 610
27.19795 597
27.21806 630
27.23818 639
27.25829 646
27.27841 606
27.29852 672
27.31863 705
27.33875 658
27.35886 656
27.37897 668
27.39909 656
27.4192 645
27.43932 677
27.45943 673
27.47954 704
27.49966 661
27.51977 658
27.53988 603
27.56 588
27.58011 607
27.60023 596
27.62034 619
27.64045 577
27.66057 616
27.68068 566
27.70079 597
27.72091 599
27.74102 556
27.76113 600
27.78125 605
27.80136 609
27.82148 558
27.84159 592
27.8617 581
27.88182 558
27.90193 572
27.92204 587
27.94216 563
27.96227 605
27.98239 586
28.0025 589
28.02261 544
28.04273 581
28.06284 582
28.08295 503
28.10307 547
28.12318 542
28.1433 548
28.16341 531
28.18352 553
28.20364 542
28.22375 500
28.24386 570
28.26398 576
28.28409 553
28.3042 564
28.32432 534
28.34443 542
28.36455 521
28.38466 520
28.40477 531
28.42489 533
28.445 514
28.46511 514
28.48523 555
28.50534 520
28.52546 573
28.54557 566
28.56568 519
28.5858 502
28.60591 494
28.62602 475
28.64614 480
28.66625 519
28.68636 508
28.70648 495
28.72659 497
28.74671 505
28.76682 549
28.78693 504
28.80705 502
28.82716 513
28.84727 485
28.86739 497
28.8875 471
28.90762 520
28.92773 520
28.94784 493
28.96796 532
28.98807 526
29.00818 519
29.0283 539
29.04841 497
29.06853 488
29.08864 492
29.10875 527
29.12887 501
29.14898 483
29.16909 501
29.18921 510
29.20932 492
29.22943 469
29.24955 491
29.26966 524
29.28978 491
29.30989 493
29.33 494
29.35012 475
29.37023 477
29.39034 488
29.41046 494
29.43057 547
29.45069 487
29.4708 503
29.49091 494
29.51103 466
29.53114 486
29.55125 505
29.57137 522
29.59148 516
29.6116 510
29.63171 517
29.65182 541
29.67194 481
29.69205 569
29.71216 556
29.73228 520
29.75239 524
29.7725 527
29.79262 530
29.81273 521
29.83285 537
29.85296 532
29.87307 474
29.89319 546
29.9133 494
29.93341 495
29.95353 471
29.97364 508
29.99376 523
30.01387 485
30.03398 516
30.0541 488
30.07421 509
30.09432 510
30.11444 518
30.13455 509
30.15467 502
30.17478 470
30.19489 477
30.21501 487
30.23512 482
30.25523 450
30.27535 486
30.29546 480
30.31557 440
30.33569 495
30.3558 471
30.37592 475
30.39603 457
30.41614 470
30.43626 512
30.45637 489
30.47648 511
30.4966 485
30.51671 482
30.53683 449
30.55694 488
30.57705 431
30.59717 450
30.61728 480
30.63739 452
30.65751 457
30.67762 482
30.69773 426
30.71785 490
30.73796 486
30.75808 468
30.77819 479
30.7983 524
30.81842 458
30.83853 486
30.85864 493
30.87876 460
30.89887 459
30.91899 444
30.9391 441
30.95921 464
30.97933 459
30.99944 466
31.01955 468
31.03967 429
31.05978 438
31.0799 429
31.10001 476
31.12012 471
31.14024 477
31.16035 481
31.18046 453
31.20058 456
31.22069 521
31.2408 494
31.26092 500
31.28103 422
31.30115 490
31.32126 433
31.34137 488
31.36149 455
31.3816 472
31.40171 458
31.42183 432
31.44194 397
31.46206 418
31.48217 412
31.50228 424
31.5224 457
31.54251 437
31.56262 455
31.58274 424
31.60285 450
31.62297 473
31.64308 467
31.66319 461
31.68331 423
31.70342 395
31.72353 446
31.74365 413
31.76376 472
31.78387 419
31.80399 425
31.8241 439
31.84422 454
31.86433 457
31.88444 425
31.90456 444
31.92467 424
31.94478 429
31.9649 431
31.98501 416
32.00513 443
32.02524 445
32.04535 432
32.06547 417
32.08558 446
32.10569 427
32.12581 425
32.14592 437
32.16604 425
32.18615 391
32.20626 448
32.22638 438
32.24649 420
32.2666 441
32.28672 386
32.30683 454
32.32694 403
32.34706 405
32.36717 442
32.38729 407
32.4074 392
32.42751 451
32.44763 439
32.46774 435
32.48785 415
32.50797 396
32.52808 451
32.5482 412
32.56831 417
32.58842 388
32.60854 398
32.62865 386
32.64876 407
32.66888 426
32.68899 399
32.7091 407
32.72922 401
32.74933 442
32.76945 390
32.78956 432
32.80967 409
32.82979 394
32.8499 404
32.87001 381
32.89013 427
32.91024 431
32.93036 396
32.95047 398
32.97058 397
32.9907 368
33.01081 450
33.03092 411
33.05104 404
33.07115 391
33.09127 403
33.11138 410
33.13149 389
33.15161 398
33.17172 431
33.19183 387
33.21195 413
33.23206 399
33.25217 446
33.27229 404
33.2924 447
33.31252 408
33.33263 427
33.35274 417
33.37286 402
33.39297 423
33.41308 418
33.4332 428
33.45331 436
33.47343 401
33.49354 406
33.51365 392
33.53377 393
33.55388 423
33.57399 407
33.59411 428
33.61422 404
33.63434 436
33.65445 416
33.67456 401
33.69468 437
33.71479 410
33.7349 414
33.75502 441
33.77513 410
33.79524 419
33.81536 415
33.83547 434
33.85559 427
33.8757 445
33.89581 463
33.91593 474
33.93604 470
33.95615 426
33.97627 464
33.99638 477
34.0165 501
34.03661 441
34.05672 506
34.07684 552
34.09695 514
34.11706 527
34.13718 542
34.15729 508
34.17741 543
34.19752 525
34.21763 580
34.23775 541
34.25786 550
34.27797 568
34.29809 571
34.3182 580
34.33831 585
34.35843 582
34.37854 628
34.39866 604
34.41877 596
34.43888 627
34.459 649
34.47911 646
34.49922 687
34.51934 658
34.53945 684
34.55957 686
34.57968 700
34.59979 694
34.61991 717
34.64002 753
34.66013 727
34.68025 824
34.70036 837
34.72047 823
34.74059 788
34.7607 878
34.78082 912
34.80093 870
34.82104 960
34.84116 886
34.86127 929
34.88138 875
34.9015 888
34.92161 914
34.94173 828
34.96184 859
34.98195 946
35.00207 837
35.02218 808
35.04229 813
35.06241 814
35.08252 727
35.10264 775
35.12275 748
35.14286 696
35.16298 762
35.18309 715
35.2032 728
35.22332 723
35.24343 759
35.26354 694
35.28366 709
35.30377 699
35.32389 676
35.344 665
35.36411 690
35.38423 662
35.40434 717
35.42445 690
35.44457 691
35.46468 716
35.4848 677
35.50491 712
35.52502 700
35.54514 704
35.56525 665
35.58536 685
35.60548 640
35.62559 726
35.64571 687
35.66582 713
35.68593 743
35.70605 714
35.72616 695
35.74627 749
35.76639 743
35.7865 730
35.80661 697
35.82673 701
35.84684 727
35.86696 726
35.88707 701
35.90718 742
35.9273 701
35.94741 685
35.96752 704
35.98764 655
36.00775 660
36.02787 743
36.04798 632
36.06809 642
36.08821 710
36.10832 657
36.12843 621
36.14855 618
36.16866 624
36.18878 620
36.20889 697
36.229 634
36.24912 681
36.26923 639
36.28934 652
36.30946 706
36.32957 654
36.34968 685
36.3698 741
36.38991 726
36.41003 769
36.43014 764
36.45025 781
36.47037 788
36.49048 814
36.51059 719
36.53071 773
36.55082 692
36.57094 631
36.59105 665
36.61116 613
36.63128 638
36.65139 651
36.6715 633
36.69162 579
36.71173 674
36.73184 613
36.75196 627
36.77207 592
36.79219 591
36.8123 582
36.83241 611
36.85253 587
36.87264 643
36.89275 630
36.91287 603
36.93298 581
36.9531 643
36.97321 593
36.99332 624
37.01344 626
37.03355 627
37.05366 579
37.07378 638
37.09389 609
37.11401 659
37.13412 547
37.15423 659
37.17435 586
37.19446 611
37.21457 670
37.23469 592
37.2548 651
37.27491 633
37.29503 612
37.31514 636
37.33526 611
37.35537 606
37.37548 606
37.3956 631
37.41571 611
37.43582 614
37.45594 599
37.47605 636
37.49617 647
37.51628 667
37.53639 619
37.55651 654
37.57662 670
37.59673 642
37.61685 664
37.63696 654
37.65708 634
37.67719 645
37.6973 602
37.71742 669
37.73753 694
37.75764 682
37.77776 628
37.79787 627
37.81798 630
37.8381 625
37.85821 644
37.87833 632
37.89844 593
37.91855 630
37.93867 644
37.95878 633
37.97889 633
37.99901 635
38.01912 600
38.03924 616
38.05935 601
38.07946 648
38.09958 635
38.11969 589
38.1398 622
38.15992 601
38.18003 611
38.20015 612
38.22026 676
38.24037 668
38.26049 627
38.2806 738
38.30071 633
38.32083 664
38.34094 683
38.36105 648
38.38117 653
38.40128 683
38.4214 694
38.44151 633
38.46162 596
38.48174 622
38.50185 650
38.52196 592
38.54208 615
38.56219 626
38.58231 631
38.60242 594
38.62253 595
38.64265 665
38.66276 564
38.68287 571
38.70299 568
38.7231 568
38.74321 586
38.76333 563
38.78344 533
38.80356 573
38.82367 591
38.84378 518
38.8639 615
38.88401 566
38.90412 594
38.92424 594
38.94435 561
38.96447 560
38.98458 565
39.00469 567
39.02481 575
39.04492 601
39.06503 600
39.08515 593
39.10526 581
39.12538 551
39.14549 596
39.1656 564
39.18572 583
39.20583 567
39.22594 570
39.24606 568
39.26617 588
39.28628 602
39.3064 571
39.32651 605
39.34663 643
39.36674 667
39.38685 637
39.40697 656
39.42708 659
39.44719 583
39.46731 556
39.48742 559
39.50754 576
39.52765 517
39.54776 539
39.56788 498
39.58799 501
39.6081 539
39.62822 522
39.64833 498
39.66845 452
39.68856 505
39.70867 482
39.72879 479
39.7489 493
39.76901 491
39.78913 480
39.80924 551
39.82935 538
39.84947 474
39.86958 459
39.8897 503
39.90981 486
39.92992 446
39.95004 487
39.97015 470
39.99026 492
40.01038 470
40.03049 489
40.05061 477
40.07072 495
40.09083 535
40.11095 546
40.13106 536
40.15117 554
40.17129 534
40.1914 571
40.21152 543
40.23163 554
40.25174 576
40.27186 557
40.29197 491
40.31208 530
40.3322 489
40.35231 496
40.37242 503
40.39254 486
40.41265 457
40.43277 468
40.45288 464
40.47299 439
40.49311 479
40.51322 478
40.53333 484
40.55345 485
40.57356 462
40.59368 451
40.61379 473
40.6339 467
40.65402 468
40.67413 454
40.69424 441
40.71436 481
40.73447 507
40.75458 452
40.7747 417
40.79481 475
40.81493 488
40.83504 491
40.85515 464
40.87527 496
40.89538 458
40.91549 486
40.93561 485
40.95572 503
40.97584 472
40.99595 480
41.01606 462
41.03618 512
41.05629 456
41.0764 492
41.09652 497
41.11663 508
41.13675 459
41.15686 462
41.17697 464
41.19709 452
41.2172 445
41.23731 463
41.25743 445
41.27754 486
41.29765 443
41.31777 497
41.33788 474
41.358 454
41.37811 488
41.39822 467
41.41834 466
41.43845 437
41.45856 447
41.47868 423
41.49879 428
41.51891 452
41.53902 478
41.55913 499
41.57925 474
41.59936 421
41.61947 462
41.63959 423
41.6597 482
41.67982 468
41.69993 501
41.72004 456
41.74016 444
41.76027 462
41.78038 433
41.8005 474
41.82061 421
41.84072 449
41.86084 451
41.88095 411
41.90107 457
41.92118 439
41.94129 473
41.96141 470
41.98152 429
42.00163 507
42.02175 469
42.04186 462
42.06198 464
42.08209 455
42.1022 467
42.12232 435
42.14243 487
42.16254 486
42.18266 449
42.20277 461
42.22289 457
42.243 535
42.26311 510
42.28323 523
42.30334 558
42.32345 561
42.34357 550
42.36368 578
42.38379 542
42.40391 554
42.42402 501
42.44414 498
42.46425 501
42.48436 508
42.50448 460
42.52459 501
42.5447 452
42.56482 478
42.58493 448
42.60505 417
42.62516 434
42.64527 408
42.66539 450
42.6855 469
42.70561 406
42.72573 424
42.74584 426
42.76595 430
42.78607 400
42.80618 416
42.8263 397
42.84641 446
42.86652 438
42.88664 403
42.90675 403
42.92686 390
42.94698 417
42.96709 396
42.98721 425
43.00732 447
43.02743 409
43.04755 458
43.06766 397
43.08777 416
43.10789 377
43.128 427
43.14812 388
43.16823 433
43.18834 396
43.20846 385
43.22857 385
43.24868 374
43.2688 410
43.28891 393
43.30902 382
43.32914 406
43.34925 411
43.36937 433
43.38948 390
43.40959 413
43.42971 395
43.44982 416
43.46993 410
43.49005 422
43.51016 400
43.53028 400
43.55039 409
43.5705 397
43.59062 416
43.61073 433
43.63084 359
43.65096 390
43.67107 419
43.69119 408
43.7113 432
43.73141 439
43.75153 401
43.77164 363
43.79175 405
43.81187 450
43.83198 359
43.85209 410
43.87221 389
43.89232 381
43.91244 417
43.93255 373
43.95266 397
43.97278 387
43.99289 417
44.013 416
44.03312 368
44.05323 417
44.07335 421
44.09346 389
44.11357 375
44.13369 424
44.1538 400
44.17391 405
44.19403 430
44.21414 399
44.23426 378
44.25437 430
44.27448 421
44.2946 384
44.31471 418
44.33482 379
44.35494 438
44.37505 412
44.39516 412
44.41528 440
44.43539 429
44.45551 380
44.47562 437
44.49573 371
44.51585 349
44.53596 440
44.55607 412
44.57619 430
44.5963 403
44.61642 423
44.63653 413
44.65664 423
44.67676 393
44.69687 446
44.71698 396
44.7371 418
44.75721 393
44.77732 426
44.79744 434
44.81755 421
44.83767 440
44.85778 457
44.87789 421
44.89801 440
44.91812 434
44.93823 460
44.95835 416
44.97846 425
44.99858 414
45.01869 453
45.0388 447
45.05892 426
45.07903 439
45.09914 441
45.11926 414
45.13937 476
45.15949 441
45.1796 427
45.19971 489
45.21983 524
45.23994 439
45.26005 437
45.28017 457
45.30028 443
45.32039 451
45.34051 502
45.36062 451
45.38074 432
45.40085 478
45.42096 443
45.44108 466
45.46119 447
45.4813 418
45.50142 483
45.52153 483
45.54165 436
45.56176 476
45.58187 502
45.60199 488
45.6221 495
45.64221 502
45.66233 509
45.68244 503
45.70256 487
45.72267 515
45.74278 509
45.7629 467
45.78301 502
45.80312 510
45.82324 467
45.84335 476
45.86346 463
45.88358 469
45.90369 467
45.92381 503
45.94392 453
45.96403 447
45.98415 435
46.00426 442
46.02437 421
46.04449 478
46.0646 404
46.08472 427
46.10483 397
46.12494 470
46.14506 428
46.16517 413
46.18528 408
46.2054 451
46.22551 411
46.24563 424
46.26574 421
46.28585 423
46.30597 406
46.32608 429
46.34619 406
46.36631 438
46.38642 437
46.40653 451
46.42665 403
46.44676 405
46.46688 414
46.48699 422
46.5071 404
46.52722 444
46.54733 394
46.56744 391
46.58756 359
46.60767 439
46.62779 420
46.6479 417
46.66801 424
46.68813 456
46.70824 434
46.72835 438
46.74847 384
46.76858 403
46.78869 401
46.80881 385
46.82892 395
46.84904 425
46.86915 379
46.88926 416
46.90938 395
46.92949 373
46.9496 393
46.96972 397
46.98983 378
47.00995 396
47.03006 410
47.05017 399
47.07029 361
47.0904 424
47.11051 393
47.13063 388
47.15074 415
47.17086 407
47.19097 357
47.21108 404
47.2312 420
47.25131 399
47.27142 384
47.29154 392
47.31165 400
47.33176 398
47.35188 406
47.37199 453
47.39211 402
47.41222 435
47.43233 420
47.45245 407
47.47256 403
47.49267 374
47.51279 415
47.5329 411
47.55302 408
47.57313 382
47.59324 386
47.61336 427
47.63347 406
47.65358 388
47.6737 409
47.69381 418
47.71393 396
47.73404 419
47.75415 402
47.77427 397
47.79438 403
47.81449 410
47.83461 422
47.85472 381
47.87483 390
47.89495 445
47.91506 434
47.93518 407
47.95529 411
47.9754 439
47.99552 404
48.01563 415
48.03574 371
48.05586 403
48.07597 411
48.09609 388
48.1162 402
48.13631 411
48.15643 414
48.17654 382
48.19665 402
48.21677 394
48.23688 345
48.257 377
48.27711 376
48.29722 384
48.31734 414
48.33745 368
48.35756 362
48.37768 405
48.39779 385
48.4179 371
48.43802 372
48.45813 370
48.47825 363
48.49836 384
48.51847 381
48.53859 359
48.5587 381
48.57881 409
48.59893 379
48.61904 384
48.63916 371
48.65927 349
48.67938 378
48.6995 390
48.71961 383
48.73972 382
48.75984 362
48.77995 374
48.80006 366
48.82018 348
48.84029 409
48.86041 429
48.88052 358
48.90063 375
48.92075 375
48.94086 376
48.96097 363
48.98109 376
49.0012 359
49.02132 371
49.04143 373
49.06154 404
49.08166 416
49.10177 348
49.12188 351
49.142 377
49.16211 375
49.18223 349
49.20234 366
49.22245 384
49.24257 369
49.26268 341
49.28279 329
49.30291 381
49.32302 336
49.34313 381
49.36325 351
49.38336 383
49.40348 344
49.42359 336
49.4437 394
49.46382 353
49.48393 374
49.50404 337
49.52416 350
49.54427 370
49.56439 396
49.5845 345
49.60461 349
49.62473 365
49.64484 381
49.66495 337
49.68507 398
49.70518 401
49.7253 402
49.74541 388
49.76552 427
49.78564 399
49.80575 410
49.82586 459
49.84598 420
49.86609 411
49.8862 455
49.90632 480
49.92643 496
49.94655 537
49.96666 549
49.98677 541
50.00689 611
50.027 672
50.04711 648
50.06723 640
50.08734 603
50.10746 575
50.12757 538
50.14768 536
50.1678 548
50.18791 502
50.20802 503
50.22814 482
50.24825 457
50.26837 433
50.28848 408
50.30859 358
50.32871 380
50.34882 383
50.36893 370
50.38905 363
50.40916 395
50.42927 341
50.44939 328
50.4695 419
50.48962 382
50.50973 374
50.52984 368
50.54996 384
50.57007 404
50.59018 386
50.6103 371
50.63041 390
50.65053 379
50.67064 362
50.69075 369
50.71087 364
50.73098 397
50.75109 361
50.77121 379
50.79132 360
50.81143 352
50.83155 342
50.85166 404
50.87178 366
50.89189 347
50.912 375
50.93212 346
50.95223 349
50.97234 353
50.99246 348
51.01257 357
51.03269 362
51.0528 358
51.07291 363
51.09303 391
51.11314 390
51.13325 358
51.15337 361
51.17348 326
51.1936 358
51.21371 349
51.23382 335
51.25394 329
51.27405 339
51.29416 319
51.31428 351
51.33439 350
51.3545 324
51.37462 383
51.39473 359
51.41485 357
51.43496 346
51.45507 333
51.47519 325
51.4953 331
51.51541 338
51.53553 370
51.55564 334
51.57576 367
51.59587 355
51.61598 343
51.6361 368
51.65621 321
51.67632 362
51.69644 339
51.71655 323
51.73667 361
51.75678 340
51.77689 333
51.79701 341
51.81712 352
51.83723 369
51.85735 324
51.87746 365
51.89757 344
51.91769 362
51.9378 369
51.95792 314
51.97803 345
51.99814 359
52.01826 367
52.03837 331
52.05848 354
52.0786 394
52.09871 369
52.11883 369
52.13894 382
52.15905 362
52.17917 351
52.19928 351
52.21939 319
52.23951 373
52.25962 358
52.27974 383
52.29985 334
52.31996 315
52.34008 346
52.36019 327
52.3803 341
52.40042 351
52.42053 359
52.44064 343
52.46076 372
52.48087 350
52.50099 359
52.5211 359
52.54121 367
52.56133 343
52.58144 384
52.60155 365
52.62167 344
52.64178 399
52.6619 369
52.68201 330
52.70212 366
52.72224 360
52.74235 367
52.76246 386
52.78258 364
52.80269 334
52.8228 348
52.84292 347
52.86303 372
52.88315 349
52.90326 375
52.92337 360
52.94349 368
52.9636 384
52.98371 357
53.00383 387
53.02394 372
53.04406 355
53.06417 360
53.08428 392
53.1044 397
53.12451 346
53.14462 343
53.16474 413
53.18485 374
53.20497 383
53.22508 393
53.24519 390
53.26531 359
53.28542 374
53.30553 360
53.32565 397
53.34576 372
53.36587 413
53.38599 401
53.4061 384
53.42622 389
53.44633 386
53.46644 384
53.48656 365
53.50667 418
53.52678 407
53.5469 392
53.56701 400
53.58713 377
53.60724 412
53.62735 393
53.64747 414
53.66758 426
53.68769 462
53.70781 430
53.72792 434
53.74804 481
53.76815 426
53.78826 419
53.80838 457
53.82849 419
53.8486 451
53.86872 427
53.88883 480
53.90894 496
53.92906 449
53.94917 476
53.96929 490
53.9894 502
54.00951 477
54.02963 465
54.04974 500
54.06985 502
54.08997 462
54.11008 495
54.1302 474
54.15031 475
54.17042 504
54.19054 483
54.21065 491
54.23076 481
54.25088 479
54.27099 498
54.29111 492
54.31122 535
54.33133 500
54.35145 513
54.37156 512
54.39167 503
54.41179 506
54.4319 508
54.45201 499
54.47213 503
54.49224 527
54.51236 455
54.53247 501
54.55258 528
54.5727 513
54.59281 543
54.61292 520
54.63304 501
54.65315 496
54.67327 528
54.69338 545
54.71349 556
54.73361 521
54.75372 530
54.77383 543
54.79395 575
54.81406 599
54.83417 540
54.85429 551
54.8744 556
54.89452 561
54.91463 528
54.93474 536
54.95486 536
54.97497 528
54.99508 543
55.0152 529
55.03531 529
55.05543 517
55.07554 531
55.09565 531
55.11577 545
55.13588 521
55.15599 529
55.17611 564
55.19622 514
55.21634 551
55.23645 503
55.25656 514
55.27668 525
55.29679 505
55.3169 516
55.33702 473
55.35713 493
55.37724 463
55.39736 461
55.41747 500
55.43759 517
55.4577 486
55.47781 477
55.49793 464
55.51804 497
55.53815 474
55.55827 466
55.57838 493
55.5985 447
55.61861 487
55.63872 480
55.65884 499
55.67895 482
55.69906 486
55.71918 452
55.73929 467
55.75941 500
55.77952 454
55.79963 410
55.81975 487
55.83986 455
55.85997 458
55.88009 476
55.9002 436
55.92031 444
55.94043 435
55.96054 456
55.98066 437
56.00077 445
56.02088 460
56.041 467
56.06111 484
56.08122 431
56.10134 423
56.12145 419
56.14157 453
56.16168 445
56.18179 431
56.20191 424
56.22202 406
56.24213 437
56.26225 439
56.28236 426
56.30248 442
56.32259 421
56.3427 432
56.36282 446
56.38293 447
56.40304 465
56.42316 454
56.44327 427
56.46338 443
56.4835 451
56.50361 417
56.52373 446
56.54384 475
56.56395 424
56.58407 434
56.60418 430
56.62429 425
56.64441 432
56.66452 383
56.68464 422
56.70475 440
56.72486 448
56.74498 403
56.76509 440
56.7852 429
56.80532 391
56.82543 405
56.84554 408
56.86566 421
56.88577 431
56.90589 389
56.926 423
56.94611 406
56.96623 422
56.98634 453
57.00645 410
57.02657 396
57.04668 428
57.0668 397
57.08691 430
57.10702 388
57.12714 419
57.14725 388
57.16736 402
57.18748 450
57.20759 386
57.22771 393
57.24782 401
57.26793 417
57.28805 462
57.30816 420
57.32827 395
57.34839 412
57.3685 398
57.38861 408
57.40873 370
57.42884 414
57.44896 402
57.46907 373
57.48918 402
57.5093 383
57.52941 381
57.54952 377
57.56964 363
57.58975 377
57.60987 378
57.62998 359
57.65009 389
57.67021 373
57.69032 395
57.71043 394
57.73055 396
57.75066 386
57.77078 375
57.79089 386
57.811 370
57.83112 396
57.85123 386
57.87134 397
57.89146 391
57.91157 352
57.93168 377
57.9518 381
57.97191 357
57.99203 359
58.01214 374
58.03225 360
58.05237 368
58.07248 358
58.09259 401
58.11271 375
58.13282 370
58.15294 367
58.17305 364
58.19316 361
58.21328 386
58.23339 426
58.2535 370
58.27362 387
58.29373 390
58.31385 385
58.33396 351
58.35407 374
58.37419 365
58.3943 376
58.41441 396
58.43453 366
58.45464 388
58.47475 365
58.49487 384
58.51498 364
58.5351 329
58.55521 376
58.57532 390
58.59544 370
58.61555 338
58.63566 405
58.65578 388
58.67589 369
58.69601 361
58.71612 396
58.73623 380
58.75635 350
58.77646 378
58.79657 380
58.81669 379
58.8368 353
58.85691 384
58.87703 362
58.89714 344
58.91726 354
58.93737 372
58.95748 343
58.9776 395
58.99771 380
59.01782 369
59.03794 376
59.05805 364
59.07817 409
59.09828 388
59.11839 385
59.13851 364
59.15862 384
59.17873 366
59.19885 371
59.21896 375
59.23908 425
59.25919 370
59.2793 393
59.29942 401
59.31953 355
59.33964 364
59.35976 367
59.37987 396
59.39998 391
59.4201 374
59.44021 381
59.46033 393
59.48044 398
59.50055 409
59.52067 403
59.54078 366
59.56089 455
59.58101 417
59.60112 409
59.62124 457
59.64135 431
59.66146 427
59.68158 434
59.70169 455
59.7218 452
59.74192 483
59.76203 499
59.78215 519
59.80226 539
59.82237 535
59.84249 559
59.8626 561
59.88271 598
59.90283 509
59.92294 528
59.94305 512
59.96317 484
59.98328 509
60.0034 465
60.02351 457
60.04362 502
60.06374 470
60.08385 462
60.10396 440
60.12408 427
60.14419 441
60.16431 458
60.18442 394
60.20453 422
60.22465 391
60.24476 450
60.26487 423
60.28499 414
60.3051 443
60.32522 443
60.34533 407
60.36544 426
60.38556 450
60.40567 442
60.42578 395
60.4459 400
60.46601 381
60.48612 417
60.50624 421
60.52635 422
60.54647 406
60.56658 398
60.58669 413
60.60681 405
60.62692 417
60.64703 444
60.66715 429
60.68726 407
60.70738 417
60.72749 391
60.7476 451
60.76772 394
60.78783 408
60.80794 412
60.82806 398
60.84817 433
60.86828 385
60.8884 415
60.90851 451
60.92863 414
60.94874 429
60.96885 448
60.98897 446
61.00908 446
61.02919 416
61.04931 424
61.06942 441
61.08954 433
61.10965 415
61.12976 469
61.14988 478
61.16999 425
61.1901 487
61.21022 512
61.23033 464
61.25045 450
61.27056 464
61.29067 505
61.31079 483
61.3309 504
61.35101 532
61.37113 494
61.39124 503
61.41135 484
61.43147 531
61.45158 513
61.4717 527
61.49181 529
61.51192 547
61.53204 559
61.55215 529
61.57226 534
61.59238 567
61.61249 570
61.63261 525
61.65272 523
61.67283 575
61.69295 563
61.71306 563
61.73317 547
61.75329 564
61.7734 566
61.79352 560
61.81363 564
61.83374 579
61.85386 562
61.87397 594
61.89408 586
61.9142 599
61.93431 574
61.95442 566
61.97454 629
61.99465 606
62.01477 592
62.03488 626
62.05499 621
62.07511 633
62.09522 642
62.11533 629
62.13545 592
62.15556 646
62.17568 611
62.19579 601
62.2159 583
62.23602 614
62.25613 601
62.27624 563
62.29636 587
62.31647 541
62.33659 557
62.3567 504
62.37681 493
62.39693 533
62.41704 509
62.43715 497
62.45727 438
62.47738 489
62.49749 431
62.51761 465
62.53772 466
62.55784 466
62.57795 442
62.59806 456
62.61818 425
62.63829 379
62.6584 416
62.67852 440
62.69863 445
62.71875 428
62.73886 416
62.75897 417
62.77909 390
62.7992 397
62.81931 405
62.83943 425
62.85954 437
62.87965 411
62.89977 394
62.91988 410
62.94 392
62.96011 354
62.98022 361
63.00034 398
63.02045 414
63.04056 382
63.06068 386
63.08079 369
63.10091 381
63.12102 400
63.14113 379
63.16125 396
63.18136 440
63.20147 414
63.22159 406
63.2417 414
63.26182 408
63.28193 424
63.30204 400
63.32216 391
63.34227 391
63.36238 380
63.3825 391
63.40261 393
63.42272 373
63.44284 418
63.46295 395
63.48307 381
63.50318 377
63.52329 355
63.54341 378
63.56352 405
63.58363 408
63.60375 416
63.62386 386
63.64398 397
63.66409 441
63.6842 363
63.70432 345
63.72443 410
63.74454 400
63.76466 424
63.78477 386
63.80489 426
63.825 372
63.84511 389
63.86523 416
63.88534 428
63.90545 416
63.92557 406
63.94568 449
63.96579 422
63.98591 399
64.00602 387
64.02614 436
64.04625 426
64.06636 398
64.08648 383
64.10659 393
64.1267 375
64.14682 381
64.16693 384
64.18705 348
64.20716 364
64.22727 383
64.24739 375
64.2675 347
64.28761 336
64.30773 348
64.32784 327
64.34796 346
64.36807 370
64.38818 343
64.4083 345
64.42841 353
64.44852 350
64.46864 332
64.48875 359
64.50886 327
64.52898 349
64.54909 373
64.56921 397
64.58932 341
64.60943 360
64.62955 389
64.64966 342
64.66977 345
64.68989 367
64.71 399
64.73012 330
64.75023 340
64.77034 364
64.79046 338
64.81057 348
64.83068 366
64.8508 350
64.87091 344
64.89102 371
64.91114 351
64.93125 328
64.95137 365
64.97148 362
64.99159 353
65.01171 354
65.03182 404
65.05193 355
65.07205 361
65.09216 370
65.11228 362
65.13239 360
65.1525 376
65.17262 359
65.19273 363
65.21284 374
65.23296 354
65.25307 372
65.27319 342
65.2933 359
65.31341 340
65.33353 363
65.35364 380
65.37375 353
65.39387 348
65.41398 353
65.43409 373
65.45421 343
65.47432 361
65.49444 353
65.51455 366
65.53466 391
65.55478 356
65.57489 338
65.595 357
65.61512 365
65.63523 360
65.65535 367
65.67546 366
65.69557 357
65.71569 362
65.7358 360
65.75591 391
65.77603 366
65.79614 366
65.81626 360
65.83637 340
65.85648 325
65.8766 345
65.89671 339
65.91682 389
65.93694 357
65.95705 356
65.97716 316
65.99728 348
66.01739 356
66.03751 341
66.05762 354
66.07773 330
66.09785 342
66.11796 314
66.13807 337
66.15819 362
66.1783 360
66.19842 370
66.21853 354
66.23864 336
66.25876 325
66.27887 376
66.29898 327
66.3191 344
66.33921 352
66.35933 309
66.37944 318
66.39955 333
66.41967 345
66.43978 319
66.45989 376
66.48001 373
66.50012 351
66.52023 340
66.54035 348
66.56046 336
66.58058 373
66.60069 380
66.6208 340
66.64092 320
66.66103 341
66.68114 370
66.70126 334
66.72137 331
66.74149 328
66.7616 369
66.78171 341
66.80183 372
66.82194 356
66.84205 340
66.86217 388
66.88228 351
66.90239 350
66.92251 354
66.94262 355
66.96274 351
66.98285 325
67.00296 309
67.02308 363
67.04319 360
67.0633 352
67.08342 374
67.10353 357
67.12365 374
67.14376 384
67.16387 361
67.18399 392
67.2041 387
67.22421 359
67.24433 368
67.26444 373
67.28456 326
67.30467 340
67.32478 362
67.3449 340
67.36501 370
67.38512 352
67.40524 350
67.42535 389
67.44546 410
67.46558 383
67.48569 390
67.50581 394
67.52592 414
67.54603 387
67.56615 437
67.58626 445
67.60637 438
67.62649 449
67.6466 454
67.66672 451
67.68683 472
67.70694 404
67.72706 441
67.74717 432
67.76728 431
67.7874 434
67.80751 415
67.82763 417
67.84774 429
67.86785 435
67.88797 465
67.90808 446
67.92819 468
67.94831 495
67.96842 486
67.98853 500
68.00865 482
68.02876 514
68.04888 567
68.06899 525
68.0891 512
68.10922 529
68.12933 536
68.14944 473
68.16956 464
68.18967 465
68.20979 511
68.2299 502
68.25001 448
68.27013 453
68.29024 453
68.31035 449
68.33047 428
68.35058 427
68.3707 358
68.39081 405
68.41092 428
68.43104 393
68.45115 379
68.47126 367
68.49138 375
68.51149 328
68.5316 366
68.55172 351
68.57183 344
68.59195 388
68.61206 362
68.63217 377
68.65229 332
68.6724 371
68.69251 365
68.71263 338
68.73274 343
68.75286 343
68.77297 338
68.79308 402
68.8132 366
68.83331 363
68.85342 395
68.87354 355
68.89365 380
68.91376 336
68.93388 384
68.95399 332
68.97411 365
68.99422 345
69.01433 338
69.03445 359
69.05456 356
69.07467 366
69.09479 368
69.1149 360
69.13502 333
69.15513 363
69.17524 344
69.19536 348
69.21547 367
69.23558 349
69.2557 387
69.27581 348
69.29593 356
69.31604 388
69.33615 358
69.35627 387
69.37638 355
69.39649 385
69.41661 369
69.43672 369
69.45683 386
69.47695 360
69.49706 394
69.51718 377
69.53729 400
69.5574 370
69.57752 378
69.59763 360
69.61774 377
69.63786 353
69.65797 359
69.67809 347
69.6982 349
69.71831 356
69.73843 378
69.75854 359
69.77865 337
69.79877 377
69.81888 392
69.839 388
69.85911 342
69.87922 378
69.89934 353
69.91945 352
69.93956 355
69.95968 342
69.97979 366
69.9999 339
70.02002 365
70.04013 371
70.06025 366
70.08036 365
70.10047 372
70.12059 344
70.1407 353
70.16081 366
70.18093 352
70.20104 316
70.22116 365
70.24127 342
70.26138 373
70.2815 341
70.30161 326
70.32172 336
70.34184 375
70.36195 341
70.38207 333
70.40218 341
70.42229 356
70.44241 334
70.46252 334
70.48263 364
70.50275 337
70.52286 338
70.54297 303
70.56309 382
70.5832 344
70.60332 353
70.62343 352
70.64354 338
70.66366 348
70.68377 357
70.70388 335
70.724 337
70.74411 372
70.76423 365
70.78434 320
70.80445 314
70.82457 377
70.84468 380
70.86479 352
70.88491 349
70.90502 367
70.92513 360
70.94525 342
70.96536 368
70.98548 384
71.00559 361
71.0257 380
71.04582 344
71.06593 358
71.08604 363
71.10616 379
71.12627 356
71.14639 355
71.1665 365
71.18661 365
71.20673 362
71.22684 385
71.24695 350
71.26707 373
71.28718 340
71.3073 333
71.32741 357
71.34752 340
71.36764 379
71.38775 352
71.40786 337
71.42798 357
71.44809 344
71.4682 362
71.48832 363
71.50843 317
71.52855 329
71.54866 379
71.56877 339
71.58889 364
71.609 351
71.62911 334
71.64923 372
71.66934 382
71.68946 351
71.70957 362
71.72968 357
71.7498 369
71.76991 361
71.79002 354
71.81014 352
71.83025 327
71.85037 350
71.87048 342
71.89059 368
71.91071 362
71.93082 387
71.95093 313
71.97105 391
71.99116 350
72.01127 359
72.03139 365
72.0515 381
72.07162 330
72.09173 397
72.11184 356
72.13196 374
72.15207 344
72.17218 358
72.1923 373
72.21241 405
72.23253 366
72.25264 374
72.27275 370
72.29287 372
72.31298 385
72.33309 387
72.35321 364
72.37332 349
72.39344 381
72.41355 383
72.43366 416
72.45378 399
72.47389 419
72.494 382
72.51412 394
72.53423 365
72.55434 377
72.57446 354
72.59457 371
72.61469 355
72.6348 372
72.65491 387
72.67503 394
72.69514 421
72.71525 417
72.73537 409
72.75548 389
72.7756 397
72.79571 362
72.81582 394
72.83594 417
72.85605 389
72.87616 397
72.89628 399
72.91639 383
72.9365 443
72.95662 352
72.97673 393
72.99685 408
73.01696 432
73.03707 430
73.05719 417
73.0773 382
73.09741 423
73.11753 417
73.13764 437
73.15776 391
73.17787 408
73.19798 448
73.2181 443
73.23821 409
73.25832 411
73.27844 432
73.29855 450
73.31867 434
73.33878 441
73.35889 423
73.37901 424
73.39912 457
73.41923 451
73.43935 418
73.45946 410
73.47957 448
73.49969 400
73.5198 437
73.53992 409
73.56003 450
73.58014 425
73.60026 401
73.62037 432
73.64048 401
73.6606 405
73.68071 404
73.70083 392
73.72094 407
73.74105 409
73.76117 393
73.78128 414
73.80139 392
73.82151 377
73.84162 361
73.86174 391
73.88185 363
73.90196 359
73.92208 393
73.94219 366
73.9623 378
73.98242 387
74.00253 394
74.02264 388
74.04276 377
74.06287 391
74.08299 381
74.1031 377
74.12321 411
74.14333 366
74.16344 370
74.18355 374
74.20367 401
74.22378 379
74.2439 353
74.26401 374
74.28412 388
74.30424 366
74.32435 378
74.34446 365
74.36458 343
74.38469 417
74.40481 393
74.42492 381
74.44503 332
74.46515 389
74.48526 356
74.50537 429
74.52549 342
74.5456 353
74.56571 388
74.58583 379
74.60594 349
74.62606 365
74.64617 358
74.66628 377
74.6864 351
74.70651 381
74.72662 362
74.74674 370
74.76685 374
74.78697 370
74.80708 397
74.82719 362
74.84731 362
74.86742 348
74.88753 398
74.90765 390
74.92776 340
74.94787 361
74.96799 351
74.9881 396
75.00822 386
