3.00117 17516
3.02128 17281
3.0414 16736
3.06151 16336
3.08162 15803
3.10174 15390
3.12185 15519
3.14197 14155
3.16208 14130
3.18219 13704
3.20231 13542
3.22242 13402
3.24253 12473
3.26265 12157
3.28276 11903
3.30288 11493
3.32299 11053
3.3431 10660
3.36322 10388
3.38333 9903
3.40344 9782
3.42356 9525
3.44367 9083
3.46379 8922
3.4839 8417
3.50401 8138
3.52413 7923
3.54424 7525
3.56435 7389
3.58447 7169
3.60458 6844
3.62469 6728
3.64481 6262
3.66492 6221
3.68504 5715
3.70515 5425
3.72526 5456
3.74538 5114
3.76549 5157
3.7856 4632
3.80572 4511
3.82583 4338
3.84595 4173
3.86606 4018
3.88617 3872
3.90629 3605
3.9264 3465
3.94651 3224
3.96663 3185
3.98674 3059
4.00686 2787
4.02697 2864
4.04708 2609
4.0672 2558
4.08731 2381
4.10742 2212
4.12754 2191
4.14765 2040
4.16776 2064
4.18788 1879
4.20799 1886
4.22811 1853
4.24822 1732
4.26833 1622
4.28845 1483
4.30856 1472
4.32867 1536
4.34879 1458
4.3689 1467
4.38902 1344
4.40913 1311
4.42924 1365
4.44936 1311
4.46947 1244
4.48958 1193
4.5097 1135
4.52981 1292
4.54992 1215
4.57004 1080
4.59015 1087
4.61027 1075
4.63038 1107
4.65049 1025
4.67061 1002
4.69072 935
4.71083 974
4.73095 1019
4.75106 919
4.77118 864
4.79129 933
4.8114 839
4.83152 897
4.85163 834
4.87174 811
4.89186 810
4.91197 776
4.93209 825
4.9522 739
4.97231 733
4.99243 716
5.01254 705
5.03265 722
5.05277 690
5.07288 574
5.09299 668
5.11311 680
5.13322 612
5.15334 647
5.17345 623
5.19356 598
5.21368 587
5.23379 526
5.2539 541
5.27402 516
5.29413 566
5.31425 550
5.33436 539
5.35447 504
5.37459 530
5.3947 493
5.41481 522
5.43493 508
5.45504 426
5.47516 475
5.49527 434
5.51538 466
5.5355 482
5.55561 449
5.57572 409
5.59584 442
5.61595 442
5.63606 384
5.65618 448
5.67629 408
5.69641 413
5.71652 424
5.73663 418
5.75675 377
5.77686 380
5.79697 400
5.81709 418
5.8372 405
5.85732 384
5.87743 395
5.89754 332
5.91766 371
5.93777 321
5.95788 374
5.978 367
5.99811 336
6.01823 338
6.03834 329
6.05845 316
6.07857 339
6.09868 316
6.11879 340
6.13891 328
6.15902 324
6.17913 314
6.19925 307
6.21936 307
6.23948 334
6.25959 301
6.2797 288
6.29982 310
6.31993 273
6.34004 294
6.36016 299
6.38027 292
6.40039 282
6.4205 306
6.44061 293
6.46073 339
6.48084 314
6.50095 272
6.52107 297
6.54118 268
6.56129 297
6.58141 289
6.60152 255
6.62164 267
6.64175 269
6.66186 309
6.68198 280
6.70209 272
6.7222 277
6.74232 277
6.76243 256
6.78255 243
6.80266 228
6.82277 243
6.84289 251
6.863 246
6.88311 248
6.90323 240
6.92334 222
6.94346 245
6.96357 276
6.98368 222
7.0038 252
7.02391 254
7.04402 230
7.06414 239
7.08425 236
7.10436 281
7.12448 226
7.14459 246
7.16471 256
7.18482 231
7.20493 255
7.22505 252
7.24516 256
7.26527 260
7.28539 235
7.3055 222
7.32562 244
7.34573 234
7.36584 239
7.38596 220
7.40607 231
7.42618 220
7.4463 244
7.46641 244
7.48653 234
7.50664 253
7.52675 247
7.54687 234
7.56698 279
7.58709 251
7.60721 224
7.62732 235
7.64743 210
7.66755 240
7.68766 270
7.70778 209
7.72789 235
7.748 233
7.76812 247
7.78823 213
7.80834 209
7.82846 229
7.84857 224
7.86869 214
7.8888 231
7.90891 240
7.92903 214
7.94914 242
7.96925 224
7.98937 247
8.00948 251
8.0296 238
8.04971 250
8.06982 223
8.08994 230
8.11005 219
8.13016 218
8.15028 226
8.17039 243
8.1905 217
8.21062 228
8.23073 232
8.25085 254
8.27096 232
8.29107 248
8.31119 256
8.3313 243
8.35141 242
8.37153 212
8.39164 217
8.41176 202
8.43187 227
8.45198 209
8.4721 221
8.49221 232
8.51232 228
8.53244 230
8.55255 241
8.57266 238
8.59278 250
8.61289 243
8.63301 222
8.65312 251
8.67323 252
8.69335 203
8.71346 229
8.73357 213
8.75369 233
8.7738 230
8.79392 264
8.81403 237
8.83414 239
8.85426 251
8.87437 247
8.89448 249
8.9146 205
8.93471 247
8.95483 227
8.97494 246
8.99505 226
9.01517 238
9.03528 248
9.05539 227
9.07551 216
9.09562 250
9.11573 229
9.13585 248
9.15596 256
9.17608 242
9.19619 239
9.2163 219
9.23642 225
9.25653 234
9.27664 229
9.29676 225
9.31687 201
9.33699 245
9.3571 262
9.37721 250
9.39733 224
9.41744 250
9.43755 228
9.45767 241
9.47778 239
9.4979 217
9.51801 227
9.53812 224
9.55824 218
9.57835 231
9.59846 195
9.61858 240
9.63869 204
9.6588 203
9.67892 193
9.69903 226
9.71915 203
9.73926 242
9.75937 245
9.77949 251
9.7996 242
9.81971 232
9.83983 206
9.85994 244
9.88006 222
9.90017 226
9.92028 213
9.9404 235
9.96051 249
9.98062 239
10.00074 206
10.02085 219
10.04097 271
10.06108 260
10.08119 230
10.10131 205
10.12142 231
10.14153 219
10.16165 176
10.18176 215
10.20187 253
10.22199 238
10.2421 222
10.26222 217
10.28233 242
10.30244 224
10.32256 213
10.34267 217
10.36278 226
10.3829 200
10.40301 225
10.42313 211
10.44324 209
10.46335 228
10.48347 235
10.50358 223
10.52369 237
10.54381 208
10.56392 217
10.58403 207
10.60415 221
10.62426 202
10.64438 231
10.66449 197
10.6846 202
10.70472 201
10.72483 208
10.74494 243
10.76506 214
10.78517 238
10.80529 202
10.8254 200
10.84551 191
10.86563 216
10.88574 232
10.90585 250
10.92597 207
10.94608 218
10.9662 202
10.98631 227
11.00642 219
11.02654 220
11.04665 219
11.06676 207
11.08688 230
11.10699 226
11.1271 217
11.14722 228
11.16733 236
11.18745 207
11.20756 236
11.22767 206
11.24779 227
11.2679 249
11.28801 214
11.30813 208
11.32824 217
11.34836 227
11.36847 214
11.38858 240
11.4087 193
11.42881 215
11.44892 204
11.46904 224
11.48915 197
11.50927 203
11.52938 218
11.54949 238
11.56961 228
11.58972 209
11.60983 230
11.62995 216
11.65006 188
11.67017 218
11.69029 230
11.7104 223
11.73052 197
11.75063 200
11.77074 213
11.79086 206
11.81097 208
11.83108 218
11.8512 222
11.87131 202
11.89143 220
11.91154 192
11.93165 233
11.95177 225
11.97188 218
11.99199 241
12.01211 201
12.03222 215
12.05234 219
12.07245 226
12.09256 248
12.11268 192
12.13279 234
12.1529 205
12.17302 206
12.19313 224
12.21324 219
12.23336 205
12.25347 207
12.27359 202
12.2937 209
12.31381 195
12.33393 215
12.35404 189
12.37415 218
12.39427 230
12.41438 216
12.4345 212
12.45461 225
12.47472 239
12.49484 185
12.51495 221
12.53506 227
12.55518 221
12.57529 216
12.5954 205
12.61552 205
12.63563 219
12.65575 229
12.67586 187
12.69597 197
12.71609 198
12.7362 196
12.75631 182
12.77643 220
12.79654 211
12.81666 223
12.83677 218
12.85688 194
12.877 204
12.89711 201
12.91722 198
12.93734 208
12.95745 212
12.97757 189
12.99768 186
13.01779 191
13.03791 204
13.05802 180
13.07813 201
13.09825 186
13.11836 188
13.13847 210
13.15859 181
13.1787 209
13.19882 204
13.21893 219
13.23904 200
13.25916 190
13.27927 171
13.29938 192
13.3195 173
13.33961 172
13.35973 190
13.37984 179
13.39995 184
13.42007 198
13.44018 200
13.46029 174
13.48041 199
13.50052 194
13.52064 176
13.54075 189
13.56086 196
13.58098 190
13.60109 198
13.6212 190
13.64132 191
13.66143 169
13.68154 188
13.70166 196
13.72177 204
13.74189 230
13.762 187
13.78211 203
13.80223 187
13.82234 186
13.84245 205
13.86257 202
13.88268 207
13.9028 181
13.92291 165
13.94302 183
13.96314 234
13.98325 184
14.00336 183
14.02348 166
14.04359 170
14.06371 180
14.08382 180
14.10393 192
14.12405 202
14.14416 192
14.16427 188
14.18439 185
14.2045 186
14.22461 181
14.24473 192
14.26484 185
14.28496 185
14.30507 207
14.32518 179
14.3453 170
14.36541 177
14.38552 176
14.40564 198
14.42575 174
14.44587 198
14.46598 204
14.48609 189
14.50621 194
14.52632 190
14.54643 180
14.56655 173
14.58666 173
14.60677 154
14.62689 190
14.647 195
14.66712 176
14.68723 172
14.70734 173
14.72746 195
14.74757 180
14.76768 190
14.7878 169
14.80791 162
14.82803 215
14.84814 180
14.86825 161
14.88837 177
14.90848 213
14.92859 209
14.94871 176
14.96882 158
14.98894 208
15.00905 151
15.02916 164
15.04928 183
15.06939 167
15.0895 205
15.10962 176
15.12973 191
15.14984 178
15.16996 183
15.19007 194
15.21019 175
15.2303 179
15.25041 179
15.27053 197
15.29064 170
15.31075 187
15.33087 193
15.35098 183
15.3711 178
15.39121 198
15.41132 166
15.43144 173
15.45155 181
15.47166 170
15.49178 175
15.51189 212
15.53201 181
15.55212 175
15.57223 173
15.59235 194
15.61246 160
15.63257 157
15.65269 183
15.6728 178
15.69291 186
15.71303 184
15.73314 198
15.75326 174
15.77337 150
15.79348 166
15.8136 161
15.83371 155
15.85382 199
15.87394 169
15.89405 166
15.91417 182
15.93428 181
15.95439 170
15.97451 207
15.99462 175
16.01473 161
16.03485 155
16.05496 174
16.07508 151
16.09519 157
16.1153 153
16.13542 163
16.15553 166
16.17564 164
16.19576 191
16.21587 163
16.23598 185
16.2561 181
16.27621 177
16.29633 185
16.31644 139
16.33655 155
16.35667 179
16.37678 169
16.39689 155
16.41701 170
16.43712 180
16.45724 172
16.47735 167
16.49746 191
16.51758 164
16.53769 188
16.5578 179
16.57792 162
16.59803 175
16.61814 168
16.63826 149
16.65837 169
16.67849 179
16.6986 158
16.71871 197
16.73883 162
16.75894 152
16.77905 191
16.79917 182
16.81928 157
16.8394 164
16.85951 208
16.87962 174
16.89974 163
16.91985 206
16.93996 176
16.96008 152
16.98019 186
17.00031 144
17.02042 148
17.04053 155
17.06065 163
17.08076 159
17.10087 155
17.12099 150
17.1411 178
17.16121 185
17.18133 158
17.20144 168
17.22156 190
17.24167 149
17.26178 173
17.2819 164
17.30201 159
17.32212 155
17.34224 184
17.36235 152
17.38247 161
17.40258 149
17.42269 171
17.44281 154
17.46292 160
17.48303 169
17.50315 181
17.52326 164
17.54338 176
17.56349 167
17.5836 166
17.60372 150
17.62383 176
17.64394 143
17.66406 144
17.68417 191
17.70428 161
17.7244 160
17.74451 188
17.76463 163
17.78474 184
17.80485 150
17.82497 181
17.84508 141
17.86519 160
17.88531 188
17.90542 151
17.92554 173
17.94565 136
17.96576 171
17.98588 163
18.00599 187
18.0261 144
18.04622 180
18.06633 175
18.08645 167
18.10656 167
18.12667 153
18.14679 176
18.1669 158
18.18701 193
18.20713 171
18.22724 169
18.24735 166
18.26747 146
18.28758 168
18.3077 154
18.32781 168
18.34792 162
18.36804 159
18.38815 162
18.40826 146
18.42838 211
18.44849 154
18.46861 171
18.48872 184
18.50883 157
18.52895 135
18.54906 145
18.56917 181
18.58929 167
18.6094 182
18.62951 178
18.64963 161
18.66974 174
18.68986 174
18.70997 194
18.73008 174
18.7502 168
18.77031 207
18.79042 184
18.81054 191
18.83065 205
18.85077 175
18.87088 149
18.89099 190
18.91111 180
18.93122 180
18.95133 164
18.97145 157
18.99156 147
19.01168 146
19.03179 184
19.0519 153
19.07202 162
19.09213 173
19.11224 153
19.13236 168
19.15247 169
19.17258 174
19.1927 164
19.21281 165
19.23293 177
19.25304 180
19.27315 179
19.29327 185
19.31338 157
19.33349 181
19.35361 169
19.37372 170
19.39384 183
19.41395 185
19.43406 193
19.45418 183
19.47429 220
19.4944 188
19.51452 206
19.53463 213
19.55475 226
19.57486 201
19.59497 200
19.61509 207
19.6352 214
19.65531 215
19.67543 229
19.69554 234
19.71565 245
19.73577 259
19.75588 232
19.776 257
19.79611 268
19.81622 272
19.83634 258
19.85645 278
19.87656 253
19.89668 240
19.91679 233
19.93691 240
19.95702 286
19.97713 227
19.99725 258
20.01736 252
20.03747 253
20.05759 247
20.0777 220
20.09782 268
20.11793 248
20.13804 269
20.15816 290
20.17827 281
20.19838 280
20.2185 289
20.23861 291
20.25872 314
20.27884 312
20.29895 285
20.31907 280
20.33918 299
20.35929 299
20.37941 353
20.39952 328
20.41963 343
20.43975 371
20.45986 349
20.47998 439
20.50009 383
20.5202 385
20.54032 383
20.56043 420
20.58054 400
20.60066 434
20.62077 547
20.64088 561
20.661 692
20.68111 789
20.70123 1072
20.72134 1492
20.74145 2231
20.76157 3077
20.78168 4305
20.80179 5933
20.82191 7690
20.84202 9104
20.86214 9393
20.88225 8612
20.90236 6570
20.92248 4691
20.94259 2937
20.9627 1621
20.98282 992
21.00293 678
21.02305 582
21.04316 504
21.06327 437
21.08339 475
21.1035 382
21.12361 382
21.14373 379
21.16384 367
21.18395 340
21.20407 281
21.22418 303
21.2443 276
21.26441 279
21.28452 287
21.30464 242
21.32475 232
21.34486 281
21.36498 230
21.38509 262
21.40521 222
21.42532 250
21.44543 250
21.46555 213
21.48566 238
21.50577 208
21.52589 213
21.546 223
21.56612 236
21.58623 227
21.60634 256
21.62646 212
21.64657 218
21.66668 215
21.6868 229
21.70691 239
21.72702 211
21.74714 208
21.76725 242
21.78737 226
21.80748 255
21.82759 230
21.84771 196
21.86782 198
21.88793 221
21.90805 244
21.92816 230
21.94828 236
21.96839 232
21.9885 225
22.00862 210
22.02873 196
22.04884 225
22.06896 204
22.08907 231
22.10919 205
22.1293 229
22.14941 231
22.16953 209
22.18964 190
22.20975 189
22.22987 223
22.24998 201
22.27009 207
22.29021 188
22.31032 195
22.33044 191
22.35055 190
22.37066 213
22.39078 186
22.41089 208
22.431 186
22.45112 190
22.47123 205
22.49135 213
22.51146 211
22.53157 185
22.55169 191
22.5718 205
22.59191 197
22.61203 220
22.63214 211
22.65225 195
22.67237 204
22.69248 188
22.7126 216
22.73271 192
22.75282 203
22.77294 183
22.79305 216
22.81316 197
22.83328 205
22.85339 171
22.87351 193
22.89362 193
22.91373 198
22.93385 214
22.95396 182
22.97407 180
22.99419 190
23.0143 210
23.03442 190
23.05453 187
23.07464 213
23.09476 211
23.11487 209
23.13498 159
23.1551 174
23.17521 198
23.19532 181
23.21544 193
23.23555 219
23.25567 200
23.27578 216
23.29589 178
23.31601 187
23.33612 195
23.35623 198
23.37635 195
23.39646 185
23.41658 215
23.43669 185
23.4568 206
23.47692 193
23.49703 191
23.51714 172
23.53726 191
23.55737 186
23.57749 203
23.5976 181
23.61771 198
23.63783 191
23.65794 206
23.67805 191
23.69817 225
23.71828 190
23.73839 181
23.75851 204
23.77862 187
23.79874 204
23.81885 184
23.83896 203
23.85908 209
23.87919 205
23.8993 215
23.91942 230
23.93953 250
23.95965 267
23.97976 263
23.99987 319
24.01999 304
24.0401 282
24.06021 267
24.08033 204
24.10044 212
24.12056 193
24.14067 209
24.16078 216
24.1809 194
24.20101 190
24.22112 203
24.24124 180
24.26135 204
24.28146 230
24.30158 182
24.32169 190
24.34181 205
24.36192 172
24.38203 196
24.40215 210
24.42226 196
24.44237 198
24.46249 199
24.4826 201
24.50272 175
24.52283 206
24.54294 166
24.56306 193
24.58317 210
24.60328 185
24.6234 196
24.64351 198
24.66362 202
24.68374 190
24.70385 202
24.72397 203
24.74408 180
24.76419 195
24.78431 189
24.80442 186
24.82453 172
24.84465 232
24.86476 204
24.88488 207
24.90499 207
24.9251 181
24.94522 194
24.96533 193
24.98544 206
25.00556 209
25.02567 197
25.04579 180
25.0659 231
25.08601 173
25.10613 214
25.12624 200
25.14635 214
25.16647 200
25.18658 201
25.20669 208
25.22681 173
25.24692 230
25.26704 203
25.28715 217
25.30726 215
25.32738 235
25.34749 219
25.3676 214
25.38772 215
25.40783 214
25.42795 237
25.44806 219
25.46817 228
25.48829 227
25.5084 236
25.52851 221
25.54863 221
25.56874 257
25.58886 251
25.60897 251
25.62908 284
25.6492 341
25.66931 308
25.68942 357
25.70954 377
25.72965 399
25.74976 381
25.76988 434
25.78999 481
25.81011 474
25.83022 422
25.85033 466
25.87045 452
25.89056 442
25.91067 508
25.93079 502
25.9509 531
25.97102 448
25.99113 539
26.01124 490
26.03136 538
26.05147 521
26.07158 543
26.0917 555
26.11181 628
26.13193 649
26.15204 696
26.17215 699
26.19227 815
26.21238 834
26.23249 941
26.25261 1014
26.27272 1123
26.29283 1140
26.31295 1239
26.33306 1303
26.35318 1478
26.37329 1836
26.3934 2028
26.41352 2481
26.43363 3104
26.45374 4071
26.47386 5498
26.49397 7325
26.51409 10641
26.5342 14887
26.55431 20383
26.57443 27567
26.59454 35307
26.61465 42260
26.63477 44059
26.65488 39648
26.67499 31939
26.69511 24790
26.71522 18372
26.73534 11941
26.75545 6500
26.77556 3533
26.79568 2448
26.81579 2038
26.8359 1686
26.85602 1548
26.87613 1322
26.89625 1267
26.91636 1193
26.93647 1020
26.95659 928
26.9767 850
26.99681 702
27.01693 659
27.03704 655
27.05716 605
27.07727 521
27.09738 540
27.1175 536
27.13761 478
27.15772 480
27.17784 465
27.19795 463
27.21806 446
27.23818 420
27.25829 404
27.27841 400
27.29852 387
27.31863 392
27.33875 373
27.35886 441
27.37897 371
27.39909 447
27.4192 429
27.43932 404
27.45943 425
27.47954 416
27.49966 398
27.51977 383
27.53988 394
27.56 359
27.58011 311
27.60023 343
27.62034 324
27.64045 303
27.66057 323
27.68068 297
27.70079 293
27.72091 302
27.74102 315
27.76113 321
27.78125 311
27.80136 295
27.82148 321
27.84159 285
27.8617 285
27.88182 325
27.90193 307
27.92204 289
27.94216 305
27.96227 291
27.98239 289
28.0025 266
28.02261 290
28.04273 260
28.06284 278
28.08295 254
28.10307 280
28.12318 291
28.1433 257
28.16341 251
28.18352 287
28.20364 259
28.22375 276
28.24386 257
28.26398 277
28.28409 265
28.3042 267
28.32432 232
28.34443 233
28.36455 249
28.38466 231
28.40477 269
28.42489 251
28.445 265
28.46511 262
28.48523 214
28.50534 294
28.52546 236
28.54557 256
28.56568 224
28.5858 222
28.60591 208
28.62602 263
28.64614 275
28.66625 251
28.68636 242
28.70648 251
28.72659 240
28.74671 222
28.76682 244
28.78693 232
28.80705 227
28.82716 243
28.84727 249
28.86739 265
28.8875 228
28.90762 265
28.92773 256
28.94784 230
28.96796 241
28.98807 241
29.00818 229
29.0283 210
29.04841 236
29.06853 233
29.08864 232
29.10875 236
29.12887 238
29.14898 202
29.16909 243
29.18921 254
29.20932 216
29.22943 237
29.24955 206
29.26966 223
29.28978 224
29.30989 205
29.33 216
29.35012 218
29.37023 240
29.39034 218
29.41046 212
29.43057 202
29.45069 243
29.4708 206
29.49091 211
29.51103 202
29.53114 233
29.55125 222
29.57137 221
29.59148 223
29.6116 229
29.63171 211
29.65182 215
29.67194 194
29.69205 208
29.71216 231
29.73228 201
29.75239 246
29.7725 216
29.79262 229
29.81273 176
29.83285 212
29.85296 205
29.87307 203
29.89319 196
29.9133 212
29.93341 214
29.95353 198
29.97364 223
29.99376 184
30.01387 197
30.03398 186
30.0541 207
30.07421 223
30.09432 175
30.11444 228
30.13455 195
30.15467 175
30.17478 209
30.19489 189
30.21501 229
30.23512 188
30.25523 215
30.27535 231
30.29546 180
30.31557 203
30.33569 200
30.3558 196
30.37592 202
30.39603 191
30.41614 197
30.43626 180
30.45637 190
30.47648 163
30.4966 194
30.51671 206
30.53683 185
30.55694 196
30.57705 203
30.59717 186
30.61728 193
30.63739 202
30.65751 200
30.67762 190
30.69773 206
30.71785 183
30.73796 198
30.75808 192
30.77819 199
30.7983 192
30.81842 167
30.83853 175
30.85864 207
30.87876 198
30.89887 198
30.91899 182
30.9391 181
30.95921 164
30.97933 170
30.99944 178
31.01955 200
31.03967 166
31.05978 184
31.0799 179
31.10001 178
31.12012 188
31.14024 163
31.16035 183
31.18046 168
31.20058 193
31.22069 187
31.2408 180
31.26092 185
31.28103 183
31.30115 179
31.32126 175
31.34137 185
31.36149 202
31.3816 151
31.40171 186
31.42183 180
31.44194 158
31.46206 170
31.48217 172
31.50228 161
31.5224 134
31.54251 174
31.56262 153
31.58274 166
31.60285 186
31.62297 163
31.64308 172
31.66319 176
31.68331 175
31.70342 173
31.72353 155
31.74365 164
31.76376 153
31.78387 156
31.80399 186
31.8241 174
31.84422 173
31.86433 158
31.88444 166
31.90456 161
31.92467 170
31.94478 183
31.9649 160
31.98501 175
32.00513 149
32.02524 147
32.04535 150
32.06547 150
32.08558 149
32.10569 137
32.12581 154
32.14592 173
32.16604 163
32.18615 174
32.20626 166
32.22638 154
32.24649 160
32.2666 171
32.28672 173
32.30683 164
32.32694 162
32.34706 182
32.36717 152
32.38729 167
32.4074 162
32.42751 167
32.44763 181
32.46774 145
32.48785 179
32.50797 146
32.52808 150
32.5482 160
32.56831 162
32.58842 148
32.60854 159
32.62865 174
32.64876 152
32.66888 176
32.68899 143
32.7091 167
32.72922 137
32.74933 162
32.76945 157
32.78956 166
32.80967 148
32.82979 168
32.8499 163
32.87001 156
32.89013 140
32.91024 150
32.93036 160
32.95047 151
32.97058 151
32.9907 151
33.01081 134
33.03092 152
33.05104 154
33.07115 152
33.09127 136
33.11138 148
33.13149 150
33.15161 148
33.17172 160
33.19183 165
33.21195 153
33.23206 155
33.25217 167
33.27229 118
33.2924 152
33.31252 146
33.33263 139
33.35274 160
33.37286 127
33.39297 137
33.41308 141
33.4332 135
33.45331 144
33.47343 143
33.49354 133
33.51365 140
33.53377 143
33.55388 154
33.57399 140
33.59411 137
33.61422 160
33.63434 166
33.65445 146
33.67456 171
33.69468 151
33.71479 158
33.7349 150
33.75502 140
33.77513 125
33.79524 140
33.81536 142
33.83547 141
33.85559 144
33.8757 142
33.89581 132
33.91593 139
33.93604 135
33.95615 180
33.97627 145
33.99638 138
34.0165 139
34.03661 153
34.05672 180
34.07684 155
34.09695 167
34.11706 159
34.13718 118
34.15729 155
34.17741 164
34.19752 146
34.21763 160
34.23775 137
34.25786 174
34.27797 146
34.29809 151
34.3182 156
34.33831 142
34.35843 144
34.37854 165
34.39866 174
34.41877 170
34.43888 151
34.459 171
34.47911 150
34.49922 180
34.51934 177
34.53945 189
34.55957 159
34.57968 180
34.59979 175
34.61991 171
34.64002 167
34.66013 169
34.68025 151
34.70036 176
34.72047 177
34.74059 194
34.7607 165
34.78082 179
34.80093 174
34.82104 173
34.84116 182
34.86127 165
34.88138 170
34.9015 162
34.92161 171
34.94173 184
34.96184 160
34.98195 191
35.00207 207
35.02218 168
35.04229 153
35.06241 165
35.08252 174
35.10264 173
35.12275 169
35.14286 177
35.16298 161
35.18309 172
35.2032 155
35.22332 190
35.24343 146
35.26354 168
35.28366 170
35.30377 177
35.32389 193
35.344 179
35.36411 178
35.38423 177
35.40434 170
35.42445 182
35.44457 163
35.46468 199
35.4848 184
35.50491 192
35.52502 204
35.54514 182
35.56525 161
35.58536 145
35.60548 171
35.62559 174
35.64571 201
35.66582 202
35.68593 185
35.70605 158
35.72616 176
35.74627 153
35.76639 184
35.7865 178
35.80661 188
35.82673 193
35.84684 203
35.86696 203
35.88707 150
35.90718 177
35.9273 197
35.94741 186
35.96752 192
35.98764 181
36.00775 178
36.02787 199
36.04798 204
36.06809 179
36.08821 200
36.10832 196
36.12843 198
36.14855 237
36.16866 207
36.18878 206
36.20889 252
36.229 225
36.24912 276
36.26923 284
36.28934 336
36.30946 392
36.32957 486
36.34968 557
36.3698 641
36.38991 850
36.41003 1024
36.43014 1287
36.45025 1634
36.47037 2064
36.49048 2506
36.51059 2778
36.53071 3033
36.55082 2809
36.57094 2131
36.59105 1775
36.61116 1502
36.63128 1365
36.65139 1149
36.6715 745
36.69162 478
36.71173 354
36.73184 291
36.75196 295
36.77207 252
36.79219 244
36.8123 248
36.83241 214
36.85253 199
36.87264 226
36.89275 215
36.91287 176
36.93298 175
36.9531 192
36.97321 190
36.99332 188
37.01344 192
37.03355 193
37.05366 182
37.07378 184
37.09389 175
37.11401 173
37.13412 174
37.15423 151
37.17435 137
37.19446 163
37.21457 174
37.23469 137
37.2548 146
37.27491 139
37.29503 163
37.31514 172
37.33526 167
37.35537 176
37.37548 170
37.3956 183
37.41571 177
37.43582 180
37.45594 169
37.47605 170
37.49617 148
37.51628 171
37.53639 159
37.55651 175
37.57662 144
37.59673 187
37.61685 139
37.63696 166
37.65708 181
37.67719 176
37.6973 148
37.71742 137
37.73753 165
37.75764 131
37.77776 166
37.79787 157
37.81798 169
37.8381 139
37.85821 141
37.87833 146
37.89844 166
37.91855 156
37.93867 157
37.95878 156
37.97889 169
37.99901 162
38.01912 157
38.03924 150
38.05935 156
38.07946 166
38.09958 152
38.11969 180
38.1398 173
38.15992 169
38.18003 156
38.20015 178
38.22026 181
38.24037 203
38.26049 176
38.2806 138
38.30071 147
38.32083 162
38.34094 166
38.36105 163
38.38117 159
38.40128 173
38.4214 164
38.44151 147
38.46162 163
38.48174 159
38.50185 170
38.52196 154
38.54208 154
38.56219 165
38.58231 148
38.60242 150
38.62253 165
38.64265 188
38.66276 150
38.68287 175
38.70299 163
38.7231 185
38.74321 168
38.76333 152
38.78344 159
38.80356 156
38.82367 171
38.84378 160
38.8639 153
38.88401 172
38.90412 183
38.92424 186
38.94435 203
38.96447 173
38.98458 174
39.00469 202
39.02481 222
39.04492 194
39.06503 206
39.08515 243
39.10526 231
39.12538 244
39.14549 270
39.1656 254
39.18572 292
39.20583 347
39.22594 368
39.24606 431
39.26617 500
39.28628 588
39.3064 710
39.32651 884
39.34663 1151
39.36674 1463
39.38685 1807
39.40697 2227
39.42708 2579
39.44719 2757
39.46731 2680
39.48742 2203
39.50754 1709
39.52765 1492
39.54776 1348
39.56788 1227
39.58799 952
39.6081 614
39.62822 409
39.64833 327
39.66845 295
39.68856 308
39.70867 221
39.72879 228
39.7489 243
39.76901 207
39.78913 252
39.80924 212
39.82935 210
39.84947 217
39.86958 208
39.8897 225
39.90981 236
39.92992 208
39.95004 217
39.97015 205
39.99026 282
40.01038 216
40.03049 200
40.05061 244
40.07072 293
40.09083 308
40.11095 418
40.13106 473
40.15117 521
40.17129 664
40.1914 803
40.21152 932
40.23163 1149
40.25174 1353
40.27186 1332
40.29197 1341
40.31208 1105
40.3322 872
40.35231 782
40.37242 774
40.39254 675
40.41265 519
40.43277 383
40.45288 250
40.47299 221
40.49311 232
40.51322 222
40.53333 176
40.55345 194
40.57356 181
40.59368 196
40.61379 170
40.6339 172
40.65402 158
40.67413 181
40.69424 175
40.71436 150
40.73447 171
40.75458 154
40.7747 151
40.79481 160
40.81493 170
40.83504 143
40.85515 162
40.87527 156
40.89538 146
40.91549 150
40.93561 153
40.95572 156
40.97584 175
40.99595 159
41.01606 151
41.03618 159
41.05629 159
41.0764 181
41.09652 162
41.11663 162
41.13675 142
41.15686 164
41.17697 173
41.19709 154
41.2172 154
41.23731 169
41.25743 171
41.27754 163
41.29765 157
41.31777 187
41.33788 163
41.358 166
41.37811 140
41.39822 164
41.41834 143
41.43845 156
41.45856 161
41.47868 157
41.49879 165
41.51891 151
41.53902 151
41.55913 168
41.57925 164
41.59936 163
41.61947 154
41.63959 179
41.6597 172
41.67982 164
41.69993 178
41.72004 157
41.74016 166
41.76027 153
41.78038 176
41.8005 174
41.82061 168
41.84072 154
41.86084 182
41.88095 166
41.90107 184
41.92118 177
41.94129 184
41.96141 159
41.98152 165
42.00163 189
42.02175 186
42.04186 198
42.06198 187
42.08209 224
42.1022 191
42.12232 221
42.14243 244
42.16254 279
42.18266 287
42.20277 334
42.22289 342
42.243 404
42.26311 444
42.28323 558
42.30334 652
42.32345 832
42.34357 982
42.36368 1210
42.38379 1530
42.40391 1793
42.42402 1876
42.44414 1830
42.46425 1651
42.48436 1253
42.50448 1056
42.52459 997
42.5447 972
42.56482 881
42.58493 611
42.60505 428
42.62516 305
42.64527 246
42.66539 238
42.6855 208
42.70561 205
42.72573 218
42.74584 191
42.76595 204
42.78607 183
42.80618 167
42.8263 167
42.84641 160
42.86652 164
42.88664 177
42.90675 163
42.92686 162
42.94698 152
42.96709 154
42.98721 151
43.00732 135
43.02743 151
43.04755 136
43.06766 166
43.08777 135
43.10789 145
43.128 158
43.14812 142
43.16823 160
43.18834 175
43.20846 134
43.22857 155
43.24868 132
43.2688 151
43.28891 137
43.30902 129
43.32914 127
43.34925 150
43.36937 144
43.38948 145
43.40959 130
43.42971 142
43.44982 170
43.46993 152
43.49005 142
43.51016 151
43.53028 160
43.55039 133
43.5705 155
43.59062 145
43.61073 129
43.63084 155
43.65096 145
43.67107 134
43.69119 138
43.7113 135
43.73141 142
43.75153 134
43.77164 156
43.79175 140
43.81187 134
43.83198 157
43.85209 137
43.87221 156
43.89232 141
43.91244 146
43.93255 147
43.95266 150
43.97278 144
43.99289 141
44.013 123
44.03312 133
44.05323 126
44.07335 148
44.09346 119
44.11357 134
44.13369 138
44.1538 144
44.17391 112
44.19403 120
44.21414 155
44.23426 135
44.25437 157
44.27448 136
44.2946 140
44.31471 144
44.33482 134
44.35494 126
44.37505 136
44.39516 135
44.41528 139
44.43539 150
44.45551 154
44.47562 131
44.49573 138
44.51585 147
44.53596 132
44.55607 150
44.57619 139
44.5963 151
44.61642 139
44.63653 156
44.65664 138
44.67676 142
44.69687 137
44.71698 147
44.7371 136
44.75721 165
44.77732 132
44.79744 152
44.81755 134
44.83767 138
44.85778 166
44.87789 159
44.89801 151
44.91812 152
44.93823 156
44.95835 146
44.97846 114
44.99858 139
45.01869 165
45.0388 151
45.05892 151
45.07903 146
45.09914 148
45.11926 145
45.13937 158
45.15949 149
45.1796 133
45.19971 159
45.21983 160
45.23994 151
45.26005 137
45.28017 146
45.30028 146
45.32039 151
45.34051 168
45.36062 177
45.38074 187
45.40085 166
45.42096 163
45.44108 190
45.46119 166
45.4813 211
45.50142 210
45.52153 233
45.54165 237
45.56176 274
45.58187 288
45.60199 337
45.6221 397
45.64221 494
45.66233 592
45.68244 684
45.70256 942
45.72267 990
45.74278 1139
45.7629 1283
45.78301 1231
45.80312 1152
45.82324 823
45.84335 723
45.86346 689
45.88358 621
45.90369 694
45.92381 529
45.94392 383
45.96403 273
45.98415 201
46.00426 199
46.02437 169
46.04449 151
46.0646 173
46.08472 165
46.10483 162
46.12494 143
46.14506 162
46.16517 160
46.18528 150
46.2054 150
46.22551 136
46.24563 135
46.26574 142
46.28585 144
46.30597 139
46.32608 150
46.34619 142
46.36631 147
46.38642 148
46.40653 127
46.42665 111
46.44676 129
46.46688 142
46.48699 143
46.5071 131
46.52722 138
46.54733 140
46.56744 108
46.58756 139
46.60767 143
46.62779 117
46.6479 136
46.66801 132
46.68813 129
46.70824 145
46.72835 137
46.74847 139
46.76858 149
46.78869 118
46.80881 126
46.82892 136
46.84904 132
46.86915 103
46.88926 129
46.90938 123
46.92949 119
46.9496 142
46.96972 135
46.98983 108
47.00995 127
47.03006 113
47.05017 146
47.07029 123
47.0904 120
47.11051 138
47.13063 133
47.15074 124
47.17086 127
47.19097 136
47.21108 134
47.2312 144
47.25131 149
47.27142 141
47.29154 124
47.31165 144
47.33176 148
47.35188 121
47.37199 103
47.39211 146
47.41222 137
47.43233 133
47.45245 139
47.47256 124
47.49267 108
47.51279 166
47.5329 127
47.55302 125
47.57313 116
47.59324 110
47.61336 143
47.63347 125
47.65358 143
47.6737 142
47.69381 125
47.71393 133
47.73404 135
47.75415 129
47.77427 117
47.79438 131
47.81449 139
47.83461 122
47.85472 128
47.87483 139
47.89495 142
47.91506 131
47.93518 138
47.95529 124
47.9754 136
47.99552 115
48.01563 135
48.03574 138
48.05586 120
48.07597 106
48.09609 117
48.1162 120
48.13631 135
48.15643 119
48.17654 135
48.19665 125
48.21677 137
48.23688 137
48.257 127
48.27711 142
48.29722 136
48.31734 136
48.33745 145
48.35756 143
48.37768 141
48.39779 137
48.4179 116
48.43802 136
48.45813 121
48.47825 133
48.49836 139
48.51847 137
48.53859 137
48.5587 135
48.57881 146
48.59893 158
48.61904 124
48.63916 151
48.65927 147
48.67938 165
48.6995 134
48.71961 145
48.73972 138
48.75984 136
48.77995 168
48.80006 124
48.82018 145
48.84029 157
48.86041 140
48.88052 133
48.90063 158
48.92075 134
48.94086 144
48.96097 138
48.98109 134
49.0012 143
49.02132 141
49.04143 150
49.06154 133
49.08166 126
49.10177 142
49.12188 148
49.142 157
49.16211 181
49.18223 179
49.20234 156
49.22245 149
49.24257 168
49.26268 143
49.28279 147
49.30291 161
49.32302 149
49.34313 139
49.36325 157
49.38336 146
49.40348 159
49.42359 168
49.4437 191
49.46382 165
49.48393 171
49.50404 155
49.52416 148
49.54427 184
49.56439 155
49.5845 156
49.60461 173
49.62473 173
49.64484 194
49.66495 209
49.68507 224
49.70518 278
49.7253 261
49.74541 278
49.76552 311
49.78564 330
49.80575 350
49.82586 390
49.84598 463
49.86609 504
49.8862 609
49.90632 736
49.92643 831
49.94655 931
49.96666 1228
49.98677 1470
50.00689 1804
50.027 2322
50.04711 2780
50.06723 3297
50.08734 3838
50.10746 4228
50.12757 4113
50.14768 3440
50.1678 2905
50.18791 2192
50.20802 2184
50.22814 2098
50.24825 2093
50.26837 1909
50.28848 1388
50.30859 932
50.32871 556
50.34882 454
50.36893 368
50.38905 342
50.40916 306
50.42927 287
50.44939 267
50.4695 261
50.48962 242
50.50973 258
50.52984 274
50.54996 268
50.57007 262
50.59018 282
50.6103 269
50.63041 244
50.65053 222
50.67064 215
50.69075 211
50.71087 214
50.73098 172
50.75109 191
50.77121 170
50.79132 164
50.81143 178
50.83155 151
50.85166 136
50.87178 145
50.89189 150
50.912 150
50.93212 141
50.95223 155
50.97234 168
50.99246 132
51.01257 150
51.03269 147
51.0528 141
51.07291 152
51.09303 139
51.11314 140
51.13325 126
51.15337 140
51.17348 133
51.1936 153
51.21371 148
51.23382 126
51.25394 134
51.27405 127
51.29416 128
51.31428 129
51.33439 136
51.3545 129
51.37462 126
51.39473 121
51.41485 115
51.43496 128
51.45507 153
51.47519 124
51.4953 111
51.51541 132
51.53553 136
51.55564 125
51.57576 121
51.59587 110
51.61598 107
51.6361 110
51.65621 115
51.67632 138
51.69644 146
51.71655 121
51.73667 113
51.75678 129
51.77689 130
51.79701 116
51.81712 123
51.83723 111
51.85735 121
51.87746 138
51.89757 120
51.91769 115
51.9378 117
51.95792 120
51.97803 115
51.99814 119
52.01826 143
52.03837 110
52.05848 142
52.0786 135
52.09871 127
52.11883 131
52.13894 120
52.15905 134
52.17917 132
52.19928 105
52.21939 133
52.23951 124
52.25962 111
52.27974 130
52.29985 119
52.31996 124
52.34008 118
52.36019 111
52.3803 114
52.40042 107
52.42053 130
52.44064 120
52.46076 120
52.48087 112
52.50099 109
52.5211 132
52.54121 116
52.56133 122
52.58144 110
52.60155 105
52.62167 128
52.64178 128
52.6619 140
52.68201 126
52.70212 132
52.72224 126
52.74235 132
52.76246 150
52.78258 138
52.80269 145
52.8228 147
52.84292 119
52.86303 117
52.88315 134
52.90326 126
52.92337 115
52.94349 116
52.9636 99
52.98371 131
53.00383 123
53.02394 159
53.04406 131
53.06417 122
53.08428 128
53.1044 127
53.12451 139
53.14462 137
53.16474 143
53.18485 125
53.20497 117
53.22508 133
53.24519 129
53.26531 145
53.28542 136
53.30553 132
53.32565 127
53.34576 145
53.36587 132
53.38599 119
53.4061 129
53.42622 142
53.44633 120
53.46644 118
53.48656 128
53.50667 142
53.52678 123
53.5469 140
53.56701 136
53.58713 137
53.60724 150
53.62735 143
53.64747 144
53.66758 130
53.68769 151
53.70781 135
53.72792 153
53.74804 153
53.76815 136
53.78826 137
53.80838 134
53.82849 133
53.8486 135
53.86872 126
53.88883 141
53.90894 121
53.92906 124
53.94917 149
53.96929 150
53.9894 126
54.00951 167
54.02963 128
54.04974 121
54.06985 138
54.08997 145
54.11008 141
54.1302 125
54.15031 140
54.17042 167
54.19054 128
54.21065 133
54.23076 131
54.25088 134
54.27099 139
54.29111 137
54.31122 149
54.33133 149
54.35145 149
54.37156 147
54.39167 144
54.41179 152
54.4319 151
54.45201 179
54.47213 185
54.49224 177
54.51236 219
54.53247 212
54.55258 235
54.5727 215
54.59281 239
54.61292 254
54.63304 284
54.65315 307
54.67327 380
54.69338 448
54.71349 539
54.73361 634
54.75372 730
54.77383 905
54.79395 1016
54.81406 1122
54.83417 1261
54.85429 1241
54.8744 1164
54.89452 952
54.91463 774
54.93474 728
54.95486 705
54.97497 750
54.99508 719
55.0152 642
55.03531 538
55.05543 416
55.07554 344
55.09565 326
55.11577 303
55.13588 305
55.15599 339
55.17611 373
55.19622 386
55.21634 452
55.23645 458
55.25656 545
55.27668 586
55.29679 609
55.3169 621
55.33702 499
55.35713 482
55.37724 366
55.39736 341
55.41747 358
55.43759 382
55.4577 368
55.47781 326
55.49793 279
55.51804 227
55.53815 177
55.55827 173
55.57838 144
55.5985 162
55.61861 170
55.63872 152
55.65884 127
55.67895 123
55.69906 133
55.71918 134
55.73929 129
55.75941 140
55.77952 133
55.79963 136
55.81975 119
55.83986 143
55.85997 139
55.88009 117
55.9002 144
55.92031 131
55.94043 126
55.96054 124
55.98066 136
56.00077 136
56.02088 134
56.041 122
56.06111 137
56.08122 126
56.10134 127
56.12145 111
56.14157 127
56.16168 119
56.18179 148
56.20191 108
56.22202 123
56.24213 111
56.26225 116
56.28236 115
56.30248 125
56.32259 112
56.3427 115
56.36282 137
56.38293 115
56.40304 118
56.42316 113
56.44327 159
56.46338 112
56.4835 142
56.50361 122
56.52373 129
56.54384 117
56.56395 122
56.58407 114
56.60418 136
56.62429 106
56.64441 130
56.66452 127
56.68464 130
56.70475 104
56.72486 109
56.74498 117
56.76509 117
56.7852 124
56.80532 105
56.82543 119
56.84554 121
56.86566 116
56.88577 128
56.90589 113
56.926 114
56.94611 128
56.96623 115
56.98634 143
57.00645 123
57.02657 135
57.04668 136
57.0668 127
57.08691 137
57.10702 146
57.12714 177
57.14725 179
57.16736 189
57.18748 169
57.20759 176
57.22771 186
57.24782 154
57.26793 159
57.28805 135
57.30816 138
57.32827 155
57.34839 143
57.3685 144
57.38861 158
57.40873 144
57.42884 127
57.44896 137
57.46907 101
57.48918 116
57.5093 109
57.52941 126
57.54952 137
57.56964 125
57.58975 122
57.60987 130
57.62998 121
57.65009 123
57.67021 109
57.69032 128
57.71043 141
57.73055 114
57.75066 136
57.77078 131
57.79089 120
57.811 129
57.83112 138
57.85123 118
57.87134 151
57.89146 133
57.91157 129
57.93168 110
57.9518 113
57.97191 127
57.99203 128
58.01214 146
58.03225 144
58.05237 148
58.07248 103
58.09259 121
58.11271 126
58.13282 141
58.15294 118
58.17305 123
58.19316 128
58.21328 128
58.23339 127
58.2535 122
58.27362 119
58.29373 131
58.31385 156
58.33396 132
58.35407 130
58.37419 114
58.3943 119
58.41441 132
58.43453 120
58.45464 126
58.47475 131
58.49487 134
58.51498 138
58.5351 110
58.55521 126
58.57532 118
58.59544 119
58.61555 118
58.63566 123
58.65578 135
58.67589 150
58.69601 136
58.71612 119
58.73623 146
58.75635 113
58.77646 131
58.79657 135
58.81669 126
58.8368 116
58.85691 115
58.87703 122
58.89714 126
58.91726 116
58.93737 119
58.95748 130
58.9776 133
58.99771 112
59.01782 131
59.03794 119
59.05805 142
59.07817 130
59.09828 132
59.11839 132
59.13851 148
59.15862 129
59.17873 137
59.19885 113
59.21896 158
59.23908 127
59.25919 144
59.2793 146
59.29942 129
59.31953 157
59.33964 148
59.35976 150
59.37987 166
59.39998 151
59.4201 170
59.44021 180
59.46033 173
59.48044 202
59.50055 173
59.52067 213
59.54078 248
59.56089 264
59.58101 251
59.60112 254
59.62124 338
59.64135 328
59.66146 345
59.68158 429
59.70169 485
59.7218 545
59.74192 701
59.76203 793
59.78215 925
59.80226 1170
59.82237 1372
59.84249 1672
59.8626 1997
59.88271 2293
59.90283 2464
59.92294 2581
59.94305 2408
59.96317 2131
59.98328 1744
60.0034 1400
60.02351 1314
60.04362 1308
60.06374 1348
60.08385 1321
60.10396 1319
60.12408 1014
60.14419 779
60.16431 529
60.18442 384
60.20453 317
60.22465 271
60.24476 218
60.26487 230
60.28499 217
60.3051 208
60.32522 186
60.34533 188
60.36544 173
60.38556 180
60.40567 177
60.42578 159
60.4459 156
60.46601 141
60.48612 127
60.50624 156
60.52635 132
60.54647 141
60.56658 137
60.58669 153
60.60681 130
60.62692 145
60.64703 148
60.66715 159
60.68726 138
60.70738 117
60.72749 152
60.7476 136
60.76772 132
60.78783 129
60.80794 141
60.82806 141
60.84817 152
60.86828 132
60.8884 132
60.90851 126
60.92863 158
60.94874 143
60.96885 129
60.98897 133
61.00908 147
61.02919 127
61.04931 120
61.06942 131
61.08954 118
61.10965 120
61.12976 113
61.14988 121
61.16999 118
61.1901 138
61.21022 127
61.23033 128
61.25045 137
61.27056 119
61.29067 144
61.31079 138
61.3309 118
61.35101 130
61.37113 122
61.39124 135
61.41135 136
61.43147 141
61.45158 145
61.4717 135
61.49181 137
61.51192 135
61.53204 139
61.55215 125
61.57226 127
61.59238 126
61.61249 153
61.63261 130
61.65272 161
61.67283 133
61.69295 146
61.71306 135
61.73317 127
61.75329 159
61.7734 126
61.79352 159
61.81363 145
61.83374 139
61.85386 123
61.87397 144
61.89408 152
61.9142 138
61.93431 125
61.95442 140
61.97454 145
61.99465 127
62.01477 131
62.03488 141
62.05499 149
62.07511 137
62.09522 134
62.11533 123
62.13545 137
62.15556 131
62.17568 132
62.19579 108
62.2159 131
62.23602 120
62.25613 138
62.27624 127
62.29636 123
62.31647 141
62.33659 137
62.3567 117
62.37681 143
62.39693 149
62.41704 103
62.43715 113
62.45727 125
62.47738 100
62.49749 135
62.51761 128
62.53772 107
62.55784 119
62.57795 118
62.59806 139
62.61818 123
62.63829 134
62.6584 118
62.67852 115
62.69863 118
62.71875 129
62.73886 110
62.75897 114
62.77909 104
62.7992 115
62.81931 110
62.83943 117
62.85954 121
62.87965 125
62.89977 117
62.91988 138
62.94 98
62.96011 128
62.98022 120
63.00034 118
63.02045 135
63.04056 114
63.06068 118
63.08079 132
63.10091 112
63.12102 123
63.14113 127
63.16125 123
63.18136 132
63.20147 122
63.22159 116
63.2417 100
63.26182 101
63.28193 125
63.30204 124
63.32216 127
63.34227 125
63.36238 102
63.3825 125
63.40261 125
63.42272 120
63.44284 121
63.46295 131
63.48307 125
63.50318 125
63.52329 142
63.54341 126
63.56352 138
63.58363 125
63.60375 137
63.62386 122
63.64398 147
63.66409 134
63.6842 155
63.70432 146
63.72443 159
63.74454 149
63.76466 172
63.78477 185
63.80489 195
63.825 220
63.84511 232
63.86523 263
63.88534 313
63.90545 376
63.92557 401
63.94568 471
63.96579 538
63.98591 551
64.00602 551
64.02614 498
64.04625 427
64.06636 326
64.08648 316
64.10659 301
64.1267 317
64.14682 296
64.16693 310
64.18705 290
64.20716 322
64.22727 243
64.24739 233
64.2675 169
64.28761 133
64.30773 141
64.32784 134
64.34796 133
64.36807 108
64.38818 131
64.4083 132
64.42841 105
64.44852 132
64.46864 124
64.48875 128
64.50886 128
64.52898 110
64.54909 104
64.56921 109
64.58932 110
64.60943 103
64.62955 120
64.64966 97
64.66977 114
64.68989 119
64.71 121
64.73012 98
64.75023 122
64.77034 124
64.79046 112
64.81057 119
64.83068 125
64.8508 112
64.87091 114
64.89102 115
64.91114 122
64.93125 119
64.95137 90
64.97148 125
64.99159 120
65.01171 114
65.03182 131
65.05193 100
65.07205 108
65.09216 118
65.11228 137
65.13239 123
65.1525 121
65.17262 106
65.19273 103
65.21284 128
65.23296 120
65.25307 119
65.27319 119
65.2933 138
65.31341 142
65.33353 139
65.35364 120
65.37375 116
65.39387 114
65.41398 99
65.43409 111
65.45421 128
65.47432 128
65.49444 117
65.51455 129
65.53466 158
65.55478 159
65.57489 160
65.595 155
65.61512 175
65.63523 167
65.65535 188
65.67546 200
65.69557 214
65.71569 233
65.7358 222
65.75591 219
65.77603 234
65.79614 190
65.81626 206
65.83637 170
65.85648 149
65.8766 162
65.89671 189
65.91682 170
65.93694 139
65.95705 190
65.97716 139
65.99728 136
66.01739 124
66.03751 106
66.05762 136
66.07773 119
66.09785 102
66.11796 133
66.13807 115
66.15819 135
66.1783 142
66.19842 118
66.21853 132
66.23864 137
66.25876 147
66.27887 123
66.29898 129
66.3191 140
66.33921 137
66.35933 107
66.37944 114
66.39955 138
66.41967 117
66.43978 128
66.45989 140
66.48001 137
66.50012 100
66.52023 135
66.54035 128
66.56046 126
66.58058 140
66.60069 134
66.6208 139
66.64092 137
66.66103 142
66.68114 140
66.70126 129
66.72137 138
66.74149 131
66.7616 119
66.78171 119
66.80183 124
66.82194 149
66.84205 160
66.86217 128
66.88228 132
66.90239 144
66.92251 134
66.94262 150
66.96274 135
66.98285 137
67.00296 134
67.02308 134
67.04319 141
67.0633 133
67.08342 155
67.10353 144
67.12365 151
67.14376 156
67.16387 158
67.18399 169
67.2041 154
67.22421 175
67.24433 172
67.26444 183
67.28456 193
67.30467 206
67.32478 218
67.3449 215
67.36501 207
67.38512 229
67.40524 256
67.42535 250
67.44546 318
67.46558 334
67.48569 396
67.50581 423
67.52592 479
67.54603 555
67.56615 628
67.58626 758
67.60637 871
67.62649 1084
67.6466 1217
67.66672 1378
67.68683 1474
67.70694 1572
67.72706 1483
67.74717 1364
67.76728 1072
67.7874 923
67.80751 956
67.82763 932
67.84774 970
67.86785 1043
67.88797 1061
67.90808 1114
67.92819 1131
67.94831 1110
67.96842 1064
67.98853 1108
68.00865 1208
68.02876 1416
68.04888 1547
68.06899 1742
68.0891 1882
68.10922 2033
68.12933 2052
68.14944 1904
68.16956 1685
68.18967 1461
68.20979 1553
68.2299 1688
68.25001 1682
68.27013 1847
68.29024 1849
68.31035 1760
68.33047 1450
68.35058 1141
68.3707 917
68.39081 785
68.41092 697
68.43104 665
68.45115 675
68.47126 653
68.49138 598
68.51149 483
68.5316 440
68.55172 360
68.57183 245
68.59195 214
68.61206 210
68.63217 185
68.65229 192
68.6724 187
68.69251 175
68.71263 167
68.73274 167
68.75286 168
68.77297 138
68.79308 139
68.8132 153
68.83331 135
68.85342 144
68.87354 141
68.89365 145
68.91376 149
68.93388 129
68.95399 136
68.97411 125
68.99422 158
69.01433 128
69.03445 146
69.05456 137
69.07467 135
69.09479 151
69.1149 132
69.13502 138
69.15513 129
69.17524 130
69.19536 126
69.21547 119
69.23558 128
69.2557 132
69.27581 117
69.29593 108
69.31604 118
69.33615 132
69.35627 113
69.37638 133
69.39649 107
69.41661 129
69.43672 108
69.45683 113
69.47695 111
69.49706 102
69.51718 112
69.53729 124
69.5574 132
69.57752 112
69.59763 97
69.61774 111
69.63786 102
69.65797 117
69.67809 121
69.6982 124
69.71831 103
69.73843 117
69.75854 116
69.77865 108
69.79877 128
69.81888 130
69.839 107
69.85911 134
69.87922 89
69.89934 124
69.91945 106
69.93956 120
69.95968 131
69.97979 107
69.9999 98
70.02002 105
70.04013 112
70.06025 117
70.08036 109
70.10047 117
70.12059 111
70.1407 121
70.16081 113
70.18093 106
70.20104 133
70.22116 107
70.24127 108
70.26138 97
70.2815 105
70.30161 96
70.32172 102
70.34184 117
70.36195 106
70.38207 86
70.40218 106
70.42229 112
70.44241 112
70.46252 108
70.48263 102
70.50275 130
70.52286 109
70.54297 116
70.56309 126
70.5832 115
70.60332 97
70.62343 114
70.64354 120
70.66366 105
70.68377 131
70.70388 115
70.724 114
70.74411 102
70.76423 129
70.78434 110
70.80445 118
70.82457 111
70.84468 112
70.86479 104
70.88491 108
70.90502 111
70.92513 124
70.94525 121
70.96536 115
70.98548 112
71.00559 118
71.0257 119
71.04582 111
71.06593 113
71.08604 112
71.10616 106
71.12627 117
71.14639 116
71.1665 111
71.18661 107
71.20673 126
71.22684 98
71.24695 116
71.26707 123
71.28718 104
71.3073 109
71.32741 112
71.34752 104
71.36764 103
71.38775 119
71.40786 116
71.42798 77
71.44809 109
71.4682 105
71.48832 119
71.50843 98
71.52855 111
71.54866 114
71.56877 92
71.58889 102
71.609 88
71.62911 100
71.64923 95
71.66934 110
71.68946 121
71.70957 99
71.72968 117
71.7498 107
71.76991 117
71.79002 115
71.81014 112
71.83025 106
71.85037 118
71.87048 97
71.89059 109
71.91071 93
71.93082 109
71.95093 111
71.97105 108
71.99116 124
72.01127 97
72.03139 84
72.0515 96
72.07162 114
72.09173 114
72.11184 109
72.13196 126
72.15207 106
72.17218 127
72.1923 112
72.21241 106
72.23253 95
72.25264 100
72.27275 113
72.29287 92
72.31298 117
72.33309 118
72.35321 110
72.37332 125
72.39344 104
72.41355 119
72.43366 112
72.45378 109
72.47389 91
72.494 111
72.51412 127
72.53423 112
72.55434 102
72.57446 106
72.59457 110
72.61469 106
72.6348 115
72.65491 106
72.67503 122
72.69514 135
72.71525 107
72.73537 103
72.75548 108
72.7756 110
72.79571 138
72.81582 101
72.83594 121
72.85605 138
72.87616 126
72.89628 123
72.91639 107
72.9365 129
72.95662 129
72.97673 150
72.99685 129
73.01696 134
73.03707 133
73.05719 137
73.0773 143
73.09741 171
73.11753 161
73.13764 162
73.15776 168
73.17787 153
73.19798 160
73.2181 181
73.23821 208
73.25832 254
73.27844 258
73.29855 317
73.31867 364
73.33878 411
73.35889 467
73.37901 456
73.39912 506
73.41923 512
73.43935 557
73.45946 548
73.47957 463
73.49969 389
73.5198 349
73.53992 329
73.56003 310
73.58014 318
73.60026 328
73.62037 326
73.64048 356
73.6606 318
73.68071 297
73.70083 243
73.72094 198
73.74105 177
73.76117 135
73.78128 137
73.80139 139
73.82151 132
73.84162 128
73.86174 145
73.88185 124
73.90196 119
73.92208 100
73.94219 121
73.9623 109
73.98242 105
74.00253 116
74.02264 114
74.04276 128
74.06287 132
74.08299 109
74.1031 112
74.12321 100
74.14333 97
74.16344 120
74.18355 131
74.20367 101
74.22378 112
74.2439 95
74.26401 105
74.28412 115
74.30424 104
74.32435 104
74.34446 114
74.36458 92
74.38469 100
74.40481 101
74.42492 125
74.44503 88
74.46515 101
74.48526 99
74.50537 118
74.52549 119
74.5456 128
74.56571 107
74.58583 114
74.60594 94
74.62606 100
74.64617 105
74.66628 110
74.6864 110
74.70651 97
74.72662 128
74.74674 113
74.76685 108
74.78697 103
74.80708 121
74.82719 92
74.84731 127
74.86742 107
74.88753 127
74.90765 137
74.92776 103
74.94787 127
74.96799 117
74.9881 104
75.00822 114
